Time	Frequency
-0.5000469757500028	0.4145462045224451
-0.4999859405937528	0.41005098174079974
-0.4999249054375028	0.4053598038717095
-0.4998638702812528	0.40047849163559823
-0.4998028351250028	0.39540745969156704
-0.4997417999687528	0.3901485623482287
-0.4996807648125028	0.38470697671623033
-0.4996197296562528	0.3790811706040221
-0.4995586945000028	0.37327852980992493
-0.4994976593437528	0.3672974428582317
-0.4994366241875028	0.3611436235304617
-0.4993755890312528	0.35481907345205893
-0.4993145538750028	0.3483254995569724
-0.4992535187187528	0.34166921976906167
-0.4991924835625028	0.3348488683327081
-0.4991314484062528	0.3278723235388746
-0.4990704132500028	0.3207392165925425
-0.4990093780937528	0.31345506370110776
-0.4989483429375028	0.30602323164685125
-0.4988873077812528	0.2984450632099123
-0.4988262726250028	0.2907278036678468
-0.4987652374687528	0.2828707416933776
-0.4987042023125028	0.27488202861881117
-0.4986431671562528	0.2667622135430274
-0.4985821320000028	0.2585164397458938
-0.4985210968437528	0.25014953868290024
-0.4984600616875028	0.24166272836510655
-0.4983990265312528	0.23306377679558535
-0.4983379913750028	0.22435246251879146
-0.4982769562187528	0.21553707725927354
-0.4982159210625028	0.20661941212417306
-0.4981548859062528	0.19760403700802162
-0.4980938507500028	0.1884965729436372
-0.4980328155937528	0.17929843793459532
-0.4979717804375028	0.1700180349825355
-0.4979107452812528	0.16065566020893113
-0.4978497101250028	0.15121938597372891
-0.4977886749687528	0.14171157522051508
-0.4977276398125028	0.13213648322695956
-0.4976666046562528	0.12250106530741098
-0.4976055695000028	0.11280657333434238
-0.4975445343437528	0.10306153354412836
-0.4974834991875028	0.09326678884174457
-0.4974224640312528	0.08342979112304541
-0.4973614288750028	0.07355401490308652
-0.4973003937187528	0.06364361049035355
-0.4972393585625028	0.053705627709705626
-0.4971783234062528	0.04374142135005227
-0.4971172882500028	0.033759879993693766
-0.4970562530937528	0.023762016416084115
-0.4969952179375028	0.013754940813059868
-0.4969341827812528	0.0037427003150386755
-0.4968731476250028	-0.006270941684489784
-0.4968121124687528	-0.01627826317909279
-0.4967510773125028	-0.026278327741710156
-0.4966900421562528	-0.03626237207948075
-0.4966290070000028	-0.046228730964601276
-0.4965679718437528	-0.056170819140698124
-0.4965069366875028	-0.06608424945918734
-0.4964459015312528	-0.0759658054538883
-0.4963848663750028	-0.08580736891875737
-0.4963238312187528	-0.09560818885535222
-0.4962627960625028	-0.10535977293640404
-0.4962017609062528	-0.11506013246331676
-0.4961407257500028	-0.12470337907941602
-0.4960796905937528	-0.13428461168427097
-0.4960186554375028	-0.14380117044579674
-0.4959576202812528	-0.15324511007249766
-0.4958965851250028	-0.16261576711439218
-0.4958355499687528	-0.17190498938075402
-0.4957745148125028	-0.18111065373813667
-0.4957134796562528	-0.19022733070301456
-0.4956524445000028	-0.1992501788320152
-0.4955914093437528	-0.20817733978926473
-0.4955303741875028	-0.21700063260268718
-0.4954693390312528	-0.225719651755605
-0.4954083038750028	-0.23432669668383774
-0.4953472687187528	-0.24281992632910315
-0.4952862335625028	-0.2511947306129762
-0.4952251984062528	-0.25944576941844655
-0.4951641632500028	-0.26757206264138156
-0.4951031280937528	-0.27556560952100256
-0.4950420929375028	-0.28342644187168275
-0.4949810577812528	-0.291147458984008
-0.4949200226250028	-0.29872690242807437
-0.4948589874687528	-0.30616114780186376
-0.4947979523125028	-0.3134444836344895
-0.4947369171562528	-0.320576934168619
-0.4946758820000028	-0.32755085826289077
-0.4946148468437528	-0.3343667668178568
-0.4945538116875028	-0.34101834611681875
-0.4944927765312528	-0.347503660156258
-0.4944317413750028	-0.3538202319407986
-0.4943707062187528	-0.35996239935831664
-0.4943096710625028	-0.36593117399831726
-0.4942486359062528	-0.37171926749322215
-0.4941876007500028	-0.37732771459706815
-0.4941265655937528	-0.38275104943741944
-0.4940655304375028	-0.38798720604404024
-0.4940044952812528	-0.3930352242334316
-0.4939434601250028	-0.39788945191344416
-0.4938824249687528	-0.4025517911459286
-0.4938213898125028	-0.4070153437481658
-0.4937603546562528	-0.41128166502622543
-0.4936993195000028	-0.4153466761755677
-0.4936382843437528	-0.4192080957781334
-0.4935772491875028	-0.4228663410522799
-0.4935162140312528	-0.42631573052157457
-0.4934551788750028	-0.42955920498182726
-0.4933941437187528	-0.4325907199336798
-0.4933331085625028	-0.4354119587045167
-0.4932720734062528	-0.43802027579758646
-0.4932110382500028	-0.44041337574108386
-0.4931500030937528	-0.44259311303231474
-0.4930889679375028	-0.4445538794011142
-0.4930279327812528	-0.44629951181193744
-0.4929668976250028	-0.4478249501788999
-0.4929058624687528	-0.44913203095807647
-0.4928448273125028	-0.45021972934064913
-0.4927837921562528	-0.4510854954863274
-0.4927227570000028	-0.4517326704158303
-0.4926617218437528	-0.45215601102546893
-0.4926006866875028	-0.45236007715941196
-0.4925396515312528	-0.45234103546121607
-0.4924786163750028	-0.4521006019427291
-0.4924175812187528	-0.45163946715340303
-0.4923565460625028	-0.4509549540621571
-0.4922955109062528	-0.4500517718867052
-0.4922344757500028	-0.4489252535738967
-0.4921734405937528	-0.44758044639177436
-0.4921124054375028	-0.44601494456375934
-0.4920513702812528	-0.444230225235975
-0.4919903351250028	-0.44222871358049676
-0.4919292999687528	-0.44000772117277
-0.4918682648125028	-0.4375731297215214
-0.4918072296562528	-0.4349210648211665
-0.4917461945000028	-0.4320567983040739
-0.4916851593437528	-0.4289794656918739
-0.4916241241875028	-0.4256903237908158
-0.4915630890312528	-0.4221935314832315
-0.4915020538750028	-0.41848640846756807
-0.4914410187187528	-0.41457572404921617
-0.4913799835625028	-0.4104586277500318
-0.4913189484062528	-0.4061403871926167
-0.4912579132500028	-0.4016219301348961
-0.4911968780937528	-0.3969042146764337
-0.4911358429375028	-0.3919927360960009
-0.4910748077812528	-0.38688515210950797
-0.4910137726250028	-0.38158892537491
-0.4909527374687528	-0.3761023190457512
-0.4908917023125028	-0.3704304740973508
-0.4908306671562528	-0.36457592947443307
-0.4907696320000028	-0.3585393560363564
-0.4907085968437528	-0.35232771486299463
-0.4906475616875028	-0.34593906943065
-0.4905865265312528	-0.33938100066488547
-0.4905254913750028	-0.33265312205399256
-0.4904644562187528	-0.32576036358630733
-0.4904034210625028	-0.3187068581739687
-0.4903423859062528	-0.3114931177981694
-0.4902813507500028	-0.30412694204781177
-0.4902203155937528	-0.29660705774959045
-0.4901592804375028	-0.288941269260613
-0.4900982452812528	-0.2811304136196687
-0.4900372101250028	-0.2731789917316101
-0.4899761749687528	-0.2650924588136482
-0.4899151398125028	-0.2568713301117396
-0.4898541046562528	-0.2485242603154795
-0.4897930695000028	-0.2400505221625618
-0.4897320343437528	-0.23145777604856638
-0.4896709991875028	-0.22274831894833141
-0.4896099640312528	-0.21392611492307848
-0.4895489288750028	-0.2049976700962151
-0.4894878937187528	-0.19596356446215654
-0.4894268585625028	-0.18683285645107997
-0.4893658234062528	-0.1776057209930357
-0.4893047882500028	-0.16828958257707435
-0.4892437530937528	-0.15888780586022344
-0.4891827179375028	-0.14940384777471444
-0.4891216827812528	-0.1398450699429863
-0.4890606476250028	-0.1302123175930708
-0.4889996124687528	-0.1205147694919059
-0.4889385773125028	-0.11075326867392746
-0.4888775421562528	-0.10093490424369826
-0.4888165070000028	-0.09106397725281383
-0.4887554718437528	-0.08114365845399392
-0.4886944366875028	-0.07118202690277273
-0.4886334015312528	-0.06117988623391319
-0.4885723663750028	-0.05114622352127076
-0.4885113312187528	-0.04108258116464108
-0.4884502960625028	-0.030995751485971758
-0.4883892609062528	-0.02089100641487809
-0.4883282257500028	-0.010771007485231309
-0.4882671905937528	-0.0006439445507814046
-0.4882061554375028	0.009489271228490116
-0.4881451202812528	0.019619633047323927
-0.4880840851250028	0.029744853674175824
-0.4880230499687528	0.03985891724409969
-0.4879620148125028	0.049956258544102676
-0.4879009796562528	0.0600344183316376
-0.4878399445000028	0.07008479468071982
-0.4877789093437528	0.08010638043677963
-0.4877178741875028	0.09009067168162466
-0.4876568390312528	0.1000352360477131
-0.4875958038750028	0.1099345204313572
-0.4875347687187528	0.11978241200068798
-0.4874737335625028	0.12957700392300578
-0.4874126984062528	0.1393095039514167
-0.4873516632500028	0.14897904719812807
-0.4872906280937528	0.1585778398012988
-0.4872295929375028	0.1681029384016729
-0.4871685577812528	0.17754946883634595
-0.4871075226250028	0.18691109222860228
-0.4870464874687528	0.19618638369366
-0.4869854523125028	0.20536695891136303
-0.4869244171562528	0.21445197128150037
-0.4868633820000028	0.2234339419241091
-0.4868023468437528	0.23230993876982498
-0.4867413116875028	0.24107598475060768
-0.4866802765312528	0.24972558969893824
-0.4866192413750028	0.2582578779145391
-0.4865582062187528	0.2666647225315406
-0.4864971710625028	0.2749455664898303
-0.4864361359062528	0.2830935874648332
-0.4863751007500028	0.2911059102491649
-0.4863140655937528	0.2989793654451587
-0.4862530304375028	0.3067073538786175
-0.4861919952812528	0.314289941865937
-0.4861309601250028	0.3217192346064161
-0.4860699249687528	0.32899500685721833
-0.4860088898125028	0.33611131435409713
-0.4859478546562528	0.34306506463836145
-0.4858868195000028	0.3498543408013568
-0.4858257843437528	0.3564727878553079
-0.4857647491875028	0.36292115202040187
-0.4857037140312528	0.3691918420441586
-0.4856426788750028	0.37528496390523675
-0.4855816437187528	0.38119562352375114
-0.4855206085625028	0.3869208827623606
-0.4854595734062528	0.39246015922137056
-0.4853985382500028	0.3978069741934764
-0.4853375030937528	0.4029628294881582
-0.4852764679375028	0.40792083316563926
-0.4852154327812528	0.41268154264635004
-0.4851543976250028	0.41724138200332095
-0.4850933624687528	0.4215972640491054
-0.4850323273125028	0.4257497547404471
-0.4849712921562528	0.4296925550898428
-0.4849102570000028	0.43342824101271316
-0.4848492218437528	0.4369507442236611
-0.4847881866875028	0.44026081411683
-0.4847271515312528	0.443356278718113
-0.4846661163750028	0.4462339256170454
-0.4846050812187528	0.4488957882807259
-0.4845440460625028	0.4513357467819783
-0.4844830109062528	0.45355718227165526
-0.4844219757500028	0.45555524514998263
-0.4843609405937528	0.4573307501108386
-0.4842999054375028	0.458883067604945
-0.4842388702812528	0.46020884240135884
-0.4841778351250028	0.46131147780945764
-0.4841167999687528	0.46218538655490665
-0.4840557648125028	0.46283462837530753
-0.4839947296562528	0.4632556063104604
-0.4839336945000028	0.4634491092345002
-0.4838726593437528	0.4634161822361643
-0.4838116241875028	0.46315337034100695
-0.4837505890312528	0.46266543863666665
-0.4836895538750028	0.4619474748182309
-0.4836285187187528	0.4610039891908766
-0.4835674835625028	0.4598328729675419
-0.4835064484062528	0.4584347209655784
-0.4834454132500028	0.45681234049868596
-0.4833843780937528	0.4549622946668596
-0.4833233429375028	0.45289047666455784
-0.4832623077812528	0.4505928681296887
-0.4832012726250028	0.4480742211425215
-0.4831402374687528	0.4453341323857233
-0.4830792023125028	0.44237289984543715
-0.4830181671562528	0.4391949646280196
-0.4829571320000028	0.4357970614485513
-0.4828960968437528	0.43218604006481776
-0.4828350616875028	0.4283590269744985
-0.4827740265312528	0.42432067997497513
-0.4827129913750028	0.42007238094521404
-0.4826519562187528	0.4156141661818536
-0.4825909210625028	0.41095199196003607
-0.4825298859062528	0.4060830334215953
-0.4824688507500028	0.401014631518136
-0.4824078155937528	0.3957451473189599
-0.4823467804375028	0.39027920452404163
-0.4822857452812528	0.38461993030268304
-0.4822247101250028	0.3787670250504467
-0.4821636749687528	0.3727277798086365
-0.4821026398125028	0.366499927557662
-0.4820416046562528	0.36009119644006393
-0.4819805695000028	0.3535014219633034
-0.4819195343437528	0.3467345990233419
-0.4818584991875028	0.3397954474909826
-0.4817974640312528	0.33268386685064
-0.4817364288750028	0.32540830913569985
-0.4816753937187528	0.31796700443862547
-0.4816143585625028	0.31036749050499973
-0.4815533234062528	0.30261116423845136
-0.4814922882500028	0.2947017560426086
-0.4814312530937528	0.28664560057516597
-0.4813702179375028	0.27844237234805524
-0.4813091827812528	0.27010094534757056
-0.4812481476250028	0.26162075098067594
-0.4811871124687528	0.2530092721603526
-0.4811260773125028	0.24426910455409614
-0.4810650421562528	0.23540342945397116
-0.4810040070000028	0.22641998461889828
-0.4809429718437528	0.21731873459976403
-0.4808819366875028	0.20810859446105148
-0.4808209015312528	0.19878973261358038
-0.4807598663750028	0.18936963759915257
-0.4806988312187528	0.17985247386024775
-0.4806377960625028	0.17024065154024892
-0.4805767609062528	0.16054263128623614
-0.4805157257500028	0.15075883374182825
-0.4804546905937528	0.14089839067406232
-0.4803936554375028	0.1309623534758237
-0.4803326202812528	0.12095741983289603
-0.4802715851250028	0.11088897845849921
-0.4802105499687528	0.10075947057560605
-0.4801495148125028	0.09057776849929679
-0.4800884796562528	0.08034429500705421
-0.4800274445000028	0.0700681567441498
-0.4799664093437528	0.05975140223362326
-0.4799053741875028	0.04940016707946024
-0.4798443390312528	0.03902077905669536
-0.4797833038750028	0.028615279940209168
-0.4797222687187528	0.018192724714502104
-0.4796612335625028	0.0077538455553149725
-0.4796001984062528	-0.002692497262974115
-0.4795391632500028	-0.013143361380437696
-0.4794781280937528	-0.023593198111136866
-0.4794170929375028	-0.03403523021334734
-0.4793560577812528	-0.04446784201690167
-0.4792950226250028	-0.05488179835450033
-0.4792339874687528	-0.06527600703981759
-0.4791729523125028	-0.0756420244852043
-0.4791119171562528	-0.08597629857132245
-0.4790508820000028	-0.09627419125878581
-0.4789898468437528	-0.1065285674935939
-0.4789288116875028	-0.11673781024738426
-0.4788677765312528	-0.1268928537977306
-0.4788067413750028	-0.13699257975463017
-0.4787457062187528	-0.14702906716730554
-0.4786846710625028	-0.15699841255290387
-0.4786236359062528	-0.16689662508615172
-0.4785626007500028	-0.17671633031156525
-0.4785015655937528	-0.18645651540152422
-0.4784405304375028	-0.19610818587518944
-0.4783794952812528	-0.20566985360647877
-0.4783184601250028	-0.2151345783344598
-0.4782574249687528	-0.2244984859961142
-0.4781963898125028	-0.23375837634486313
-0.4781353546562528	-0.24290658826249104
-0.4780743195000028	-0.25194224820209193
-0.4780132843437528	-0.26085690328252414
-0.4779522491875028	-0.26964944756923676
-0.4778912140312528	-0.2783138537439283
-0.4778301788750028	-0.28684589607215144
-0.4777691437187528	-0.29524299993546244
-0.4777081085625028	-0.3034977141516981
-0.4776470734062528	-0.31160986643343347
-0.4775860382500028	-0.31957165313689334
-0.4775250030937528	-0.3273820286255042
-0.4774639679375028	-0.3350356306022454
-0.4774029327812528	-0.34252834062845605
-0.4773418976250028	-0.3498586276995763
-0.4772808624687528	-0.3570192548527056
-0.4772198273125028	-0.3640107076429851
-0.4771587921562528	-0.3708256671432845
-0.4770977570000028	-0.3774634757277454
-0.4770367218437528	-0.38391984881523483
-0.4769756866875028	-0.3901905437005022
-0.4769146515312528	-0.39627516844311805
-0.4768536163750028	-0.40216679446645937
-0.4767925812187528	-0.407866604010283
-0.4767315460625028	-0.4133680526519126
-0.4766705109062528	-0.4186708249326591
-0.4766094757500028	-0.42377176123963894
-0.4765484405937528	-0.4286666418143435
-0.4764874054375028	-0.4333563327981289
-0.4764263702812528	-0.4378341765129199
-0.4763653351250028	-0.44210221035672975
-0.4763042999687528	-0.4461547906582638
-0.4762432648125028	-0.4499917369372073
-0.4761822296562528	-0.4536113759244364
-0.4761211945000028	-0.45700951556501757
-0.4760601593437528	-0.4601882152039277
-0.4759991241875028	-0.4631412624906184
-0.4759380890312528	-0.46587150958436646
-0.4758770538750028	-0.46837443171461235
-0.4758160187187528	-0.47064992845281306
-0.4757549835625028	-0.4726978324663187
-0.4756939484062528	-0.47451400807834343
-0.4756329132500028	-0.47610191573782795
-0.4755718780937528	-0.477455846826026
-0.4755108429375028	-0.4785792280064213
-0.4754498077812528	-0.47946891923649104
-0.4753887726250028	-0.4801247794367307
-0.4753277374687528	-0.4805483046543088
-0.4752667023125028	-0.4807354340830619
-0.4752056671562528	-0.48069087554399315
-0.4751446320000028	-0.48040972922705827
-0.4750835968437528	-0.47989584226379384
-0.4750225616875028	-0.4791475701674814
-0.4749615265312528	-0.4781646789309811
-0.4749004913750028	-0.47695037707718096
-0.4748394562187528	-0.4755007385881379
-0.4747784210625028	-0.4738215782736644
-0.4747173859062528	-0.4719089291408034
-0.4746563507500028	-0.46976684745411773
-0.4745953155937528	-0.46739544405153766
-0.4745342804375028	-0.4647943383521762
-0.4744732452812528	-0.461968391104574
-0.4744122101250028	-0.4589138226014173
-0.4743511749687528	-0.4556373516264561
-0.4742901398125028	-0.45213632816723803
-0.4742291046562528	-0.44841475404551845
-0.4741680695000028	-0.44447452176570446
-0.4741070343437528	-0.44031499289827425
-0.4740459991875028	-0.4359425717567542
-0.4739849640312528	-0.4313539801330517
-0.4739239288750028	-0.42655646891525517
-0.4738628937187528	-0.42154880608897344
-0.4738018585625028	-0.41633481404169687
-0.4737408234062528	-0.4109181315440872
-0.4736797882500028	-0.40529787582215143
-0.4736187530937528	-0.39948190403043843
-0.4735577179375028	-0.3934676177037551
-0.4734966827812528	-0.3872623953090434
-0.4734356476250028	-0.38086662414522726
-0.4733746124687528	-0.374283672104734
-0.4733135773125028	-0.367518926653913
-0.4732525421562528	-0.3605716493859866
-0.4731915070000028	-0.35345049785862614
-0.4731304718437528	-0.346153572521298
-0.4730694366875028	-0.3386883367092599
-0.4730084015312528	-0.3310567894110547
-0.4729473663750028	-0.32326201217340594
-0.4728863312187528	-0.31531107117346363
-0.4728252960625028	-0.3072029006778991
-0.4727642609062528	-0.29894659360098447
-0.4727032257500028	-0.2905415227340234
-0.4726421905937528	-0.281995172007901
-0.4725811554375028	-0.2733111654123233
-0.4725201202812528	-0.26449169603374634
-0.4724590851250028	-0.25554496791747777
-0.4723980499687528	-0.24647031260944377
-0.4723370148125028	-0.23727731229844815
-0.4722759796562528	-0.2279666133327913
-0.4722149445000028	-0.218544817575063
-0.4721539093437528	-0.2090169489316143
-0.4720928741875028	-0.1993850430387149
-0.4720318390312528	-0.18965807430427406
-0.4719708038750028	-0.17983580051760176
-0.4719097687187528	-0.1699279461061026
-0.4718487335625028	-0.15993618047318156
-0.4717876984062528	-0.14986625527844033
-0.4717266632500028	-0.13972440826043037
-0.4716656280937528	-0.12951264862265618
-0.4716045929375028	-0.11924072222608706
-0.4715435577812528	-0.10890862131278504
-0.4714825226250028	-0.09852548411132005
-0.4714214874687528	-0.0880940222352284
-0.4713604523125028	-0.077619578554845
-0.4712994171562528	-0.06710968189338333
-0.4712383820000028	-0.056565820021761457
-0.4711773468437528	-0.04599763786243721
-0.4711163116875028	-0.03540583692472305
-0.4710552765312528	-0.02479918665095243
-0.4709942413750028	-0.014181384657715726
-0.4709332062187528	-0.003557040125595636
-0.4708721710625028	0.0070659533241851594
-0.4708111359062528	0.01768617912115349
-0.4707501007500028	0.028293739345277225
-0.4706890655937528	0.03888754558813675
-0.4706280304375028	0.049459611203269145
-0.4705669952812528	0.06000567803746941
-0.4705059601250028	0.07052174179786906
-0.4704449249687528	0.08099917901775044
-0.4703838898125028	0.09143682920770967
-0.4703228546562528	0.10182525702453817
-0.4702618195000028	0.11216310335866837
-0.4702007843437528	0.1224431649714386
-0.4701397491875028	0.13266032914059622
-0.4700787140312528	0.14281124852993085
-0.4700176788750028	0.15288738698294196
-0.4699566437187528	0.1628877897631636
-0.4698956085625028	0.17280359134993764
-0.4698345734062528	0.18263304374575998
-0.4697735382500028	0.19236960991060628
