Time	Frequency
-0.5000315233124866	-0.4369001255486947
-0.49997048815623657	-0.4240658630051099
-0.49990945299998657	-0.4108018242170252
-0.49984841784373657	-0.3971811415756153
-0.49978738268748657	-0.38321476070780525
-0.49972634753123657	-0.3688562084440863
-0.49966531237498657	-0.3541744821167531
-0.49960427721873657	-0.3391921415847119
-0.49954324206248657	-0.32385917676093456
-0.49948220690623657	-0.30823849418312366
-0.49942117174998657	-0.2923641154676392
-0.49936013659373657	-0.27618469912976756
-0.49929910143748657	-0.25975565358883224
-0.49923806628123657	-0.2431211338033608
-0.49917703112498657	-0.2262302729545402
-0.49911599596873657	-0.2091308815235038
-0.49905496081248657	-0.19187599705468353
-0.49899392565623657	-0.17441513370525139
-0.49893289049998657	-0.1567873491244712
-0.49887185534373657	-0.13905504093355714
-0.49881082018748657	-0.12117069534714268
-0.49874978503123657	-0.10316333688511009
-0.49868874987498657	-0.08510254703505742
-0.49862771471873657	-0.0669449258087517
-0.49856667956248657	-0.04870866617850357
-0.49850564440623657	-0.03046940653997091
-0.49844460924998657	-0.012190903445868385
-0.49838357409373657	0.006119318486253039
-0.49832253893748657	0.024383699403942846
-0.49826150378123657	0.04263135032348157
-0.49820046862498657	0.06086294643230098
-0.49813943346873657	0.07899880812911257
-0.49807839831248657	0.09706065771041482
-0.49801736315623657	0.11505839231963953
-0.49795632799998657	0.13291304735920859
-0.49789529284373657	0.15063891351839917
-0.49783425768748657	0.1682534927056555
-0.49777322253123657	0.18567786165170358
-0.49771218737498657	0.2029174089033351
-0.49765115221873657	0.21999774528031538
-0.49759011706248657	0.2368438490310143
-0.49752908190623657	0.25345307205808315
-0.49746804674998657	0.26985689144299124
-0.49740701159373657	0.2859837561404678
-0.49734597643748657	0.30182264219696614
-0.49728494128123657	0.3174107051360196
-0.49722390612498657	0.33268197112242515
-0.49716287096873657	0.34761702702175284
-0.49710183581248657	0.36225709105757137
-0.49704080065623657	0.3765438435447773
-0.49697976549998657	0.3904506961654568
-0.49691873034373657	0.4040203638474164
-0.49685769518748657	0.4172012603370928
-0.49679666003123657	0.4299609226458724
-0.49673562487498657	0.4423450319721697
-0.49667458971873657	0.4543100174792274
-0.49661355456248657	0.4658164187944646
-0.49655251940623657	0.4769104300796985
-0.49649148424998657	0.4875571930559951
-0.49643044909373657	0.49771226433951327
-0.49636941393748657	0.5074223520552524
-0.49630837878123657	0.5166618068341613
-0.49624734362498657	0.5253812825207252
-0.49618630846873657	0.5336258072523374
-0.49612527331248657	0.5413789661181083
-0.49606423815623657	0.5485884194384744
-0.49600320299998657	0.5552975250795367
-0.49594216784373657	0.5614992959422945
-0.49588113268748657	0.5671388335690729
-0.49582009753123657	0.5722563543209204
-0.49575906237498657	0.5768539284458626
-0.49569802721873657	0.5808756387667616
-0.49563699206248657	0.5843586690046553
-0.49557595690623657	0.587313809439554
-0.49551492174998657	0.5896842671249037
-0.49545388659373657	0.5915032736086951
-0.49539285143748657	0.5927906726229454
-0.49533181628123657	0.5934904140667397
-0.49527078112498657	0.5936309580779302
-0.49520974596873657	0.5932401370460421
-0.49514871081248657	0.5922635375414752
-0.49508767565623657	0.5907248353853779
-0.49502664049998657	0.5886596075146757
-0.49496560534373657	0.5860156061817704
-0.49490457018748657	0.5828110697266057
-0.49484353503123657	0.5790892669631593
-0.49478249987498657	0.5748012785330996
-0.49472146471873657	0.5699590889111605
-0.49466042956248657	0.5646126106323979
-0.49459939440623657	0.5587174294793537
-0.49453835924998657	0.5522794184447086
-0.49447732409373657	0.5453542568581023
-0.49441628893748657	0.5379029038450402
-0.49435525378123657	0.5299250500622816
-0.49429421862498657	0.5214808043993255
-0.49423318346873657	0.512537095536544
-0.49417214831248657	0.5030878638357154
-0.49411111315623657	0.4931969426692585
-0.49405007799998657	0.4828376276299247
-0.49398904284373657	0.4719983005421859
-0.49392800768748657	0.4607462123414854
-0.49386697253123657	0.4490612756959868
-0.49380593737498657	0.4369251564641442
-0.49374490221873657	0.42440732762860944
-0.49368386706248657	0.41149614590489897
-0.49362283190623657	0.3981677736591259
-0.49356179674998657	0.38449266179041064
-0.49350076159373657	0.37046729402751966
-0.49343972643748657	0.35606187822921576
-0.49337869128123657	0.34134646283599707
-0.49331765612498657	0.3263264132001379
-0.49325662096873657	0.3109670355935877
-0.49319558581248657	0.29533762858459206
-0.49313455065623657	0.2794530838419485
-0.49307351549998657	0.26327316286048813
-0.49301248034373657	0.24686417718373915
-0.49295144518748657	0.23025136600789023
-0.49289041003123657	0.2133901744082921
-0.49282937487498657	0.19634229458620517
-0.49276833971873657	0.17914351604298911
-0.49270730456248657	0.16174657191258057
-0.49264626940623657	0.14420693378492605
-0.49258523424998657	0.12657032792204706
-0.49252419909373657	0.10878834477997723
-0.49246316393748657	0.09090858874539615
-0.49240212878123657	0.07298533582632626
-0.49234109362498657	0.05497072628138487
-0.49228005846873657	0.03690466921230413
-0.49221902331248657	0.018849841746470017
-0.49215798815623657	0.0007591802081700919
-0.49209695299998657	-0.01733736259396734
-0.49203591784373657	-0.03536920630821605
-0.49197488268748657	-0.053380084838363165
-0.49191384753123657	-0.07135042636482257
-0.49185281237498657	-0.08920331285841367
-0.49179177721873657	-0.10697812574741067
-0.49173074206248657	-0.12466661291666348
-0.49166970690623657	-0.14218740393092982
-0.49160867174998657	-0.15957346841314576
-0.49154763659373657	-0.17682703033404853
-0.49148660143748657	-0.1938638359211606
-0.49142556628123657	-0.21070973584282787
-0.49136453112498657	-0.227378060099064
-0.49130349596873657	-0.2437840077017391
-0.49124246081248657	-0.25994519206346445
-0.49118142565623657	-0.2758846548753611
-0.49112039049998657	-0.29151775297366844
-0.49105935534373657	-0.3068529926246298
-0.49099832018748657	-0.32192374593756906
-0.49093728503123657	-0.33664868023632033
-0.49087624987498657	-0.3510261471847891
-0.49081521471873657	-0.3650975933114116
-0.49075417956248657	-0.37878659910888435
-0.49069314440623657	-0.3920813702403828
-0.49063210924998657	-0.4050302627087433
-0.49057107409373657	-0.41756405126793483
-0.49051003893748657	-0.4296613160693517
-0.49044900378123657	-0.4413750387980179
-0.49038796862498657	-0.45264387220473545
-0.49032693346873657	-0.4634378411840263
-0.49026589831248657	-0.4738141064081054
-0.49020486315623657	-0.48372026158142883
-0.49014382799998657	-0.49311720336403947
-0.49008279284373657	-0.5020644688313646
-0.49002175768748657	-0.5105206838915864
-0.48996072253123657	-0.5184389079667311
-0.48989968737498657	-0.525878781169161
-0.48983865221873657	-0.5328104205220353
-0.48977761706248657	-0.539180518008582
-0.48971658190623657	-0.5450473330345055
-0.48965554674998657	-0.5503929426728473
-0.48959451159373657	-0.5551591202620847
-0.48953347643748657	-0.5594009445376298
-0.48947244128123657	-0.5631123721598456
-0.48941140612498657	-0.5662321793269086
-0.48935037096873657	-0.5688112012358255
-0.48928933581248657	-0.5708547928399468
-0.48922830065623657	-0.5723001286821847
-0.48916726549998657	-0.5731928375701364
-0.48910623034373657	-0.5735491413211771
-0.48904519518748657	-0.5733060386738859
-0.48898416003123657	-0.5725033702035784
-0.48892312487498657	-0.5711677636778746
-0.48886208971873657	-0.5692372815632039
-0.48880105456248657	-0.5667449639745141
-0.48874001940623657	-0.5637269761089355
-0.48867898424998657	-0.5601242529557802
-0.48861794909373657	-0.5559628412361799
-0.48855691393748657	-0.5512871438436365
-0.48849587878123657	-0.5460419241080008
-0.48843484362498657	-0.5402460944571651
-0.48837380846873657	-0.5339514847937843
-0.48831277331248657	-0.5271079664771856
-0.48825173815623657	-0.5197269107038998
-0.48819070299998657	-0.5118660083344143
-0.48812966784373657	-0.5034816418800342
-0.48806863268748657	-0.4945784112559717
-0.48800759753123657	-0.48521846850430045
-0.48794656237498657	-0.47536456495482815
-0.48788552721873657	-0.46501451935961746
-0.48782449206248657	-0.45423477906015797
-0.48776345690623657	-0.4429958067926
-0.48770242174998657	-0.43128840372739913
-0.48764138659373657	-0.4191810497910963
-0.48758035143748657	-0.4066523325443343
-0.48751931628123657	-0.3936875158590354
-0.48745828112498657	-0.3803565175534633
-0.48739724596873657	-0.3666460897155533
-0.48733621081248657	-0.35253574533493753
-0.48727517565623657	-0.338095460083868
-0.48721414049998657	-0.32332097443327185
-0.48715310534373657	-0.30818678714441067
-0.48709207018748657	-0.29276117697218645
-0.48703103503123657	-0.27704889653071146
-0.48696999987498657	-0.26102135474413685
-0.48690896471873657	-0.24474481634781853
-0.48684792956248657	-0.22823144328066006
-0.48678689440623657	-0.211448478138207
-0.48672585924998657	-0.19445988356214888
-0.48666482409373657	-0.1772872990127259
-0.48660378893748657	-0.1598953015643458
-0.48654275378123657	-0.1423428351013175
-0.48648171862498657	-0.12465910354670068
-0.48642068346873657	-0.10680771323081842
-0.48635964831248657	-0.08884340686301014
-0.48629861315623657	-0.07080253683592033
-0.48623757799998657	-0.05264700686154244
-0.48617654284373657	-0.03442615782637437
-0.48611550768748657	-0.01618415889775273
-0.48605447253123657	0.0021177234234414453
-0.48599343737498657	0.02043672272332693
-0.48593240221873657	0.03872135574339997
-0.48587136706248657	0.057009885082095105
-0.48581033190623657	0.07526727403175203
-0.48574929674998657	0.09343626131133917
-0.48568826159373657	0.11155301607352926
-0.48562722643748657	0.1295893647597879
-0.48556619128123657	0.1474833448970848
-0.48550515612498657	0.1652696635267287
-0.48544412096873657	0.18292809431469786
-0.48538308581248657	0.20039203718453572
-0.48532205065623657	0.21769295934906607
-0.48526101549998657	0.23481857916474852
-0.48519998034373657	0.251699009798751
-0.48513894518748657	0.26836277823268145
-0.48507791003123657	0.2848060434195205
-0.48501687487498657	0.3009556852122808
-0.48495583971873657	0.3168358589997582
-0.48489480456248657	0.33245180743761155
-0.48483376940623657	0.3477292070718632
-0.48477273424998657	0.36268721020847444
-0.48471169909373657	0.37733917842505793
-0.48465066393748657	0.3916095115872907
-0.48458962878123657	0.4055119759346996
-0.48452859362498657	0.41906987729601736
-0.48446755846873657	0.4322083661537227
-0.48440652331248657	0.444933819461985
-0.48434548815623657	0.4572779290911045
-0.48428445299998657	0.4691679150067102
-0.48422341784373657	0.48060289811122425
-0.48416238268748657	0.491623305842634
-0.48410134753123657	0.5021598394154766
-0.48404031237498657	0.512202965126454
-0.48397927721873657	0.5218007127987783
-0.48391824206248657	0.5308895366863977
-0.48385720690623657	0.5394514845297119
-0.48379617174998657	0.5475406636884648
-0.48373513659373657	0.5551003088485488
-0.48367410143748657	0.5621039832652301
-0.48361306628123657	0.5686108423707719
-0.48355203112498657	0.5745726236470728
-0.48349099596873657	0.5799546968575726
-0.48342996081248657	0.5848198449694393
-0.48336892565623657	0.5891293052139185
-0.48330789049998657	0.5928401666882437
-0.48324685534373657	0.5960174831281533
-0.48318582018748657	0.5986338502109164
-0.48312478503123657	0.6006388344721376
-0.48306374987498657	0.6020975454883942
-0.48300271471873657	0.6029946999299672
-0.48294167956248657	0.6032735567985841
-0.48288064440623657	0.6029975262798666
-0.48281960924998657	0.6021640813310442
-0.48275857409373657	0.6007116183762795
-0.48269753893748657	0.5986999514657887
-0.48263650378123657	0.5961394063528654
-0.48257546862498657	0.5929652729384711
-0.48251443346873657	0.5892323273737347
-0.48245339831248657	0.5849633802870304
-0.48239236315623657	0.5800919825303196
-0.48233132799998657	0.5746666925687443
-0.48227029284373657	0.5687228881038585
-0.48220925768748657	0.5621939877678491
-0.48214822253123657	0.5551203365492436
-0.48208718737498657	0.5475490428647766
-0.48202615221873657	0.5394160852130319
-0.48196511706248657	0.5307529937464086
-0.48190408190623657	0.5216168860866534
-0.48184304674998657	0.5119474616712096
-0.48178201159373657	0.5017666970030994
-0.48172097643748657	0.49114098139026535
-0.48165994128123657	0.4800163652046554
-0.48159890612498657	0.4684046751918537
-0.48153787096873657	0.45637840906840826
-0.48147683581248657	0.4438910665198625
-0.48141580065623657	0.43094609691383373
-0.48135476549998657	0.417621548136026
-0.48129373034373657	0.4038780832408079
-0.48123269518748657	0.3897091897781317
-0.48117166003123657	0.3751976691965144
-0.48111062487498657	0.36031464930927487
-0.48104958971873657	0.34504384269586785
-0.48098855456248657	0.32946885830631917
-0.48092751940623657	0.3135720418471757
-0.48086648424998657	0.2973296687996061
-0.48080544909373657	0.28082434220062824
-0.48074441393748657	0.2640490189621291
-0.48068337878123657	0.24697368283562632
-0.48062234362498657	0.22967919455705232
-0.48056130846873657	0.21216934345033267
-0.48050027331248657	0.19440797643734964
-0.48043923815623657	0.1764718187075387
-0.48037820299998657	0.15837596628647688
-0.48031716784373657	0.1400810019525773
-0.48025613268748657	0.12165850866094167
-0.48019509753123657	0.10313292015889029
-0.48013406237498657	0.08446142353911983
-0.48007302721873657	0.06570971807762796
-0.48001199206248657	0.04691261390402883
-0.47995095690623657	0.028026001972069736
-0.47988992174998657	0.009107799247926873
-0.47982888659373657	-0.009798948990923107
-0.47976785143748657	-0.028738593199083715
-0.47970681628123657	-0.04766071309855832
-0.47964578112498657	-0.06651405785201225
-0.47958474596873657	-0.08534225941173994
-0.47952371081248657	-0.10410415451614434
-0.47946267565623657	-0.12274222737632097
-0.47940164049998657	-0.14129751401867288
-0.47934060534373657	-0.15973703767055994
-0.47927957018748657	-0.17799783010440048
-0.47921853503123657	-0.19611841322689386
-0.47915749987498657	-0.21407560064598571
-0.47909646471873657	-0.23180242563720027
-0.47903542956248657	-0.249332627626861
-0.47897439440623657	-0.2666512205919759
-0.47891335924998657	-0.28368898135090875
-0.47885232409373657	-0.30047624628369163
-0.47879128893748657	-0.3170067859268834
-0.47873025378123657	-0.333208924546882
-0.47866921862498657	-0.34910756068273685
-0.47860818346873657	-0.3647051312038563
-0.47854714831248657	-0.3799298906693368
-0.47848611315623657	-0.39480161645465994
-0.47842507799998657	-0.4093311043939343
-0.47836404284373657	-0.42344718317928876
-0.47830300768748657	-0.43716330397822195
-0.47824197253123657	-0.450497481467227
-0.47818093737498657	-0.46338040326260316
-0.47811990221873657	-0.4758202999706721
-0.47805886706248657	-0.48784301959274273
-0.47799783190623657	-0.499381746910538
-0.47793679674998657	-0.5104379259174222
-0.47787576159373657	-0.5210437156313097
-0.47781472643748657	-0.5311363387610132
-0.47775369128123657	-0.5407114820097395
-0.47769265612498657	-0.5498073256041716
-0.47763162096873657	-0.5583657908990198
-0.47757058581248657	-0.5663763765781024
-0.47750955065623657	-0.5738824961847995
-0.47744851549998657	-0.5808316344071998
-0.47738748034373657	-0.5872069674784447
-0.47732644518748657	-0.5930566663375516
-0.47726541003123657	-0.5983350965093439
-0.47720437487498657	-0.6030193122522902
-0.47714333971873657	-0.607160992032838
-0.47708230456248657	-0.610721823894424
-0.47702126940623657	-0.6136732484532973
-0.47696023424998657	-0.6160697284794366
-0.47689919909373657	-0.6178808456448566
-0.47683816393748657	-0.6190728381125894
-0.47677712878123657	-0.6197022355371956
-0.47671609362498657	-0.6197471671771385
-0.47665505846873657	-0.6191687048293874
-0.47659402331248657	-0.6180241958583822
-0.47653298815623657	-0.6163011616345392
-0.47647195299998657	-0.6139565328518205
-0.47641091784373657	-0.6110474244253021
-0.47634988268748657	-0.6075704723698699
-0.47628884753123657	-0.6034788966144874
-0.47622781237498657	-0.5988291177196208
-0.47616677721873657	-0.5936275357877336
-0.47610574206248657	-0.5878241773617611
-0.47604470690623657	-0.5814734956897668
-0.47598367174998657	-0.5745917502078398
-0.47592263659373657	-0.5671261538702387
-0.47586160143748657	-0.5591282291683235
-0.47580056628123657	-0.550625132950574
-0.47573953112498657	-0.5415622900818785
-0.47567849596873657	-0.5319863416548699
-0.47561746081248657	-0.5219347844358886
-0.47555642565623657	-0.5113525474882581
-0.47549539049998657	-0.5002810358171569
-0.47543435534373657	-0.48876823517065027
-0.47537332018748657	-0.4767589295041526
-0.47531228503123657	-0.4642871302661693
-0.47525124987498657	-0.451411490003222
-0.47519021471873657	-0.43807952544590645
-0.47512917956248657	-0.4243165471284238
-0.47506814440623657	-0.41018975781019845
-0.47500710924998657	-0.3956507471149417
-0.47494607409373657	-0.3807157552848695
-0.47488503893748657	-0.3654595761242052
-0.47482400378123657	-0.3498397396089416
-0.47476296862498657	-0.3338635381532457
-0.47470193346873657	-0.31761160528457283
-0.47464089831248657	-0.30104717450645446
-0.47457986315623657	-0.28416764107191606
-0.47451882799998657	-0.2670595549772916
-0.47445779284373657	-0.2496950124072557
-0.47439675768748657	-0.2320607985198566
-0.47433572253123657	-0.21424586351511182
-0.47427468737498657	-0.19623224659457017
-0.47421365221873657	-0.17799735522496163
-0.47415261706248657	-0.15963094860815522
-0.47409158190623657	-0.14112552217259552
-0.47403054674998657	-0.12244916827136354
-0.47396951159373657	-0.1036901167136815
-0.47390847643748657	-0.08485293297638255
-0.47384744128123657	-0.06589925864542591
-0.47378640612498657	-0.046913893183116506
-0.47372537096873657	-0.027911272591274013
-0.47366433581248657	-0.00884544404938791
-0.47360330065623657	0.010203046956776322
-0.47354226549998657	0.02920672241921818
-0.47348123034373657	0.04821689985612164
-0.47342019518748657	0.06716080495014126
-0.47335916003123657	0.08599906664592623
-0.47329812487498657	0.10478608975522277
-0.47323708971873657	0.12345865174776352
-0.47317605456248657	0.14196725686033015
-0.47311501940623657	0.160367770158004
-0.47305398424998657	0.17860670184422295
-0.47299294909373657	0.1966239409703682
-0.47293191393748657	0.21447469410974404
-0.47287087878123657	0.2321181254280294
-0.47280984362498657	0.2494868018807684
-0.47274880846873657	0.2666324922280651
-0.47268777331248657	0.28352540609431703
-0.47262673815623657	0.3000927264190752
-0.47256570299998657	0.3163829877436935
-0.47250466784373657	0.33237746917880456
-0.47244363268748657	0.34799816269054334
-0.47238259753123657	0.363289287130725
-0.47232156237498657	0.3782443654142725
-0.47226052721873657	0.39278146051703744
-0.47219949206248657	0.4069384647061157
-0.47213845690623657	0.4207219100434481
-0.47207742174998657	0.43404887663171743
-0.47201638659373657	0.4469486147833123
-0.47195535143748657	0.4594384355027085
-0.47189431628123657	0.47143694089889704
-0.47183328112498657	0.4829652966756558
-0.47177224596873657	0.49405105132258026
-0.47171121081248657	0.5046161273387815
-0.47165017565623657	0.5146727955268187
-0.47158914049998657	0.5242566135928147
-0.47152810534373657	0.5332941545394889
-0.47146707018748657	0.541790073488705
-0.47140603503123657	0.549787619739495
-0.47134499987498657	0.5572185030440251
-0.47128396471873657	0.5640787901794413
-0.47122292956248657	0.5704184882839122
-0.47116189440623657	0.576176692472374
-0.47110085924998657	0.581341394647901
-0.47103982409373657	0.5859675216251355
-0.47097878893748657	0.590002194758329
-0.47091775378123657	0.5934256565460274
-0.47085671862498657	0.5962964993112575
-0.47079568346873657	0.598571307444486
-0.47073464831248657	0.6002236428603002
-0.47067361315623657	0.6013139856584134
-0.47061257799998657	0.6018085425230556
-0.47055154284373657	0.6016751064374689
-0.47049050768748657	0.6009750152410254
-0.47042947253123657	0.5996845272955753
-0.47036843737498657	0.5977665004780938
-0.47030740221873657	0.5952818450726863
-0.47024636706248657	0.5922170048123357
