Time	Frequency
-0.5000489428437476	0.30152659334448084
-0.49998790768749757	0.3091750888532432
-0.49992687253124757	0.3166890755568217
-0.49986583737499757	0.3240492508028849
-0.49980480221874757	0.3312643917830912
-0.49974376706249757	0.3383258164414129
-0.49968273190624757	0.34522667289071024
-0.49962169674999757	0.3519753921798066
-0.49956066159374757	0.3585520368517904
-0.49949962643749757	0.364969090736242
-0.49943859128124757	0.3712134235032789
-0.49937755612499757	0.3772835055325487
-0.49931652096874757	0.38318443624130405
-0.49925548581249757	0.3888980484634061
-0.49919445065624757	0.3944389554579757
-0.49913341549999757	0.39979045806279506
-0.49907238034374757	0.4049562126813187
-0.49901134518749757	0.40993702687663025
-0.49895031003124757	0.41471855717572936
-0.49888927487499757	0.4193154181664911
-0.49882823971874757	0.4237086862175883
-0.49876720456249757	0.42790706714401117
-0.49870616940624757	0.43190678988403414
-0.49864513424999757	0.43569802480091624
-0.49858409909374757	0.439293796227001
-0.49852306393749757	0.44267515284759723
-0.49846202878124757	0.44585439968831847
-0.49840099362499757	0.44882347442864
-0.49833995846874757	0.45157789378914737
-0.49827892331249757	0.4541277134000517
-0.49821788815624757	0.45645551184992356
-0.49815685299999757	0.4585757215143048
-0.49809581784374757	0.4604770741988039
-0.49803478268749757	0.4621602586610441
-0.49797374753124757	0.46363160441766166
-0.49791271237499757	0.46487678168059754
-0.49785167721874757	0.465910663548203
-0.49779064206249757	0.4667200528819125
-0.49772960690624757	0.46731023993340326
-0.49766857174999757	0.4676836478621909
-0.49760753659374757	0.46782991508864785
-0.49754650143749757	0.4677629806049598
-0.49748546628124757	0.4674693085364888
-0.49742443112499757	0.46695765438083875
-0.49736339596874757	0.466226858330552
-0.49730236081249757	0.4652710454650692
-0.49724132565624757	0.464102081000507
-0.49718029049999757	0.46270744119221807
-0.49711925534374757	0.4610981688603866
-0.49705822018749757	0.45927028377019574
-0.49699718503124757	0.45722225761739943
-0.49693614987499757	0.45496326260440473
-0.49687511471874757	0.4524829531817972
-0.49681407956249757	0.44979337255285495
-0.49675304440624757	0.4468887722878645
-0.49669200924999757	0.4437714676588246
-0.49663097409374757	0.4404477087430536
-0.49656993893749757	0.436910081861762
-0.49650890378124757	0.43317040460346584
-0.49644786862499757	0.4292223454430103
-0.49638683346874757	0.42507143846368317
-0.49632579831249757	0.4207211106899752
-0.49626476315624757	0.4161671756400355
-0.49620372799999757	0.41142041620821285
-0.49614269284374757	0.4064749056325456
-0.49608165768749757	0.40133837345764856
-0.49602062253124757	0.3960120207064795
-0.49595958737499757	0.3904949522083372
-0.49589855221874757	0.384796370750604
-0.49583751706249757	0.37891153987462617
-0.49577648190624757	0.3728492067197365
-0.49571544674999757	0.36660928252206976
-0.49565441159374757	0.3601939388511505
-0.49559337643749757	0.35361020764665557
-0.49553234128124757	0.34685541223785726
-0.49547130612499757	0.3399386310024213
-0.49541027096874757	0.33285873403482996
-0.49534923581249757	0.3256203932905693
-0.49528820065624757	0.31822933270030884
-0.49522716549999757	0.31068485581868444
-0.49516613034374757	0.30299473224036155
-0.49510509518749757	0.29515858786392346
-0.49504406003124757	0.2871832727694156
-0.49498302487499757	0.2790722129788263
-0.49492198971874757	0.2708271065010686
-0.49486095456249757	0.26245511791463966
-0.49479991940624757	0.25395639559610755
-0.49473888424999757	0.24533819357502726
-0.49467784909374757	0.23660322803405054
-0.49461681393749757	0.22775561462460836
-0.49455577878124757	0.21880094180867155
-0.49449474362499757	0.20974093641845296
-0.49443370846874757	0.20058266484583748
-0.49437267331249757	0.19132812639427935
-0.49431163815624757	0.1819833077032064
-0.49425060299999757	0.17255254872678544
-0.49418956784374757	0.16303912560547054
-0.49412853268749757	0.1534494161112773
-0.49406749753124757	0.1437863030467963
-0.49400646237499757	0.13405602922752113
-0.49394542721874757	0.12426148374953318
-0.49388439206249757	0.11440873704356633
-0.49382335690624757	0.10450245634877227
-0.49376232174999757	0.09454604571994529
-0.49370128659374757	0.08454620393864969
-0.49364025143749757	0.0745056052643203
-0.49357921628124757	0.06443146645807588
-0.49351818112499757	0.05432657471898499
-0.49345714596874757	0.04419659952466032
-0.49339611081249757	0.03404713524918495
-0.49333507565624757	0.023881011459146936
-0.49327404049999757	0.013706338840644653
-0.49321300534374757	0.0035241204966326204
-0.49315197018749757	-0.006657660220223353
-0.49309093503124757	-0.016835555971683434
-0.49302989987499757	-0.02700524582911908
-0.49296886471874757	-0.03715827949083518
-0.49290782956249757	-0.04729517802139401
-0.49284679440624757	-0.057406085354368815
-0.49278575924999757	-0.06748986066725773
-0.49272472409374757	-0.07754012424057734
-0.49266368893749757	-0.0875502343602546
-0.49260265378124757	-0.09752027466081603
-0.49254161862499757	-0.1074384276495053
-0.49248058346874757	-0.1173067417852473
-0.49241954831249757	-0.12711604666062276
-0.49235851315624757	-0.13686244924885232
-0.49229747799999757	-0.14654487219356196
-0.49223644284374757	-0.15615104735311994
-0.49217540768749757	-0.16568528591556825
-0.49211437253124757	-0.17513521612067903
-0.49205333737499757	-0.18450069567929123
-0.49199230221874757	-0.19377791960329732
-0.49193126706249757	-0.2029559953753495
-0.49187023190624757	-0.21204085787718002
-0.49180919674999757	-0.22101724339050485
-0.49174816159374757	-0.22988891738170963
-0.49168712643749757	-0.23864833761525195
-0.49162609128124757	-0.24728779647175314
-0.49156505612499757	-0.255813058494157
-0.49150402096874757	-0.2642070307701816
-0.49144298581249757	-0.2724774475510442
-0.49138195065624757	-0.280612710977826
-0.49132091549999757	-0.28860952490474323
-0.49125988034374757	-0.2964714013921988
-0.49119884518749757	-0.30418127623562974
-0.49113781003124757	-0.31175006021816065
-0.49107677487499757	-0.3191622175363732
-0.49101573971874757	-0.32641962418335563
-0.49095470456249757	-0.33352206428476144
-0.49089366940624757	-0.3404546626745165
-0.49083263424999757	-0.34722979099783824
-0.49077159909374757	-0.3538286967735445
-0.49071056393749757	-0.3602584589021827
-0.49064952878124757	-0.366514403992162
-0.49058849362499757	-0.3725858509224051
-0.49052745846874757	-0.37848454675711335
-0.49046642331249757	-0.3841900373649973
-0.49040538815624757	-0.3897138746970362
-0.49034435299999757	-0.39504668752779065
-0.49028331784374757	-0.40018324025954444
-0.49022228268749757	-0.40513278448296697
-0.49016124753124757	-0.40987538022915204
-0.49010021237499757	-0.4144259229338102
-0.49003917721874757	-0.4187705456602876
-0.48997814206249757	-0.42290953452932367
-0.48991710690624757	-0.4268486058969223
-0.48985607174999757	-0.4305706362296209
-0.48979503659374757	-0.43409174664247924
-0.48973400143749757	-0.4373948066770998
-0.48967296628124757	-0.4404857205047385
-0.48961193112499757	-0.4433657166663962
-0.48955089596874757	-0.4460216629037011
-0.48948986081249757	-0.44846928495191635
-0.48942882565624757	-0.45069026313585336
-0.48936779049999757	-0.4526950476739214
-0.48930675534374757	-0.45448012813738015
-0.48924572018749757	-0.4560374200014815
-0.48918468503124757	-0.4573807090273554
-0.48912364987499757	-0.4584921882708736
-0.48906261471874757	-0.4593855052876743
-0.48900157956249757	-0.46005324477832804
-0.48894054440624757	-0.4604926415035729
-0.48887950924999757	-0.4607142214220866
-0.48881847409374757	-0.4607023279088639
-0.48875743893749757	-0.4604722723038275
-0.48869640378124757	-0.4600138479033244
-0.48863536862499757	-0.4593293829446952
-0.48857433346874757	-0.4584256366944781
-0.48851329831249757	-0.4572901998264169
-0.48845226315624757	-0.4559384813134318
-0.48839122799999757	-0.4543589819065156
-0.48833019284374757	-0.45255821285549763
-0.48826915768749757	-0.4505391777488223
-0.48820812253124757	-0.44829368053373797
-0.48814708737499757	-0.4458358103492937
-0.48808605221874757	-0.44315397363978215
-0.48802501706249757	-0.4402579242091741
-0.48796398190624757	-0.43714749914240697
-0.48790294674999757	-0.43381872810416783
-0.48784191159374757	-0.4302835738146724
-0.48778087643749757	-0.4265318883258296
-0.48771984128124757	-0.4225751295369758
-0.48765880612499757	-0.4184105206691028
-0.48759777096874757	-0.41403836828511364
-0.48753673581249757	-0.40946812721785447
-0.48747570065624757	-0.40469185709778094
-0.48741466549999757	-0.39972165758609235
-0.48735363034374757	-0.39455345050037255
-0.48729259518749757	-0.38919090952648955
-0.48723156003124757	-0.383640463425885
-0.48717052487499757	-0.37789732583377383
-0.48710948971874757	-0.3719735032226378
-0.48704845456249757	-0.36586429347599353
-0.48698741940624757	-0.3595759582245885
-0.48692638424999757	-0.3531127027831814
-0.48686534909374757	-0.34647283534653545
-0.48680431393749757	-0.33966688719268434
-0.48674327878124757	-0.33269079919761385
-0.48668224362499757	-0.32555285475869883
-0.48662120846874757	-0.3182552773240623
-0.48656017331249757	-0.3107992301189643
-0.48649913815624757	-0.303193645511835
-0.48643810299999757	-0.2954359556069922
-0.48637706784374757	-0.2875352116416796
-0.48631603268749757	-0.2794922822481249
-0.48625499753124757	-0.2713107395074801
-0.48619396237499757	-0.26299783987416114
-0.48613292721874757	-0.25455327374782655
-0.48607189206249757	-0.24598568472550408
-0.48601085690624757	-0.2372955084959522
-0.48594982174999757	-0.22848868707842743
-0.48588878659374757	-0.21957023510777957
-0.48582775143749757	-0.21054167780313066
-0.48576671628124757	-0.20141137626154207
-0.48570568112499757	-0.19218044417836824
-0.48564464596874757	-0.18285571792758554
-0.48558361081249757	-0.1734406005157711
-0.48552257565624757	-0.16393889484096466
-0.48546154049999757	-0.15435769658882464
-0.48540050534374757	-0.14469911857145906
-0.48533947018749757	-0.13497027845599316
-0.48527843503124757	-0.12517386056804455
-0.48521739987499757	-0.1153155119796353
-0.48515636471874757	-0.10540059348704914
-0.48509532956249757	-0.09543273244466932
-0.48503429440624757	-0.08541886979341175
-0.48497325924999757	-0.07536197805130014
-0.48491222409374757	-0.06526814657887034
-0.48485118893749757	-0.055140833565023244
-0.48479015378124757	-0.04498636390983986
-0.48472911862499757	-0.03481038990315423
-0.48466808346874757	-0.02461610112316203
-0.48460704831249757	-0.014410415579910947
-0.48454601315624757	-0.004196225423374829
-0.48448497799999757	0.006019327842861907
-0.48442394284374757	0.01623299457870821
-0.48436290768749757	0.02643903837454082
-0.48430187253124757	0.036630972855309224
-0.48424083737499757	0.04680659751246236
-0.48417980221874757	0.05695740551647694
-0.48411876706249757	0.06708228753483866
-0.48405773190624757	0.0771736498251939
-0.48399669674999757	0.08722671639350271
-0.48393566159374757	0.09723830599921508
-0.48387462643749757	0.10719938165829174
-0.48381359128124757	0.1171104402005518
-0.48375255612499757	0.12696186796913408
-0.48369152096874757	0.13675188736734226
-0.48363048581249757	0.14647524822785252
-0.48356945065624757	0.15612381009110252
-0.48350841549999757	0.1656987293541415
-0.48344738034374757	0.175188169090671
-0.48338634518749757	0.1845939259368075
-0.48332531003124757	0.1939080343595635
-0.48326427487499757	0.2031246361314496
-0.48320323971874757	0.21224448735045073
-0.48314220456249757	0.22125460885383327
-0.48308116940624757	0.2301597588899213
-0.48302013424999757	0.23894845657639044
-0.48295909909374757	0.24761871657744586
-0.48289806393749757	0.25616958587750294
-0.48283702878124757	0.2645884325309642
-0.48277599362499757	0.27288230947242836
-0.48271495846874757	0.281036340707922
-0.48265392331249757	0.2890528464290412
-0.48259288815624757	0.296927566236921
-0.48253185299999757	0.30465027960429997
-0.48247081784374757	0.31222897492321505
-0.48240978268749757	0.3196462906191056
-0.48234874753124757	0.3269092316133282
-0.48228771237499757	0.3340092414212668
-0.48222667721874757	0.34093999281825493
-0.48216564206249757	0.3477082673880051
-0.48210460690624757	0.354295792666356
-0.48204357174999757	0.36071400058442377
-0.48198253659374757	0.36694982297100925
-0.48192150143749757	0.3730019442123141
-0.48186046628124757	0.3788743414937209
-0.48179943112499757	0.3845498381312361
-0.48173839596874757	0.39004245722820063
-0.48167736081249757	0.39533519461824146
-0.48161632565624757	0.4004325388710524
-0.48155529049999757	0.4053342867172083
-0.48149425534374757	0.41002643179241915
-0.48143322018749757	0.4145236167636218
-0.48137218503124757	0.4188061563254625
-0.48131114987499757	0.42288418158114804
-0.48125011471874757	0.4267526120329348
-0.48118907956249757	0.43040206857124547
-0.48112804440624757	0.4338458972894563
-0.48106700924999757	0.4370637354031361
-0.48100597409374757	0.4400700913664032
-0.48094493893749757	0.4428551070441188
-0.48088390378124757	0.4454151655488074
-0.48082286862499757	0.4477606444216715
-0.48076183346874757	0.44987253982188524
-0.48070079831249757	0.4517679146720506
-0.48063976315624757	0.45343293903782694
-0.48057872799999757	0.4548701235882694
-0.48051769284374757	0.4560857239528013
-0.48045665768749757	0.4570638311713653
-0.48039562253124757	0.4578223152040588
-0.48033458737499757	0.45834489978065374
-0.48027355221874757	0.4586394607306491
-0.48021251706249757	0.45870765198271296
-0.48015148190624757	0.45853811790174354
-0.48009044674999757	0.4581477278829451
-0.48002941159374757	0.45751950133737085
-0.47996837643749757	0.4566655543943287
-0.47990734128124757	0.4555831618861967
-0.47984630612499757	0.4542662154382558
-0.47978527096874757	0.45272915834093774
-0.47972423581249757	0.4509560348321737
-0.47966320065624757	0.448961734983785
-0.47960216549999757	0.44673998267635556
-0.47954113034374757	0.44428993164662267
-0.47948009518749757	0.4416226849559497
-0.47941906003124757	0.43872475361905566
-0.47935802487499757	0.43561221601476796
-0.47929698971874757	0.43227655489336997
-0.47923595456249757	0.4287216572779839
-0.47917491940624757	0.4249548204427332
-0.47911388424999757	0.4209661314335561
-0.47905284909374757	0.4167714389761553
-0.47899181393749757	0.41236117332421834
-0.47893077878124757	0.40774312339298563
-0.47886974362499757	0.4029212128672536
-0.47880870846874757	0.39788939508328625
-0.47874767331249757	0.39266193705566155
-0.47868663815624757	0.3872299017987967
-0.47862560299999757	0.3816037076797202
-0.47856456784374757	0.3757841763671892
-0.47850353268749757	0.36976971252504526
-0.47844249753124757	0.36357232910689835
-0.47838146237499757	0.35718413835080265
-0.47832042721874757	0.35061708495080096
-0.47825939206249757	0.34387018026393973
-0.47819835690624757	0.3369456189435849
-0.47813732174999757	0.3298527835773294
-0.47807628659374757	0.3225861453679038
-0.47801525143749757	0.31515789040943104
-0.47795421628124757	0.3075656954723555
-0.47789318112499757	0.2998149160787224
-0.47783214596874757	0.29191250152479675
-0.47777111081249757	0.28385574493908927
-0.47771007565624757	0.27565634388481314
-0.47764904049999757	0.26731174037084515
-0.47758800534374757	0.2588292978896531
-0.47752697018749757	0.25021378113409903
-0.47746593503124757	0.24146543525649944
-0.47740489987499757	0.23259457333281247
-0.47734386471874757	0.22359952571661507
-0.47728282956249757	0.21448906307743743
-0.47722179440624757	0.20526610154582356
-0.47716075924999757	0.1959334924493247
-0.47709972409374757	0.18649983325973774
-0.47703868893749757	0.17696492901758532
-0.47697765378124757	0.16733786434188044
-0.47691661862499757	0.15762042284882308
-0.47685558346874757	0.1478180042791642
-0.47679454831249757	0.1379377231929644
-0.47673351315624757	0.12798067391060655
-0.47667247799999757	0.11795505314294942
-0.47661144284374757	0.10786315723924347
-0.47655040768749757	0.09771200213533653
-0.47648937253124757	0.08750622260911088
-0.47642833737499757	0.0772492613503777
-0.47636730221874757	0.0669488768325983
-0.47630626706249757	0.056607495883472976
-0.47624523190624757	0.04623259105582203
-0.47618419674999757	0.035827908542226686
-0.47612316159374757	0.025398362736274445
-0.47606212643749757	0.014949914834316593
-0.47600109128124757	0.004486803957312786
-0.47594005612499757	-0.005983671853556174
-0.47587902096874757	-0.016458566383890996
-0.47581798581249757	-0.026931464364477624
-0.47575695065624757	-0.03739802753825561
-0.47569591549999757	-0.04785252844921833
-0.47563488034374757	-0.058289030857210135
-0.47557384518749757	-0.06870417546650982
-0.47551281003124757	-0.07909067592503645
-0.47545177487499757	-0.08944554079078448
-0.47539073971874757	-0.09976141748204218
-0.47532970456249757	-0.11003446294294639
-0.47526866940624757	-0.12025984454969829
-0.47520763424999757	-0.13043052270980215
-0.47514659909374757	-0.14054462056785655
-0.47508556393749757	-0.15059338974107736
-0.47502452878124757	-0.16057509139301246
-0.47496349362499757	-0.1704827858370791
-0.47490245846874757	-0.18031127401542169
-0.47484142331249757	-0.19005852986266444
-0.47478038815624757	-0.19971463546305182
-0.47471935299999757	-0.20928017348888467
-0.47465831784374757	-0.218746093519153
-0.47459728268749757	-0.22810974077189905
-0.47453624753124757	-0.23736749086495498
-0.47447521237499757	-0.24651017229536842
-0.47441417721874757	-0.25554007845281473
-0.47435314206249757	-0.264445372398651
-0.47429210690624757	-0.2732269545561933
-0.47423107174999757	-0.28187881288849076
-0.47417003659374757	-0.2903935472722283
-0.47410900143749757	-0.29877385119371086
-0.47404796628124757	-0.3070063873570275
-0.47398693112499757	-0.3150958944801279
-0.47392589596874757	-0.323032628119885
-0.47386486081249757	-0.3308125496601264
-0.47380382565624757	-0.33843735544231734
-0.47374279049999757	-0.3458932316332318
-0.47368175534374757	-0.3531884181124093
-0.47362072018749757	-0.36030943657438885
-0.47355968503124757	-0.36725658737479305
-0.47349864987499757	-0.37402903573542223
-0.47343761471874757	-0.38061431464915624
-0.47337657956249757	-0.38702244121626755
-0.47331554440624757	-0.39323695397133723
-0.47325450924999757	-0.3992635431134876
-0.47319347409374757	-0.4050970562872206
-0.47313243893749757	-0.4107283202749264
-0.47307140378124757	-0.41616757416794703
-0.47301036862499757	-0.42139619864119265
-0.47294933346874757	-0.4264251909534793
-0.47288829831249757	-0.43124476910562026
-0.47282726315624757	-0.4358503701461328
-0.47276622799999757	-0.44025046063414536
-0.47270519284374757	-0.4444263696736982
-0.47264415768749757	-0.44839296070678897
-0.47258312253124757	-0.4521359727356104
-0.47252208737499757	-0.455656757868446
-0.47246105221874757	-0.45896012184294493
-0.47240001706249757	-0.46202950375206675
-0.47233898190624757	-0.4648818698625795
-0.47227794674999757	-0.46749924109941793
-0.47221691159374757	-0.4698892042063245
-0.47215587643749757	-0.4720519047298229
-0.47209484128124757	-0.4739746131907816
-0.47203380612499757	-0.47567434535800857
-0.47197277096874757	-0.4771312642847707
-0.47191173581249757	-0.4783582919862604
-0.47185070065624757	-0.47935047371673795
-0.47178966549999757	-0.4801005320425836
-0.47172863034374757	-0.48062351739189857
-0.47166759518749757	-0.4808996443744562
-0.47160656003124757	-0.4809457989900356
-0.47154552487499757	-0.4807524116058678
-0.47148448971874757	-0.48031828060177384
-0.47142345456249757	-0.4796549518932126
-0.47136241940624757	-0.47874471997388307
-0.47130138424999757	-0.4776065911721769
-0.47124034909374757	-0.47622749708137097
-0.47117931393749757	-0.4746121779446668
-0.47111827878124757	-0.47276784716864373
-0.47105724362499757	-0.47068049177974597
-0.47099620846874757	-0.4683692673415679
-0.47093517331249757	-0.4658193207863018
-0.47087413815624757	-0.463040505335577
-0.47081310299999757	-0.46003528801504795
-0.47075206784374757	-0.45679452462679904
-0.47069103268749757	-0.4533361076604334
-0.47062999753124757	-0.44964493256538296
-0.47056896237499757	-0.4457345289373428
-0.47050792721874757	-0.441603371807549
-0.47044689206249757	-0.43724753923930976
-0.47038585690624757	-0.432682091684004
