Time	Frequency
-0.5000438686249993	0.07276763216424605
-0.4999828334687493	0.08303603998742974
-0.4999217983124993	0.09326564393323965
-0.4998607631562493	0.10345123547165176
-0.4997997279999993	0.11358784225100857
-0.4997386928437493	0.12367039858655972
-0.4996776576874993	0.13369342736357706
-0.4996166225312493	0.14365171583972638
-0.4995555873749993	0.15354072594264218
-0.4994945522187493	0.163355932198096
-0.4994335170624993	0.17309221102625202
-0.4993724819062493	0.1827442708589059
-0.4993114467499993	0.1923072611474546
-0.4992504115937493	0.20177641298228055
-0.4991893764374993	0.21114707118374124
-0.4991283412812493	0.22041482196103376
-0.4990673061249993	0.22957490019872312
-0.4990062709687493	0.2386223330372243
-0.4989452358124993	0.24755247953730447
-0.4988842006562493	0.25636105517656765
-0.4988231654999993	0.26504397772349697
-0.4987621303437493	0.2735969961531347
-0.4987010951874993	0.2820153528984857
-0.4986400600312493	0.290294347515878
-0.4985790248749993	0.2984299986394767
-0.4985179897187493	0.3064185868876926
-0.4984569545624993	0.31425621599030884
-0.4983959194062493	0.3219389586769817
-0.4983348842499993	0.32946274434516964
-0.4982738490937493	0.3368234303441953
-0.4982128139374993	0.34401716984064973
-0.4981517787812493	0.3510404792664348
-0.4980907436249993	0.35789022510848345
-0.4980297084687493	0.3645630290718015
-0.4979686733124993	0.3710550557546074
-0.4979076381562493	0.37736292359499984
-0.4978466029999993	0.3834836414349497
-0.4977855678437493	0.3894140817444564
-0.4977245326874993	0.3951511227302776
-0.4976634975312493	0.4006917613344215
-0.4976024623749993	0.40603330262081594
-0.4975414272187493	0.41117322911317616
-0.4974803920624993	0.4161087015899565
-0.4974193569062493	0.4208370101981526
-0.4973583217499993	0.4253560010103795
-0.4972972865937493	0.42966329224097116
-0.4972362514374993	0.43375638723814713
-0.4971752162812493	0.4376334208700979
-0.4971141811249993	0.4412925944032394
-0.4970531459687493	0.444731771923957
-0.4969921108124993	0.44794902220090393
-0.4969310756562493	0.4509428001951962
-0.4968700404999993	0.45371167638176774
-0.4968090053437493	0.45625415399121677
-0.4967479701874993	0.4585687708999016
-0.4966869350312493	0.4606543235069624
-0.4966258998749993	0.4625097638317887
-0.4965648647187493	0.46413406275424524
-0.4965038295624993	0.4655263461702674
-0.4964427944062493	0.46668589299061347
-0.4963817592499993	0.4676120246467042
-0.4963207240937493	0.46830418443026495
-0.4962596889374993	0.4687619769337998
-0.4961986537812493	0.4689851107965469
-0.4961376186249993	0.4689734051587043
-0.4960765834687493	0.4687267887535391
-0.4960155483124993	0.4682453274447159
-0.4959545131562493	0.4675292362371547
-0.4958934779999993	0.46657879139959435
-0.4958324428437493	0.46539434314614603
-0.4957714076874993	0.4639764789508304
-0.4957103725312493	0.46232590184798766
-0.4956493373749993	0.460443252203956
-0.4955883022187493	0.4583293825794644
-0.4955272670624993	0.4559854142497732
-0.4954662319062493	0.4534124913852567
-0.4954051967499993	0.450611819794983
-0.4953441615937493	0.44758468884506164
-0.4952831264374993	0.44433250234303756
-0.4952220912812493	0.44085687607624835
-0.4951610561249993	0.43715950005112475
-0.4951000209687493	0.43324219388850593
-0.4950389858124993	0.42910693897317415
-0.4949779506562493	0.4247557072627041
-0.4949169154999993	0.42019059583622975
-0.4948558803437493	0.415413825294792
-0.4947948451874993	0.41042771200611183
-0.4947338100312493	0.40523473236674984
-0.4946727748749993	0.3998374491458572
-0.4946117397187493	0.3942385813778411
-0.4945507045624993	0.3884409050377002
-0.4944896694062493	0.38244725889743375
-0.4944286342499993	0.37626060960592245
-0.4943675990937493	0.3698838690290864
-0.4943065639374993	0.3633201928709024
-0.4942455287812493	0.35657311329642066
-0.4941844936249993	0.34964588056064366
-0.4941234584687493	0.34254165345790766
-0.4940624233124993	0.3352642381202188
-0.4940013881562493	0.3278174168364471
-0.4939403529999993	0.3202046105867047
-0.4938793178437493	0.312429589613255
-0.4938182826874993	0.3044963186338673
-0.4937572475312493	0.2964086996471711
-0.4936962123749993	0.28817071513144643
-0.4936351772187493	0.27978651077797756
-0.4935741420624993	0.271260543101006
-0.4935131069062493	0.2625971557404806
-0.4934520717499993	0.2538002629891831
-0.4933910365937493	0.24487406759185407
-0.4933300014374993	0.23582333672775388
-0.4932689662812493	0.2266527180636085
-0.4932079311249993	0.2173666579547803
-0.4931468959687493	0.20796987642454656
-0.4930858608124993	0.1984672407591959
-0.4930248256562493	0.18886349212631703
-0.4929637904999993	0.17916322329463746
-0.4929027553437493	0.16937109168426867
-0.4928417201874993	0.1594921825909294
-0.4927806850312493	0.14953173284802757
-0.4927196498749993	0.13949471623642395
-0.4926586147187493	0.12938604474394091
-0.4925975795624993	0.11921081354425395
-0.4925365444062493	0.10897426145359695
-0.4924755092499993	0.098681461035668
-0.4924144740937493	0.08833732370022154
-0.4923534389374993	0.07794713926889048
-0.4922924037812493	0.06751632621109643
-0.4922313686249993	0.05705025918983788
-0.4921703334687493	0.04655441415109166
-0.4921092983124993	0.03603372076723413
-0.4920482631562493	0.025493227275556314
-0.4919872279999993	0.014938522230093728
-0.4919261928437493	0.00437483083366663
-0.4918651576874993	-0.006192416210584746
-0.4918041225312493	-0.016757470675639916
-0.4917430873749993	-0.027315143793814344
-0.4916820522187493	-0.03786054624331187
-0.4916210170624993	-0.04838844874429739
-0.4915599819062493	-0.0588931214898486
-0.4914989467499993	-0.06936894282506907
-0.4914379115937493	-0.0798109376079989
-0.4913768764374993	-0.09021409184578685
-0.4913158412812493	-0.10057292876751812
-0.4912548061249993	-0.11088207600551032
-0.4911937709687493	-0.12113634725633973
-0.4911327358124993	-0.13133036838626752
-0.4910717006562493	-0.14145890642365336
-0.4910106654999993	-0.1515173372490309
-0.4909496303437493	-0.1615008268068219
-0.4908885951874993	-0.17140369279706788
-0.4908275600312493	-0.18122038321102887
-0.4907665248749993	-0.1909460753731582
-0.4907054897187493	-0.20057642922304914
-0.4906444545624993	-0.21010694375245892
-0.4905834194062493	-0.21953226013427643
-0.4905223842499993	-0.22884699701875597
-0.4904613490937493	-0.23804655169062636
-0.4904003139374993	-0.24712668059967832
-0.4903392787812493	-0.25608294645062085
-0.4902782436249993	-0.2649103974119456
-0.4902172084687493	-0.27360428494637345
-0.4901561733124993	-0.28216044839423005
-0.4900951381562493	-0.29057459210315995
-0.4900341029999993	-0.29884240640525844
-0.4899730678437493	-0.3069597282230427
-0.4899120326874993	-0.3149220490414483
-0.4898509975312493	-0.3227250787992324
-0.4897899623749993	-0.3303653024866495
-0.4897289272187493	-0.3378391520031295
-0.4896678920624993	-0.34514250165437593
-0.4896068569062493	-0.3522711254641414
-0.4895458217499993	-0.35922132597050077
-0.4894847865937493	-0.3659900487180234
-0.4894237514374993	-0.3725739681180727
-0.4893627162812493	-0.3789692169598606
-0.4893016811249993	-0.3851724258679722
-0.4892406459687493	-0.39118067440012094
-0.4891796108124993	-0.3969908306960712
-0.4891185756562493	-0.4025998572737048
-0.4890575404999993	-0.40800484784462915
-0.4889965053437493	-0.4132029302337497
-0.4889354701874993	-0.4181914258276095
-0.4888744350312493	-0.42296774200483017
-0.4888133998749993	-0.42752942236944796
-0.4887523647187493	-0.43187414924821205
-0.4886913295624993	-0.43599962417728827
-0.4886302944062493	-0.43990360255027156
-0.4885692592499993	-0.44358401655821333
-0.4885082240937493	-0.44703905245428255
-0.4884471889374993	-0.4502669358487487
-0.4883861537812493	-0.45326581362905427
-0.4883251186249993	-0.45603404403417114
-0.4882640834687493	-0.4585703069063234
-0.4882030483124993	-0.4608732706447831
-0.4881420131562493	-0.46294156832633493
-0.4880809779999993	-0.46477411312961514
-0.4880199428437493	-0.46636999425755166
-0.4879589076874993	-0.46772829082315165
-0.4878978725312493	-0.46884817942618995
-0.4878368373749993	-0.46972901519043464
-0.4877758022187493	-0.470370333807761
-0.4877147670624993	-0.47077177467500875
-0.4876537319062493	-0.4709330432996666
-0.4875926967499993	-0.4708539739773445
-0.4875316615937493	-0.47053452538731805
-0.4874706264374993	-0.4699747946724049
-0.4874095912812493	-0.46917502105666453
-0.4873485561249993	-0.46813551552531946
-0.4872875209687493	-0.46685671669028456
-0.4872264858124993	-0.4653392472713112
-0.4871654506562493	-0.46358383179397983
-0.4871044154999993	-0.46159132041477957
-0.4870433803437493	-0.4593626464905965
-0.4869823451874993	-0.4568987699550687
-0.4869213100312493	-0.4542008467762168
-0.4868602748749993	-0.4512702833980406
-0.4867992397187493	-0.44810862187930955
-0.4867382045624993	-0.44471737904479813
-0.4866771694062493	-0.4410981118046378
-0.4866161342499993	-0.4372525544166928
-0.4865550990937493	-0.43318256820643053
-0.4864940639374993	-0.4288902533507963
-0.4864330287812493	-0.4243779012881337
-0.4863719936249993	-0.41964767927669905
-0.4863109584687493	-0.4147017167269528
-0.4862499233124993	-0.409542482920272
-0.4861888881562493	-0.4041727542449496
-0.4861278529999993	-0.39859528449943893
-0.4860668178437493	-0.39281266168013584
-0.4860057826874993	-0.3868277131341022
-0.4859447475312493	-0.38064362087478965
-0.4858837123749993	-0.37426331720885786
-0.4858226772187493	-0.3676899234511383
-0.4857616420624993	-0.360927152728429
-0.4857006069062493	-0.3539783820068992
-0.4856395717499993	-0.3468466284359993
-0.4855785365937493	-0.3395355390659989
-0.4855175014374993	-0.3320492005221597
-0.4854564662812493	-0.324391214503744
-0.4853954311249993	-0.31656515109376465
-0.4853343959687493	-0.30857525724273366
-0.4852733608124993	-0.30042585139710176
-0.4852123256562493	-0.2921206268766468
-0.4851512904999993	-0.2836633744294415
-0.4850902553437493	-0.27505902236891294
-0.4850292201874993	-0.2663123461059735
-0.4849681850312493	-0.2574270911577306
-0.4849071498749993	-0.24840748573145585
-0.4848461147187493	-0.23925837758784688
-0.4847850795624993	-0.22998442569922156
-0.4847240444062493	-0.2205905307248012
-0.4846630092499993	-0.21108186102845264
-0.4846019740937493	-0.20146289905274833
-0.4845409389374993	-0.19173789941211655
-0.4844799037812493	-0.1819119650032626
-0.4844188686249993	-0.1719903522345768
-0.4843578334687493	-0.16197819692029974
-0.4842967983124993	-0.15188093618513013
-0.4842357631562493	-0.14170377528765002
-0.4841747279999993	-0.13145143128608042
-0.4841136928437493	-0.12112857748129557
-0.4840526576874993	-0.1107404233998332
-0.4839916225312493	-0.1002929595513096
-0.4839305873749993	-0.08979227313040707
-0.4838695522187493	-0.07924346591396059
-0.4838085170624993	-0.06865103034084208
-0.4837474819062493	-0.05802023259910039
-0.4836864467499993	-0.04735677092859187
-0.4836254115937493	-0.03666618249702407
-0.4835643764374993	-0.02595431041448525
-0.4835033412812493	-0.015226777112324718
-0.4834423061249993	-0.004488848371103494
-0.4833812709687493	0.0062541567379964785
-0.4833202358124993	0.01699708963826953
-0.4832592006562493	0.027734293513770446
-0.4831981654999993	0.03845990772515871
-0.4831371303437493	0.04916853106496098
-0.4830760951874993	0.059854467497341676
-0.4830150600312493	0.07051228721528918
-0.4829540248749993	0.08113683322240828
-0.4828929897187493	0.09172255344333559
-0.4828319545624993	0.10226411648896604
-0.4827709194062493	0.11275610882830045
-0.4827098842499993	0.12319281536988583
-0.4826488490937493	0.13356876185723826
-0.4825878139374993	0.14387868833232093
-0.4825267787812493	0.15411754176440093
-0.4824657436249993	0.16428032063143536
-0.4824047084687493	0.17436155774049208
-0.4823436733124993	0.1843556471426973
-0.4822826381562493	0.1942575161657108
-0.4822216029999993	0.20406224437222847
-0.4821605678437493	0.21376484944078358
-0.4820995326874993	0.2233604910603253
-0.4820384975312493	0.23284397640133914
-0.4819774623749993	0.24220996087302493
-0.4819164272187493	0.2514538384269833
-0.4818553920624993	0.2605713072276956
-0.4817943569062493	0.26955759829751913
-0.4817333217499993	0.27840781596776887
-0.4816722865937493	0.2871171803439701
-0.4816112514374993	0.295681015780121
-0.4815502162812493	0.3040951282005313
-0.4814891811249993	0.31235540372194415
-0.4814281459687493	0.32045744900391904
-0.4813671108124993	0.3283970593998845
-0.4813060756562493	0.3361700912837276
-0.4812450404999993	0.3437723007104633
-0.4811840053437493	0.35119960629292735
-0.4811229701874993	0.3584482181289836
-0.4810619350312493	0.36551453024655756
-0.4810008998749993	0.3723949369260961
-0.4809398647187493	0.37908587592811
-0.4808788295624993	0.3855838005014607
-0.4808177944062493	0.3918851315873574
-0.4807567592499993	0.39798638935652325
-0.4806957240937493	0.4038843192450456
-0.4806346889374993	0.40957605851909096
-0.4805736537812493	0.4150589887030655
-0.4805126186249993	0.4203302398732813
-0.4804515834687493	0.42538664420201905
-0.4803905483124993	0.4302251651309632
-0.4803295131562493	0.4348433438414613
-0.4802684779999993	0.4392391839009157
-0.4802074428437493	0.4434104865040757
-0.4801464076874993	0.44735477189036693
-0.4800853725312493	0.45106974160619484
-0.4800243373749993	0.45455347986283
-0.4799633022187493	0.45780426135388014
-0.4799022670624993	0.4608202835899043
-0.4798412319062493	0.46359982944259726
-0.4797801967499993	0.46614146506390125
-0.4797191615937493	0.4684438537508259
-0.4796581264374993	0.47050567532372733
-0.4795970912812493	0.4723257576989632
-0.4795360561249993	0.473903106090423
-0.4794750209687493	0.4752368468763611
-0.4794139858124993	0.47632618812702926
-0.4793529506562493	0.47717045824199134
-0.4792919154999993	0.4777691711379375
-0.4792308803437493	0.47812196730455103
-0.4791698451874993	0.4782285772510197
-0.4791088100312493	0.47808885075134205
-0.4790477748749993	0.4777027300696306
-0.4789867397187493	0.4770703133185495
-0.4789257045624993	0.47619191066268385
-0.4788646694062493	0.47506794032344574
-0.4788036342499993	0.4736988691324374
-0.4787425990937493	0.47208526667196943
-0.4786815639374993	0.470227860249795
-0.4786205287812493	0.4681275108886784
-0.4785594936249993	0.4657852546019939
-0.4784984584687493	0.4632023423601698
-0.4784374233124993	0.460380031018763
-0.4783763881562493	0.4573195034917686
-0.4783153529999993	0.4540222289873328
-0.4782543178437493	0.4504900066325866
-0.4781932826874993	0.4467245223438773
-0.4781322475312493	0.4427275198582333
-0.4780712123749993	0.4385011008679675
-0.4780101772187493	0.43404750035810863
-0.4779491420624993	0.4293689362643466
-0.4778881069062493	0.4244675360859028
-0.4778270717499993	0.4193455818231949
-0.4777660365937493	0.41400579712723146
-0.4777050014374993	0.40845108207770514
-0.4776439662812493	0.4026842203831451
-0.4775829311249993	0.3967080506905319
-0.4775218959687493	0.39052560568250816
-0.4774608608124993	0.38413985864784533
-0.4773998256562493	0.377553891473271
-0.4773387904999993	0.37077120678353676
-0.4772777553437493	0.36379539292592106
-0.4772167201874993	0.3566299859159315
-0.4771556850312493	0.34927862718727654
-0.4770946498749993	0.3417449503577233
-0.4770336147187493	0.33403269514843437
-0.4769725795624993	0.3261457644900877
-0.4769115444062493	0.31808816221228237
-0.4768505092499993	0.30986422530477253
-0.4767894740937493	0.3014782590622431
-0.4767284389374993	0.29293415366266445
-0.4766674037812493	0.28423615881882835
-0.4766063686249993	0.2753892809276796
-0.4765453334687493	0.26639812194381546
-0.4764842983124993	0.2572665720694945
-0.4764232631562493	0.24799920950218035
-0.4763622279999993	0.23860135442288996
-0.4763011928437493	0.22907796111413378
-0.4762401576874993	0.21943358375499533
-0.4761791225312493	0.20967315067114092
-0.4761180873749993	0.19980194528666997
-0.4760570522187493	0.18982474089692264
-0.4759960170624993	0.17974642455696058
-0.4759349819062493	0.1695725226576194
-0.4758739467499993	0.15930826276704962
-0.4758129115937493	0.14895881057200902
-0.4757518764374993	0.13852985637090806
-0.4756908412812493	0.12802679946579779
-0.4756298061249993	0.11745431124498476
-0.4755687709687493	0.10681784033261789
-0.4755077358124993	0.09612368635797189
-0.4754467006562493	0.0853771549343808
-0.4753856654999993	0.07458328922512403
-0.4753246303437493	0.063747914443367
-0.4752635951874993	0.05287681155139409
-0.4752025600312493	0.04197560311069167
-0.4751415248749993	0.031049841465487744
-0.4750804897187493	0.02010497151926515
-0.4750194545624993	0.009146653680683372
-0.4749584194062493	-0.0018193046425996817
-0.4748973842499993	-0.012787157601259602
-0.4748363490937493	-0.023751280796026134
-0.4747753139374993	-0.03470599575611928
-0.4747142787812493	-0.04564555846123011
-0.4746532436249993	-0.05656438476048923
-0.4745922084687493	-0.06745677486718812
-0.4745311733124993	-0.07831706072654264
-0.4744701381562493	-0.08913990139710755
-0.4744091029999993	-0.09991964467458454
-0.4743480678437493	-0.11065017238361466
-0.4742870326874993	-0.12132582324710327
-0.4742259975312493	-0.13194162927161895
-0.4741649623749993	-0.14249215149093833
-0.4741039272187493	-0.1529715701352811
-0.4740428920624993	-0.16337449163574186
-0.4739818569062493	-0.1736952790618164
-0.4739208217499993	-0.18392856726423867
-0.4738597865937493	-0.19406959424333156
-0.4737987514374993	-0.20411295302407592
-0.4737377162812493	-0.21405290115722725
-0.4736766811249993	-0.2238841598331389
-0.4736156459687493	-0.23360184284411206
-0.4735546108124993	-0.24320113252103365
-0.4734935756562493	-0.252677172113122
-0.4734325404999993	-0.262024912303554
-0.4733715053437493	-0.2712388601788444
-0.4733104701874993	-0.2803139745358677
-0.4732494350312493	-0.2892461265397424
-0.4731883998749993	-0.2980311174480353
-0.4731273647187493	-0.30666410166588254
-0.4730663295624993	-0.31514004485182057
-0.4730052944062493	-0.32345438511676655
-0.4729442592499993	-0.33160293752009135
-0.4728832240937493	-0.3395816457321111
-0.4728221889374993	-0.34738646681505647
-0.4727611537812493	-0.35501314568635056
-0.4727001186249993	-0.36245741952184785
-0.4726390834687493	-0.36971532571084387
-0.4725780483124993	-0.3767832680908974
-0.4725170131562493	-0.38365762984890095
-0.4724559779999993	-0.3903345844775412
-0.4723949428437493	-0.396810555080918
-0.4723339076874993	-0.40308218735959206
-0.4722728725312493	-0.40914619188035517
-0.4722118373749993	-0.41499941557573994
-0.4721508022187493	-0.4206386434393608
-0.4720897670624993	-0.4260606785843548
-0.4720287319062493	-0.43126275055418284
-0.4719676967499993	-0.43624238118302355
-0.4719066615937493	-0.4409968768885999
-0.4718456264374993	-0.4455234470114621
-0.4717845912812493	-0.4498196105847585
-0.4717235561249993	-0.45388316659286587
-0.4716625209687493	-0.45771197907538147
-0.4716014858124993	-0.4613039693213943
-0.4715404506562493	-0.46465724089254584
-0.4714794154999993	-0.467769982456276
-0.4714183803437493	-0.4706403923709942
-0.4713573451874993	-0.47326687418098434
-0.4712963100312493	-0.47564805862681236
-0.4712352748749993	-0.4777826475563352
-0.4711742397187493	-0.47966942941025736
-0.4711132045624993	-0.4813073580956244
-0.4710521694062493	-0.4826955320507938
-0.4709911342499993	-0.4838331271738964
-0.4709300990937493	-0.4847194313609022
-0.4708690639374993	-0.4853539242344384
-0.4708080287812493	-0.4857362269313274
-0.4707469936249993	-0.4858660423898122
-0.4706859584687493	-0.48574321716600444
-0.4706249233124993	-0.48536777692806365
-0.4705638881562493	-0.48473983633584394
-0.4705028529999993	-0.4838595810347749
-0.4704418178437493	-0.4827274067978365
-0.4703807826874993	-0.4813438977641754
-0.4703197475312493	-0.47970967109525775
-0.4702587123749993	-0.47782547247233553
-0.4701976772187493	-0.4756922467708788
-0.4701366420624993	-0.47331099798647375
-0.4700756069062493	-0.4706828271202906
-0.4700145717499993	-0.4678090870795888
-0.4699535365937493	-0.46469132239102734
-0.4698925014374993	-0.46133107804778944
-0.4698314662812493	-0.4577298594864451
-0.4697704311249993	-0.45388939055049
-0.4697093959687493	-0.4498117933802708
-0.4696483608124993	-0.44549923694030386
