Time	Frequency
-0.5000333776562513	1.1314237823492669e-23
-0.49997234250000133	1.1128318162478854e-23
-0.49991130734375133	1.0935160393305853e-23
-0.49985027218750133	1.0734889469068284e-23
-0.49978923703125133	1.052762361291381e-23
-0.49972820187500133	1.0313486504179027e-23
-0.49966716671875133	1.0092622481427593e-23
-0.49960613156250133	9.865184316589822e-24
-0.49954509640625133	9.63131483121449e-24
-0.49948406125000133	9.391154890766696e-24
-0.49942302609375133	9.144855611308942e-24
-0.49936199093750133	8.892575652590965e-24
-0.49930095578125133	8.634480030178768e-24
-0.49923992062500133	8.370738138478257e-24
-0.49917888546875133	8.101516793610722e-24
-0.49911785031250133	7.826986110675284e-24
-0.49905681515625133	7.547322742616963e-24
-0.49899578000000133	7.262702846799038e-24
-0.49893474484375133	6.973314546647626e-24
-0.49887370968750133	6.679348901968412e-24
-0.49881267453125133	6.380983991958237e-24
-0.49875163937500133	6.078413925664123e-24
-0.49869060421875133	5.7718435408632805e-24
-0.49862956906250133	5.461462886039256e-24
-0.49856853390625133	5.147468963664944e-24
-0.49850749875000133	4.830070572266289e-24
-0.49844646359375133	4.5094706730460535e-24
-0.49838542843750133	4.185872237018187e-24
-0.49832439328125133	3.859486330177796e-24
-0.49826335812500133	3.5305303580573524e-24
-0.49820232296875133	3.1992199726384493e-24
-0.49814128781250133	2.8657620614878483e-24
-0.49808025265625133	2.53036125560598e-24
-0.49801921750000133	2.193236711152379e-24
-0.49795818234375133	1.8546214633555247e-24
-0.49789714718750133	1.5147385651640958e-24
-0.49783611203125133	1.1738027180667307e-24
-0.49777507687500133	8.320302525130922e-25
-0.49771404171875133	4.89640017783843e-25
-0.49765300656250133	1.468572019312238e-25
-0.49759197140625133	-1.9609892667087805e-25
-0.49753093625000133	-5.390054467408208e-25
-0.49746990109375133	-8.816297610461101e-25
-0.49740886593750133	-1.2237506528374347e-24
-0.49734783078125133	-1.565149657319693e-24
-0.49728679562500133	-1.9056026504188064e-24
-0.49722576046875133	-2.2448886760713584e-24
-0.49716472531250133	-2.582790789823647e-24
-0.49710369015625133	-2.919093277347041e-24
-0.49704265500000133	-3.2535767270036693e-24
-0.49698161984375133	-3.586017356015292e-24
-0.49692058468750133	-3.91619040054144e-24
-0.49685954953125133	-4.243874317697689e-24
-0.49679851437500133	-4.56886282780783e-24
-0.49673747921875133	-4.890965507285218e-24
-0.49667644406250133	-5.209973719277771e-24
-0.49661540890625133	-5.525657149172356e-24
-0.49655437375000133	-5.837803885738433e-24
-0.49649333859375133	-6.146217645567214e-24
-0.49643230343750133	-6.450698670176184e-24
-0.49637126828125133	-6.751047664428197e-24
-0.49631023312500133	-7.047070043990815e-24
-0.49624919796875133	-7.338579074631436e-24
-0.49618816281250133	-7.625381624574956e-24
-0.49612712765625133	-7.907275002460222e-24
-0.49606609250000133	-8.18407500942653e-24
-0.49600505734375133	-8.455611810553484e-24
-0.49594402218750133	-8.721707001265918e-24
-0.49588298703125133	-8.98218209111408e-24
-0.49582195187500133	-9.236867743156766e-24
-0.49576091671875133	-9.4855975224146e-24
-0.49569988156250133	-9.728206000604079e-24
-0.49563884640625133	-9.964531451481734e-24
-0.49557781125000133	-1.0194415803345601e-23
-0.49551677609375133	-1.0417710175852614e-23
-0.49545574093750133	-1.0634273993452582e-23
-0.49539470578125133	-1.0843963195768388e-23
-0.49533367062500133	-1.1046635096799847e-23
-0.49527263546875133	-1.1242155659399166e-23
-0.49521160031250133	-1.1430395477962539e-23
-0.49515056515625133	-1.1611230924436742e-23
-0.49508953000000133	-1.1784543755784347e-23
-0.49502849484375133	-1.1950216841224453e-23
-0.49496745968750133	-1.2108139033231653e-23
-0.49490642453125133	-1.2258211098260501e-23
-0.49484538937500133	-1.2400336188622422e-23
-0.49478435421875133	-1.2534412767644115e-23
-0.49472331906250133	-1.2660346990542972e-23
-0.49466228390625133	-1.2778059364787499e-23
-0.49460124875000133	-1.2887474594833092e-23
-0.49454021359375133	-1.2988517161551405e-23
-0.49447917843750133	-1.3081118785643872e-23
-0.49441814328125133	-1.3165218780041124e-23
-0.49435710812500133	-1.32407588780933e-23
-0.49429607296875133	-1.3307686404070347e-23
-0.49423503781250133	-1.33659569762316e-23
-0.49417400265625133	-1.3415532181079105e-23
-0.49411296750000133	-1.3456377558028647e-23
-0.49405193234375133	-1.348846277876971e-23
-0.49399089718750133	-1.3511764226917743e-23
-0.49392986203125133	-1.3526266185640176e-23
-0.49386882687500133	-1.3531958605141349e-23
-0.49380779171875133	-1.3528835245112488e-23
-0.49374675656250133	-1.3516895120338432e-23
-0.49368572140625133	-1.34961444397408e-23
-0.49362468625000133	-1.346659584878505e-23
-0.49356365109375133	-1.3428266548567844e-23
-0.49350261593750133	-1.3381178976838132e-23
-0.49344158078125133	-1.332536238830817e-23
-0.49338054562500133	-1.3260852278939312e-23
-0.49331951046875133	-1.3187688883082071e-23
-0.49325847531250133	-1.3105918162878588e-23
-0.49319744015625133	-1.3015593038936235e-23
-0.49313640500000133	-1.2916770478654951e-23
-0.49307536984375133	-1.2809511906071331e-23
-0.49301433468750133	-1.2693885785334945e-23
-0.49295329953125133	-1.2569966294371763e-23
-0.49289226437500133	-1.2437835898138612e-23
-0.49283122921875133	-1.2297581929528252e-23
-0.49277019406250133	-1.2149288046091781e-23
-0.49270915890625133	-1.1993046901882946e-23
-0.49264812375000133	-1.1828966963880358e-23
-0.49258708859375133	-1.1657155162432402e-23
-0.49252605343750133	-1.1477718722948404e-23
-0.49246501828125133	-1.12907771778234e-23
-0.49240398312500133	-1.1096451294109089e-23
-0.49234294796875133	-1.08948599949329e-23
-0.49228191281250133	-1.0686135974843345e-23
-0.49222087765625133	-1.047042059533403e-23
-0.49215984250000133	-1.0247855074461928e-23
-0.49209880734375133	-1.0018584161605885e-23
-0.49203777218750133	-9.782750726737522e-24
-0.49197673703125133	-9.540506790381792e-24
-0.49191570187500133	-9.292022067657469e-24
-0.49185466671875133	-9.037456478039092e-24
-0.49179363156250133	-8.776959692094645e-24
-0.49173259640625133	-8.510707394938973e-24
-0.49167156125000133	-8.238890866263894e-24
-0.49161052609375133	-7.961680696658877e-24
-0.49154949093750133	-7.679247169036704e-24
-0.49148845578125133	-7.391783226380779e-24
-0.49142742062500133	-7.099479164242089e-24
-0.49136638546875133	-6.802516465278662e-24
-0.49130535031250133	-6.501088081301303e-24
-0.49124431515625133	-6.195401512307978e-24
-0.49118328000000133	-5.88566448229125e-24
-0.49112224484375133	-5.572075400534141e-24
-0.49106120968750133	-5.2548327016608736e-24
-0.49100017453125133	-4.934136522025798e-24
-0.49093913937500133	-4.610194280898573e-24
-0.49087810421875133	-4.283238678284932e-24
-0.49081706906250133	-3.953499053637375e-24
-0.49075603390625133	-3.6211698927211486e-24
-0.49069499875000133	-3.28645324450979e-24
-0.49063396359375133	-2.9495854542392844e-24
-0.49057292843750133	-2.6107924820585565e-24
-0.49051189328125133	-2.27028815931491e-24
-0.49045085812500133	-1.9283089714987243e-24
-0.49038982296875133	-1.5850839345344162e-24
-0.49032878781250133	-1.24082221757136e-24
-0.49026775265625133	-8.957498191263661e-25
-0.49020671750000133	-5.500985874941401e-25
-0.49014568234375133	-2.0409610805441053e-25
-0.49008464718750133	1.420200409594026e-25
-0.49002361203125133	4.880221133418468e-25
-0.48996257687500133	8.336897938792202e-25
-0.48990154171875133	1.1787912216744415e-24
-0.48984050656250133	1.5231014084873291e-24
-0.48977947140625133	1.8664006993119005e-24
-0.48971843625000133	2.208455181413784e-24
-0.48965740109375133	2.549027344248772e-24
-0.48959636593750133	2.8878949256085646e-24
-0.48953533078125133	3.224843896917534e-24
-0.48947429562500133	3.559653462514284e-24
-0.48941326046875133	3.892098282117306e-24
-0.48935222531250133	4.221948376204106e-24
-0.48929119015625133	4.5489839100090724e-24
-0.48923015500000133	4.873004860186254e-24
-0.48916911984375133	5.193799170703863e-24
-0.48910808468750133	5.511140622733308e-24
-0.48904704953125133	5.824813993141631e-24
-0.48898601437500133	6.134612798374048e-24
-0.48892497921875133	6.440335395827071e-24
-0.48886394406250133	6.74178670135044e-24
-0.48880290890625133	7.038766872057582e-24
-0.48874187375000133	7.331067461191924e-24
-0.48868083859375133	7.618489862268965e-24
-0.48861980343750133	7.900851156339855e-24
-0.48855876828125133	8.177968984435749e-24
-0.48849773312500133	8.449653342019956e-24
-0.48843669796875133	8.71571717179603e-24
-0.48837566281250133	8.975987079582429e-24
-0.48831462765625133	9.230292889948416e-24
-0.48825359250000133	9.478462907583048e-24
-0.48819255734375133	9.72032929991197e-24
-0.48813152218750133	9.95572995795634e-24
-0.48807048703125133	1.0184514001817327e-23
-0.48800945187500133	1.0406528659279216e-23
-0.48794841671875133	1.0621612132973383e-23
-0.48788738156250133	1.0829619663878513e-23
-0.48782634640625133	1.1030426438013522e-23
-0.48776531125000133	1.1223901175797814e-23
-0.48770427609375133	1.1409903318759666e-23
-0.48764324093750133	1.1588302152504717e-23
-0.48758220578125133	1.1758979998462058e-23
-0.48752117062500133	1.1921826065408996e-23
-0.48746013546875133	1.2076735721190416e-23
-0.48739910031250133	1.2223602527574348e-23
-0.48733806515625133	1.2362319676796685e-23
-0.48727703000000133	1.249279280904552e-23
-0.48721599484375133	1.2614937290311692e-23
-0.48715495968750133	1.2728670909982818e-23
-0.48709392453125133	1.2833916348361359e-23
-0.48703288937500133	1.293060178063549e-23
-0.48697185421875133	1.3018658336031842e-23
-0.48691081906250133	1.309802435683702e-23
-0.48684978390625133	1.3168647695790634e-23
-0.48678874875000133	1.3230479516307645e-23
-0.48672771359375133	1.3283474351106224e-23
-0.48666667843750133	1.332759531444303e-23
-0.48660564328125133	1.3362812408454052e-23
-0.48654460812500133	1.3389099164908241e-23
-0.48648357296875133	1.3406434744643828e-23
-0.48642253781250133	1.3414805799266758e-23
-0.48636150265625133	1.3414204653844728e-23
-0.48630046750000133	1.3404629169901212e-23
-0.48623943234375133	1.338608341297876e-23
-0.48617839718750133	1.335857663974532e-23
-0.48611736203125133	1.3322125080106718e-23
-0.48605632687500133	1.3276752403682253e-23
-0.48599529171875133	1.3222484920947618e-23
-0.48593425656250133	1.3159353975344625e-23
-0.48587322140625133	1.3087401096582613e-23
-0.48581218625000133	1.3006672957543738e-23
-0.48575115109375133	1.2917219993694164e-23
-0.48569011593750133	1.2819100159027483e-23
-0.48562908078125133	1.2712374925291405e-23
-0.48556804562500133	1.2597109759093752e-23
-0.48550701046875133	1.2473382279587626e-23
-0.48544597531250133	1.2341276231787067e-23
-0.48538494015625133	1.2200873132587707e-23
-0.48532390500000133	1.2052262452900101e-23
-0.48526286984375133	1.1895543269071027e-23
-0.48520183468750133	1.1730817271255743e-23
-0.48514079953125133	1.1558192360716892e-23
-0.48507976437500133	1.1377778751604082e-23
-0.48501872921875133	1.1189692305118344e-23
-0.48495769406250133	1.0994063282375998e-23
-0.48489665890625133	1.0791021003521457e-23
-0.48483562375000133	1.0580689763862286e-23
-0.48477458859375133	1.0363207593025327e-23
-0.48471355343750133	1.013872466873879e-23
-0.48465251828125133	9.907385328399932e-24
-0.48459148312500133	9.669336775765562e-24
-0.48453044796875133	9.424742023911971e-24
-0.48446941281250133	9.173764493008953e-24
-0.48440837765625133	8.916563743543343e-24
-0.48434734250000133	8.653307199443089e-24
-0.48428630734375133	8.384170817211165e-24
-0.48422527218750133	8.10933352209495e-24
-0.48416423703125133	7.828977260324638e-24
-0.48410320187500133	7.543290383801198e-24
-0.48404216671875133	7.25246217128954e-24
-0.48398113156250133	6.956675620920246e-24
-0.48392009640625133	6.65612151029163e-24
-0.48385906125000133	6.351008709925016e-24
-0.48379802609375133	6.041547330831866e-24
-0.48373699093750133	5.727943883353081e-24
-0.48367595578125133	5.410396710196724e-24
-0.48361492062500133	5.089101308772484e-24
-0.48355388546875133	4.7642805456381504e-24
-0.48349285031250133	4.436164981388815e-24
-0.48343181515625133	4.1049678306933975e-24
-0.48337078000000133	3.770905079332871e-24
-0.48330974484375133	3.434197803014385e-24
-0.48324870968750133	3.09506584088001e-24
-0.48318767453125133	2.753731766296122e-24
-0.48312663937500133	2.4104262393727e-24
-0.48306560421875133	2.0653916823297713e-24
-0.48300456906250133	1.7188605617110264e-24
-0.48294353390625133	1.371045596538151e-24
-0.48288249875000133	1.02217095242011e-24
-0.48282146359375133	6.724794880680867e-25
-0.48276042843750133	3.22209589814281e-25
-0.48269939328125133	-2.8406986052705886e-26
-0.48263835812500133	-3.791332604565185e-25
-0.48257732296875133	-7.297309987879451e-25
-0.48251628781250133	-1.0799728251326936e-24
-0.48245525265625133	-1.4296344648012065e-24
-0.48239421750000133	-1.7784810892586893e-24
-0.48233318234375133	-2.1262692795879657e-24
-0.48227214718750133	-2.472760974015754e-24
-0.48221111203125133	-2.8177321238252546e-24
-0.48215007687500133	-3.1609522803493245e-24
-0.48208904171875133	-3.5021840754736016e-24
-0.48202800656250133	-3.8412080917018926e-24
-0.48196697140625133	-4.177802678649181e-24
-0.48190593625000133	-4.5117324026220855e-24
-0.48184490109375133	-4.8427714927279084e-24
-0.48178386593750133	-5.170699147702461e-24
-0.48172283078125133	-5.4952927923814424e-24
-0.48166179562500133	-5.8163366014692035e-24
-0.48160076046875133	-6.1336177606721e-24
-0.48153972531250133	-6.44692510305236e-24
-0.48147869015625133	-6.756048889567121e-24
-0.48141765500000133	-7.060772891726632e-24
-0.48135661984375133	-7.360884656134868e-24
-0.48129558468750133	-7.656187053275921e-24
-0.48123454953125133	-7.946490236905475e-24
-0.48117351437500133	-8.231602390177259e-24
-0.48111247921875133	-8.511323329141045e-24
-0.48105144406250133	-8.785455917621352e-24
-0.48099040890625133	-9.053820088802497e-24
-0.48092937375000133	-9.316238166913454e-24
-0.48086833859375133	-9.572527606286215e-24
-0.48080730343750133	-9.82251454083206e-24
-0.48074626828125133	-1.0066032964958418e-23
-0.48068523312500133	-1.0302918635906043e-23
-0.48062419796875133	-1.0533011031927607e-23
-0.48056316281250133	-1.0756148515437142e-23
-0.48050212765625133	-1.0972176810272363e-23
-0.48044109250000133	-1.1180958460367292e-23
-0.48038005734375133	-1.1382350714207861e-23
-0.48031902218750133	-1.1576204972433081e-23
-0.48025798703125133	-1.1762390437118162e-23
-0.48019695187500133	-1.1940786773393621e-23
-0.48013591671875133	-1.2111271867830919e-23
-0.48007488156250133	-1.2273727861918031e-23
-0.48001384640625133	-1.242804254894661e-23
-0.47995281125000133	-1.2574106874392427e-23
-0.47989177609375133	-1.2711817335565536e-23
-0.47983074093750133	-1.2841079580651473e-23
-0.47976970578125133	-1.2961808657641842e-23
-0.47970867062500133	-1.307392222051737e-23
-0.47964763546875133	-1.3177338113315375e-23
-0.47958660031250133	-1.3271981727412914e-23
-0.47952556515625133	-1.3357788151878188e-23
-0.47946453000000133	-1.343469772666291e-23
-0.47940349484375133	-1.350265468167743e-23
-0.47934245968750133	-1.356160911526084e-23
-0.47928142453125133	-1.3611518668334362e-23
-0.47922038937500133	-1.3652347372767948e-23
-0.47915935421875133	-1.3684063944170084e-23
-0.47909831906250133	-1.370664325323182e-23
-0.47903728390625133	-1.3720067192037978e-23
-0.47897624875000133	-1.3724323203935786e-23
-0.47891521359375133	-1.371940418796863e-23
-0.47885417843750133	-1.370530985051588e-23
-0.47879314328125133	-1.3682046309946053e-23
-0.47873210812500133	-1.3649625879462304e-23
-0.47867107296875133	-1.3608068143706308e-23
-0.47861003781250133	-1.3557396527939467e-23
-0.47854900265625133	-1.3497638310953653e-23
-0.47848796750000133	-1.3428831236804548e-23
-0.47842693234375133	-1.335102169792695e-23
-0.47836589718750133	-1.326425851541839e-23
-0.47830486203125133	-1.3168592173706499e-23
-0.47824382687500133	-1.3064081109297301e-23
-0.47818279171875133	-1.295079579597302e-23
-0.47812175656250133	-1.2828811840874852e-23
-0.47806072140625133	-1.2698206256727833e-23
-0.47799968625000133	-1.2559058848281111e-23
-0.47793865109375133	-1.2411458433516956e-23
-0.47787761593750133	-1.2255506300367758e-23
-0.47781658078125133	-1.2091304590511127e-23
-0.47775554562500133	-1.1918956838750967e-23
-0.47769451046875133	-1.1738576003809236e-23
-0.47763347531250133	-1.155027833717565e-23
-0.47757244015625133	-1.1354184000030718e-23
-0.47751140500000133	-1.1150425198105726e-23
-0.47745036984375133	-1.093914369551514e-23
-0.47738933468750133	-1.0720474515713736e-23
-0.47732829953125133	-1.0494549107152044e-23
-0.47726726437500133	-1.0261522201902389e-23
-0.47720622921875133	-1.0021556555239184e-23
-0.47714519406250133	-9.774799872975617e-24
-0.47708415890625133	-9.521412789105887e-24
-0.47702312375000133	-9.261575156481334e-24
-0.47696208859375133	-8.995457508638457e-24
-0.47690105343750133	-8.723225002319652e-24
-0.47684001828125133	-8.445057527459741e-24
-0.47677898312500133	-8.161146703195234e-24
-0.47671794796875133	-7.871685617500444e-24
-0.47665691281250133	-7.576863042344267e-24
-0.47659587765625133	-7.276863124539567e-24
-0.47653484250000133	-6.971882207227819e-24
-0.47647380734375133	-6.662140288421016e-24
-0.47641277218750133	-6.347853743706341e-24
-0.47635173703125133	-6.02921552455066e-24
-0.47629070187500133	-5.706422998887206e-24
-0.47622966671875133	-5.3796951337586924e-24
-0.47616863156250133	-5.0492656251300356e-24
-0.47610759640625133	-4.715363624801314e-24
-0.47604656125000133	-4.378195374579674e-24
-0.47598552609375133	-4.0379769517313416e-24
-0.47592449093750133	-3.694948095603297e-24
-0.47586345578125133	-3.349338640402124e-24
-0.47580242062500133	-3.0013731867894316e-24
-0.47574138546875133	-2.6512872961709127e-24
-0.47568035031250133	-2.2993198696592454e-24
-0.47561931515625133	-1.9457071502610896e-24
-0.47555828000000133	-1.5906782088656987e-24
-0.47549724484375133	-1.2344629187617361e-24
-0.47543620968750133	-8.773083216657694e-25
-0.47537517453125133	-5.194648961042465e-25
-0.47531413937500133	-1.6116960417927728e-25
-0.47525310421875133	1.973418132074481e-25
-0.47519206906250133	5.558345104307376e-25
-0.47513103390625133	9.140765409741329e-25
-0.47506999875000133	1.2718171273357106e-24
-0.47500896359375133	1.628797289755611e-24
-0.47494792843750133	1.9847856172652415e-24
-0.47488689328125133	2.3395605076112987e-24
-0.47482585812500133	2.6928782216741985e-24
-0.47476482296875133	3.0444911128096274e-24
-0.47470378781250133	3.394165840246293e-24
-0.47464275265625133	3.741673048559044e-24
-0.47458171750000133	4.086774259569661e-24
-0.47452068234375133	4.429228176526844e-24
-0.47445964718750133	4.768810136011331e-24
-0.47439861203125133	5.105300254960344e-24
-0.47433757687500133	5.4384668846720584e-24
-0.47427654171875133	5.768079155149528e-24
-0.47421550656250133	6.093915451139407e-24
-0.47415447140625133	6.415759024725073e-24
-0.47409343625000133	6.733389484425602e-24
-0.47403240109375133	7.046591918778327e-24
-0.47397136593750133	7.35516186301669e-24
-0.47391033078125133	7.658885634809776e-24
-0.47384929562500133	7.957549549776153e-24
-0.47378826046875133	8.25095874867409e-24
-0.47372722531250133	8.53891929608442e-24
-0.47366619015625133	8.821226293909306e-24
-0.47360515500000133	9.097686113892192e-24
-0.47354411984375133	9.368121974683912e-24
-0.47348308468750133	9.632352245033107e-24
-0.47342204953125133	9.890188606461261e-24
-0.47336101437500133	1.014144902918369e-23
-0.47329997921875133	1.0385967186535433e-23
-0.47323894406250133	1.0623587729697077e-23
-0.47317790890625133	1.0854144662658313e-23
-0.47311687375000133	1.1077468285734894e-23
-0.47305583859375133	1.1293412401995845e-23
-0.47299480343750133	1.1501840662831246e-23
-0.47293376828125133	1.1702605404032346e-23
-0.47287273312500133	1.1895559254314473e-23
-0.47281169796875133	1.2080567909636886e-23
-0.47275066281250133	1.2257512693492923e-23
-0.47268962765625133	1.242628061724487e-23
-0.47262859250000133	1.2586751481141475e-23
-0.47256755734375133	1.2738806858855946e-23
-0.47250652218750133	1.2882341162046909e-23
-0.47244548703125133	1.3017257754868409e-23
-0.47238445187500133	1.3143466623151999e-23
