Time	Frequency
-0.5000478361875054	-1.517477366823978e-23
-0.49998680103125537	-1.5130885250785695e-23
-0.49992576587500537	-1.507833155513407e-23
-0.49986473071875537	-1.5017099275745593e-23
-0.49980369556250537	-1.4947266575108295e-23
-0.49974266040625537	-1.4868848419485174e-23
-0.49968162525000537	-1.478188351456741e-23
-0.49962059009375537	-1.468644520677984e-23
-0.49955955493750537	-1.458254968168183e-23
-0.49949851978125537	-1.4470298086416793e-23
-0.49943748462500537	-1.4349725563062277e-23
-0.49937644946875537	-1.4220892013920135e-23
-0.49931541431250537	-1.4083908249812552e-23
-0.49925437915625537	-1.3938804725134548e-23
-0.49919334400000537	-1.3785705027475923e-23
-0.49913230884375537	-1.3624676887484843e-23
-0.49907127368750537	-1.345579002779254e-23
-0.49901023853125537	-1.3279186671682738e-23
-0.49894920337500537	-1.3094922120914457e-23
-0.49888816821875537	-1.2903136382338046e-23
-0.49882713306250537	-1.2703926858328212e-23
-0.49876609790625537	-1.2497378746755248e-23
-0.49870506275000537	-1.2283657634946394e-23
-0.49864402759375537	-1.2062840090744166e-23
-0.49858299243750537	-1.183508683857759e-23
-0.49852195728125537	-1.1600524228036232e-23
-0.49846092212500537	-1.135925115905491e-23
-0.49839988696875537	-1.1111451845082685e-23
-0.49833885181250537	-1.0857213767011125e-23
-0.49827781665625537	-1.05967215777769e-23
-0.49821678150000537	-1.0330143765997271e-23
-0.49815574634375537	-1.0057579781999623e-23
-0.49809471118750537	-9.779229498455184e-24
-0.49803367603125537	-9.495213865479733e-24
-0.49797264087500537	-9.205711858605773e-24
-0.49791160571875537	-8.910899190597287e-24
-0.49785057056250537	-8.610919238655292e-24
-0.49778953540625537	-8.306004311921718e-24
-0.49772850025000537	-7.996258531035439e-24
-0.49766746509375537	-7.681868832665224e-24
-0.49760642993750537	-7.36305970848515e-24
-0.49754539478125537	-7.03996829083521e-24
-0.49748435962500537	-6.712825474134552e-24
-0.49742332446875537	-6.3817736044465884e-24
-0.49736228931250537	-6.047012048814703e-24
-0.49730125415625537	-5.708768763895221e-24
-0.49724021900000537	-5.367188988528025e-24
-0.49717918384375537	-5.022512286639074e-24
-0.49711814868750537	-4.6748898887680866e-24
-0.49705711353125537	-4.3245537695173494e-24
-0.49699607837500537	-3.971752004774331e-24
-0.49693504321875537	-3.616578812454381e-24
-0.49687400806250537	-3.259293718454696e-24
-0.49681297290625537	-2.9001208100403738e-24
-0.49675193775000537	-2.5392503370348192e-24
-0.49669090259375537	-2.1769100810615875e-24
-0.49662986743750537	-1.8132554446409576e-24
-0.49656883228125537	-1.4485444400813732e-24
-0.49650779712500537	-1.08296600979443e-24
-0.49644676196875537	-7.167365714626791e-25
-0.49638572681250537	-3.501125113000738e-25
-0.49632469165625537	1.6786554039105085e-26
-0.49626365650000537	3.8370759924112036e-25
-0.49620262134375537	7.504169564913419e-25
-0.49614158618750537	1.1167077815402032e-24
-0.49608055103125537	1.4823506483402286e-24
-0.49601951587500537	1.8472090179695344e-24
-0.49595848071875537	2.211006355511009e-24
-0.49589744556250537	2.5735360269051267e-24
-0.49583641040625537	2.9346307022853234e-24
-0.49577537525000537	3.2940194561425173e-24
-0.49571434009375537	3.6515453474685776e-24
-0.49565330493750537	4.00697973300758e-24
-0.49559226978125537	4.360107822257366e-24
-0.49553123462500537	4.7107434667393796e-24
-0.49547019946875537	5.058647659668817e-24
-0.49540916431250537	5.403686807656254e-24
-0.49534812915625537	5.745611980665644e-24
-0.49528709400000537	6.084206976293032e-24
-0.49522605884375537	6.419330182934801e-24
-0.49516502368750537	6.750722093645825e-24
-0.49510398853125537	7.078227974112332e-24
-0.49504295337500537	7.401662408659627e-24
-0.49498191821875537	7.720822606020566e-24
-0.49492088306250537	8.035549040751995e-24
-0.49485984790625537	8.345606955171528e-24
-0.49479881275000537	8.650851490566148e-24
-0.49473777759375537	8.951094274035906e-24
-0.49467674243750537	9.24614710432923e-24
-0.49461570728125537	9.535882066922895e-24
-0.49455467212500537	9.820080309014997e-24
-0.49449363696875537	1.0098601255036901e-23
-0.49443260181250537	1.0371275586948533e-23
-0.49437156665625537	1.0637923272588312e-23
-0.49431053150000537	1.0898437365038328e-23
-0.49424949634375537	1.1152621914682057e-23
-0.49418846118750537	1.1400336046844505e-23
-0.49412742603125537	1.1641433991813498e-23
-0.49406639087500537	1.187576920423873e-23
-0.49400535571875537	1.210324691572408e-23
-0.49394432056250537	1.2323671814976882e-23
-0.49388328540625537	1.2536934605413062e-23
-0.49382225025000537	1.2742930725245082e-23
-0.49376121509375537	1.2941502677347703e-23
-0.49370017993750537	1.3132572222481207e-23
-0.49363914478125537	1.3315993502425657e-23
-0.49357810962500537	1.3491666656830287e-23
-0.49351707446875537	1.3659496664386826e-23
-0.49345603931250537	1.381934847371262e-23
-0.49339500415625537	1.3971183868563337e-23
-0.49333396900000537	1.4114883970816435e-23
-0.49327293384375537	1.4250344137687302e-23
-0.49321189868750537	1.437750547071814e-23
-0.49315086353125537	1.44962656520363e-23
-0.49308982837500537	1.460659011705442e-23
-0.49302879321875537	1.47083890632997e-23
-0.49296775806250537	1.4801593161290093e-23
-0.49290672290625537	1.488617244281964e-23
-0.49284568775000537	1.4962037670381568e-23
-0.49278465259375537	1.5029173176273708e-23
-0.49272361743750537	1.5087522838479514e-23
-0.49266258228125537	1.5137036660810557e-23
-0.49260154712500537	1.5177715225073048e-23
-0.49254051196875537	1.5209494806084363e-23
-0.49247947681250537	1.5232381030288682e-23
-0.49241844165625537	1.5246350292951856e-23
-0.49235740650000537	1.52513698337644e-23
-0.49229637134375537	1.5247469531765942e-23
-0.49223533618750537	1.5234612974012282e-23
-0.49217430103125537	1.5212826780553667e-23
-0.49211326587500537	1.518211952525616e-23
-0.49205223071875537	1.5142477423265824e-23
-0.49199119556250537	1.50939625011659e-23
-0.49193016040625537	1.5036564329228229e-23
-0.49186912525000537	1.497032606181644e-23
-0.49180809009375537	1.489529367467701e-23
-0.49174705493750537	1.481147328966207e-23
-0.49168601978125537	1.4718949998900833e-23
-0.49162498462500537	1.4617743308916898e-23
-0.49156394946875537	1.4507919052912135e-23
-0.49150291431250537	1.4389556556233566e-23
-0.49144187915625537	1.4262679279171975e-23
-0.49138084400000537	1.412739432463821e-23
-0.49131980884375537	1.398374916697021e-23
-0.49125877368750537	1.3831833040570636e-23
-0.49119773853125537	1.367176028647425e-23
-0.49113670337500537	1.3503570333841148e-23
-0.49107566821875537	1.3327395983900237e-23
-0.49101463306250537	1.3143309356054543e-23
-0.49095359790625537	1.2951406569699724e-23
-0.49089256275000537	1.2751844724515104e-23
-0.49083152759375537	1.2544690703428074e-23
-0.49077049243750537	1.2330088672786948e-23
-0.49070945728125537	1.2108137539209478e-23
-0.49064842212500537	1.1878946399707619e-23
-0.49058738696875537	1.1642701260222685e-23
-0.49052635181250537	1.1399495983648208e-23
-0.49046531665625537	1.1149491052859465e-23
-0.49040428150000537	1.0892806544289256e-23
-0.49034324634375537	1.0629566303096622e-23
-0.49028221118750537	1.0359984466366928e-23
-0.49022117603125537	1.0084168378479608e-23
-0.49016014087500537	9.802297471781775e-24
-0.49009910571875537	9.514524136055483e-24
-0.49003807056250537	9.220978633086997e-24
-0.48997703540625537	8.921894312323523e-24
-0.48991600025000537	8.617388595356898e-24
-0.48985496509375537	8.30765947996944e-24
-0.48979392993750537	7.992901864177334e-24
-0.48973289478125537	7.673240978249858e-24
-0.48967185962500537	7.348915830970062e-24
-0.48961082446875537	7.020070800367079e-24
-0.48954978931250537	6.686913858139456e-24
-0.48948875415625537	6.349666465836309e-24
-0.48942771900000537	6.008456953910062e-24
-0.48936668384375537	5.663531146499586e-24
-0.48930564868750537	5.31507030228973e-24
-0.48924461353125537	4.963276995093761e-24
-0.48918357837500537	4.60836154691434e-24
-0.48912254321875537	4.2504863524278485e-24
-0.48906150806250537	3.889926359647851e-24
-0.48900047290625537	3.5268477301306205e-24
-0.48893943775000537	3.1614552255839075e-24
-0.48887840259375537	2.7939912852342735e-24
-0.48881736743750537	2.4246180714593523e-24
-0.48875633228125537	2.0536095796420893e-24
-0.48869529712500537	1.6811320536498733e-24
-0.48863426196875537	1.3073977603652355e-24
-0.48857322681250537	9.326808663535532e-25
-0.48851219165625537	5.571356712084434e-25
-0.48845115650000537	1.8103134512094572e-25
-0.48839012134375537	-1.9545340490175159e-25
-0.48832908618750537	-5.721199434695254e-25
-0.48826805103125537	-9.486885492817683e-25
-0.48820701587500537	-1.3249973228755613e-24
-0.48814598071875537	-1.700764147695025e-24
-0.48808494556250537	-2.0758007004946428e-24
-0.48802391040625537	-2.4499404923483996e-24
-0.48796287525000537	-2.8228992389808014e-24
-0.48790184009375537	-3.1945032701258282e-24
-0.48784080493750537	-3.564493524062524e-24
-0.48777976978125537	-3.932677178398652e-24
-0.48771873462500537	-4.2988743203403965e-24
-0.48765769946875537	-4.662791841719873e-24
-0.48759666431250537	-5.024277030814665e-24
-0.48753562915625537	-5.3831163394854866e-24
-0.48747459400000537	-5.739100652330508e-24
-0.48741355884375537	-6.0920200168072666e-24
-0.48735252368750537	-6.4416149513981795e-24
-0.48729148853125537	-6.787759740636197e-24
-0.48723045337500537	-7.13020739526253e-24
-0.48716941821875537	-7.468758528237968e-24
-0.48710838306250537	-7.803273410659514e-24
-0.48704734790625537	-8.133472494052504e-24
-0.48698631275000537	-8.459198884979327e-24
-0.48692527759375537	-8.780265438044446e-24
-0.48686424243750537	-9.096480776894647e-24
-0.48680320728125537	-9.407678250265748e-24
-0.48674217212500537	-9.713618268030527e-24
-0.48668113696875537	-1.0014187121672549e-23
-0.48662010181250537	-1.0309181296521677e-23
-0.48655906665625537	-1.0598402695766613e-23
-0.48649803150000537	-1.0881738567437789e-23
-0.48643699634375537	-1.1158961295377132e-23
-0.48637596118750537	-1.1429945919732878e-23
-0.48631492603125537	-1.1694523394938713e-23
-0.48625389087500537	-1.1952511313617026e-23
-0.48619285571875537	-1.2203815373697722e-23
-0.48613182056250537	-1.2448231561740726e-23
-0.48607078540625537	-1.268564613062279e-23
-0.48600975025000537	-1.2915919266979564e-23
-0.48594871509375537	-1.3138876111385646e-23
-0.48588767993750537	-1.335443586227296e-23
-0.48582664478125537	-1.356242883895219e-23
-0.48576560962500537	-1.3762759760110382e-23
-0.48570457446875537	-1.3955315316307738e-23
-0.48564353931250537	-1.4139936237177453e-23
-0.48558250415625537	-1.4316558492591393e-23
-0.48552146900000537	-1.4485043752419387e-23
-0.48546043384375537	-1.464531342767936e-23
-0.48539939868750537	-1.479727902676768e-23
-0.48533836353125537	-1.4940806329900577e-23
-0.48527732837500537	-1.5075855676631982e-23
-0.48521629321875537	-1.520231161076805e-23
-0.48515525806250537	-1.5320112115089295e-23
-0.48509422290625537	-1.542920507762516e-23
-0.48503318775000537	-1.5529478033674294e-23
-0.48497215259375537	-1.5620911693005918e-23
-0.48491111743750537	-1.5703423917265034e-23
-0.48485008228125537	-1.5776968861729022e-23
-0.48478904712500537	-1.5841522147022664e-23
-0.48472801196875537	-1.589699791823517e-23
-0.48466697681250537	-1.5943406124797522e-23
-0.48460594165625537	-1.5980695133783968e-23
-0.48454490650000537	-1.6008829486073604e-23
-0.48448387134375537	-1.602782215168074e-23
-0.48442283618750537	-1.6037618368743385e-23
-0.48436180103125537	-1.6038241936672584e-23
-0.48430076587500537	-1.602967486080233e-23
-0.48423973071875537	-1.6011908156135672e-23
-0.48417869556250537	-1.5984984567192382e-23
-0.48411766040625537	-1.5948870956118923e-23
-0.48405662525000537	-1.5903614929897538e-23
-0.48399559009375537	-1.5849237136914876e-23
-0.48393455493750537	-1.578574198929381e-23
-0.48387351978125537	-1.5713201376557537e-23
-0.48381248462500537	-1.563162029151577e-23
-0.48375144946875537	-1.554106569087913e-23
-0.48369041431250537	-1.544158466319496e-23
-0.48362937915625537	-1.5333201481077615e-23
-0.48356834400000537	-1.5216019006752683e-23
-0.48350730884375537	-1.509007249548973e-23
-0.48344627368750537	-1.4955448000721447e-23
-0.48338523853125537	-1.4812224165977032e-23
-0.48332420337500537	-1.466045075456847e-23
-0.48326316821875537	-1.4500261252244037e-23
-0.48320213306250537	-1.4331706404950024e-23
-0.48314109790625537	-1.4154886738323697e-23
-0.48308006275000537	-1.396992610321591e-23
-0.48301902759375537	-1.3776893392783974e-23
-0.48295799243750537	-1.3575941075120745e-23
-0.48289695728125537	-1.3367150428403146e-23
-0.48283592212500537	-1.3150644150104396e-23
-0.48277488696875537	-1.2926576814971773e-23
-0.48271385181250537	-1.2695019879778905e-23
-0.48265281665625537	-1.2456148405618078e-23
-0.48259178150000537	-1.2210092107711684e-23
-0.48253074634375537	-1.1956981213125661e-23
-0.48246971118750537	-1.1696988771502167e-23
-0.48240867603125537	-1.1430216101094546e-23
-0.48234764087500537	-1.1156856075884623e-23
-0.48228660571875537	-1.0877052297742451e-23
-0.48222557056250537	-1.0590948402340059e-23
-0.48216453540625537	-1.029875237530947e-23
-0.48210350025000537	-1.0000585630106398e-23
-0.48204246509375537	-9.69665491919642e-24
-0.48198142993750537	-9.387120574705294e-24
-0.48192039478125537	-9.072138227194299e-24
-0.48185935962500537	-8.751954075706854e-24
-0.48179832446875537	-8.42669124857111e-24
-0.48173728931250537	-8.096552740944356e-24
-0.48167625415625537	-7.761739126642954e-24
-0.48161521900000537	-7.422417321537039e-24
-0.48155418384375537	-7.078849401995977e-24
-0.48149314868750537	-6.731180915983118e-24
-0.48143211353125537	-6.379620036271977e-24
-0.48137107837500537	-6.0243789273640864e-24
-0.48131004321875537	-5.6656247930198055e-24
-0.48124900806250537	-5.303638389143662e-24
-0.48118797290625537	-4.938582921928194e-24
-0.48112693775000537	-4.570673162965466e-24
-0.48106590259375537	-4.200143650111287e-24
-0.48100486743750537	-3.8271591668835564e-24
-0.48094383228125537	-3.452007459889905e-24
-0.48088279712500537	-3.0748702721098394e-24
-0.48082176196875537	-2.6959583655105386e-24
-0.48076072681250537	-2.3155123001815716e-24
-0.48069969165625537	-1.9337023147762156e-24
-0.48063865650000537	-1.550832165516694e-24
-0.48057762134375537	-1.167088761198154e-24
-0.48051658618750537	-7.8266894357740895e-25
-0.48045555103125537	-3.978453639325531e-25
-0.48039451587500537	-1.2790495900845719e-26
-0.48033348071875537	3.7222964097616737e-25
-0.48027244556250537	7.570120521115286e-25
-0.48021141040625537	1.1413301205238226e-24
-0.48015037525000537	1.5249179450598568e-24
-0.48008934009375537	1.9076291962657724e-24
-0.48002830493750537	2.2891880822533488e-24
-0.47996726978125537	2.669379462616433e-24
-0.47990623462500537	3.0479933681028035e-24
-0.47984519946875537	3.424755304478953e-24
-0.47978416431250537	3.799526172867372e-24
-0.47972312915625537	4.172046446361976e-24
-0.47966209400000537	4.5420969633048475e-24
-0.47960105884375537	4.909474701563812e-24
-0.47954002368750537	5.273908216763808e-24
-0.47947898853125537	5.635266801162859e-24
-0.47941795337500537	5.993292551052504e-24
-0.47935691821875537	6.3477762008196944e-24
-0.47929588306250537	6.69854493493382e-24
-0.47923484790625537	7.045312001654718e-24
-0.47917381275000537	7.387954176399612e-24
-0.47911277759375537	7.726250186908384e-24
-0.47905174243750537	8.059977664295374e-24
-0.47899070728125537	8.388982264622183e-24
-0.47892967212500537	8.713004373790514e-24
-0.47886863696875537	9.031910078354663e-24
-0.47880760181250537	9.345497962578362e-24
-0.47874656665625537	9.653565756263855e-24
-0.47868553150000537	9.955968824115836e-24
-0.47862449634375537	1.0252476307600223e-23
-0.47856346118750537	1.0542970892086881e-23
-0.47850242603125537	1.0827246756419423e-23
-0.47844139087500537	1.1105117588498796e-23
-0.47838035571875537	1.1376476117449971e-23
-0.47831932056250537	1.1641097299597837e-23
-0.47825828540625537	1.1898882132511432e-23
-0.47819725025000537	1.2149663332839308e-23
-0.47813621509375537	1.2393250940239138e-23
-0.47807517993750537	1.2629555725985033e-23
-0.47801414478125537	1.2858390944145121e-23
-0.47795310962500537	1.3079667516456068e-23
-0.47789207446875537	1.3293236572556352e-23
-0.47783103931250537	1.34989381699471e-23
-0.47777000415625537	1.3696711566893538e-23
-0.47770896900000537	1.3886373338724586e-23
-0.47764793384375537	1.4067852439961434e-23
-0.47758689868750537	1.424105005767624e-23
-0.47752586353125537	1.4405818721611323e-23
-0.47746482837500537	1.4562120576408788e-23
-0.47740379321875537	1.4709803343068957e-23
-0.47734275806250537	1.4848801791198837e-23
-0.47728172290625537	1.497905008158832e-23
-0.47722068775000537	1.5100427431740943e-23
-0.47715965259375537	1.5212922739242345e-23
-0.47709861743750537	1.531641971121709e-23
-0.47703758228125537	1.5410867125070497e-23
-0.47697654712500537	1.549622876785388e-23
-0.47691551196875537	1.5572405841218144e-23
-0.47685447681250537	1.5639407559756035e-23
-0.47679344165625537	1.56971587648377e-23
-0.47673240650000537	1.5745629903922655e-23
-0.47667137134375537	1.5784811927223656e-23
-0.47661033618750537	1.5814635727329654e-23
-0.47654930103125537	1.5835134190939156e-23
-0.47648826587500537	1.5846258849339497e-23
-0.47642723071875537	1.584800354262811e-23
-0.47636619556250537	1.5840399160670715e-23
-0.47630516040625537	1.5823397389424305e-23
-0.47624412525000537	1.5797052088640136e-23
-0.47618309009375537	1.5761356477658685e-23
-0.47612205493750537	1.571632194497765e-23
-0.47606101978125537	1.566200901964816e-23
-0.47599998462500537	1.559839888249533e-23
-0.47593894946875537	1.5525567411327685e-23
-0.47587791431250537	1.5443544692965452e-23
-0.47581687915625537	1.535236067751028e-23
-0.47575584400000537	1.525210864988479e-23
-0.47569480884375537	1.5142802285614456e-23
-0.47563377368750537	1.5024530965539485e-23
-0.47557273853125537	1.4897357350707534e-23
-0.47551170337500537	1.4761340030000962e-23
-0.47545066821875537	1.461659890971015e-23
-0.47538963306250537	1.4463169892764013e-23
-0.47532859790625537	1.4301173322621518e-23
-0.47526756275000537	1.4130709197725657e-23
-0.47520652759375537	1.3951839556170508e-23
-0.47514549243750537	1.3764715991808087e-23
-0.47508445728125537	1.3569412335016485e-23
-0.47502342212500537	1.3366053231081926e-23
-0.47496238696875537	1.3154775026598245e-23
-0.47490135181250537	1.2935673091273148e-23
-0.47484031665625537	1.2708911992943675e-23
-0.47477928150000537	1.247459047972643e-23
-0.47471824634375537	1.2232860716332195e-23
-0.47465721118750537	1.1983878792203681e-23
-0.47459617603125537	1.1727749155038442e-23
-0.47453514087500537	1.146467394402554e-23
-0.47447410571875537	1.119478578127436e-23
-0.47441307056250537	1.091823981192734e-23
-0.47435203540625537	1.0635213435469625e-23
-0.47429100025000537	1.0345830957949548e-23
-0.47422996509375537	1.0050321238760568e-23
-0.47416892993750537	9.748840904483794e-24
-0.47410789478125537	9.441550494294108e-24
-0.47404685962500537	9.12865733435613e-24
-0.47398582446875537	8.81029959152458e-24
-0.47392478931250537	8.486713093850272e-24
-0.47386375415625537	8.158080948506776e-24
-0.47380271900000537	7.82458589788472e-24
-0.47374168384375537	7.486461109540701e-24
-0.47368064868750537	7.14383727582491e-24
-0.47361961353125537	6.796955669924311e-24
-0.47355857837500537	6.446037325323436e-24
-0.47349754321875537	6.091271921426986e-24
-0.47343650806250537	5.732912282091559e-24
-0.47337547290625537	5.371099457316145e-24
-0.47331443775000537	5.006071698054447e-24
-0.47325340259375537	4.638072517445188e-24
-0.47319236743750537	4.2672976908539926e-24
-0.47313133228125537	3.894010648613685e-24
-0.47307029712500537	3.51836517828467e-24
-0.47300926196875537	3.1406142752480003e-24
-0.47294822681250537	2.76101374345668e-24
-0.47288719165625537	2.3797361121535985e-24
-0.47282615650000537	1.9970631254297435e-24
-0.47276512134375537	1.6131748992076087e-24
-0.47270408618750537	1.2283132443484714e-24
-0.47264305103125537	8.42745496829994e-25
-0.47258201587500537	4.566447819325441e-25
-0.47252098071875537	7.029161230097467e-26
-0.47245994556250537	-3.1612796667343766e-25
-0.47239891040625537	-7.023692585711695e-25
