Time	Frequency
-0.5000438689375031	0.022651556035599152
-0.4999828337812531	0.0331722453466474
-0.4999217986250031	0.0436775616385195
-0.4998607634687531	0.054162294776476855
-0.4997997283125031	0.06462045091884447
-0.4997386931562531	0.07504691135578868
-0.4996776580000031	0.08543686811273483
-0.4996166228437531	0.09578487236823133
-0.4995555876875031	0.10608525601269278
-0.4994945525312531	0.11633245903423599
-0.4994335173750031	0.12652239322159858
-0.4993724822187531	0.13665020613188925
-0.4993114470625031	0.14670973994380898
-0.4992504119062531	0.15669567949428223
-0.4991893767500031	0.1666033242791895
-0.4991283415937531	0.17642765529773974
-0.4990673064375031	0.18616434739399157
-0.4990062712812531	0.19580811547286436
-0.4989452361250031	0.20535328656665164
-0.4988842009687531	0.21479528490195673
-0.4988231658125031	0.2241300479566707
-0.4987621306562531	0.2333526786606913
-0.4987010955000031	0.2424579763608822
-0.4986400603437531	0.25144113596755147
-0.4985790251875031	0.26029793163662973
-0.4985179900312531	0.2690242252948513
-0.4984569548750031	0.277615277370713
-0.4983959197187531	0.2860665469965294
-0.4983348845625031	0.2943736609251233
-0.4982738494062531	0.3025327225863504
-0.4982128142500031	0.310539316519209
-0.4981517790937531	0.3183895675262146
-0.4980907439375031	0.32607938052346347
-0.4980297087812531	0.3336043712860718
-0.4979686736250031	0.3409609741153249
-0.4979076384687531	0.34814601798318273
-0.4978466033125031	0.3551555495407682
-0.4977855681562531	0.361985463674581
-0.4977245330000031	0.3686322765881294
-0.4976634978437531	0.3750929541700774
-0.4976024626875031	0.38136424131725644
-0.4975414275312531	0.3874426936776837
-0.4974803923750031	0.3933252522136893
-0.4974193572187531	0.3990089462777972
-0.4973583220625031	0.40449091072446275
-0.4972972869062531	0.4097680428066924
-0.4972362517500031	0.41483747983818464
-0.4971752165937531	0.4196969789649097
-0.4971141814375031	0.4243442603223561
-0.4970531462812531	0.4287764938699688
-0.4969921111250031	0.4329913376020356
-0.4969310759687531	0.43698681177213144
-0.4968700408125031	0.44076082939162814
-0.4968090056562531	0.44431124764996405
-0.4967479705000031	0.4476363416421682
-0.4966869353437531	0.4507343833128232
-0.4966259001875031	0.4536037316101266
-0.4965648650312531	0.4562427791175345
-0.4965038298750031	0.45865027005796033
-0.4964427947187531	0.4608249466033218
-0.4963817595625031	0.46276562168508256
-0.4963207244062531	0.46447115697665947
-0.4962596892500031	0.46594057619974166
-0.4961986540937531	0.46717317496792743
-0.4961376189375031	0.4681683253407409
-0.4960765837812531	0.46892556220212495
-0.4960155486250031	0.4694443109656554
-0.4959545134687531	0.469724214376063
-0.4958934783125031	0.46976499733144955
-0.4958324431562531	0.4695667941405585
-0.4957714080000031	0.4691295665524858
-0.4957103728437531	0.4684534987280729
-0.4956493376875031	0.4675388006286035
-0.4955883025312531	0.4663859985264671
-0.4955272673750031	0.46499558657943485
-0.4954662322187531	0.4633681843156266
-0.4954051970625031	0.46150451726169506
-0.4953441619062531	0.45940557956058503
-0.4952831267500031	0.4570724272665268
-0.4952220915937531	0.4545061473460673
-0.4951610564375031	0.4517078734095395
-0.4951000212812531	0.4486789690078483
-0.4950389861250031	0.4454212285949253
-0.4949779509687531	0.44193609510811066
-0.4949169158125031	0.43822510109229257
-0.4948558806562531	0.434290202047065
-0.4947948455000031	0.4301336981879779
-0.4947338103437531	0.4257573729745937
-0.4946727751875031	0.42116298272809116
-0.4946117400312531	0.4163531122484485
-0.4945507048750031	0.4113308344793592
-0.4944896697187531	0.4060981623503851
-0.4944286345625031	0.4006574477042496
-0.4943675994062531	0.39501145863994847
-0.4943065642500031	0.3891632175104221
-0.4942455290937531	0.3831158062433358
-0.4941844939375031	0.3768722377043372
-0.4941234587812531	0.3704355962341062
-0.4940624236250031	0.3638090458337732
-0.4940013884687531	0.3569955385447681
-0.4939403533125031	0.3499987440087297
-0.4938793181562531	0.3428228769687143
-0.4938182830000031	0.33547134725024497
-0.4937572478437531	0.3279475842128814
-0.4936962126875031	0.32025504913832453
-0.4936351775312531	0.31239754486254306
-0.4935741423750031	0.30437931014961583
-0.4935131072187531	0.29620517345618247
-0.4934520720625031	0.2878791700486645
-0.4933910369062531	0.27940497338503023
-0.4933300017500031	0.27078632807655983
-0.4932689665937531	0.26202794730513196
-0.4932079314375031	0.2531345659182588
-0.4931468962812531	0.24411126327908342
-0.4930858611250031	0.2349625773442547
-0.4930248259687531	0.22569202547662326
-0.4929637908125031	0.2163042319956262
-0.4929027556562531	0.20680508377177487
-0.4928417205000031	0.19719949015219249
-0.4927806853437531	0.18749170326218373
-0.4927196501875031	0.17768704937095148
-0.4926586150312531	0.16779017882476918
-0.4925975798750031	0.15780566184523773
-0.4925365447187531	0.1477390252324977
-0.4924755095625031	0.13759636074922535
-0.4924144744062531	0.12738240729448877
-0.4923534392500031	0.11710170642929935
-0.4922924040937531	0.10675951771137633
-0.4922313689375031	0.09636172023708203
-0.4921703337812531	0.08591306772077226
-0.4921092986250031	0.07541898799213667
-0.4920482634687531	0.06488562277181535
-0.4919872283125031	0.05431810826175862
-0.4919261931562531	0.04372124082595968
-0.4918651580000031	0.03310050168392905
-0.4918041228437531	0.022461794967359342
-0.4917430876875031	0.011810369684059149
-0.4916820525312531	0.0011515984077598406
-0.4916210173750031	-0.009508964311470825
-0.4915599822187531	-0.020165476742279424
-0.4914989470625031	-0.030812808215880075
-0.4914379119062531	-0.041445695898121825
-0.4913768767500031	-0.05205871592689851
-0.4913158415937531	-0.06264605262513898
-0.4912548064375031	-0.0732022711169338
-0.4911937712812531	-0.08372200268427607
-0.4911327361250031	-0.09419977590842901
-0.4910717009687531	-0.10463018186536054
-0.4910106658125031	-0.11500810231476934
-0.4909496306562531	-0.12532860809233826
-0.4908885955000031	-0.1355858358279191
-0.4908275603437531	-0.14577380415476393
-0.4907665251875031	-0.1558877362570377
-0.4907054900312531	-0.16592282876686396
-0.4906444548750031	-0.17587396140730793
-0.4905834197187531	-0.1857357755809786
-0.4905223845625031	-0.1955032115578681
-0.4904613494062531	-0.20517122343748
-0.4904003142500031	-0.21473385561001104
-0.4903392790937531	-0.22418696701062296
-0.4902782439375031	-0.23352649149074053
-0.4902172087812531	-0.2427469075730271
-0.4901561736250031	-0.25184312020726085
-0.4900951384687531	-0.26081033466927983
-0.4900341033125031	-0.26964378435722824
-0.4899730681562531	-0.2783398371117957
-0.4899120330000031	-0.28689389263562953
-0.4898509978437531	-0.2953006290071987
-0.4897899626875031	-0.3035556307044082
-0.4897289275312531	-0.3116554264511317
-0.4896678923750031	-0.3195955633628417
-0.4896068572187531	-0.3273714168375191
-0.4895458220625031	-0.3349793341932347
-0.4894847869062531	-0.34241552322342933
-0.4894237517500031	-0.3496759258032242
-0.4893627165937531	-0.356756589611252
-0.4893016814375031	-0.3636539072683975
-0.4892406462812531	-0.3703640881312828
-0.4891796111250031	-0.37688386182310507
-0.4891185759687531	-0.3832096906153255
-0.4890575408125031	-0.38933836183285875
-0.4889965056562531	-0.39526673423232833
-0.4889354705000031	-0.4009918327685417
-0.4888744353437531	-0.4065103695365104
-0.4888134001875031	-0.41181899608968064
-0.4887523650312531	-0.41691496966308106
-0.4886913298750031	-0.42179617166124733
-0.4886302947187531	-0.42646036463044307
-0.4885692595625031	-0.43090474670937806
-0.4885082244062531	-0.43512641814549397
-0.4884471892500031	-0.43912308224542707
-0.4883861540937531	-0.4428930235375956
-0.4883251189375031	-0.446434248643584
-0.4882640837812531	-0.44974490425338165
-0.4882030486250031	-0.4528232342236516
-0.4881420134687531	-0.45566732070802995
-0.4880809783125031	-0.45827552237548314
-0.4880199431562531	-0.4606467740138488
-0.4879589080000031	-0.4627796250265176
-0.4878978728437531	-0.46467272474834315
-0.4878368376875031	-0.466325226313162
-0.4877758025312531	-0.46773634083144133
-0.4877147673750031	-0.4689050081375952
-0.4876537322187531	-0.46983051182577973
-0.4875926970625031	-0.47051232375554664
-0.4875316619062531	-0.47095015346312974
-0.4874706267500031	-0.4711436388462509
-0.4874095915937531	-0.47109255531848176
-0.4873485564375031	-0.47079680741494334
-0.4872875212812531	-0.47025656331167326
-0.4872264861250031	-0.4694719692727395
-0.4871654509687531	-0.4684433017633839
-0.4871044158125031	-0.46717110161760417
-0.4870433806562531	-0.465655893697819
-0.4869823455000031	-0.4638983800799829
-0.4869213103437531	-0.4618993679821197
-0.4868602751875031	-0.4596598754830699
-0.4867992400312531	-0.4571807931062999
-0.4867382048750031	-0.45446351368052645
-0.4866771697187531	-0.4515093774059027
-0.4866161345625031	-0.4483198258359476
-0.4865550994062531	-0.4448962190041413
-0.4864940642500031	-0.44124026634965374
-0.4864330290937531	-0.4373538585417792
-0.4863719939375031	-0.43323911834231066
-0.4863109587812531	-0.4288979677887548
-0.4862499236250031	-0.42433245495249966
-0.4861888884687531	-0.41954493949411287
-0.4861278533125031	-0.41453783613418255
-0.4860668181562531	-0.4093134880067226
-0.4860057830000031	-0.4038745601300033
-0.4859447478437531	-0.3982241340640144
-0.4858837126875031	-0.3923649487588848
-0.4858226775312531	-0.38629972656855954
-0.4857616423750031	-0.380031333913305
-0.4857006072187531	-0.3735633044028399
-0.4856395720625031	-0.3668990553502579
-0.4855785369062531	-0.36004177425166717
-0.4855175017500031	-0.35299482453278336
-0.4854564665937531	-0.3457618616474919
-0.4853954314375031	-0.33834644917731954
-0.4853343962812531	-0.3307526917424895
-0.4852733611250031	-0.3229841043374157
-0.4852123259687531	-0.31504456030449485
-0.4851512908125031	-0.30693863205281413
-0.4850902556562531	-0.29867048261928114
-0.4850292205000031	-0.29024386326738755
-0.4849681853437531	-0.28166285622826964
-0.4849071501875031	-0.2729318584921853
-0.4848461150312531	-0.26405597835246297
-0.4847850798750031	-0.25504003729772845
-0.4847240447187531	-0.24588769101072064
-0.4846630095625031	-0.23660382130345697
-0.4846019744062531	-0.2271938935017545
-0.4845409392500031	-0.21766227989447065
-0.4844799040937531	-0.20801289875216228
-0.4844188689375031	-0.19825135481854325
-0.4843578337812531	-0.18838375027916887
-0.4842967986250031	-0.17841502746530816
-0.4842357634687531	-0.1683490068639578
-0.4841747283125031	-0.15819122580640718
-0.4841136931562531	-0.1479470643690223
-0.4840526580000031	-0.13762148009265263
-0.4839916228437531	-0.12722056058123105
-0.4839305876875031	-0.11675018120035831
-0.4838695525312531	-0.10621465182666052
-0.4838085173750031	-0.09561865050716926
-0.4837474822187531	-0.08496860495983932
-0.4836864470625031	-0.07427056688816495
-0.4836254119062531	-0.06352980347448128
-0.4835643767500031	-0.052751488645384655
-0.4835033415937531	-0.041941032124686646
-0.4834423064375031	-0.031103736953812928
-0.4833812712812531	-0.020246036335446388
-0.4833202361250031	-0.009373707304879705
-0.4832592009687531	0.0015080268211101983
-0.4831981658125031	0.012393874237504201
-0.4831371306562531	0.023277923696560267
-0.4830760955000031	0.03415458365927404
-0.4830150603437531	0.04501801549538016
-0.4829540251875031	0.055862622003894316
-0.4828929900312531	0.06668312296093847
-0.4828319548750031	0.07747363033575971
-0.4827709197187531	0.0882281118429389
-0.4827098845625031	0.09894117008275058
-0.4826488494062531	0.10960789757604086
-0.4825878142500031	0.1202226209664327
-0.4825267790937531	0.1307797029867638
-0.4824657439375031	0.14127322083403893
-0.4824047087812531	0.15169744879556182
-0.4823436736250031	0.1620470735789062
-0.4822826384687531	0.17231754198574997
-0.4822216033125031	0.18250345007854238
-0.4821605681562531	0.19259930154488816
-0.4820995330000031	0.2025994270190749
-0.4820384978437531	0.2124980941863256
-0.4819774626875031	0.22229070310278312
-0.4819164275312531	0.23197276149478768
-0.4818553923750031	0.2415388158167966
-0.4817943572187531	0.2509833085647156
-0.4817333220625031	0.2603016659806493
-0.4816722869062531	0.2694896448562896
-0.4816112517500031	0.2785417042244455
-0.4815502165937531	0.28745260317175264
-0.4814891814375031	0.29621827893693353
-0.4814281462812531	0.30483436633006067
-0.4813671111250031	0.31329647141347267
-0.4813060759687531	0.3215996836104049
-0.4812450408125031	0.3297395378943302
-0.4811840056562531	0.3377119009181484
-0.4811229705000031	0.3455123299883867
-0.4810619353437531	0.35313701733065056
-0.4810009001875031	0.3605824177286461
-0.4809398650312531	0.3678440662141163
-0.4808788298750031	0.374918040124291
-0.4808177947187531	0.3818004159978331
-0.4807567595625031	0.38848770782076686
-0.4806957244062531	0.39497671665381845
-0.4806346892500031	0.4012640997804413
-0.4805736540937531	0.4073460917600523
-0.4805126189375031	0.4132193572856104
-0.4804515837812531	0.4188810251841506
-0.4803905486250031	0.4243280191891829
-0.4803295134687531	0.42955754878568014
-0.4802684783125031	0.43456663489126385
-0.4802074431562531	0.4393525714480962
-0.4801464080000031	0.44391300635114267
-0.4800853728437531	0.4482456829321213
-0.4800243376875031	0.4523477079506379
-0.4799633025312531	0.45621691198047604
-0.4799022673750031	0.4598514057405404
-0.4798412322187531	0.4632494518901538
-0.4797801970625031	0.4664090501509089
-0.4797191619062531	0.46932831011151543
-0.4796581267500031	0.4720056250981595
-0.4795970915937531	0.47443955005703653
-0.4795360564375031	0.476628799435522
-0.4794750212812531	0.4785721937871351
-0.4794139861250031	0.48026863024402283
-0.4793529509687531	0.48171701231360764
-0.4792919158125031	0.4829165922303507
-0.4792308806562531	0.48386662915670703
-0.4791698455000031	0.4845665161478976
-0.4791088103437531	0.4850158430411741
-0.4790477751875031	0.4852143144993671
-0.4789867400312531	0.4851616289667881
-0.4789257048750031	0.48485785114588004
-0.4788646697187531	0.4843030360350102
-0.4788036345625031	0.4834973395660455
-0.4787425994062531	0.48244110240040045
-0.4786815642500031	0.4811347963240105
-0.4786205290937531	0.4795788758386122
-0.4785594939375031	0.4777742740536549
-0.4784984587812531	0.475721853758628
-0.4784374236250031	0.4734225056207453
-0.4783763884687531	0.4708772876865036
-0.4783153533125031	0.46808746232833415
-0.4782543181562531	0.46505448444544795
-0.4781932830000031	0.4617799967693306
-0.4781322478437531	0.4582652885745006
-0.4780712126875031	0.4545119434763785
-0.4780101775312531	0.4505222185865831
-0.4779491423750031	0.44629838137812455
-0.4778881072187531	0.44184235976954844
-0.4778270720625031	0.4371560231971722
-0.4777660369062531	0.4322418812261418
-0.4777050017500031	0.4271022360283042
-0.4776439665937531	0.42173989879237533
-0.4775829314375031	0.4161579564545863
-0.4775218962812531	0.4103592951574879
-0.4774608611250031	0.4043464020615823
-0.4773998259687531	0.39812222863295077
-0.4773387908125031	0.39168984081884417
-0.4772777556562531	0.38505273734186946
-0.4772167205000031	0.3782147634540291
-0.4771556853437531	0.3711793529982332
-0.4770946501875031	0.3639496303849498
-0.4770336150312531	0.35652947620892667
-0.4769725798750031	0.3489227681115295
-0.4769115447187531	0.341133203114437
-0.4768505095625031	0.3331650296917117
-0.4767894744062531	0.3250221170833979
-0.4767284392500031	0.31670872731883526
-0.4766674040937531	0.3082294778941847
-0.4766063689375031	0.29958876131613743
-0.4765453337812531	0.29079070637165655
-0.4764842986250031	0.2818395829082537
-0.4764232634687531	0.2727401174784921
-0.4763622283125031	0.26349739833112673
-0.4763011931562531	0.254115957085807
-0.4762401580000031	0.24460110299503268
-0.4761791228437531	0.2349575951623801
-0.4761180876875031	0.22518983823178407
-0.4760570525312531	0.21530309646984128
-0.4759960173750031	0.20530270467915204
-0.4759349822187531	0.1951937426332109
-0.4758739470625031	0.18498187410324607
-0.4758129119062531	0.17467224111375088
-0.4757518767500031	0.16426971466551038
-0.4756908415937531	0.15377994968264794
-0.4756298064375031	0.14320827963621174
-0.4755687712812531	0.1325604547819855
-0.4755077361250031	0.12184239313246666
-0.4754467009687531	0.11105918945050362
-0.4753856658125031	0.10021589461212022
-0.4753246306562531	0.08931891986050514
-0.4752635955000031	0.07837417269564483
-0.4752025603437531	0.06738704115952072
-0.4751415251875031	0.056362635118061465
-0.4750804900312531	0.04530716198502696
-0.4750194548750031	0.034226870986988664
-0.4749584197187531	0.023127642954706804
-0.4748973845625031	0.012014692487442037
-0.4748363494062531	0.0008931602265185146
-0.4747753142500031	-0.010230509716991886
-0.4747142790937531	-0.021349733226705078
-0.4746532439375031	-0.03245900123409342
-0.4745922087812531	-0.043552845962905234
-0.4745311736250031	-0.0546255144949576
-0.4744701384687531	-0.06567156330244057
-0.4744091033125031	-0.07668481858932384
-0.4743480681562531	-0.08765935828013585
-0.4742870330000031	-0.09858886437844679
-0.4742259978437531	-0.10946799286267349
-0.4741649626875031	-0.12029174428920636
-0.4741039275312531	-0.1310544563376878
-0.4740428923750031	-0.14174963304263183
-0.4739818572187531	-0.15237181683950674
-0.4739208220625031	-0.16291577993811196
-0.4738597869062531	-0.17337571836332116
-0.4737987517500031	-0.18374600487968304
-0.4737377165937531	-0.19402142430524058
-0.4736766814375031	-0.2041965662621399
-0.4736156462812531	-0.21426604240735972
-0.4735546111250031	-0.2242246944891071
-0.4734935759687531	-0.23406697170632038
-0.4734325408125031	-0.24378811279237392
-0.4733715056562531	-0.25338249088028014
-0.4733104705000031	-0.2628446494965609
-0.4732494353437531	-0.2721701005045584
-0.4731884001875031	-0.2813544774623704
-0.4731273650312531	-0.2903926722364919
-0.4730663298750031	-0.29927996718288485
-0.4730052947187531	-0.308011093759275
-0.4729442595625031	-0.3165807970228769
-0.4728832244062531	-0.3249853229487804
-0.4728221892500031	-0.33322103754458493
-0.4727611540937531	-0.34128337881482124
-0.4727001189375031	-0.34916731407238155
-0.4726390837812531	-0.35686805384854675
-0.4725780486250031	-0.36438219509753256
-0.4725170134687531	-0.37170655975875255
-0.4724559783125031	-0.3788368266753355
-0.4723949431562531	-0.3857686835312202
-0.4723339080000031	-0.39249829779128026
-0.4722728728437531	-0.39902241323277154
-0.4722118376875031	-0.4053378178469317
-0.4721508025312531	-0.4114412290042895
-0.4720897673750031	-0.4173290227139631
-0.4720287322187531	-0.4229977239528719
-0.4719676970625031	-0.4284445862515387
-0.4719066619062531	-0.4336671423595818
-0.4718456267500031	-0.4386621068452466
-0.4717845915937531	-0.44342678352364506
-0.4717235564375031	-0.44795872141758686
-0.4716625212812531	-0.45225566695455655
-0.4716014861250031	-0.4563151175036132
-0.4715404509687531	-0.460134736357936
-0.4714794158125031	-0.46371247190681814
-0.4714183806562531	-0.46704655094875025
-0.4713573455000031	-0.4701352556948551
-0.4712963103437531	-0.47297665305658704
-0.4712352751875031	-0.4755692014789219
-0.4711742400312531	-0.47791154668534214
-0.4711132048750031	-0.48000250444363074
-0.4710521697187531	-0.4818406646573454
-0.4709911345625031	-0.4834251388093786
-0.4709300994062531	-0.4847549639589076
-0.4708690642500031	-0.4858295168351354
-0.4708080290937531	-0.4866480466769697
-0.4707469939375031	-0.48721011069522163
-0.4706859587812531	-0.48751529832131635
-0.4706249236250031	-0.4875633708965145
-0.4705638884687531	-0.4873542334355605
-0.4705028533125031	-0.48688796697808473
-0.4704418181562531	-0.48616480631676967
-0.4703807830000031	-0.48518504063475276
-0.4703197478437531	-0.4839491805708508
-0.4702587126875031	-0.4824576763414537
-0.4701976775312531	-0.48071128689516845
-0.4701366423750031	-0.47871081006313415
-0.4700756072187531	-0.47645720776864614
-0.4700145720625031	-0.47395194932677764
-0.4699535369062531	-0.4711964205670444
-0.4698925017500031	-0.4681913649136909
-0.4698314665937531	-0.46493826669286736
-0.4697704314375031	-0.46143927931001916
-0.4697093962812531	-0.4576963047083405
-0.4696483611250031	-0.45371099601877707
