Time	Frequency
-0.5000067150937468	-0.4396265538027755
-0.49994567993749683	-0.4453114773914826
-0.49988464478124683	-0.4507341862865197
-0.49982360962499683	-0.4558917622860853
-0.49976257446874683	-0.46078065954466285
-0.49970153931249683	-0.465397544273346
-0.49964050415624683	-0.4697400996622392
-0.49957946899999683	-0.47380587564845406
-0.49951843384374683	-0.47759188185432455
-0.49945739868749683	-0.4810954852440096
-0.49939636353124683	-0.4843146699452944
-0.49933532837499683	-0.4872477465919436
-0.49927429321874683	-0.4898926832926867
-0.49921325806249683	-0.4922474937423671
-0.49915222290624683	-0.4943108341721363
-0.49909118774999683	-0.49608146746396325
-0.49903015259374683	-0.4975580579658055
-0.49896911743749683	-0.49873963839543584
-0.49890808228124683	-0.49962539759549446
-0.49884704712499683	-0.5002146314627233
-0.49878601196874683	-0.5005068106142699
-0.49872497681249683	-0.5005016547462257
-0.49866394165624683	-0.5001991223372492
-0.49860290649999683	-0.49959926174120745
-0.49854187134374683	-0.49870222822142596
-0.49848083618749683	-0.49750836265503057
-0.49841980103124683	-0.4960181904157612
-0.49835876587499683	-0.4942325863273586
-0.49829773071874683	-0.49215258954692936
-0.49823669556249683	-0.4897791394701448
-0.49817566040624683	-0.48711351675380565
-0.49811462524999683	-0.4841572016833691
-0.49805359009374683	-0.48091181824113177
-0.49799255493749683	-0.4773791567330866
-0.49793151978124683	-0.47356110106424376
-0.49787048462499683	-0.46945985605108415
-0.49780944946874683	-0.46507778479378264
-0.49774841431249683	-0.4604173325600388
-0.49768737915624683	-0.4554813155545504
-0.49762634399999683	-0.45027233418822693
-0.49756530884374683	-0.44479312131250126
-0.49750427368749683	-0.43904707438149876
-0.49744323853124683	-0.4330375978498938
-0.49738220337499683	-0.42676796419953733
-0.49732116821874683	-0.42024190201368106
-0.49726013306249683	-0.41346315817563306
-0.49719909790624683	-0.4064355373611034
-0.49713806274999683	-0.39916328707847704
-0.49707702759374683	-0.3916504089260256
-0.49701599243749683	-0.3839011235951305
-0.49695495728124683	-0.3759201290797856
-0.49689392212499683	-0.36771234526659313
-0.49683288696874683	-0.3592825027514738
-0.49677185181249683	-0.3506348783543442
-0.49671081665624683	-0.34177458953341155
-0.49664978149999683	-0.33270774663642533
-0.49658874634374683	-0.32343930905431006
-0.49652771118749683	-0.31397373680073837
-0.49646667603124683	-0.30431682722483794
-0.49640564087499683	-0.2944751875542549
-0.49634460571874683	-0.2844546472991102
-0.49628357056249683	-0.27426018482633074
-0.49622253540624683	-0.2638976652479937
-0.49616150024999683	-0.2533735071199005
-0.49610046509374683	-0.2426937151993099
-0.49603942993749683	-0.23186521136511248
-0.49597839478124683	-0.22089454290217814
-0.49591735962499683	-0.20978685456530366
-0.49585632446874683	-0.19854913392964776
-0.49579528931249683	-0.187189086871188
-0.49573425415624683	-0.17571243352497046
-0.49567321899999683	-0.16412540744487522
-0.49561218384374683	-0.15243555819560486
-0.49555114868749683	-0.14065009987874746
-0.49549011353124683	-0.12877619393732434
-0.49542907837499683	-0.11682034994212352
-0.49536804321874683	-0.10478867844411631
-0.49530700806249683	-0.09268894832439592
-0.49524597290624683	-0.0805294651825999
-0.49518493774999683	-0.06831659375452807
-0.49512390259374683	-0.05605710788621782
-0.49506286743749683	-0.04375886144095242
-0.49500183228124683	-0.031428846865653774
-0.49494079712499683	-0.01907433905845346
-0.49487976196874683	-0.00670291145896805
-0.49481872681249683	0.005678019717917354
-0.49475769165624683	0.018061055065824637
-0.49469665649999683	0.030439344230853295
-0.49463562134374683	0.04280569311724266
-0.49457458618749683	0.05515203838008997
-0.49451355103124683	0.06747103254660301
-0.49445251587499683	0.07975570306511887
-0.49439148071874683	0.09199855822669116
-0.49433044556249683	0.10419245172919558
-0.49426941040624683	0.11633028934912909
-0.49420837524999683	0.1284046682826851
-0.49414734009374683	0.14040871635504815
-0.49408630493749683	0.15233470188194229
-0.49402526978124683	0.16417454755299385
-0.49396423462499683	0.17592244572237023
-0.49390319946874683	0.18757281261622755
-0.49384216431249683	0.19911745548924145
-0.49378112915624683	0.2105477695033376
-0.49372009399999683	0.22185789117546426
-0.49365905884374683	0.23304259406766303
-0.49359802368749683	0.24409438589168517
-0.49353698853124683	0.25500577081033693
-0.49347595337499683	0.2657706099937432
-0.49341491821874683	0.27638260229362943
-0.49335388306249683	0.28683584245183763
-0.49329284790624683	0.2971239927592058
-0.49323181274999683	0.30723989598475565
-0.49317077759374683	0.3171778953448593
-0.49310974243749683	0.326932880724321
-0.49304870728124683	0.33649841944953185
-0.49298767212499683	0.345868218011671
-0.49292663696874683	0.35503689239373704
-0.49286560181249683	0.36399939560315225
-0.49280456665624683	0.3727504786093419
-0.49274353149999683	0.3812845979477176
-0.49268249634374683	0.38959608600029755
-0.49262146118749683	0.3976798882560761
-0.49256042603124683	0.4055318626951534
-0.49249939087499683	0.41314725341846475
-0.49243835571874683	0.42052097223163093
-0.49237732056249683	0.42764866260016526
-0.49231628540624683	0.4345262436174694
-0.49225525024999683	0.4411494660927267
-0.49219421509374683	0.44751401798515056
-0.49213317993749683	0.4536160518288657
-0.49207214478124683	0.45945232118505447
-0.49201110962499683	0.4650192248795682
-0.49195007446874683	0.47031291128559843
-0.49188903931249683	0.47533019224965795
-0.49182800415624683	0.48006836036036665
-0.49176696899999683	0.4845244383448507
-0.49170593384374683	0.4886955890823736
-0.49164489868749683	0.4925792652073429
-0.49158386353124683	0.4961729878680183
-0.49152282837499683	0.4994746304681419
-0.49146179321874683	0.5024821542400032
-0.49140075806249683	0.5051935860378828
-0.49133972290624683	0.5076073439844266
-0.49127868774999683	0.5097220059674135
-0.49121765259374683	0.5115361114711354
-0.49115661743749683	0.5130483952775209
-0.49109558228124683	0.514257856976467
-0.49103454712499683	0.5151639250141048
-0.49097351196874683	0.5157659628259338
-0.49091247681249683	0.5160633762273054
-0.49085144165624683	0.516055965965841
-0.49079040649999683	0.515743697676012
-0.49072937134374683	0.5151266159502261
-0.49066833618749683	0.5142050576163256
-0.49060730103124683	0.5129795437995174
-0.49054626587499683	0.5114507585763799
-0.49048523071874683	0.5096194668315216
-0.49042419556249683	0.5074865697422163
-0.49036316040624683	0.5050534070039204
-0.49030212524999683	0.5023214354232458
-0.49024109009374683	0.49929219399076596
-0.49018005493749683	0.4959673568585054
-0.49011901978124683	0.4923487836200363
-0.49005798462499683	0.488438651773151
-0.48999694946874683	0.48423929167343416
-0.48993591431249683	0.47975300197811593
-0.48987487915624683	0.4749825623863813
-0.48981384399999683	0.4699308839010502
-0.48975280884374683	0.46460063250947764
-0.48969177368749683	0.45899467971265806
-0.48963073853124683	0.4531166890574405
-0.48956970337499683	0.4469706319175287
-0.48950866821874683	0.44055965737446495
-0.48944763306249683	0.43388702377806465
-0.48938659790624683	0.4269573287897598
-0.48932556274999683	0.41977482982734554
-0.48926452759374683	0.4123430095888974
-0.48920349243749683	0.4046663549338346
-0.48914245728124683	0.3967500662224577
-0.48908142212499683	0.38859912176011746
-0.48902038696874683	0.38021790508542674
-0.48895935181249683	0.3716107410787791
-0.48889831665624683	0.3627827895492906
-0.48883728149999683	0.35373974565787036
-0.48877624634374683	0.34448746992793156
-0.48871521118749683	0.33503161000321363
-0.48865417603124683	0.3253770148726925
-0.48859314087499683	0.31552911600122535
-0.48853210571874683	0.30549425511259043
-0.48847107056249683	0.29527856569876604
-0.48841003540624683	0.28488816076345747
-0.48834900024999683	0.2743293125147813
-0.48828796509374683	0.2636078784927501
-0.48822692993749683	0.25273042638350485
-0.48816589478124683	0.24170423549180495
-0.48810485962499683	0.2305351833992435
-0.48804382446874683	0.21922916732724762
-0.48798278931249683	0.20779386525756963
-0.48792175415624683	0.1962366107153016
-0.48786071899999683	0.18456362615750263
-0.48779968384374683	0.17278199709590378
-0.48773864868749683	0.16089906742971413
-0.48767761353124683	0.14892167629920414
-0.48761657837499683	0.13685692842804584
-0.48755554321874683	0.1247122056368038
-0.48749450806249683	0.11249472910559627
-0.48743347290624683	0.10021187549228927
-0.48737243774999683	0.08787124352870755
-0.48731140259374683	0.07548004139002688
-0.48725036743749683	0.06304578599622028
-0.48718933228124683	0.05057641542802817
-0.48712829712499683	0.038078674124813784
-0.48706726196874683	0.02555947035758014
-0.48700622681249683	0.013027281283080646
-0.48694519165624683	0.0004903734296747728
-0.48688415649999683	-0.01204418552174999
-0.48682312134374683	-0.024569570089310423
-0.48676208618749683	-0.03707793825452107
-0.48670105103124683	-0.049561532722661075
-0.48664001587499683	-0.062013115963726946
-0.48657898071874683	-0.07442483952441512
-0.48651794556249683	-0.08678921333588689
-0.48645691040624683	-0.09909890598072867
-0.48639587524999683	-0.11134607319130449
-0.48633484009374683	-0.12352390322663233
-0.48627380493749683	-0.13562538679059544
-0.48621276978124683	-0.14764256382103796
-0.48615173462499683	-0.159567967284896
-0.48609069946874683	-0.17139436477041453
-0.48602966431249683	-0.18311478712805696
-0.48596862915624683	-0.19472287344136233
-0.48590759399999683	-0.2062112913266042
-0.48584655884374683	-0.2175722146749931
-0.48578552368749683	-0.22879896198974123
-0.48572448853124683	-0.23988527412776775
-0.48566345337499683	-0.2508246674863384
-0.48560241821874683	-0.26161004533732607
-0.48554138306249683	-0.2722344258142178
-0.48548034790624683	-0.2826918004567729
-0.48541931274999683	-0.2929762487421371
-0.48535827759374683	-0.30308104445887446
-0.48529724243749683	-0.31299968678583534
-0.48523620728124683	-0.32272659361369976
-0.48517517212499683	-0.3322562351463111
-0.48511413696874683	-0.34158257156062416
-0.48505310181249683	-0.350699337027718
-0.48499206665624683	-0.35960085728060465
-0.48493103149999683	-0.36828254949641087
-0.48486999634374683	-0.37673945754873217
-0.48480896118749683	-0.3849656490547973
-0.48474792603124683	-0.39295564736076594
-0.48468689087499683	-0.40070503980922506
-0.48462585571874683	-0.40820957493915455
-0.48456482056249683	-0.41546435237001794
-0.48450378540624683	-0.4224647035684457
-0.48444275024999683	-0.4292065262447461
-0.48438171509374683	-0.4356856347034333
-0.48432067993749683	-0.4418980611095156
-0.48425964478124683	-0.4478400230608045
-0.48419860962499683	-0.4535078355300117
-0.48413757446874683	-0.4588982442659789
-0.48407653931249683	-0.4640076235849857
-0.48401550415624683	-0.46883262442214574
-0.48395446899999683	-0.47337063133167445
-0.48389343384374683	-0.4776190473923006
-0.48383239868749683	-0.4815750877656737
-0.48377136353124683	-0.4852360508583045
-0.48371032837499683	-0.48859964466267264
-0.48364929321874683	-0.4916638391900606
-0.48358825806249683	-0.4944268872134243
-0.48352722290624683	-0.4968871856130306
-0.48346618774999683	-0.49904300786763683
-0.48340515259374683	-0.5008928084261762
-0.48334411743749683	-0.5024354957349684
-0.48328308228124683	-0.5036702055535662
-0.48322204712499683	-0.5045961512946735
-0.48316101196874683	-0.5052126100079152
-0.48309997681249683	-0.5055191795323327
-0.48303894165624683	-0.50551562399769
-0.48297790649999683	-0.5052018681589386
-0.48291687134374683	-0.5045780739413944
-0.48285583618749683	-0.5036445923593129
-0.48279480103124683	-0.5024018564557465
-0.48273376587499683	-0.5008506163753209
-0.48267273071874683	-0.498991808138886
-0.48261169556249683	-0.49682644051730795
-0.48255066040624683	-0.49435584647714637
-0.48248962524999683	-0.49158138674936463
-0.48242859009374683	-0.4885046206553134
-0.48236755493749683	-0.48512755081988507
-0.48230651978124683	-0.48145213210979537
-0.48224548462499683	-0.4774806300720704
-0.48218444946874683	-0.47321542972025493
-0.48212341431249683	-0.4686585323390914
-0.48206237915624683	-0.46381303264879004
-0.48200134399999683	-0.4586824105158276
-0.48194030884374683	-0.45326921488054434
-0.48187927368749683	-0.4475762489715661
-0.48181823853124683	-0.4416072968073883
-0.48175720337499683	-0.4353664624215958
-0.48169616821874683	-0.4288573294186294
-0.48163513306249683	-0.4220830635215946
-0.48157409790624683	-0.41504799080976423
-0.48151306274999683	-0.4077569732039605
-0.48145202759374683	-0.40021422093686015
-0.48139099243749683	-0.3924240620785694
-0.48132995728124683	-0.3843913180152416
-0.48126892212499683	-0.37612076124143345
-0.48120788696874683	-0.36761701396252305
-0.48114685181249683	-0.3588856095722923
-0.48108581665624683	-0.3499325984631389
-0.48102478149999683	-0.34076294887085506
-0.48096374634374683	-0.3313812264186115
-0.48090271118749683	-0.321793592635011
-0.48084167603124683	-0.31200657269923276
-0.48078064087499683	-0.3020258833465187
-0.48071960571874683	-0.29185733517881723
-0.48065857056249683	-0.28150700241486976
-0.48059753540624683	-0.27098123538478375
-0.48053650024999683	-0.26028682765720196
-0.48047546509374683	-0.24943009326906537
-0.48041442993749683	-0.23841731647227757
-0.48035339478124683	-0.22725537390793416
-0.48029235962499683	-0.21595114387392883
-0.48023132446874683	-0.20451184795201774
-0.48017028931249683	-0.19294436215847663
-0.48010925415624683	-0.1812551191901423
-0.48004821899999683	-0.16945142756705223
-0.47998718384374683	-0.15754095527701162
-0.47992614868749683	-0.1455309593271366
-0.47986511353124683	-0.133428601225518
-0.47980407837499683	-0.12124119899218021
-0.47974304321874683	-0.10897629831656762
-0.47968200806249683	-0.09664131684541062
-0.47962097290624683	-0.08424366166924752
-0.47955993774999683	-0.07179095506503465
-0.47949890259374683	-0.05929141192256509
-0.47943786743749683	-0.046752819174567896
-0.47937683228124683	-0.034182036130313835
-0.47931579712499683	-0.021586499052017673
-0.47925476196874683	-0.008974416549850315
-0.47919372681249683	0.003646079481808362
-0.47913269165624683	0.016267250239082157
-0.47907165649999683	0.02888178894083869
-0.47901062134374683	0.041481998554483805
-0.47894958618749683	0.05405972199627346
-0.47888855103124683	0.06660722229938083
-0.47882751587499683	0.07911703075085116
-0.47876648071874683	0.09158203961933624
-0.47870544556249683	0.10399429603557737
-0.47864441040624683	0.11634478458405133
-0.47858337524999683	0.12862613666272105
-0.47852234009374683	0.14083246186506426
-0.47846130493749683	0.1529561535697468
-0.47840026978124683	0.16498838069355504
-0.47833923462499683	0.17692168949460618
-0.47827819946874683	0.1887494271235917
-0.47821716431249683	0.20046423645345082
-0.47815612915624683	0.2120587861392418
-0.47809509399999683	0.2235259670270839
-0.47803405884374683	0.23485842810508628
-0.47797302368749683	0.24604902566716322
-0.47791198853124683	0.2570912157790718
-0.47785095337499683	0.26797835815642435
-0.47778991821874683	0.27870345697921245
-0.47772888306249683	0.2892597685768164
-0.47766784790624683	0.29964043301943727
-0.47760681274999683	0.3098389645601923
-0.47754577759374683	0.3198496760697199
-0.47748474243749683	0.3296664438092766
-0.47742370728124683	0.3392826080221674
-0.47736267212499683	0.3486921243438323
-0.47730163696874683	0.35788934979967263
-0.47724060181249683	0.3668687149825261
-0.47717956665624683	0.3756243769926747
-0.47711853149999683	0.3841505003568713
-0.47705749634374683	0.39244208207700315
-0.47699646118749683	0.40049442746953007
-0.47693542603124683	0.40830225964377787
-0.47687439087499683	0.4158603292532985
-0.47681335571874683	0.4231636972684401
-0.47675232056249683	0.4302078800699191
-0.47669128540624683	0.43698914255507904
-0.47663025024999683	0.4435031087550309
-0.47656921509374683	0.4497448349305125
-0.47650817993749683	0.4557103103929836
-0.47644714478124683	0.46139636704901904
-0.47638610962499683	0.46679982466870606
-0.47632507446874683	0.47191707249117115
-0.47626403931249683	0.4767441230243718
-0.47620300415624683	0.4812776887712064
-0.47614196899999683	0.4855153513710852
-0.47608093384374683	0.4894547972169856
-0.47601989868749683	0.49309339150178305
-0.47595886353124683	0.4964284107434389
-0.47589782837499683	0.49945756754245696
-0.47583679321874683	0.5021790888612467
-0.47577575806249683	0.5045911563963686
-0.47571472290624683	0.5066920751897336
-0.47565368774999683	0.5084805425308173
-0.47559265259374683	0.5099553329752781
-0.47553161743749683	0.5111153840499407
-0.47547058228124683	0.511959813270629
-0.47540954712499683	0.5124879052995179
-0.47534851196874683	0.5126992312058078
-0.47528747681249683	0.5125936221038957
-0.47522644165624683	0.5121709530536067
-0.47516540649999683	0.5114313764891448
-0.47510437134374683	0.5103751855823719
-0.47504333618749683	0.5090027842591923
-0.47498230103124683	0.5073149820825081
-0.47492126587499683	0.5053128915008243
-0.47486023071874683	0.5029973914439988
-0.47479919556249683	0.5003696494652268
-0.47473816040624683	0.4974313328256353
-0.47467712524999683	0.49418404718475656
-0.47461609009374683	0.4906296581946096
-0.47455505493749683	0.4867704000157867
-0.47449401978124683	0.4826084545600719
-0.47443298462499683	0.4781460700192211
-0.47437194946874683	0.4733858304510362
-0.47431091431249683	0.46833071936611215
-0.47424987915624683	0.4629837976589506
-0.47418884399999683	0.4573480210820412
-0.47412780884374683	0.4514268122075878
-0.47406677368749683	0.44522382908111097
-0.47400573853124683	0.4387426676847824
-0.47394470337499683	0.4319870816646657
-0.47388366821874683	0.42496125449699096
-0.47382263306249683	0.41766927851143637
-0.47376159790624683	0.41011553848321725
-0.47370056274999683	0.40230477536632175
-0.47363952759374683	0.3942415556803402
-0.47357849243749683	0.38593085366199276
-0.47351745728124683	0.37737748346805855
-0.47345642212499683	0.3685863813613306
-0.47339538696874683	0.3595634623754073
-0.47333435181249683	0.3503140443277748
-0.47327331665624683	0.3408432716749157
-0.47321228149999683	0.3311571620970042
-0.47315124634374683	0.3212615895004503
-0.47309021118749683	0.311162567249146
-0.47302917603124683	0.30086644261608353
-0.47296814087499683	0.29037951630009884
-0.47290710571874683	0.27970781817618434
-0.47284607056249683	0.26885742254321854
-0.47278503540624683	0.25783528270547923
-0.47272400024999683	0.24664866379559042
-0.47266296509374683	0.2353042032657496
-0.47260192993749683	0.2238087815546492
-0.47254089478124683	0.21216921189736715
-0.47247985962499683	0.20039227598354678
-0.47241882446874683	0.1884852414702511
-0.47235778931249683	0.17645608291114165
-0.47229675415624683	0.16431250769244488
-0.47223571899999683	0.1520605195571467
-0.47217468384374683	0.13970758771835004
-0.47211364868749683	0.1272629121036218
-0.47205261353124683	0.11473354507397261
-0.47199157837499683	0.10212618440677915
-0.47193054321874683	0.08944939971315445
-0.47186950806249683	0.0767110490244518
-0.47180847290624683	0.06391839928730542
-0.47174743774999683	0.0510793920458727
-0.47168640259374683	0.03820216815775568
-0.47162536743749683	0.025295215594764983
-0.47156433228124683	0.012366211413277699
-0.47150329712499683	-0.000578043092623525
-0.47144226196874683	-0.013528845399833995
-0.47138122681249683	-0.02647749387462329
-0.47132019165624683	-0.0394170337264759
-0.47125915649999683	-0.05233933628627659
-0.47119812134374683	-0.06523552385339289
-0.47113708618749683	-0.07809812468349651
-0.47107605103124683	-0.09091972432587282
-0.47101501587499683	-0.1036919450020738
-0.47095398071874683	-0.11640715627120787
-0.47089294556249683	-0.1290577762173001
-0.47083191040624683	-0.14163491582637
-0.47077087524999683	-0.15413063830078078
-0.47070984009374683	-0.16653847436534372
-0.47064880493749683	-0.1788508405717336
-0.47058776978124683	-0.19105936956112993
-0.47052673462499683	-0.20315638520324283
-0.47046569946874683	-0.21513439997181077
-0.47040466431249683	-0.22698585363071944
-0.47034362915624683	-0.23870388488019548
