Time	Frequency
-0.5000047677812489	1.8714615061497013e-23
-0.4999437326249989	1.870125466109765e-23
-0.4998826974687489	1.8679047016451714e-23
-0.4998216623124989	1.8648001331635875e-23
-0.4997606271562489	1.86081299065815e-23
-0.4996995919999989	1.8559449803401907e-23
-0.4996385568437489	1.8501981337880097e-23
-0.4995775216874989	1.8435750039853313e-23
-0.4995164865312489	1.8360787376283485e-23
-0.4994554513749989	1.8277128215806962e-23
-0.4993944162187489	1.8184808062218037e-23
-0.4993333810624989	1.8083867105718006e-23
-0.4992723459062489	1.797435188927453e-23
-0.4992113107499989	1.7856313474617627e-23
-0.4991502755937489	1.7729809747353388e-23
-0.4990892404374989	1.7594898602756938e-23
-0.4990282052812489	1.7451642368331e-23
-0.4989671701249989	1.7300104838157103e-23
-0.4989061349687489	1.714035394633429e-23
-0.4988450998124989	1.6972465917533133e-23
-0.4987840646562489	1.67965223836778e-23
-0.4987230294999989	1.66126067246744e-23
-0.4986619943437489	1.6420806713293564e-23
-0.4986009591874989	1.6221208527578902e-23
-0.4985399240312489	1.6013901070108718e-23
-0.4984788888749989	1.5798985185893018e-23
-0.4984178537187489	1.557656444837773e-23
-0.4983568185624989	1.534674211661139e-23
-0.4982957834062489	1.5109626881279095e-23
-0.4982347482499989	1.486533483520999e-23
-0.4981737130937489	1.4613978416550654e-23
-0.4981126779374989	1.435567074717485e-23
-0.4980516427812489	1.4090537235238247e-23
-0.4979906076249989	1.381870655692273e-23
-0.4979295724687489	1.354030308951858e-23
-0.4978685373124989	1.3255460547732454e-23
-0.4978075021562489	1.2964317917441709e-23
-0.4977464669999989	1.2667013260764726e-23
-0.4976854318437489	1.2363684675978188e-23
-0.4976243966874989	1.2054467789132238e-23
-0.4975633615312489	1.1739513132043424e-23
-0.4975023263749989	1.1418983039594221e-23
-0.4974412912187489	1.1093028896340523e-23
-0.4973802560624989	1.0761794079914539e-23
-0.4973192209062489	1.0425434707308344e-23
-0.4972581857499989	1.008411947853161e-23
-0.4971971505937489	9.738012098043732e-24
-0.4971361154374989	9.387273660859106e-24
-0.4970750802812489	9.032071832729609e-24
-0.4970140451249989	8.672574949647626e-24
-0.4969530099687489	8.308957834877261e-24
-0.4968919748124989	7.941396278012119e-24
-0.4968309396562489	7.570055033620379e-24
-0.4967699044999989	7.195115314153561e-24
-0.4967088693437489	6.816770447462434e-24
-0.4966478341874989	6.435193339761477e-24
-0.4965867990312489	6.050554407717839e-24
-0.4965257638749989	5.663045045516693e-24
-0.4964647287187489	5.27285772739073e-24
-0.4964036935624989	4.8801739837275084e-24
-0.4963426584062489	4.485182987741422e-24
-0.4962816232499989	4.088078826596367e-24
-0.4962205880937489	3.689045185735558e-24
-0.4961595529374989	3.288271846704135e-24
-0.4960985177812489	2.885954537824158e-24
-0.4960374826249989	2.4822819880410356e-24
-0.4959764474687489	2.077453567768164e-24
-0.4959154123124989	1.6716718745720123e-24
-0.4958543771562489	1.2651235133165023e-24
-0.4957933419999989	8.57997644196646e-25
-0.4957323068437489	4.504945871325312e-25
-0.4956712716874989	4.2809780800799716e-26
-0.4956102365312489	-3.648607651387403e-25
-0.4955492013749989	-7.723155820669893e-25
-0.4954881662187489	-1.1793605345762257e-24
-0.4954271310624989	-1.585800246953857e-24
-0.4953660959062489	-1.991435876163908e-24
-0.4953050607499989	-2.396079027756968e-24
-0.4952440255937489	-2.799538784219031e-24
-0.4951829904374989	-3.2016118845403657e-24
-0.4951219552812489	-3.602098284193301e-24
-0.4950609201249989	-4.0008085961529145e-24
-0.4949998849687489	-4.3975590828411946e-24
-0.4949388498124989	-4.792156928060683e-24
-0.4948778146562489	-5.184400581431514e-24
-0.4948167794999989	-5.574103423556769e-24
-0.4947557443437489	-5.9610857806421214e-24
-0.4946947091874989	-6.345155724442364e-24
-0.4946336740312489	-6.726121207717842e-24
-0.4945726388749989	-7.10380592661765e-24
-0.4945116037187489	-7.478032906217519e-24
-0.4944505685624989	-7.848608291975075e-24
-0.4943895334062489	-8.215348762414647e-24
-0.4943284982499989	-8.578084656027249e-24
-0.4942674630937489	-8.936639507802771e-24
-0.4942064279374989	-9.290839645976774e-24
-0.4941453927812489	-9.64051554895209e-24
-0.4940843576249989	-9.985502016423139e-24
-0.4940233224687489	-1.0325630540269898e-23
-0.4939622873124989	-1.066071603255891e-23
-0.4939012521562489	-1.0990593478157867e-23
-0.4938402169999989	-1.1315124988128745e-23
-0.4937791818437489	-1.163415713117072e-23
-0.4937181466874989	-1.1947525718622015e-23
-0.4936571115312489	-1.225507461246142e-23
-0.4935960763749989	-1.2556650743356408e-23
-0.4935350412187489	-1.2852107214819055e-23
-0.4934740060624989	-1.3141302335625166e-23
-0.4934129709062489	-1.3424093924196323e-23
-0.4933519357499989	-1.3700348120408556e-23
-0.4932909005937489	-1.3969933395165135e-23
-0.4932298654374989	-1.4232713449840503e-23
-0.4931688302812489	-1.4488557570009987e-23
-0.4931077951249989	-1.473733912594149e-23
-0.4930467599687489	-1.4978934633394459e-23
-0.4929857248124989	-1.521322785321813e-23
-0.4929246896562489	-1.5440107816211275e-23
-0.4928636544999989	-1.5659463393708476e-23
-0.4928026193437489	-1.5871184734972272e-23
-0.4927415841874989	-1.607516746225425e-23
-0.4926805490312489	-1.6271310104994826e-23
-0.4926195138749989	-1.645951388992845e-23
-0.4925584787187489	-1.6639685815309467e-23
-0.4924974435624989	-1.681174089445832e-23
-0.4924364084062489	-1.6975593878232843e-23
-0.4923753732499989	-1.713116031199082e-23
-0.4923143380937489	-1.727836660914215e-23
-0.4922533029374989	-1.741714156725095e-23
-0.4921922677812489	-1.754741195114057e-23
-0.4921312326249989	-1.7669108577464635e-23
-0.4920701974687489	-1.7782171385902026e-23
-0.4920091623124989	-1.7886548763214607e-23
-0.4919481271562489	-1.798218960390028e-23
-0.4918870919999989	-1.8069043965484152e-23
-0.4918260568437489	-1.8147066915590428e-23
-0.4917650216874989	-1.8216217503532295e-23
-0.4917039865312489	-1.8276457888568228e-23
-0.4916429513749989	-1.8327758381552462e-23
-0.4915819162187489	-1.8370095134331424e-23
-0.4915208810624989	-1.840344492765065e-23
-0.4914598459062489	-1.8427788176279088e-23
-0.4913988107499989	-1.8443111342895992e-23
-0.4913377755937489	-1.8449404876927564e-23
-0.4912767404374989	-1.8446663354164192e-23
-0.4912157052812489	-1.8434885708681445e-23
-0.4911546701249989	-1.8414076242486726e-23
-0.4910936349687489	-1.83842439523859e-23
-0.4910325998124989	-1.8345400244204977e-23
-0.4909715646562489	-1.829756114769528e-23
-0.4909105294999989	-1.8240748352207185e-23
-0.4908494943437489	-1.8174989386486834e-23
-0.4907884591874989	-1.810031334156704e-23
-0.4907274240312489	-1.8016753012611447e-23
-0.4906663888749989	-1.7924345255490395e-23
-0.4906053537187489	-1.782313576123973e-23
-0.4905443185624989	-1.7713173020947232e-23
-0.4904832834062489	-1.7594506558217748e-23
-0.4904222482499989	-1.7467191567310692e-23
-0.4903612130937489	-1.733129057001498e-23
-0.4903001779374989	-1.7186866939489524e-23
-0.4902391427812489	-1.7033985158892347e-23
-0.4901781076249989	-1.6872717416386168e-23
-0.4901170724687489	-1.6703143011686386e-23
-0.4900560373124989	-1.6525347667053792e-23
-0.4899950021562489	-1.633941382930835e-23
-0.4899339669999989	-1.614542695879945e-23
-0.4898729318437489	-1.5943475615804785e-23
-0.4898118966874989	-1.5733656687740552e-23
-0.4897508615312489	-1.5516076034941005e-23
-0.4896898263749989	-1.5290840150266738e-23
-0.4896287912187489	-1.5058055770266166e-23
-0.4895677560624989	-1.4817833285843653e-23
-0.4895067209062489	-1.4570282971055623e-23
-0.4894456857499989	-1.431552325305756e-23
-0.4893846505937489	-1.4053682143772562e-23
-0.4893236154374989	-1.3784886639924235e-23
-0.4892625802812489	-1.350926419326949e-23
-0.4892015451249989	-1.3226945034293164e-23
-0.4891405099687489	-1.2938069964155814e-23
-0.4890794748124989	-1.2642779251338141e-23
-0.4890184396562489	-1.2341207997531845e-23
-0.4889574044999989	-1.2033500959904739e-23
-0.4888963693437489	-1.171981256959558e-23
-0.4888353341874989	-1.1400295600306342e-23
-0.4887742990312489	-1.1075103212982038e-23
-0.4887132638749989	-1.0744393280526714e-23
-0.4886522287187489	-1.0408327821258223e-23
-0.4885911935624989	-1.0067064981887213e-23
-0.4885301584062489	-9.720764413527117e-24
-0.4884691232499989	-9.36960130605435e-24
-0.4884080880937489	-9.01374882201304e-24
-0.4883470529374989	-8.653376347251144e-24
-0.4882860177812489	-8.288662900290816e-24
-0.4882249826249989	-7.919785851132702e-24
-0.4881639474687489	-7.546915589152059e-24
-0.4881029123124989	-7.170232930526473e-24
-0.4880418771562489	-6.789929666600608e-24
-0.4879808419999989	-6.406189007557137e-24
-0.4879198068437489	-6.0191932376807014e-24
-0.4878587716874989	-5.629139386522902e-24
-0.4877977365312489	-5.236215906983299e-24
-0.4877367013749989	-4.840602567799514e-24
-0.4876756662187489	-4.442498965477634e-24
-0.4876146310624989	-4.0421040949979674e-24
-0.4875535959062489	-3.639608238448489e-24
-0.4874925607499989	-3.2352105170454063e-24
-0.4874315255937489	-2.8291106631275522e-24
-0.4873704904374989	-2.4215020337783982e-24
-0.4873094552812489	-2.012580276721086e-24
-0.4872484201249989	-1.6025508497900225e-24
-0.4871873849687489	-1.191619783043775e-24
-0.4871263498124989	-7.799829244403067e-25
-0.4870653146562489	-3.6783783160563486e-25
-0.4870042794999989	4.4610445649768453e-26
-0.4869432443437489	4.571596326577502e-25
-0.4868822091874989	8.696093588869862e-25
-0.4868211740312489	1.2817534679227168e-24
-0.4867601388749989	1.6933864579567022e-24
-0.4866991037187489	2.1043126804078183e-24
-0.4866380685624989	2.5143354742327843e-24
-0.4865770334062489	2.9232523864289777e-24
-0.4865159982499989	3.330855444495775e-24
-0.4864549630937489	3.736934908010273e-24
-0.4863939279374989	4.141300207348569e-24
-0.4863328927812489	4.543766372112006e-24
-0.4862718576249989	4.944125855879366e-24
-0.4862108224687489	5.342172615937064e-24
-0.4861497873124989	5.737720311698703e-24
-0.4860887521562489	6.130574493701031e-24
-0.4860277169999989	6.520530988436555e-24
-0.4859666818437489	6.907398672068812e-24
-0.4859056466874989	7.290998039064078e-24
-0.4858446115312489	7.671143709655515e-24
-0.4857835763749989	8.047633927928514e-24
-0.4857225412187489	8.420274904461702e-24
-0.4856615060624989	8.788895742967287e-24
-0.4856004709062489	9.153324056841123e-24
-0.4855394357499989	9.513371454611413e-24
-0.4854784005937489	9.868846443814605e-24
-0.4854173654374989	1.0219572972660919e-23
-0.4853563302812489	1.0565386663312254e-23
-0.4852952951249989	1.0906125705105928e-23
-0.4852342599687489	1.1241619514828615e-23
-0.4851732248124989	1.1571685948107504e-23
-0.4851121896562489	1.189615878669218e-23
-0.4850511544999989	1.2214885881065316e-23
-0.4849901193437489	1.2527711140956853e-23
-0.4849290841874989	1.283447666225524e-23
-0.4848680490312489	1.3135024226381665e-23
-0.4848070138749989	1.342921001724568e-23
-0.4847459787187489	1.3716892931663825e-23
-0.4846849435624989	1.399791534976288e-23
-0.4846239084062489	1.427213454444855e-23
-0.4845628732499989	1.4539424370045837e-23
-0.4845018380937489	1.479964744274484e-23
-0.4844408029374989	1.5052673371097323e-23
-0.4843797677812489	1.529838242275911e-23
-0.4843187326249989	1.5536641594983174e-23
-0.4842576974687489	1.5767323140767502e-23
-0.4841966623124989	1.5990318010810375e-23
-0.4841356271562489	1.6205520643397168e-23
-0.4840745919999989	1.6412821948144377e-23
-0.4840135568437489	1.6612109616520326e-23
-0.4839525216874989	1.6803280951150534e-23
-0.4838914865312489	1.6986243943370153e-23
-0.4838304513749989	1.716090588866929e-23
-0.4837694162187489	1.7327174612426424e-23
-0.4837083810624989	1.748496410138619e-23
-0.4836473459062489	1.763419488445999e-23
-0.4835863107499989	1.7774791712753366e-23
-0.4835252755937489	1.7906683235825302e-23
-0.4834642404374989	1.8029798485903754e-23
-0.4834032052812489	1.8144069891715297e-23
-0.4833421701249989	1.8249439834397534e-23
-0.4832811349687489	1.8345855835273808e-23
-0.4832200998124989	1.84332665131723e-23
-0.4831590646562489	1.8511623485075183e-23
-0.4830980294999989	1.8580883624662033e-23
-0.4830369943437489	1.8641009349892573e-23
-0.4829759591874989	1.8691967958524218e-23
-0.4829149240312489	1.8733731046045115e-23
-0.4828538888749989	1.8766273777490655e-23
-0.4827928537187489	1.8789576134299077e-23
-0.4827318185624989	1.8803622667934067e-23
-0.4826707834062489	1.8808402682402125e-23
-0.4826097482499989	1.8803909639524913e-23
-0.4825487130937489	1.879014229451249e-23
-0.4824876779374989	1.876710346215035e-23
-0.4824266427812489	1.8734800341223314e-23
-0.4823656076249989	1.869324483409788e-23
-0.4823045724687489	1.864245284983086e-23
-0.4822435373124989	1.858244580523475e-23
-0.4821825021562489	1.8513250127193232e-23
-0.4821214669999989	1.843489518776715e-23
-0.4820604318437489	1.834741602202279e-23
-0.4819993966874989	1.825085256996366e-23
-0.4819383615312489	1.8145245900925924e-23
-0.4818773263749989	1.8030642809229428e-23
-0.4818162912187489	1.7907098774772255e-23
-0.4817552560624989	1.7774673935303938e-23
-0.4816942209062489	1.7633425912191932e-23
-0.4816331857499989	1.748341909979327e-23
-0.4815721505937489	1.7324724203333975e-23
-0.4815111154374989	1.7157416396961744e-23
-0.4814500802812489	1.6981572556677873e-23
-0.4813890451249989	1.6797274828900357e-23
-0.4813280099687489	1.660461487523968e-23
-0.4812669748124989	1.6403688088526802e-23
-0.4812059396562489	1.619458155576564e-23
-0.4811449044999989	1.5977386763674742e-23
-0.4810838693437489	1.5752213932333e-23
-0.4810228341874989	1.5519176661824e-23
-0.4809617990312489	1.5278388433751593e-23
-0.4809007638749989	1.5029959756465056e-23
-0.4808397287187489	1.4774004078851448e-23
-0.4807786935624989	1.451064144562924e-23
-0.4807176584062489	1.4240003423356226e-23
-0.4806566232499989	1.396222459602055e-23
-0.4805955880937489	1.3677439498294913e-23
-0.4805345529374989	1.338578279974565e-23
-0.4804735177812489	1.3087389622555988e-23
-0.4804124826249989	1.278240241138699e-23
-0.4803514474687489	1.2470972634541296e-23
-0.4802904123124989	1.2153251603358408e-23
-0.4802293771562489	1.1829392576637325e-23
-0.4801683419999989	1.1499558515453981e-23
-0.4801073068437489	1.1163904419793931e-23
-0.4800462716874989	1.0822585567865592e-23
-0.4799852365312489	1.0475770472946484e-23
-0.4799242013749989	1.0123629577224365e-23
-0.4798631662187489	9.766331180104562e-24
-0.4798021310624989	9.404053541480571e-24
-0.4797410959062489	9.036980231396618e-24
-0.4796800607499989	8.665285194950903e-24
-0.4796190255937489	8.289136632098373e-24
-0.4795579904374989	7.908716260958665e-24
-0.4794969552812489	7.52421974369213e-24
-0.4794359201249989	7.135839677533047e-24
-0.4793748849687489	6.743764491557057e-24
-0.4793138498124989	6.348182472526339e-24
-0.4792528146562489	5.949282264884803e-24
-0.4791917794999989	5.547253661600254e-24
-0.4791307443437489	5.14230060774686e-24
-0.4790697091874989	4.734630630657872e-24
-0.4790086740312489	4.324434479006957e-24
-0.4789476388749989	3.911905606121275e-24
-0.4788866037187489	3.497251379424106e-24
-0.4788255685624989	3.0806805986371583e-24
-0.4787645334062489	2.66239914746255e-24
-0.4787034982499989	2.2426055433444406e-24
-0.4786424630937489	1.8215001677158006e-24
-0.4785814279374989	1.3992954667237304e-24
-0.4785203927812489	9.762005654644793e-25
-0.4784593576249989	5.524239207508666e-25
-0.4783983224687489	1.2817392042895897e-25
-0.4783372873124989	-2.9634410466396523e-25
-0.4782762521562489	-7.209166915127712e-25
-0.4782152169999989	-1.1453339842197184e-24
-0.4781541818437489	-1.5693958330636108e-24
-0.4780931466874989	-1.9928969902868707e-24
-0.4780321115312489	-2.4156206980537396e-24
-0.4779710763749989	-2.837346332570026e-24
-0.4779100412187489	-3.2578720280156402e-24
-0.4778490060624989	-3.677003998080505e-24
-0.4777879709062489	-4.094529758873065e-24
-0.4777269357499989	-4.5102380447221905e-24
-0.4776659005937489	-4.923927645346888e-24
-0.4776048654374989	-5.335391134527216e-24
-0.4775438302812489	-5.7444223415254995e-24
-0.4774827951249989	-6.150826046350116e-24
-0.4774217599687489	-6.554400307432908e-24
-0.4773607248124989	-6.954934337597871e-24
-0.4772996896562489	-7.352235495526439e-24
-0.4772386544999989	-7.746120660702311e-24
-0.4771776193437489	-8.13638656481758e-24
-0.4771165841874989	-8.522826240269862e-24
-0.4770555490312489	-8.905254785482953e-24
-0.4769945138749989	-9.283489067463241e-24
-0.4769334787187489	-9.657336756204781e-24
-0.4768724435624989	-1.0026613693435877e-23
-0.4768114084062489	-1.0391138658606367e-23
-0.4767503732499989	-1.0750724819400768e-23
-0.4766893380937489	-1.1105190001218942e-23
-0.4766283029374989	-1.145436265419156e-23
-0.4765672677812489	-1.1798071469926313e-23
-0.4765062326249989	-1.2136143599255337e-23
-0.4764451974687489	-1.2468409055359745e-23
-0.4763841623124989	-1.2794698059802461e-23
-0.4763231271562489	-1.3114850315317695e-23
-0.4762620919999989	-1.3428711702736368e-23
-0.4762010568437489	-1.3736121019011546e-23
-0.4761400216874989	-1.4036919441571336e-23
-0.4760789865312489	-1.4330957601235916e-23
-0.4760179513749989	-1.4618092392575833e-23
-0.4759569162187489	-1.4898184627883823e-23
-0.4758958810624989	-1.5171089240345482e-23
-0.4758348459062489	-1.543665930521905e-23
-0.4757738107499989	-1.5694763843337487e-23
-0.4757127755937489	-1.5945283615819275e-23
-0.4756517404374989	-1.618809345476927e-23
-0.4755907052812489	-1.6423061744158825e-23
-0.4755296701249989	-1.6650066924984693e-23
-0.4754686349687489	-1.686900169632814e-23
-0.4754075998124989	-1.70797559424524e-23
-0.4753465646562489	-1.7282218417155094e-23
-0.4752855294999989	-1.7476290031717366e-23
-0.4752244943437489	-1.7661871110219378e-23
-0.4751634591874989	-1.7838862268553886e-23
-0.4751024240312489	-1.80071773611916e-23
-0.4750413888749989	-1.8166734094578926e-23
-0.4749803537187489	-1.8317447546498933e-23
-0.4749193185624989	-1.845923659256473e-23
-0.4748582834062489	-1.859203042020967e-23
-0.4747972482499989	-1.8715764741414862e-23
-0.4747362130937489	-1.8830374540214143e-23
-0.4746751779374989	-1.8935796374158474e-23
-0.4746141427812489	-1.903197539025626e-23
-0.4745531076249989	-1.9118863616895226e-23
-0.4744920724687489	-1.919641439159016e-23
-0.4744310373124989	-1.9264586000309357e-23
-0.4743700021562489	-1.932334276022633e-23
-0.4743089669999989	-1.937265178579788e-23
-0.4742479318437489	-1.9412484788759894e-23
-0.4741868966874989	-1.9442819827376345e-23
-0.4741258615312489	-1.9463639975854163e-23
-0.4740648263749989	-1.9474931923299452e-23
-0.4740037912187489	-1.9476686862980907e-23
-0.4739427560624989	-1.9468900977218932e-23
-0.4738817209062489	-1.945157507541115e-23
-0.4738206857499989	-1.9424714476570853e-23
-0.4737596505937489	-1.9388328736663757e-23
-0.4736986154374989	-1.9342433349925962e-23
-0.4736375802812489	-1.9287049337235934e-23
-0.4735765451249989	-1.9222201936985632e-23
-0.4735155099687489	-1.9147919654155397e-23
-0.4734544748124989	-1.9064236384132484e-23
-0.4733934396562489	-1.897118933791637e-23
-0.4733324044999989	-1.8868821514155716e-23
-0.4732713693437489	-1.8757183653870663e-23
-0.4732103341874989	-1.8636328786935424e-23
-0.4731492990312489	-1.8506311711412976e-23
-0.4730882638749989	-1.8367193594524872e-23
-0.4730272287187489	-1.8219042615710462e-23
-0.4729661935624989	-1.8061930975723326e-23
-0.4729051584062489	-1.7895931455310883e-23
-0.4728441232499989	-1.7721120533997053e-23
-0.4727830880937489	-1.7537586111922207e-23
-0.4727220529374989	-1.7345420769933164e-23
-0.4726610177812489	-1.7144713880825683e-23
-0.4725999826249989	-1.6935557764157483e-23
-0.4725389474687489	-1.671805998074744e-23
-0.4724779123124989	-1.6492326946869638e-23
-0.4724168771562489	-1.6258464591479476e-23
-0.4723558419999989	-1.601658616138941e-23
-0.4722948068437489	-1.5766809103292914e-23
-0.4722337716874989	-1.5509255825498433e-23
-0.4721727365312489	-1.5244056244094286e-23
-0.4721117013749989	-1.4971338997111925e-23
-0.4720506662187489	-1.4691235344133637e-23
-0.4719896310624989	-1.440388295370712e-23
-0.4719285959062489	-1.410941917754242e-23
-0.4718675607499989	-1.3807990091797122e-23
-0.4718065255937489	-1.3499741049817642e-23
-0.4717454904374989	-1.3184828060751784e-23
