Time	Frequency
-0.5000143044062497	2.117875885755769e-24
-0.4999532692499997	2.403808770071185e-24
-0.4998922340937497	2.6874388184179006e-24
-0.4998311989374997	2.969176391205318e-24
-0.4997701637812497	3.248504766592126e-24
-0.4997091286249997	3.524701359178696e-24
-0.4996480934687497	3.798070583747187e-24
-0.4995870583124997	4.0686264943202776e-24
-0.4995260231562497	4.335518665367779e-24
-0.4994649879999997	4.5985982529251045e-24
-0.4994039528437497	4.8582190048496386e-24
-0.4993429176874997	5.1138231390049906e-24
-0.4992818825312497	5.3648311378004676e-24
-0.4992208473749997	5.611564053149518e-24
-0.4991598122187497	5.853919375901474e-24
-0.4990987770624997	6.091136010606918e-24
-0.4990377419062497	6.323196942376204e-24
-0.4989767067499997	6.5503684304874e-24
-0.4989156715937497	6.772073691219756e-24
-0.4988546364374997	6.987889734797633e-24
-0.4987936012812497	7.198138622792658e-24
-0.4987325661249997	7.402634526276685e-24
-0.4986715309687497	7.600731634858822e-24
-0.4986104958124997	7.792510222881833e-24
-0.4985494606562497	7.978158057072406e-24
-0.4984884254999997	8.157131881532556e-24
-0.4984273903437497	8.329147858995999e-24
-0.4983663551874997	8.494498957307562e-24
-0.4983053200312497	8.652963914529783e-24
-0.4982442848749997	8.804046671692245e-24
-0.4981832497187497	8.947887810912391e-24
-0.4981222145624997	9.084583239484878e-24
-0.4980611794062497	9.213665707207598e-24
-0.4980001442499997	9.33500265111442e-24
-0.4979391090937497	9.448839897803812e-24
-0.4978780739374997	9.55494251919005e-24
-0.4978170387812497	9.652972250382863e-24
-0.4977560036249997	9.743099551453048e-24
-0.4976949684687497	9.825358878679319e-24
-0.4976339333124997	9.899400298302975e-24
-0.4975728981562497	9.965200129662904e-24
-0.4975118629999997	1.0022941407956123e-23
-0.4974508278437497	1.007242951491009e-23
-0.4973897926874997	1.0113484734367191e-23
-0.4973287575312497	1.0146270468132011e-23
-0.4972677223749997	1.0170782712791673e-23
-0.4972066872187497	1.0186816771627004e-23
-0.4971456520624997	1.0194433445891306e-23
-0.4970846169062497	1.0193747970970752e-23
-0.4970235817499997	1.0184631843530187e-23
-0.4969625465937497	1.0167055199129215e-23
-0.4969015114374997	1.0141163198786424e-23
-0.4968404762812497	1.010693928233955e-23
-0.4967794411249997	1.0064323880190827e-23
-0.4967184059687497	1.0013429348704071e-23
-0.4966573708124997	9.95431604895967e-24
-0.4965963356562497	9.886957117864722e-24
-0.4965353004999997	9.811453350822464e-24
-0.4964742653437497	9.727903745348088e-24
-0.4964132301874997	9.636297301642477e-24
-0.4963521950312497	9.536728985294297e-24
-0.4962911598749997	9.429349123714072e-24
-0.4962301247187497	9.314173851767397e-24
-0.4961690895624997	9.191279801554155e-24
-0.4961080544062497	9.060860687667178e-24
-0.4960470192499997	8.922971197805556e-24
-0.4959859840937497	8.777657392306927e-24
-0.4959249489374997	8.62515311401144e-24
-0.4958639137812497	8.465582564580662e-24
-0.4958028786249997	8.29893696802857e-24
-0.4957418434687497	8.12544730755906e-24
-0.4956808083124997	7.945365332121064e-24
-0.4956197731562497	7.758659347228395e-24
-0.4955587379999997	7.565462085096039e-24
-0.4954977028437497	7.366155367284973e-24
-0.4954366676874997	7.160805390438333e-24
-0.4953756325312497	6.949386360357887e-24
-0.4953145973749997	6.732284328487603e-24
-0.4952535622187497	6.509771061067817e-24
-0.4951925270624997	6.281743559965759e-24
-0.4951314919062497	6.048453305131258e-24
-0.4950704567499997	5.810384467146104e-24
-0.4950094215937497	5.5675055150683125e-24
-0.4949483864374997	5.3198108019592245e-24
-0.4948873512812497	5.067852534245735e-24
-0.4948263161249997	4.811879474322318e-24
-0.4947652809687497	4.551719634501167e-24
-0.4947042458124997	4.28775069927111e-24
-0.4946432106562497	4.020514148337969e-24
-0.4945821754999997	3.749882528363686e-24
-0.4945211403437497	3.47590657786045e-24
-0.4944601051874997	3.199277988344108e-24
-0.4943990700312497	2.920188180357192e-24
-0.4943380348749997	2.6383969969474843e-24
-0.4942769997187497	2.3544002885716688e-24
-0.4942159645624997	2.068788574470021e-24
-0.4941549294062497	1.7813489877891757e-24
-0.4940938942499997	1.4921821632153706e-24
-0.4940328590937497	1.2020743679489743e-24
-0.4939718239374997	9.111355411478476e-25
-0.4939107887812497	6.1909834269146355e-25
-0.4938497536249997	3.265887980522237e-25
-0.4937887184687497	3.417982435589685e-26
-0.4937276833124997	-2.5844028371441196e-25
-0.4936666481562497	-5.510792954148964e-25
-0.4936056129999997	-8.428999914706254e-25
-0.4935445778437497	-1.133915951317632e-24
-0.4934835426874997	-1.4243674537544477e-24
-0.4934225075312497	-1.7134974947977866e-24
-0.4933614723749997	-2.0008235262755774e-24
-0.4933004372187497	-2.2867659649659965e-24
-0.4932394020624997	-2.571012300279284e-24
-0.4931783669062497	-2.8526794016815143e-24
-0.4931173317499997	-3.1319233290318612e-24
-0.4930562965937497	-3.408982193213133e-24
-0.4929952614374997	-3.682998553539478e-24
-0.4929342262812497	-3.953567954485232e-24
-0.4928731911249997	-4.221180850735596e-24
-0.4928121559687497	-4.4854412461791574e-24
-0.4927511208124997	-4.7454885685307744e-24
-0.4926900856562497	-5.001597079389738e-24
-0.4926290504999997	-5.253964159246655e-24
-0.4925680153437497	-5.5016770615668914e-24
-0.4925069801874997	-5.744448182390969e-24
-0.4924459450312497	-5.982813623888542e-24
-0.4923849098749997	-6.2162896241729855e-24
-0.4923238747187497	-6.444088107954401e-24
-0.4922628395624997	-6.666606513587235e-24
-0.4922018044062497	-6.883953006656832e-24
-0.4921407692499997	-7.095192633603371e-24
-0.4920797340937497	-7.300221382154989e-24
-0.4920186989374997	-7.499593580983735e-24
-0.4919576637812497	-7.692716283451212e-24
-0.4918966286249997	-7.878904161232624e-24
-0.4918355934687497	-8.05867125316088e-24
-0.4917745583124997	-8.232054722395602e-24
-0.4917135231562497	-8.398152702692406e-24
-0.4916524879999997	-8.557011642105959e-24
-0.4915914528437497	-8.709153668926395e-24
-0.4915304176874997	-8.853936044790551e-24
-0.4914693825312497	-8.990829018588778e-24
-0.4914083473749997	-9.120420641297842e-24
-0.4913473122187497	-9.242663212542211e-24
-0.4912862770624997	-9.356733099120526e-24
-0.4912252419062497	-9.46281978663303e-24
-0.4911642067499997	-9.56139089047385e-24
-0.4911031715937497	-9.651801138725996e-24
-0.4910421364374997	-9.733697055888496e-24
-0.4909811012812497	-9.807693127140108e-24
-0.4909200661249997	-9.873660916929681e-24
-0.4908590309687497	-9.930901273380395e-24
-0.4907979958124997	-9.979735340865137e-24
-0.4907369606562497	-1.002056006747809e-23
-0.4906759254999997	-1.005275916843301e-23
-0.4906148903437497	-1.0076157148579634e-23
-0.4905538551874997	-1.0091364409592132e-23
-0.4904928200312497	-1.00981930101527e-23
-0.4904317848749997	-1.009610140682111e-23
-0.4903707497187497	-1.0085514702081277e-23
-0.4903097145624997	-1.0066744500510893e-23
-0.4902486794062497	-1.0039239515233288e-23
-0.4901876442499997	-1.0002997056947552e-23
-0.4901266090937497	-9.958596028613003e-24
-0.4900655739374997	-9.905819081074027e-24
-0.4900045387812497	-9.844295700553701e-24
-0.4899435036249997	-9.7745146495326e-24
-0.4898824684687497	-9.696709965516513e-24
-0.4898214333124997	-9.61043301094654e-24
-0.4897603981562497	-9.515826099434486e-24
-0.4896993629999997	-9.413410102492167e-24
-0.4896383278437497	-9.302977972789915e-24
-0.4895772926874997	-9.184336310841752e-24
-0.4895162575312497	-9.05799028044234e-24
-0.4894552223749997	-8.924106642871999e-24
-0.4893941872187497	-8.782375699826264e-24
-0.4893331520624997	-8.633054501395428e-24
-0.4892721169062497	-8.476582612180707e-24
-0.4892110817499997	-8.312794188601938e-24
-0.4891500465937497	-8.141664178867988e-24
-0.4890890114374997	-7.963680884931407e-24
-0.4890279762812497	-7.778972735792265e-24
-0.4889669411249997	-7.587379040533587e-24
-0.4889059059687497	-7.389213784633359e-24
-0.4888448708124997	-7.18483807027694e-24
-0.4887838356562497	-6.974180499805385e-24
-0.4887228004999997	-6.757354017557812e-24
-0.4886617653437497	-6.534778962713018e-24
-0.4886007301874997	-6.306569983255912e-24
-0.4885396950312497	-6.07272969776729e-24
-0.4884786598749997	-5.833597596714222e-24
-0.4884176247187497	-5.589459069830789e-24
-0.4883565895624997	-5.3403456626424855e-24
-0.4882955544062497	-5.086471251581971e-24
-0.4882345192499997	-4.8281810462275765e-24
-0.4881734840937497	-4.5656041195479714e-24
-0.4881124489374997	-4.2988818295098985e-24
-0.4880514137812497	-4.028342732258306e-24
-0.4879903786249997	-3.7542170922706926e-24
-0.4879293434687497	-3.476649954466872e-24
-0.4878683083124997	-3.1959177259132282e-24
-0.4878072731562497	-2.9122711486467792e-24
-0.4877462379999997	-2.6258700099633797e-24
-0.4876852028437497	-2.33699488154758e-24
-0.4876241676874997	-2.0459426460540284e-24
-0.4875631325312497	-1.7528726110133424e-24
-0.4875020973749997	-1.4580259878041738e-24
-0.4874410622187497	-1.161723775321032e-24
-0.4873800270624997	-8.641439052896188e-25
-0.4873189919062497	-5.65503979498332e-25
-0.4872579567499997	-2.6616187000405757e-25
-0.4871969215937497	3.368093843775554e-26
-0.4871358864374997	3.3387912789553957e-25
-0.4870748512812497	6.340623042234643e-25
-0.4870138161249997	9.339377083968484e-25
-0.4869527809687497	1.2334208326316515e-24
-0.4868917458124997	1.53220443048483e-24
-0.4868307106562497	1.8298832420438527e-24
-0.4867696754999997	2.1263834526033137e-24
-0.4867086403437497	2.4215440731734088e-24
-0.4866476051874997	2.7148611755800267e-24
-0.4865865700312497	3.0061302757493956e-24
-0.4865255348749997	3.295375530101155e-24
-0.4864644997187497	3.58216946758796e-24
-0.4864034645624997	3.86608347238663e-24
-0.4863424294062497	4.147184825605039e-24
-0.4862813942499997	4.425280936121226e-24
-0.4862203590937497	4.6997869999785704e-24
-0.4861593239374997	4.9706127534617766e-24
-0.4860982887812497	5.237834371511641e-24
-0.4860372536249997	5.5009185523940676e-24
-0.4859762184687497	5.75948542141229e-24
-0.4859151833124997	6.01373704017651e-24
-0.4858541481562497	6.263413971707838e-24
-0.4857931129999997	6.507873976044428e-24
-0.4857320778437497	6.74717730000963e-24
-0.4856710426874997	6.981455950371606e-24
-0.4856100075312497	7.21006676996637e-24
-0.4855489723749997	7.432685520365143e-24
-0.4854879372187497	7.649657881474304e-24
-0.4854269020624997	7.860671949415531e-24
-0.4853658669062497	8.065057587670583e-24
-0.4853048317499997	8.263023467877797e-24
-0.4852437965937497	8.454719965232031e-24
-0.4851827614374997	8.639428445865633e-24
-0.4851217262812497	8.816944726320514e-24
-0.4850606911249997	8.987716996233542e-24
-0.4849996559687497	9.151344630544927e-24
-0.4849386208124997	9.307198436965718e-24
-0.4848775856562497	9.455661794471524e-24
-0.4848165504999997	9.596855376702493e-24
-0.4847555153437497	9.729992157155594e-24
-0.4846944801874997	9.85502985381206e-24
-0.4846334450312497	9.972517622011466e-24
-0.4845724098749997	1.0081961993798468e-23
-0.4845113747187497	1.018278653782355e-23
-0.4844503395624997	1.0275537411419613e-23
-0.4843893044062497	1.0360311563574067e-23
-0.4843282692499997	1.0436300560604019e-23
-0.4842672340937497	1.050361931971899e-23
-0.4842061989374997	1.056286799367801e-23
-0.4841451637812497	1.0613483514373257e-23
-0.4840841286249997	1.0654997433540775e-23
-0.4840230934687497	1.0688095143457297e-23
-0.4839620583124997	1.0712818991641766e-23
-0.4839010231562497	1.0728374777052614e-23
-0.4838399879999997	1.0735047401641184e-23
-0.4837789528437497	1.0733456657618635e-23
-0.4837179176874997	1.0722986555633621e-23
-0.4836568825312497	1.070331185126451e-23
-0.4835958473749997	1.0675225974505869e-23
-0.4835348122187497	1.0638687969511131e-23
-0.4834737770624997	1.0592963793599605e-23
-0.4834127419062497	1.053852899691164e-23
-0.4833517067499997	1.0475977432954605e-23
-0.4832906715937497	1.0404642604132603e-23
-0.4832296364374997	1.0324371044734268e-23
-0.4831686012812497	1.0236037205041165e-23
-0.4831075661249997	1.0139523433415414e-23
-0.4830465309687497	1.0034192260469229e-23
-0.4829854958124997	9.920666082055601e-24
-0.4829244606562497	9.79948096509349e-24
-0.4828634254999997	9.669976184179801e-24
-0.4828023903437497	9.532183513898076e-24
-0.4827413551874997	9.38700231628689e-24
-0.4826803200312497	9.234239165431413e-24
-0.4826192848749997	9.073391018269522e-24
-0.4825582497187497	8.905194006046067e-24
-0.4824972145624997	8.730101006580597e-24
-0.4824361794062497	8.547506102587584e-24
-0.4823751442499997	8.357617760423102e-24
-0.4823141090937497	8.161301770656534e-24
-0.4822530739374997	7.958312490780452e-24
-0.4821920387812497	7.748308532453675e-24
-0.4821310036249997	7.532097681613433e-24
-0.4820699684687497	7.310042212075734e-24
-0.4820089333124997	7.081619750294311e-24
-0.4819478981562497	6.84718709827779e-24
-0.4818868629999997	6.607539527756511e-24
-0.4818258278437497	6.362406952322115e-24
-0.4817647926874997	6.1116261447889535e-24
-0.4817037575312497	5.856037676791232e-24
-0.4816427223749997	5.595902712385082e-24
-0.4815816872187497	5.330796702410001e-24
-0.4815206520624997	5.061193437800663e-24
-0.4814596169062497	4.787801817495036e-24
-0.4813985817499997	4.5103650116800914e-24
-0.4813375465937497	4.228882821711203e-24
-0.4812765114374997	3.944167262943792e-24
-0.4812154762812497	3.6563904126185624e-24
-0.4811544411249997	3.365260050314076e-24
-0.4810934059687497	3.0713297121941472e-24
-0.4810323708124997	2.775193639488443e-24
-0.4809713356562497	2.4766325178130075e-24
-0.4809103004999997	2.175790493002602e-24
-0.4808492653437497	1.8734045719954477e-24
-0.4807882301874997	1.5695825908499497e-24
-0.4807271950312497	1.2641855306187057e-24
-0.4806661598749997	9.577896595046718e-25
-0.4806051247187497	6.508571430892984e-25
-0.4805440895624997	3.4323617124088356e-25
-0.4804830544062497	3.51840946229747e-26
-0.4804220192499997	-2.726601586538911e-25
-0.4803609840937497	-5.802240014778884e-25
-0.4802999489374997	-8.875222581398118e-25
-0.4802389137812497	-1.1940090719189325e-24
-0.4801778786249997	-1.4993265438535713e-24
-0.4801168434687497	-1.803531870879147e-24
-0.4800558083124997	-2.106309088685964e-24
-0.4799947731562497	-2.4071531366870616e-24
-0.4799337379999997	-2.705992087424241e-24
-0.4798727028437497	-3.0027206851038595e-24
-0.4798116676874997	-3.2968739100277562e-24
-0.4797506325312497	-3.588191580137419e-24
-0.4796895973749997	-3.87662391560338e-24
-0.4796285622187497	-4.1618423413157275e-24
-0.4795675270624997	-4.443483677309453e-24
-0.4795064919062497	-4.721451789319558e-24
-0.4794454567499997	-4.995554633490673e-24
-0.4793844215937497	-5.265429759970162e-24
-0.4793233864374997	-5.530892853639842e-24
-0.4792623512812497	-5.791814027585613e-24
-0.4792013161249997	-6.047888151662798e-24
-0.4791402809687497	-6.298872322521512e-24
-0.4790792458124997	-6.544644197267172e-24
-0.4790182106562497	-6.78496933689196e-24
-0.4789571754999997	-7.019598630579304e-24
-0.4788961403437497	-7.248394237625549e-24
-0.4788351051874997	-7.471157438724307e-24
-0.4787740700312497	-7.68765814104253e-24
-0.4787130348749997	-7.897773476322182e-24
-0.4786519997187497	-8.101322788163799e-24
-0.4785909645624997	-8.298059967600316e-24
-0.4785299294062497	-8.487888717017294e-24
-0.4784688942499997	-8.670692672301947e-24
-0.4784078590937497	-8.846199887967995e-24
-0.4783468239374997	-9.01429846955585e-24
-0.4782857887812497	-9.17497864888613e-24
-0.4782247536249997	-9.327982106535806e-24
-0.4781637184687497	-9.473095866942791e-24
-0.4781026833124997	-9.610390057433876e-24
-0.4780416481562497	-9.739731382684868e-24
-0.4779806129999997	-9.860799199288506e-24
-0.4779195778437497	-9.973643559425119e-24
-0.4778585426874997	-1.0078335269327338e-23
-0.4777975075312497	-1.0174520736020617e-23
-0.4777364723749997	-1.0262071818010916e-23
-0.4776754372187497	-1.0341232629416086e-23
-0.4776144020624997	-1.0411821784773584e-23
-0.4775533669062497	-1.0473497322946851e-23
-0.4774923317499997	-1.0526484099130839e-23
-0.4774312965937497	-1.0570898288094634e-23
-0.4773702614374997	-1.0606317103954892e-23
-0.4773092262812497	-1.0632739403506006e-23
-0.4772481911249997	-1.065054549463318e-23
-0.4771871559687497	-1.0659480288566856e-23
-0.4771261208124997	-1.0659227028389365e-23
-0.4770650856562497	-1.0650203844036177e-23
-0.4770040504999997	-1.0632536165787257e-23
-0.4769430153437497	-1.0605732587260493e-23
-0.4768819801874997	-1.0569948114996856e-23
-0.4768209450312497	-1.052568419472662e-23
-0.4767599098749997	-1.0472600877147165e-23
-0.4766988747187497	-1.041043469809509e-23
-0.4766378395624997	-1.0339787464455118e-23
-0.4765768044062497	-1.0260767026087396e-23
-0.4765157692499997	-1.0172846020613993e-23
-0.4764547340937497	-1.0076347875234434e-23
-0.4763936989374997	-9.971842412001455e-24
-0.4763326637812497	-9.85891194739341e-24
-0.4762716286249997	-9.7374025771e-24
-0.4762105934687497	-9.608067618731214e-24
-0.4761495583124997	-9.47094720254398e-24
-0.4760885231562497	-9.325517294795896e-24
-0.4760274879999997	-9.172293470902266e-24
-0.4759664528437497	-9.011872835881279e-24
-0.4759054176874997	-8.843749210258952e-24
-0.4758443825312497	-8.667897530114203e-24
-0.4757833473749997	-8.485214381939516e-24
-0.4757223122187497	-8.295660613087454e-24
-0.4756612770624997	-8.098722986528486e-24
-0.4756002419062497	-7.895096505333444e-24
-0.4755392067499997	-7.685382251577235e-24
-0.4754781715937497	-7.469006328049308e-24
-0.4754171364374997	-7.246081609319887e-24
-0.4753561012812497	-7.017597777329115e-24
-0.4752950661249997	-6.783432773580214e-24
-0.4752340309687497	-6.543125751578283e-24
-0.4751729958124997	-6.2975165115912304e-24
-0.4751119606562497	-6.0471702972417245e-24
-0.4750509254999997	-5.791486592426651e-24
-0.4749898903437497	-5.530719449120834e-24
-0.4749288551874997	-5.265886558537973e-24
-0.4748678200312497	-4.9967777342052694e-24
-0.4748067848749997	-4.72303734973561e-24
-0.4747457497187497	-4.4456344507793786e-24
-0.4746847145624997	-4.1650265741248206e-24
-0.4746236794062497	-3.8805939528339195e-24
-0.4745626442499997	-3.592776511903002e-24
-0.4745016090937497	-3.3025803104222587e-24
-0.4744405739374997	-3.0096787473815065e-24
-0.4743795387812497	-2.71384315602072e-24
-0.4743185036249997	-2.4161367104289927e-24
-0.4742574684687497	-2.1168956230354757e-24
-0.4741964333124997	-1.8155182070767038e-24
-0.4741353981562497	-1.512586873291335e-24
-0.4740743629999997	-1.2090505735892982e-24
-0.4740133278437497	-9.04514059711603e-25
-0.4739522926874997	-5.988782594766189e-25
-0.4738912575312497	-2.9322057812280927e-25
-0.4738302223749997	1.2249130065338394e-26
-0.4737691872187497	3.180493299565277e-25
-0.4737081520624997	6.234918792594453e-25
-0.4736471169062497	9.27762118522083e-25
-0.4735860817499997	1.2312883108670205e-24
-0.4735250465937497	1.5340185320563069e-24
-0.4734640114374997	1.8349162171234994e-24
-0.4734029762812497	2.133895679244226e-24
-0.4733419411249997	2.4313865992123312e-24
-0.4732809059687497	2.726647751994496e-24
-0.4732198708124997	3.018994676185584e-24
-0.4731588356562497	3.3088522755364935e-24
-0.4730978004999997	3.596056372478088e-24
-0.4730367653437497	3.8796646906901725e-24
-0.4729757301874997	4.1597051762981806e-24
-0.4729146950312497	4.4364890843059285e-24
-0.4728536598749997	4.709241618871072e-24
-0.4727926247187497	4.977451797772729e-24
-0.4727315895624997	5.2415448189277615e-24
-0.4726705544062497	5.501247599427265e-24
-0.4726095192499997	5.7557333918937375e-24
-0.4725484840937497	6.005119978433665e-24
-0.4724874489374997	6.249606279738743e-24
-0.4724264137812497	6.488457315773322e-24
-0.4723653786249997	6.721327538176136e-24
-0.4723043434687497	6.948594364874804e-24
-0.4722433083124997	7.169920881891246e-24
-0.4721822731562497	7.384627588401511e-24
-0.4721212379999997	7.592892319882973e-24
-0.4720602028437497	7.794826077320405e-24
-0.4719991676874997	7.989780152302747e-24
-0.4719381325312497	8.177544363144205e-24
-0.4718770973749997	8.358417320981922e-24
-0.4718160622187497	8.532054087336353e-24
-0.4717550270624997	8.697966909345262e-24
-0.4716939919062497	8.856355424210083e-24
-0.4716329567499997	9.007228320450718e-24
-0.4715719215937497	9.15006391618309e-24
-0.4715108864374997	9.28479468545464e-24
