Time	Frequency
-0.5000480601875026	0.3913102202501945
-0.4999870250312526	0.39668741710456196
-0.4999259898750026	0.40187898321566096
-0.4998649547187526	0.40687069381994806
-0.4998039195625026	0.41166834271282954
-0.4997428844062526	0.4162684642564066
-0.4996818492500026	0.4206612384870561
-0.4996208140937526	0.42485720426637386
-0.4995597789375026	0.4288408139711715
-0.4994987437812526	0.43261929038224667
-0.4994377086250026	0.43618990546822334
-0.4993766734687526	0.43954197142409995
-0.4993156383125026	0.4426891347012383
-0.4992546031562526	0.4456137207055949
-0.4991935680000026	0.4483245162803493
-0.4991325328437526	0.4508199640767409
-0.4990714976875026	0.4530879152455727
-0.4990104625312526	0.4551450487294148
-0.4989494273750026	0.45697225063590097
-0.4988883922187526	0.4585797747575764
-0.4988273570625026	0.45996710292832893
-0.4987663219062526	0.4611207694442555
-0.4987052867500026	0.46206050098584334
-0.4986442515937526	0.46276567289794124
-0.4985832164375026	0.46324751634594113
-0.4985221812812526	0.4635072504245045
-0.4984611461250026	0.46353011666045
-0.4984001109687526	0.46333819218106614
-0.4983390758125026	0.4629102703129885
-0.4982780406562526	0.4622582328445391
-0.4982170055000026	0.4613847688273327
-0.4981559703437526	0.4602740569937868
-0.4980949351875026	0.45895024606339624
-0.4980339000312526	0.4573919908732133
-0.4979728648750026	0.45561144663215214
-0.4979118297187526	0.45361309124670623
-0.4978507945625026	0.4513800327066913
-0.4977897594062526	0.44893797657871576
-0.4977287242500026	0.44626620731323063
-0.4976676890937526	0.443376429842632
-0.4976066539375026	0.4402749638625367
-0.4975456187812526	0.4369444956332318
-0.4974845836250026	0.4334118516427423
-0.4974235484687526	0.4296570538952885
-0.4973625133125026	0.42569087923133125
-0.4973014781562526	0.42152205787588365
-0.4972404430000026	0.41713279496337236
-0.4971794078437526	0.41255006023516505
-0.4971183726875026	0.40775573706605106
-0.4970573375312526	0.40275967410262675
-0.4969963023750026	0.39757252615411703
-0.4969352672187526	0.39217603210574215
-0.4968742320625026	0.38659704949859997
-0.4968131969062526	0.3808198459255158
-0.4967521617500026	0.37485285288322123
-0.4966911265937526	0.3687085223548821
-0.4966300914375026	0.36236876276736263
-0.4965690562812526	0.355859926363752
-0.4965080211250026	0.3491687611097855
-0.4964469859687526	0.34230196767876436
-0.4963859508125026	0.33527355212623616
-0.4963249156562526	0.32806631416258114
-0.4962638805000026	0.3207056108568146
-0.4962028453437526	0.3131804335152873
-0.4961418101875026	0.30549612488488365
-0.4960807750312526	0.2976679710623042
-0.4960197398750026	0.28967969225197865
-0.4959587047187526	0.2815556309003983
-0.4958976695625026	0.2732869386454978
-0.4958366344062526	0.26487764398438435
-0.4957755992500026	0.256344206514121
-0.4957145640937526	0.24767116448512458
-0.4956535289375026	0.23888183660498238
-0.4955924937812526	0.22996975029944652
-0.4955314586250026	0.2209370392007861
-0.4954704234687526	0.21180096219940014
-0.4954093883125026	0.20254786745862316
-0.4953483531562526	0.1931998747519354
-0.4952873180000026	0.18375241892554428
-0.4952262828437526	0.17420615519600338
-0.4951652476875026	0.16457889278893637
-0.4951042125312526	0.1548582875792123
-0.4950431773750026	0.14506435661386297
-0.4949821422187526	0.13519518313070453
-0.4949211070625026	0.1252515317415771
-0.4948600719062526	0.11525064078294765
-0.4947990367500026	0.10518113692719326
-0.4947380015937526	0.09506129384313734
-0.4946769664375026	0.08489077707353258
-0.4946159312812526	0.07467031256372995
-0.4945548961250026	0.06441694412436694
-0.4944938609687526	0.05412089462004999
-0.4944328258125026	0.043799158839740046
-0.4943717906562526	0.03345229589080557
-0.4943107555000026	0.023079919454170386
-0.4942497203437526	0.01269895978691405
-0.4941886851875026	0.0023022795157216546
-0.4941276500312526	-0.008095384164265721
-0.4940666148750026	-0.018492653671237678
-0.4940055797187526	-0.028889241858754893
-0.4939445445625026	-0.03927000189363627
-0.4938835094062526	-0.049640490930826384
-0.4938224742500026	-0.05998675435231371
-0.4937614390937526	-0.07030723552647654
-0.4937004039375026	-0.08060077825523838
-0.4936393687812526	-0.09085319269279409
-0.4935783336250026	-0.10107012934828934
-0.4935172984687526	-0.11123853848189562
-0.4934562633125026	-0.12135526250248085
-0.4933952281562526	-0.1314191853555572
-0.4933341930000026	-0.1414176669706111
-0.4932731578437526	-0.15135512579412136
-0.4932121226875026	-0.16121988176788607
-0.4931510875312526	-0.1710084051827415
-0.4930900523750026	-0.18071931368966845
-0.4930290172187526	-0.1903413452117526
-0.4929679820625026	-0.199876914566409
-0.4929069469062526	-0.20931559947034153
-0.4928459117500026	-0.2186551476265624
-0.4927848765937526	-0.22789321308776378
-0.4927238414375026	-0.2370194672568881
-0.4926628062812526	-0.24603612126302765
-0.4926017711250026	-0.254932911074311
-0.4925407359687526	-0.2637078108704455
-0.4924797008125026	-0.27235873614052775
-0.4924186656562526	-0.28087598339769676
-0.4923576305000026	-0.289261571832005
-0.4922965953437526	-0.29750667960469795
-0.4922355601875026	-0.30560897837517004
-0.4921745250312526	-0.31356520226406065
-0.4921134898750026	-0.32136782195528946
-0.4920524547187526	-0.32901923484276124
-0.4919914195625026	-0.3365093693844187
-0.4919303844062526	-0.3438375738903297
-0.4918693492500026	-0.35100158729294834
-0.4918083140937526	-0.3579931401391184
-0.4917472789375026	-0.36481471057462045
-0.4916862437812526	-0.37145663794505407
-0.4916252086250026	-0.3779198508688603
-0.4915641734687526	-0.3842019608072761
-0.4915031383125026	-0.39029451691414735
-0.4914421031562526	-0.39620202987286707
-0.4913810680000026	-0.40191370351182354
-0.4913200328437526	-0.40743112588284075
-0.4912589976875026	-0.4127528575487031
-0.4911979625312526	-0.4178698280309885
-0.4911369273750026	-0.4227888810631125
-0.4910758922187526	-0.42749864498525414
-0.4910148570625026	-0.4320015695697704
-0.4909538219062526	-0.43629662551131215
-0.4908927867500026	-0.440373884574727
-0.4908317515937526	-0.44424307794649676
-0.4907707164375026	-0.4478911477988041
-0.4907096812812526	-0.45132209372400833
-0.4906486461250026	-0.4545366435431474
-0.4905876109687526	-0.45752288008001013
-0.4905265758125026	-0.460293369080698
-0.4904655406562526	-0.462833807795387
-0.4904045055000026	-0.46514937247133126
-0.4903434703437526	-0.46724231581398395
-0.4902824351875026	-0.4690990484486061
-0.4902214000312526	-0.47073553105017346
-0.4901603648750026	-0.4721359051238929
-0.4900993297187526	-0.47330627736262004
-0.4900382945625026	-0.47425072466484536
-0.4899772594062526	-0.47495378027447166
-0.4899162242500026	-0.47543470958609274
-0.4898551890937526	-0.47567649138136264
-0.4897941539375026	-0.47568595454877277
-0.4897331187812526	-0.4754690801461366
-0.4896720836250026	-0.47500861395386434
-0.4896110484687526	-0.474326813837059
-0.4895500133125026	-0.47340589189453736
-0.4894889781562526	-0.4722530290210625
-0.4894279430000026	-0.4708763235305964
-0.4893669078437526	-0.46925702079156806
-0.4893058726875026	-0.46741961613284166
-0.4892448375312526	-0.4653462044384562
-0.4891838023750026	-0.46304412401990297
-0.4891227672187526	-0.4605234364114928
-0.4890617320625026	-0.4577642822109379
-0.4890006969062526	-0.4547928831528839
-0.4889396617500026	-0.4515915843041124
-0.4888786265937526	-0.448167592107989
-0.4888175914375026	-0.4445330419456153
-0.4887565562812526	-0.44066708134765814
-0.4886955211250026	-0.4365972430209718
-0.4886344859687526	-0.43230694696058225
-0.4885734508125026	-0.42780242007711455
-0.4885124156562526	-0.4230978110202099
-0.4884513805000026	-0.4181720939456767
-0.4883903453437526	-0.4130532235395932
-0.4883293101875026	-0.4077259116953173
-0.4882682750312526	-0.4021955614884945
-0.4882072398750026	-0.396478609530205
-0.4881462047187526	-0.3905535238835713
-0.4880851695625026	-0.3844478174903562
-0.4880241344062526	-0.3781486936223474
-0.4879630992500026	-0.3716602668217953
-0.4879020640937526	-0.3650006787344556
-0.4878410289375026	-0.35814883925618707
-0.4877799937812526	-0.3511315087774655
-0.4877189586250026	-0.343938356931848
-0.4876579234687526	-0.3365716421430844
-0.4875968883125026	-0.32905088652484027
-0.4875358531562526	-0.3213563830314009
-0.4874748180000026	-0.3135136750581526
-0.4874137828437526	-0.30551494494428527
-0.4873527476875026	-0.2973612253433601
-0.4872917125312526	-0.2890726226909109
-0.4872306773750026	-0.28063028821533537
-0.4871696422187526	-0.27205864433416427
-0.4871086070625026	-0.2633528730426996
-0.4870475719062526	-0.2545127458231649
-0.4869865367500026	-0.24555855620585681
-0.4869255015937526	-0.23647316196099635
-0.4868644664375026	-0.22727956502720206
-0.4868034312812526	-0.21797434077218944
-0.4867423961250026	-0.2085564273738361
-0.4866813609687526	-0.19904759780288014
-0.4866203258125026	-0.1894317642027957
-0.4865592906562526	-0.17972997580964756
-0.4864982555000026	-0.16994125349802947
-0.4864372203437526	-0.16006297624055632
-0.4863761851875026	-0.15011724544146882
-0.4863151500312526	-0.14009004685866036
-0.4862541148750026	-0.13000021097177972
-0.4861930797187526	-0.11984916166706014
-0.4861320445625026	-0.10963391370721387
-0.4860710094062526	-0.09937559867248305
-0.4860099742500026	-0.08906172179458724
-0.4859489390937526	-0.07870942912759556
-0.4858879039375026	-0.06832202524742109
-0.4858268687812526	-0.05789660960127732
-0.4857658336250026	-0.047453362946502556
-0.4857047984687526	-0.0369812809387454
-0.4856437633125026	-0.02649613295569076
-0.4855827281562526	-0.01600242652356875
-0.4855216930000026	-0.0054968468370157775
-0.4854606578437526	0.005001408486330183
-0.4853996226875026	0.015501312905663934
-0.4853385875312526	0.025988638285589196
-0.4852775523750026	0.03645788126170645
-0.4852165172187526	0.04691208151030905
-0.4851554820625026	0.057333558983688984
-0.4850944469062526	0.06772946539035272
-0.4850334117500026	0.07808748468231337
-0.4849723765937526	0.08840215596363564
-0.4849113414375026	0.09867511245820806
-0.4848503062812526	0.10888960490741004
-0.4847892711250026	0.11905140990247132
-0.4847282359687526	0.12914942998631299
-0.4846672008125026	0.13917898394354977
-0.4846061656562526	0.14914175542856875
-0.4845451305000026	0.15902166692631617
-0.4844840953437526	0.16882279632719202
-0.4844230601875026	0.1785354118951036
-0.4843620250312526	0.18815442754659034
-0.4843009898750026	0.1976806011095803
-0.4842399547187526	0.20710037519510904
-0.4841789195625026	0.21641738746280678
-0.4841178844062526	0.2256225442672653
-0.4840568492500026	0.23471071076451408
-0.4839958140937526	0.24368176001043998
-0.4839347789375026	0.252523543399953
-0.4838737437812526	0.261238714015928
-0.4838127086250026	0.2698192603144186
-0.4837516734687526	0.2782612997883224
-0.4836906383125026	0.2865641274158215
-0.4836296031562526	0.2947167623598558
-0.4835685680000026	0.30272110691882514
-0.4835075328437526	0.3105692002339335
-0.4834464976875026	0.3182582324543881
-0.4833854625312526	0.32578775112522923
-0.4833244273750026	0.3331476417014612
-0.4832633922187526	0.34033952720767274
-0.4832023570625026	0.3473562495311803
-0.4831413219062526	0.354195606504865
-0.4830802867500026	0.36085625547843647
-0.4830192515937526	0.3673297159244766
-0.4829582164375026	0.3736187312584314
-0.4828971812812526	0.37971497608698723
-0.4828361461250026	0.38561701944532456
-0.4827751109687526	0.39132467443531527
-0.4827140758125026	0.39682969413292135
-0.4826530406562526	0.402135357102548
-0.4825920055000026	0.4072331722018668
-0.4825309703437526	0.41212338011764216
-0.4824699351875026	0.4168059612219484
-0.4824089000312526	0.4212714897125524
-0.4823478648750026	0.4255259313323932
-0.4822868297187526	0.4295606385313724
-0.4822257945625026	0.433375914983164
-0.4821647594062526	0.4369730699941685
-0.4821037242500026	0.4403422241196268
-0.4820426890937526	0.44349135117020205
-0.4819816539375026	0.44641076487257286
-0.4819206187812526	0.4491018363617488
-0.4818595836250026	0.45156742243817866
-0.4817985484687526	0.45379606518018156
-0.4817375133125026	0.45579897113458184
-0.4816764781562526	0.4575653876881878
-0.4816154430000026	0.4590971006391425
-0.4815544078437526	0.4603991109157254
-0.4814933726875026	0.46145799503856244
-0.4814323375312526	0.4622881689880743
-0.4813713023750026	0.46287790981539495
-0.4813102672187526	0.46322951725047673
-0.4812492320625026	0.463350432620359
-0.4811881969062526	0.4632249794928648
-0.4811271617500026	0.46287079068077286
-0.4810661265937526	0.4622751929298808
-0.4810050914375026	0.4614408795069904
-0.4809440562812526	0.4603779651800599
-0.4808830211250026	0.45906840355883277
-0.4808219859687526	0.4575329117665521
-0.4807609508125026	0.455758315553582
-0.4806999156562526	0.4537473675395858
-0.4806388805000026	0.45151273635833505
-0.4805778453437526	0.4490343010522722
-0.4805168101875026	0.4463355441868348
-0.4804557750312526	0.4434031935743022
-0.4803947398750026	0.44023963045185904
-0.4803337047187526	0.43686009182916186
-0.4802726695625026	0.43324294921180495
-0.4802116344062526	0.4294136394096697
-0.4801505992500026	0.4253594132256333
-0.4800895640937526	0.42108208754306353
-0.4800285289375026	0.4165989174008942
-0.4799674937812526	0.4118874888428963
-0.4799064586250026	0.4069747967592174
-0.4798454234687526	0.4018486524276918
-0.4797843883125026	0.39651025489998465
-0.4797233531562526	0.39097924531334804
-0.4796623180000026	0.38523216699802343
-0.4796012828437526	0.37929656139496193
-0.4795402476875026	0.3731622464644621
-0.4794792125312526	0.36682929117511165
-0.4794181773750026	0.3603188649644657
-0.4793571422187526	0.353607780302013
-0.4792961070625026	0.3467236449954599
-0.4792350719062526	0.33965772673530464
-0.4791740367500026	0.3324088622671826
-0.4791130015937526	0.32500051163050714
-0.4790519664375026	0.3174097517828933
-0.4789909312812526	0.3096626743080197
-0.4789298961250026	0.3017533250372728
-0.4788688609687526	0.2936798591944705
-0.4788078258125026	0.2854666157809154
-0.4787467906562526	0.2770911678657999
-0.4786857555000026	0.26857846808372987
-0.4786247203437526	0.2599253047695313
-0.4785636851875026	0.2511282236102386
-0.4785026500312526	0.24221270843548556
-0.4784416148750026	0.2331583214555267
-0.4783805797187526	0.22398755156164
-0.4783195445625026	0.2146993390457251
-0.4782585094062526	0.2052898851682141
-0.4781974742500026	0.19578474585733746
-0.4781364390937526	0.1861644952743382
-0.4780754039375026	0.1764506128521241
-0.4780143687812526	0.16664525248487166
-0.4779533336250026	0.15674272399005362
-0.4778922984687526	0.1467677382879348
-0.4778312633125026	0.13670348102704621
-0.4777702281562526	0.12656987387905186
-0.4777091930000026	0.1163706435984148
-0.4776481578437526	0.10609931414619152
-0.4775871226875026	0.09578095553795601
-0.4775260875312526	0.08540074681454937
-0.4774650523750026	0.07497595763045903
-0.4774040172187526	0.06451206215790882
-0.4773429820625026	0.05400221043192833
-0.4772819469062526	0.043471194116000714
-0.4772209117500026	0.03290652214132934
-0.4771598765937526	0.022322839264908738
-0.4770988414375026	0.011726923358100345
-0.4770378062812526	0.0011124281742090503
-0.4769767711250026	-0.00949710498189357
-0.4769157359687526	-0.020112605778489438
-0.4768547008125026	-0.03072050620447363
-0.4767936656562526	-0.041312867038264964
-0.4767326305000026	-0.05189690156932798
-0.4766715953437526	-0.06245037057360661
-0.4766105601875026	-0.0729815577249457
-0.4765495250312526	-0.0834784824900914
-0.4764884898750026	-0.09393275816229746
-0.4764274547187526	-0.10435109947732346
-0.4763664195625026	-0.11471281238942543
-0.4763053844062526	-0.1250248251642515
-0.4762443492500026	-0.13527707559989988
-0.4761833140937526	-0.14546035798969084
-0.4761222789375026	-0.15558011852751652
-0.4760612437812526	-0.16561785388869452
-0.4760002086250026	-0.17557872042864275
-0.4759391734687526	-0.18545389177916297
-0.4758781383125026	-0.1952352619973479
-0.4758171031562526	-0.20492702712268251
-0.4757560680000026	-0.214512087182358
-0.4756950328437526	-0.22399487517234165
-0.4756339976875026	-0.23336697605978518
-0.4755729625312526	-0.24262028172107852
-0.4755119273750026	-0.2517588829712165
-0.4754508922187526	-0.26076766317189387
-0.4753898570625026	-0.269650012410589
-0.4753288219062526	-0.2783986890573542
-0.4752677867500026	-0.2870056850654797
-0.4752067515937526	-0.2954736867258697
-0.4751457164375026	-0.3037896957102743
-0.4750846812812526	-0.31195652790121436
-0.4750236461250026	-0.3199681359574456
-0.4749626109687526	-0.327817615703815
-0.4749015758125026	-0.33550601199958535
-0.4748405406562526	-0.34302195206429653
-0.4747795055000026	-0.35036806189330055
-0.4747184703437526	-0.3575383894368433
-0.4746574351875026	-0.36452742531040894
-0.4745964000312526	-0.37133638289929116
-0.4745353648750026	-0.3779551228831093
-0.4744743297187526	-0.38438526925391225
-0.4744132945625026	-0.39062101681910505
-0.4743522594062526	-0.39665856788988046
-0.4742912242500026	-0.40249900354225226
-0.4742301890937526	-0.40813322237698985
-0.4741691539375026	-0.4135632245984775
-0.4741081187812526	-0.4187833457907617
-0.4740470836250026	-0.4237906288046197
-0.4739860484687526	-0.4285857494310708
-0.4739250133125026	-0.4331606984316848
-0.4738639781562526	-0.4375191094701636
-0.4738029430000026	-0.4416548100238395
-0.4737419078437526	-0.44556521459722404
-0.4736808726875026	-0.44925179755303685
-0.4736198375312526	-0.45270694065912304
-0.4735588023750026	-0.45593544370723704
-0.4734977672187526	-0.45893072485565345
-0.4734367320625026	-0.46169163041340044
-0.4733756969062526	-0.4642208892630415
-0.4733146617500026	-0.46650948108274065
-0.4732536265937526	-0.46856413110498196
-0.4731925914375026	-0.47037837245319325
-0.4731315562812526	-0.4719516316125857
-0.4730705211250026	-0.4732883103943311
-0.4730094859687526	-0.4743781430795398
-0.4729484508125026	-0.4752303192329126
-0.4728874156562526	-0.47583785641977083
-0.4728263805000026	-0.47620043269440054
-0.4727653453437526	-0.4763247707949325
-0.4727043101875026	-0.4761987902215665
-0.4726432750312526	-0.4758346987176568
-0.4725822398750026	-0.4752250056766751
-0.4725212047187526	-0.47436930432966645
-0.4724601695625026	-0.47327714496459233
-0.4723991344062526	-0.4719340663390494
-0.4723380992500026	-0.4703554706322021
-0.4722770640937526	-0.46853352627709893
-0.4722160289375026	-0.4664672928825769
-0.4721549937812526	-0.46416957135459763
-0.4720939586250026	-0.46162367410860394
-0.4720329234687526	-0.4588478796165909
-0.4719718883125026	-0.45583397189829616
-0.4719108531562526	-0.4525807475949278
-0.4718498180000026	-0.44910434006031447
-0.4717887828437526	-0.4453851466499876
-0.4717277476875026	-0.4414441910420855
-0.4716667125312526	-0.43727396936803314
-0.4716056773750026	-0.43287256720148526
-0.4715446422187526	-0.42825891478591965
-0.4714836070625026	-0.4234112597820468
-0.4714225719062526	-0.41835295659828425
-0.4713615367500026	-0.4130770698341868
-0.4713005015937526	-0.4075804660721866
-0.4712394664375026	-0.4018851409841113
-0.4711784312812526	-0.39596844511436585
-0.4711173961250026	-0.3898548265460352
-0.4710563609687526	-0.38353799618889345
-0.4709953258125026	-0.37701411026423715
-0.4709342906562526	-0.3703073226112209
-0.4708732555000026	-0.3633941979628234
-0.4708122203437526	-0.3563004859537743
-0.4707511851875026	-0.3490208513347776
-0.4706901500312526	-0.3415502346148439
-0.4706291148750026	-0.3339154934156362
-0.4705680797187526	-0.3260923973518794
-0.4705070445625026	-0.31810623795437065
-0.4704460094062526	-0.3099545627645328
-0.4703849742500026	-0.3016308675980005
-0.4703239390937526	-0.2931624201175311
-0.4702629039375026	-0.28452637026612826
-0.4702018687812526	-0.27574827159647963
-0.4701408336250026	-0.26682695128211437
-0.4700797984687526	-0.25775427098719134
-0.4700187633125026	-0.248558787230369
-0.4699577281562526	-0.239218127220593
-0.4698966930000026	-0.22975695984587924
-0.4698356578437526	-0.22017778378665456
-0.4697746226875026	-0.21047059391883188
-0.4697135875312526	-0.20066375401310582
