Time	Frequency
-0.5000070052812475	-0.4668619357332043
-0.49994597012499753	-0.46669489662821345
-0.49988493496874753	-0.4662719588996019
-0.49982389981249753	-0.4656566378664395
-0.49976286465624753	-0.4647865529772993
-0.49970182949999753	-0.46366546648050855
-0.49964079434374753	-0.46235306256098213
-0.49957975918749753	-0.4607832298178084
-0.49951872403124753	-0.4589686763330808
-0.49945768887499753	-0.4569644544704614
-0.49939665371874753	-0.45470140942699677
-0.49933561856249753	-0.45220109679755965
-0.49927458340624753	-0.44951342693542157
-0.49921354824999753	-0.4465671003832297
-0.49915251309374753	-0.44339198464931806
-0.49909147793749753	-0.4400319925162192
-0.49903044278124753	-0.43641497532689855
-0.49896940762499753	-0.4325792139922632
-0.49890837246874753	-0.4285616983373561
-0.49884733731249753	-0.42428982376859575
-0.49878630215624753	-0.4198100482233578
-0.49872526699999753	-0.41515243160005616
-0.49866423184374753	-0.4102448103114803
-0.49860319668749753	-0.4051408595751164
-0.49854216153124753	-0.39986330308468576
-0.49848112637499753	-0.39434183115879645
-0.49842009121874753	-0.38863672258642534
-0.49835905606249753	-0.38276248383886396
-0.49829802090624753	-0.37665134684956386
-0.49823698574999753	-0.37036996523631555
-0.49817595059374753	-0.36392516152355264
-0.49811491543749753	-0.35725260178877266
-0.49805388028124753	-0.3504233200741716
-0.49799284512499753	-0.3434356329234123
-0.49793180996874753	-0.33623077980829724
-0.49787077481249753	-0.32888459072492515
-0.49780973965624753	-0.32138590472851025
-0.49774870449999753	-0.3136809160127181
-0.49768766934374753	-0.30585004952713624
-0.49762663418749753	-0.29787413629098175
-0.49756559903124753	-0.28970420421171206
-0.49750456387499753	-0.2814229637183288
-0.49744352871874753	-0.2730046694914711
-0.49738249356249753	-0.26440755935439203
-0.49732145840624753	-0.2557144393065739
-0.49726042324999753	-0.24689091508691616
-0.49719938809374753	-0.23790377469181553
-0.49713835293749753	-0.2288376554745254
-0.49707731778124753	-0.21964982650900455
-0.49701628262499753	-0.21031380158083327
-0.49695524746874753	-0.2009145316157083
-0.49689421231249753	-0.19140322752873265
-0.49683317715624753	-0.181761204031026
-0.49677214199999753	-0.17207134414786585
-0.49671110684374753	-0.16227910000115836
-0.49665007168749753	-0.15237471479696213
-0.49658903653124753	-0.14243781448048431
-0.49652800137499753	-0.1324083768714972
-0.49646696621874753	-0.12228647989794114
-0.49640593106249753	-0.11214815192375294
-0.49634489590624753	-0.10192763556873599
-0.49628386074999753	-0.09163347405547913
-0.49622282559374753	-0.08133804057135717
-0.49616179043749753	-0.07097278434751927
-0.49610075528124753	-0.060554453419226315
-0.49603972012499753	-0.05014903357655432
-0.49597868496874753	-0.03968530458376895
-0.49591764981249753	-0.029189186212035742
-0.49585661465624753	-0.018720872897041236
-0.49579557949999753	-0.008206971048141287
-0.49573454434374753	0.0023189235029900702
-0.49567350918749753	0.012803172567061321
-0.49561247403124753	0.02331943492134035
-0.49555143887499753	0.03382664393107209
-0.49549040371874753	0.044279544494829695
-0.49542936856249753	0.054751487576409345
-0.49536833340624753	0.06519266446503845
-0.49530729824999753	0.0755653913451251
-0.49524626309374753	0.08594334628195335
-0.49518522793749753	0.09627109881136003
-0.49512419278124753	0.10651881055541845
-0.49506315762499753	0.11675679640389103
-0.49500212246874753	0.12692323929060664
-0.49494108731249753	0.13699768128368148
-0.49488005215624753	0.14704779769826928
-0.49481901699999753	0.15700674720841143
-0.49475798184374753	0.16686319463857216
-0.49469694668749753	0.17668048160174432
-0.49463591153124753	0.18638663127942318
-0.49457487637499753	0.19597912738529935
-0.49451384121874753	0.20551735392685763
-0.49445280606249753	0.2149266525735962
-0.49439177090624753	0.2242126170213036
-0.49433073574999753	0.23342787981600957
-0.49426970059374753	0.24249604917368217
-0.49420866543749753	0.251432597572776
-0.49414763028124753	0.2602837844036437
-0.49408659512499753	0.2689708477308303
-0.49402555996874753	0.27751654004392945
-0.49396452481249753	0.28596064526711384
-0.49390348965624753	0.2942256430584865
-0.49384245449999753	0.3023424414772763
-0.49378141934374753	0.3103422554668598
-0.49372038418749753	0.31814761789288604
-0.49365934903124753	0.32579722980087455
-0.49359831387499753	0.33331499171229856
-0.49353727871874753	0.3406250509644856
-0.49347624356249753	0.34777239049464453
-0.49341520840624753	0.35477267537083396
-0.49335417324999753	0.3615535212238591
-0.49329313809374753	0.36816632423069695
-0.49323210293749753	0.3746175626159069
-0.49317106778124753	0.38083812685486773
-0.49311003262499753	0.38688499511109586
-0.49304899746874753	0.39275613698894385
-0.49298796231249753	0.3983871493144545
-0.49292692715624753	0.40384004295747816
-0.49286589199999753	0.40910461706848816
-0.49280485684374753	0.41412149270828413
-0.49274382168749753	0.4189553229632752
-0.49268278653124753	0.42358719266935896
-0.49262175137499753	0.4279648560705133
-0.49256071621874753	0.4321566615817338
-0.49249968106249753	0.43613548384489437
-0.49243864590624753	0.4398550791210233
-0.49237761074999753	0.4433849882861843
-0.49231657559374753	0.44669080067317163
-0.49225554043749753	0.4497343434194604
-0.49219450528124753	0.45258563176758676
-0.49213347012499753	0.4552028113294631
-0.49207243496874753	0.4575561098805527
-0.49201139981249753	0.45971519876587624
-0.49195036465624753	0.46163133387589145
-0.49188932949999753	0.46328331462003786
-0.49182829434374753	0.46473936649455905
-0.49176725918749753	0.46594467577836696
-0.49170622403124753	0.4668871186368216
-0.49164518887499753	0.4676326917687445
-0.49158415371874753	0.46812131743422564
-0.49152311856249753	0.46834986459529204
-0.49146208340624753	0.4683808082206346
-0.49140104824999753	0.46814960090949986
-0.49134001309374753	0.46766243268013
-0.49127897793749753	0.4669775913843822
-0.49121794278124753	0.46602703070932433
-0.49115690762499753	0.4648261947112009
-0.49109587246874753	0.46342816659344654
-0.49103483731249753	0.4617620216186162
-0.49097380215624753	0.4598522098469755
-0.49091276699999753	0.4577462323321634
-0.49085173184374753	0.45537155413032576
-0.49079069668749753	0.4527611497892404
-0.49072966153124753	0.44995612649141514
-0.49066862637499753	0.44688344899564325
-0.49060759121874753	0.44358410118103964
-0.49054655606249753	0.44009186329168887
-0.49048552090624753	0.4363341999135181
-0.49042448574999753	0.43236015575391296
-0.49036345059374753	0.4281960992597962
-0.49030241543749753	0.4237706933966468
-0.49024138028124753	0.4191399544639808
-0.49018034512499753	0.4143222441671325
-0.49011930996874753	0.4092485988859783
-0.49005827481249753	0.4039816861331235
-0.48999723965624753	0.39853145920495203
-0.48993620449999753	0.3928322039785402
-0.48987516934374753	0.38695276376171117
-0.48981413418749753	0.38089445904180524
-0.48975309903124753	0.37459564844181287
-0.48969206387499753	0.3681305801074173
-0.48963102871874753	0.36149156478619704
-0.48956999356249753	0.35462109557190863
-0.48950895840624753	0.3475978672560733
-0.48944792324999753	0.3404070337836368
-0.48938688809374753	0.33299755133984904
-0.48932585293749753	0.3254502516699657
-0.48926481778124753	0.3177405852166226
-0.48920378262499753	0.3098240047114808
-0.48914274746874753	0.301784344107339
-0.48908171231249753	0.29358994418713286
-0.48902067715624753	0.28520403340594086
-0.48895964199999753	0.2767106324803134
-0.48889860684374753	0.2680689703809063
-0.48883757168749753	0.2592504127205565
-0.48877653653124753	0.25034024550102807
-0.48871550137499753	0.24129064603622818
-0.48865446621874753	0.23208063128495943
-0.48859343106249753	0.222794293871693
-0.48853239590624753	0.21337769788836075
-0.48847136074999753	0.20381864279100015
-0.48841032559374753	0.19419862414467273
-0.48834929043749753	0.18445752057589107
-0.48828825528124753	0.17459277354657804
-0.48822722012499753	0.16468315411373147
-0.48816618496874753	0.15466212404752935
-0.48810514981249753	0.14453611231932417
-0.48804411465624753	0.13438147620025326
-0.48798307949999753	0.12412731286546873
-0.48792204434374753	0.11378797831423347
-0.48786100918749753	0.10343464225406725
-0.48779997403124753	0.09299310382162622
-0.48773893887499753	0.08248683806163938
-0.48767790371874753	0.07198149056582144
-0.48761686856249753	0.06140095080564464
-0.48755583340624753	0.050777615118816254
-0.48749479824999753	0.040169361660817325
-0.48743376309374753	0.029497903317367517
-0.48737272793749753	0.018804722812344094
-0.48731169278124753	0.008141108314141169
-0.48725065762499753	-0.002571399797706696
-0.48718962246874753	-0.013283943898854818
-0.48712858731249753	-0.023953815502493633
-0.48706755215624753	-0.03465870279715967
-0.48700651699999753	-0.04534186084549627
-0.48694548184374753	-0.055968691838902115
-0.48688444668749753	-0.06661592691834242
-0.48682341153124753	-0.07722063005069717
-0.48676237637499753	-0.08775618420615726
-0.48670134121874753	-0.09829649078082403
-0.48664030606249753	-0.10877341947091237
-0.48657927090624753	-0.1191694943992227
-0.48651823574999753	-0.12955439503804098
-0.48645720059374753	-0.13985458555752703
-0.48639616543749753	-0.15006251104079832
-0.48633513028124753	-0.16024419953962654
-0.48627409512499753	-0.17032146498449954
-0.48621305996874753	-0.18029463818446323
-0.48615202481249753	-0.19022416018792065
-0.48609098965624753	-0.20003038949132462
-0.48602995449999753	-0.20972397037433604
-0.48596891934374753	-0.21935751640429269
-0.48590788418749753	-0.22884744769428184
-0.48584684903124753	-0.2382140636112574
-0.48578581387499753	-0.24750477706233018
-0.48572477871874753	-0.25663537057813385
-0.48566374356249753	-0.2656340320381245
-0.48560270840624753	-0.27454002509884473
-0.48554167324999753	-0.28326836327001315
-0.48548063809374753	-0.29185507312575976
-0.48541960293749753	-0.3003328401032927
-0.48535856778124753	-0.30861898861120624
-0.48529753262499753	-0.31675605139378404
-0.48523649746874753	-0.32476689825839616
-0.48517546231249753	-0.3325713257153945
-0.48511442715624753	-0.34021965773988144
-0.48505339199999753	-0.3477262359681424
-0.48499235684374753	-0.355013296799035
-0.48493132168749753	-0.3621365862181042
-0.48487028653124753	-0.3691025563215028
-0.48480925137499753	-0.37583870664180397
-0.48474821621874753	-0.3824050629499981
-0.48468718106249753	-0.3887980041636104
-0.48462614590624753	-0.3949505495244148
-0.48456511074999753	-0.4009279353223823
-0.48450407559374753	-0.4067179051394273
-0.48444304043749753	-0.412259053750428
-0.48438200528124753	-0.4176195341620399
-0.48432097012499753	-0.4227785401596258
-0.48425993496874753	-0.42768190834016945
-0.48419889981249753	-0.4324001112688711
-0.48413786465624753	-0.43690375548331406
-0.48407682949999753	-0.44114626177985505
-0.48401579434374753	-0.4451995828238403
-0.48395475918749753	-0.44902648125016875
-0.48389372403124753	-0.4525881935652577
-0.48383268887499753	-0.4559566787834933
-0.48377165371874753	-0.45908786524853706
-0.48371061856249753	-0.46195214441123805
-0.48364958340624753	-0.4646202392813246
-0.48358854824999753	-0.4670407156194624
-0.48352751309374753	-0.46919313605413915
-0.48346647793749753	-0.4711469233363763
-0.48340544278124753	-0.4728448193960815
-0.48334440762499753	-0.4742754797591881
-0.48328337246874753	-0.4755053358492931
-0.48322233731249753	-0.4764719896038425
-0.48316130215624753	-0.4771735683533511
-0.48310026699999753	-0.4776726818339651
-0.48303923184374753	-0.4779027414026836
-0.48297819668749753	-0.47787146162490873
-0.48291716153124753	-0.4776366800842589
-0.48285612637499753	-0.477128472121987
-0.48279509121874753	-0.47636401893851216
-0.48273405606249753	-0.47539550245506346
-0.48267302090624753	-0.47415059981314234
-0.48261198574999753	-0.4726557403613604
-0.48255095059374753	-0.4709568314302573
-0.48248991543749753	-0.4689803274852167
-0.48242888028124753	-0.46676151521433057
-0.48236784512499753	-0.46433928481825554
-0.48230680996874753	-0.46163992189100606
-0.48224577481249753	-0.4587069099406996
-0.48218473965624753	-0.4555712239127439
-0.48212370449999753	-0.45216019862033585
-0.48206266934374753	-0.44852578455228514
-0.48200163418749753	-0.44469101263787664
-0.48194059903124753	-0.44058433989608964
-0.48187956387499753	-0.436264506290652
-0.48181852871874753	-0.43174670785455227
-0.48175749356249753	-0.4269625310559926
-0.48169645840624753	-0.4219768630804457
-0.48163542324999753	-0.41679618914905503
-0.48157438809374753	-0.4113560251352138
-0.48151335293749753	-0.40572708384409506
-0.48145231778124753	-0.3999072645934653
-0.48139128262499753	-0.39383633826405545
-0.48133024746874753	-0.3875890197767659
-0.48126921231249753	-0.3811547673805026
-0.48120817715624753	-0.37448011400205194
-0.48114714199999753	-0.3676439866331159
-0.48108610684374753	-0.3606261118017245
-0.48102507168749753	-0.3533782951143516
-0.48096403653124753	-0.34598271525404645
-0.48090300137499753	-0.3384118585917886
-0.48084196621874753	-0.3306250449781705
-0.48078093106249753	-0.32270505362452223
-0.48071989590624753	-0.3146150787905946
-0.48065886074999753	-0.3063235245128966
-0.48059782559374753	-0.29791544522292773
-0.48053679043749753	-0.2893451777992876
-0.48047575528124753	-0.2805878114584052
-0.48041472012499753	-0.271728371799248
-0.48035368496874753	-0.26271514822318864
-0.48029264981249753	-0.25353237272737345
-0.48023161465624753	-0.24426365024098554
-0.48017057949999753	-0.2348504229598241
-0.48010954434374753	-0.22528494425535459
-0.48004850918749753	-0.2156477943553794
-0.47998747403124753	-0.20587570442690373
-0.47992643887499753	-0.19597155304132527
-0.47986540371874753	-0.18601206516587748
-0.47980436856249753	-0.1759278270212218
-0.47974333340624753	-0.1657307039733365
-0.47968229824999753	-0.1554930813662834
-0.47962126309374753	-0.14514209219983154
-0.47956022793749753	-0.13469945049687793
-0.47949919278124753	-0.12423158679687844
-0.47943815762499753	-0.11366188663712032
-0.47937712246874753	-0.10302192348220017
-0.47931608731249753	-0.09237248174460147
-0.47925505215624753	-0.08163362259303214
-0.47919401699999753	-0.0708451514473424
-0.47913298184374753	-0.06006164928287031
-0.47907194668749753	-0.04920264084202637
-0.47901091153124753	-0.03831701028170807
-0.47894987637499753	-0.02745125732478866
-0.47888884121874753	-0.016523135984103272
-0.47882780606249753	-0.005589334211143857
-0.47876677090624753	0.0053104913005929035
-0.47870573574999753	0.016256838415140844
-0.47864470059374753	0.027186385822772684
-0.47858366543749753	0.03806929630715474
-0.47852263028124753	0.04898338845898811
-0.47846159512499753	0.05985770397177727
-0.47840055996874753	0.07067243775227171
-0.47833952481249753	0.08150352433702125
-0.47827848965624753	0.09227377249150878
-0.47821745449999753	0.10297143581935814
-0.47815641934374753	0.11366783973159987
-0.47809538418749753	0.12428154143138824
-0.47803434903124753	0.134811288343724
-0.47797331387499753	0.1453239141504066
-0.47791227871874753	0.15573350529797264
-0.47785124356249753	0.16604735682639526
-0.47779020840624753	0.17632657799286142
-0.47772917324999753	0.18648265003641798
-0.47766813809374753	0.1965315950686136
-0.47760710293749753	0.20652817741769147
-0.47754606778124753	0.21638325207299905
-0.47748503262499753	0.22612182341587103
-0.47742399746874753	0.23579036118439572
-0.47736296231249753	0.24529852110603126
-0.47730192715624753	0.2546798475836441
-0.47724089199999753	0.26397336218792367
-0.47717985684374753	0.27309005450351304
-0.47711882168749753	0.2820713106800832
-0.47705778653124753	0.29094664228630546
-0.47699675137499753	0.29962883977949006
-0.47693571621874753	0.30816757185160276
-0.47687468106249753	0.3165831807803335
-0.47681364590624753	0.3247903491438917
-0.47675261074999753	0.33284565325979876
-0.47669157559374753	0.34076118232020264
-0.47663054043749753	0.3484552591993804
-0.47656950528124753	0.35598981287359094
-0.47650847012499753	0.363367997806349
-0.47644743496874753	0.3705128672449372
-0.47638639981249753	0.37749072525143446
-0.47632536465624753	0.38429565550279526
-0.47626432949999753	0.39085720677497604
-0.47620329434374753	0.39724600402212623
-0.47614225918749753	0.4034465628343275
-0.47608122403124753	0.40939424784729345
-0.47602018887499753	0.4151625088176571
-0.47595915371874753	0.42072797672431855
-0.47589811856249753	0.4260339288403327
-0.47583708340624753	0.4311549942420678
-0.47577604824999753	0.43605907994718746
-0.47571501309374753	0.4406979103572161
-0.47565397793749753	0.4451468344668418
-0.47559294278124753	0.44936584462301404
-0.47553190762499753	0.45331576012336955
-0.47547087246874753	0.4570714622404795
-0.47540983731249753	0.46058503726604216
-0.47534880215624753	0.46382661025555527
-0.47528776699999753	0.4668703187187618
-0.47522673184374753	0.4696617756161592
-0.47516569668749753	0.47218025614508247
-0.47510466153124753	0.474497143783206
-0.47504362637499753	0.4765522839825124
-0.47498259121874753	0.4783350050436217
-0.47492155606249753	0.4799133852451912
-0.47486052090624753	0.481222253913409
-0.47479948574999753	0.4822607389276623
-0.47473845059374753	0.48309243883025765
-0.47467741543749753	0.48364816186108467
-0.47461638028124753	0.4839370143946784
-0.47455534512499753	0.4840173147220384
-0.47449430996874753	0.48381671163523077
-0.47443327481249753	0.4833540389377652
-0.47437223965624753	0.482681721777249
-0.47431120449999753	0.48172539235298467
-0.47425016934374753	0.48051298234492673
-0.47418913418749753	0.47909004644774233
-0.47412809903124753	0.47738163716466026
-0.47406706387499753	0.47542487373070563
-0.47400602871874753	0.47325760133808886
-0.47394499356249753	0.47080472326275385
-0.47388395840624753	0.46811183632334546
-0.47382292324999753	0.46520901022407757
-0.47376188809374753	0.46202273749642064
-0.47370085293749753	0.4586064481503416
-0.47363981778124753	0.454981221017009
-0.47357878262499753	0.4510757149156079
-0.47351774746874753	0.4469508954243248
-0.47345671231249753	0.4426194298941627
-0.47339567715624753	0.43801319448140463
-0.47333464199999753	0.43319876298999727
-0.47327360684374753	0.4281798615454934
-0.47321257168749753	0.42289380386278597
-0.47315153653124753	0.41741269606246706
-0.47309050137499753	0.4117299874980597
-0.47302946621874753	0.4057877873344604
-0.47296843106249753	0.3996638181511015
-0.47290739590624753	0.3933434432533904
-0.47284636074999753	0.38677391946977513
-0.47278532559374753	0.38003549223140953
-0.47272429043749753	0.37310551699439337
-0.47266325528124753	0.36593897841316864
-0.47260222012499753	0.3586180238899705
-0.47254118496874753	0.35111061103690133
-0.47248014981249753	0.34337946397314073
-0.47241911465624753	0.3355089925140444
-0.47235807949999753	0.32745943579136755
-0.47229704434374753	0.3192012327774587
-0.47223600918749753	0.3108182334357872
-0.47217497403124753	0.3022626162414973
-0.47211393887499753	0.2935141392630495
-0.47205290371874753	0.2846570611359036
-0.47199186856249753	0.2756368686905029
-0.47193083340624753	0.2664412296267716
-0.47186979824999753	0.25715098175503825
-0.47180876309374753	0.24770568120087963
-0.47174772793749753	0.23810437323344077
-0.47168669278124753	0.22842535407830145
-0.47162565762499753	0.21860115371058686
-0.47156462246874753	0.20863962491762392
-0.47150358731249753	0.19861550695917246
-0.47144255215624753	0.18845719650787962
-0.47138151699999753	0.1781826223391804
-0.47132048184374753	0.16786114023168958
-0.47125944668749753	0.1574164454485528
-0.47119841153124753	0.14687613772612526
-0.47113737637499753	0.13630457183973632
-0.47107634121874753	0.1256231419440318
-0.47101530606249753	0.114868269836762
-0.47095427090624753	0.10409662726739358
-0.47089323574999753	0.09322753297507956
-0.47083220059374753	0.08230684648095647
-0.47077116543749753	0.07138469520926745
-0.47071013028124753	0.06038041144334453
-0.47064909512499753	0.04934771447872226
-0.47058805996874753	0.03832697886263437
-0.47052702481249753	0.027237704374507357
-0.47046598965624753	0.01614299117775881
-0.47040495449999753	0.005074919584644423
