Time	Frequency
-0.5000287930624978	-0.4047297038080353
-0.4999677579062478	-0.3948570813978613
-0.4999067227499978	-0.3846293330773347
-0.4998456875937478	-0.3740938566083903
-0.4997846524374978	-0.36329992596253574
-0.4997236172812478	-0.3521911650405297
-0.4996625821249978	-0.34077485316977557
-0.4996015469687478	-0.32912450453248726
-0.4995405118124978	-0.3172106219723116
-0.4994794766562478	-0.30500106312173175
-0.4994184414999978	-0.29256768024980123
-0.4993574063437478	-0.27992300668348113
-0.4992963711874978	-0.2670137981235651
-0.4992353360312478	-0.25388535287053265
-0.4991743008749978	-0.24058776946547003
-0.4991132657187478	-0.22707122528421061
-0.4990522305624978	-0.2133430545826036
-0.4989911954062478	-0.19947528144064064
-0.4989301602499978	-0.18544399523373611
-0.4988691250937478	-0.1712201216418171
-0.4988080899374978	-0.15687316276913396
-0.4987470547812478	-0.14241772376911874
-0.4986860196249978	-0.12780474065517786
-0.4986249844687478	-0.11307865932400075
-0.4985639493124978	-0.0982898448575423
-0.4985029141562478	-0.08339267170746255
-0.4984418789999978	-0.06839440666760166
-0.4983808438437478	-0.05336598506374973
-0.4983198086874978	-0.038287837200314576
-0.4982587735312478	-0.023131380501546693
-0.4981977383749978	-0.007962731682961108
-0.4981367032187478	0.007199830807184194
-0.4980756680624978	0.02240225158559043
-0.4980146329062478	0.0376036459297737
-0.4979535977499978	0.05275268548145161
-0.4978925625937478	0.06789175858466148
-0.4978315274374978	0.08301634289780413
-0.4977704922812478	0.09805557993320588
-0.4977094571249978	0.11302550766706065
-0.4976484219687478	0.12795714278885764
-0.4975873868124978	0.14278633398301704
-0.4975263516562478	0.15749109657205815
-0.4974653164999978	0.17211904375800194
-0.4974042813437478	0.18663369886800985
-0.4973432461874978	0.2009795858550893
-0.4972822110312478	0.2151968745825501
-0.4972211758749978	0.22928732104266383
-0.4971601407187478	0.24318117794394345
-0.4970991055624978	0.2568916427283446
-0.4970380704062478	0.27045318844955313
-0.4969770352499978	0.28380311747358855
-0.4969160000937478	0.29691617919452346
-0.4968549649374978	0.30984305976306
-0.4967939297812478	0.3225521765237867
-0.4967328946249978	0.33498649971595934
-0.4966718594687478	0.3471867246464277
-0.4966108243124978	0.35915936992276176
-0.4965497891562478	0.3708343611639615
-0.4964887539999978	0.38222361353319523
-0.4964277188437478	0.3933665633301288
-0.4963666836874978	0.4042034630779378
-0.4963056485312478	0.4147081543138048
-0.4962446133749978	0.4249350795284204
-0.4961835782187478	0.434855818452467
-0.4961225430624978	0.4444112930528726
-0.4960615079062478	0.453645714462056
-0.4960004727499978	0.46257226747985936
-0.4959394375937478	0.47111929347233195
-0.4958784024374978	0.47929865633455987
-0.4958173672812478	0.48715747552586947
-0.4957563321249978	0.4946377910626875
-0.4956952969687478	0.5017113349397999
-0.4956342618124978	0.5084386035072974
-0.4955732266562478	0.5147963026806784
-0.4955121914999978	0.5207233423905461
-0.4954511563437478	0.5262672050761052
-0.4953901211874978	0.531447952318438
-0.4953290860312478	0.5361934331954377
-0.4952680508749978	0.5405166276480926
-0.4952070157187478	0.5444725849559314
-0.4951459805624978	0.5480051859092219
-0.4950849454062478	0.5510847156667812
-0.4950239102499978	0.5537783767520575
-0.4949628750937478	0.5560677117187068
-0.4949018399374978	0.5578899977902871
-0.4948408047812478	0.5592976593997535
-0.4947797696249978	0.5603177254128259
-0.4947187344687478	0.5608770358867045
-0.4946576993124978	0.5609906893021429
-0.4945966641562478	0.5607213963915616
-0.4945356289999978	0.5600142276958143
-0.4944745938437478	0.5588399513937112
-0.4944135586874978	0.5572731214158227
-0.4943525235312478	0.5552987121478358
-0.4942914883749978	0.5528531927180395
-0.4942304532187478	0.5499947200308211
-0.4941694180624978	0.5467558790017409
-0.4941083829062478	0.5430627573786625
-0.4940473477499978	0.538934230570807
-0.4939863125937478	0.534440155252932
-0.4939252774374978	0.5295258587637731
-0.4938642422812478	0.5241633523148956
-0.4938032071249978	0.5184346129099032
-0.4937421719687478	0.5123273320044396
-0.4936811368124978	0.5057775216308235
-0.4936201016562478	0.498848878210823
-0.4935590664999978	0.49157910556188444
-0.4934980313437478	0.4838943755849093
-0.4934369961874978	0.4758164816176975
-0.4933759610312478	0.4674211366263164
-0.4933149258749978	0.4586556270111104
-0.4932538907187478	0.4494929499626605
-0.4931928555624978	0.44001977819429006
-0.4931318204062478	0.4302276262382293
-0.4930707852499978	0.42005354354116586
-0.4930097500937478	0.4095640707869621
-0.4929487149374978	0.39880098020000687
-0.4928876797812478	0.3876929197339098
-0.4928266446249978	0.3762637418993845
-0.4927656094687478	0.36459173854728527
-0.4927045743124978	0.35262714530925005
-0.4926435391562478	0.3403455198157384
-0.4925825039999978	0.32783528798578954
-0.4925214688437478	0.3150906953785826
-0.4924604336874978	0.3020521185541807
-0.4923993985312478	0.288787556979647
-0.4923383633749978	0.2753402359044627
-0.4922773282187478	0.2616418406223319
-0.4922162930624978	0.2477179367882002
-0.4921552579062478	0.23364796722549636
-0.4920942227499978	0.21938553952596607
-0.4920331875937478	0.20490845673466065
-0.4919721524374978	0.19030489078072998
-0.4919111172812478	0.17557142807539144
-0.4918500821249978	0.16065148799588302
-0.4917890469687478	0.1456122220489889
-0.4917280118124978	0.1304982311570356
-0.4916669766562478	0.1152456260938595
-0.4916059414999978	0.09987945004192421
-0.4915449063437478	0.0844782512689281
-0.4914838711874978	0.06900024160843186
-0.4914228360312478	0.053424160688030055
-0.4913618008749978	0.03783453550750077
-0.4913007657187478	0.022230684441564907
-0.4912397305624978	0.006560562638110968
-0.4911786954062478	-0.009111186584272431
-0.4911176602499978	-0.02474102889170161
-0.4910566250937478	-0.040388315784913774
-0.4909955899374978	-0.056028461765192585
-0.4909345547812478	-0.07158697347764122
-0.4908735196249978	-0.08710309612586767
-0.4908124844687478	-0.102595643629141
-0.4907514493124978	-0.11798272689073853
-0.4906904141562478	-0.13326377487791463
-0.4906293789999978	-0.14848962647383115
-0.4905683438437478	-0.16360035075953788
-0.4905073086874978	-0.17855176088436583
-0.4904462735312478	-0.19339889077003053
-0.4903852383749978	-0.20812157586593671
-0.4903242032187478	-0.22264864708631601
-0.4902631680624978	-0.23701457806858495
-0.4902021329062478	-0.25123941032230374
-0.4901410977499978	-0.26524761590545665
-0.4900800625937478	-0.2790368486364756
-0.4900190274374978	-0.2926549944957202
-0.4899579922812478	-0.3060472313259651
-0.4898969571249978	-0.3191725441987798
-0.4898359219687478	-0.33208388896039187
-0.4897748868124978	-0.3447634839595995
-0.4897138516562478	-0.35714338527013306
-0.4896528164999978	-0.36925642759892036
-0.4895917813437478	-0.38112494546041215
-0.4895307461874978	-0.3926787210880602
-0.4894697110312478	-0.4039147879533223
-0.4894086758749978	-0.41488172519745137
-0.4893476407187478	-0.4255301389065564
-0.4892866055624978	-0.43581907903834394
-0.4892255704062478	-0.4458007957174155
-0.4891645352499978	-0.4554638353706743
-0.4891035000937478	-0.46474340090440686
-0.4890424649374978	-0.4736708232814575
-0.4889814297812478	-0.4822727482591707
-0.4889203946249978	-0.49048332568803554
-0.4888593594687478	-0.49829837837353286
-0.4887983243124978	-0.505770044228148
-0.4887372891562478	-0.5128552056685036
-0.4886762539999978	-0.5195121749573642
-0.4886152188437478	-0.5257947394457004
-0.4885541836874978	-0.531698970761007
-0.4884931485312478	-0.5371610957923207
-0.4884321133749978	-0.5422116163080516
-0.4883710782187478	-0.5468842572344913
-0.4883100430624978	-0.5511173286287732
-0.4882490079062478	-0.5549052028102723
-0.4881879727499978	-0.5583049177542788
-0.4881269375937478	-0.5612797365911998
-0.4880659024374978	-0.5637876660552968
-0.4880048672812478	-0.565884922033828
-0.4879438321249978	-0.5675741714953485
-0.4878827969687478	-0.5687930011045361
-0.4878217618124978	-0.5695734028541346
-0.4877607266562478	-0.5699560668925683
-0.4876996914999978	-0.5698821543211756
-0.4876386563437478	-0.5693457630115443
-0.4875776211874978	-0.5684100129887382
-0.4875165860312478	-0.5670432240789041
-0.4874555508749978	-0.5652027356453184
-0.4873945157187478	-0.5629493973253324
-0.4873334805624978	-0.5602928647753831
-0.4872724454062478	-0.5571702790128962
-0.4872114102499978	-0.5536156169678776
-0.4871503750937478	-0.5496777536285562
-0.4870893399374978	-0.5452994773629833
-0.4870283047812478	-0.5404744639260761
-0.4869672696249978	-0.5352735707290209
-0.4869062344687478	-0.5296696102482557
-0.4868451993124978	-0.5236178821331113
-0.4867841641562478	-0.5171845019638915
-0.4867231289999978	-0.5103865006442693
-0.4866620938437478	-0.5031597572320529
-0.4866010586874978	-0.4955402079041543
-0.4865400235312478	-0.4875852892314439
-0.4864789883749978	-0.4792388642553572
-0.4864179532187478	-0.4704935579839033
-0.4863569180624978	-0.46142785357727034
-0.4862958829062478	-0.452018720505199
-0.4862348477499978	-0.4422192778345446
-0.4861738125937478	-0.4321010107399529
-0.4861127774374978	-0.42168727146847657
-0.4860517422812478	-0.4109119474439675
-0.4859907071249978	-0.39981359228343655
-0.4859296719687478	-0.3884572835152485
-0.4858686368124978	-0.3767866585057438
-0.4858076016562478	-0.36479421949101976
-0.4857465664999978	-0.35256538931263925
-0.4856855313437478	-0.34007910110639894
-0.4856244961874978	-0.3272868902258774
-0.4855634610312478	-0.31426582754863785
-0.4855024258749978	-0.3010437500098679
-0.4854413907187478	-0.28755247781279614
-0.4853803555624978	-0.2738333224955049
-0.4853193204062478	-0.2599570401701021
-0.4852582852499978	-0.24586564756362822
-0.4851972500937478	-0.23155203059638146
-0.4851362149374978	-0.21710849056948672
-0.4850751797812478	-0.20251452134044842
-0.4850141446249978	-0.18771958008291875
-0.4849531094687478	-0.17280585128526005
-0.4848920743124978	-0.15780360219767015
-0.4848310391562478	-0.14264151909807088
-0.4847700039999978	-0.12736361611648356
-0.4847089688437478	-0.11204579206564023
-0.4846479336874978	-0.09662895327295722
-0.4845868985312478	-0.0811049843946608
-0.4845258633749978	-0.0655697350491504
-0.4844648282187478	-0.05000382358012677
-0.4844037930624978	-0.03435451297159019
-0.4843427579062478	-0.01870544703540879
-0.4842817227499978	-0.003090423169714739
-0.4842206875937478	0.012562020326122466
-0.4841596524374978	0.02820928093192291
-0.4840986172812478	0.043775220876855724
-0.4840375821249978	0.05931829063130501
-0.4839765469687478	0.07484600395236109
-0.4839155118124978	0.09026227511005747
-0.4838544766562478	0.1055865425026159
-0.4837934414999978	0.12087154351281494
-0.4837324063437478	0.13603470748733806
-0.4836713711874978	0.15104312221570723
-0.4836103360312478	0.1659675755759214
-0.4835493008749978	0.18076620634456508
-0.4834882657187478	0.195364086433353
-0.4834272305624978	0.2098183520538618
-0.4833661954062478	0.22413777413725014
-0.4833051602499978	0.23823066029615342
-0.4832441250937478	0.2521160604142611
-0.4831830899374978	0.26584478646145293
-0.4831220547812478	0.27933756703056156
-0.4830610196249978	0.2925636251521364
-0.4829999844687478	0.30559272163514184
-0.4829389493124978	0.31838588092172193
-0.4828779141562478	0.33087149957349626
-0.4828168789999978	0.34310584938325894
-0.4827558438437478	0.3550993850601587
-0.4826948086874978	0.36676451472032046
-0.4826337735312478	0.37811984266296017
-0.4825727383749978	0.389216812812043
-0.4825117032187478	0.39998239673057584
-0.4824506680624978	0.41038765104933334
-0.4823896329062478	0.4204999765205405
-0.4823285977499978	0.4302849341714317
-0.4822675625937478	0.4396763780473571
-0.4822065274374978	0.4487291841244405
-0.4821454922812478	0.45745574445012077
-0.4820844571249978	0.4657749763828246
-0.4820234219687478	0.4737059683148709
-0.4819623868124978	0.48130052266802886
-0.4819013516562478	0.4884920782009674
-0.4818403164999978	0.49525389378261786
-0.4817792813437478	0.501652719186053
-0.4817182461874978	0.5076604864370102
-0.4816572110312478	0.5132155616965968
-0.4815961758749978	0.5183707172959159
-0.4815351407187478	0.5231426672085283
-0.4814741055624978	0.5274583012360636
-0.4814130704062478	0.5313359975083601
-0.4813520352499978	0.5348278420313582
-0.4812910000937478	0.5378756946099446
-0.4812299649374978	0.5404560584017212
-0.4811689297812478	0.5426341811959909
-0.4811078946249978	0.544388079452423
-0.4810468594687478	0.5456620716153573
-0.4809858243124978	0.5465080667149121
-0.4809247891562478	0.546946768395009
-0.4808637539999978	0.5469121377192788
-0.4808027188437478	0.5464225917513169
-0.4807416836874978	0.5455323576464761
-0.4806806485312478	0.5441911016604841
-0.4806196133749978	0.5423771106101104
-0.4805585782187478	0.5401561317453178
-0.4804975430624978	0.53751344854077
-0.4804365079062478	0.5343968611490837
-0.4803754727499978	0.5308577908495017
-0.4803144375937478	0.5269232574685943
-0.4802534024374978	0.5225327882713661
-0.4801923672812478	0.5177041821391354
-0.4801313321249978	0.5124958707349232
-0.4800702969687478	0.5068640449438657
-0.4800092618124978	0.5007871369013627
-0.4799482266562478	0.49433372755314464
-0.4798871914999978	0.48749658364409126
-0.4798261563437478	0.48022447851848055
-0.4797651211874978	0.4725692502518677
-0.4797040860312478	0.4645654734686288
-0.4796430508749978	0.4561560164422912
-0.4795820157187478	0.4473573940115684
-0.4795209805624978	0.4382339510333198
-0.4794599454062478	0.42874799962829974
-0.4793989102499978	0.41887680982930525
-0.4793378750937478	0.40869142312663154
-0.4792768399374978	0.39819126665160304
-0.4792158047812478	0.3873262457783799
-0.4791547696249978	0.3761494807840966
-0.4790937344687478	0.36470141176156706
-0.4790326993124978	0.3529267017432253
-0.4789716641562478	0.3408418835973156
-0.4789106289999978	0.32851698878166496
-0.4788495938437478	0.31591760203625596
-0.4787885586874978	0.30301950229999774
-0.4787275235312478	0.2898982565584359
-0.4786664883749978	0.27655884104669404
-0.4786054532187478	0.26294912359210404
-0.4785444180624978	0.24912366878315553
-0.4784833829062478	0.23512986085539775
-0.4784223477499978	0.22091218265081694
-0.4783613125937478	0.2064858898808056
-0.4783002774374978	0.19192725639428335
-0.4782392422812478	0.17720391102597144
-0.4781782071249978	0.16228879096375218
-0.4781171719687478	0.1472623028936402
-0.4780561368124978	0.13213384041255466
-0.4779951016562478	0.116846984972627
-0.4779340664999978	0.10145789904377729
-0.4778730313437478	0.08602145848146486
-0.4778119961874978	0.07047964592026022
-0.4777509610312478	0.05484466135330812
-0.4776899258749978	0.039199912478216116
-0.4776288907187478	0.02351438716442512
-0.4775678555624978	0.007755665479527848
-0.4775068204062478	-0.007991797261850475
-0.4774457852499978	-0.023714481598892178
-0.4773847500937478	-0.039473940805596436
-0.4773237149374978	-0.05521286760710178
-0.4772626797812478	-0.07087042279926792
-0.4772016446249978	-0.08650876801935257
-0.4771406094687478	-0.10211885144706158
-0.4770795743124978	-0.11761152495924213
-0.4770185391562478	-0.13301805939519054
-0.4769575039999978	-0.14837551256472706
-0.4768964688437478	-0.16359675988182984
-0.4768354336874978	-0.17866684710408615
-0.4767743985312478	-0.19365129053935043
-0.4767133633749978	-0.2084923671867905
-0.4766523282187478	-0.22312818090953704
-0.4765912930624978	-0.23762482522248904
-0.4765302579062478	-0.2519727166256194
-0.4764692227499978	-0.2660791596300029
-0.4764081875937478	-0.2799807500446916
-0.4763471524374978	-0.29371983915119365
-0.4762861172812478	-0.3072048801640065
-0.4762250821249978	-0.3204204762302882
-0.4761640469687478	-0.3334388496811093
-0.4761030118124978	-0.34620239212010007
-0.4760419766562478	-0.35864668234356745
-0.4759809414999978	-0.3708427612973266
-0.4759199063437478	-0.3827855539720885
-0.4758588711874978	-0.3943813682596738
-0.4757978360312478	-0.4056678829651964
-0.4757368008749978	-0.4166906501538966
-0.4756757657187478	-0.4273588522874158
-0.4756147305624978	-0.437659393226828
-0.4755536954062478	-0.44766963167638646
-0.4754926602499978	-0.45733383168114383
-0.4754316250937478	-0.4665874574465256
-0.4753705899374978	-0.47550455770612093
-0.4753095547812478	-0.48408355411205567
-0.4752485196249978	-0.49223262352074904
-0.4751874844687478	-0.49999225870454844
-0.4751264493124978	-0.5074118595985092
-0.4750654141562478	-0.5144037345868896
-0.4750043789999978	-0.5209565137913998
-0.4749433438437478	-0.527149249719887
-0.4748823086874978	-0.5329302509142413
-0.4748212735312478	-0.5382393257183723
-0.4747602383749978	-0.5431524788604106
-0.4746992032187478	-0.5476712036174843
-0.4746381680624978	-0.5517083256399931
-0.4745771329062478	-0.5553060054224394
-0.4745160977499978	-0.5585157207315323
-0.4744550625937478	-0.561255700761856
-0.4743940274374978	-0.5635178019819267
-0.4743329922812478	-0.5653819779178706
-0.4742719571249978	-0.5668019773424193
-0.4742109219687478	-0.5677223778405683
-0.4741498868124978	-0.5682194273429372
-0.4740888516562478	-0.5682986999163784
-0.4740278164999978	-0.567879446291707
-0.4739667813437478	-0.5670047358149273
-0.4739057461874978	-0.565728369722509
-0.4738447110312478	-0.5639760665396081
-0.4737836758749978	-0.561742167887332
-0.4737226407187478	-0.5591064681337737
-0.4736616055624978	-0.5560295596457872
-0.4736005704062478	-0.5524614552427021
-0.4735395352499978	-0.54847729052585
-0.4734785000937478	-0.5440871368574025
-0.4734174649374978	-0.5392185020690401
-0.4733564297812478	-0.5339145512464095
-0.4732953946249978	-0.52822968055408
-0.4732343594687478	-0.5220977817531715
-0.4731733243124978	-0.5155165169186077
-0.4731122891562478	-0.5085651280595694
-0.4730512539999978	-0.501210826649766
-0.4729902188437478	-0.4934087413349219
-0.4729291836874978	-0.4852328571932712
-0.4728681485312478	-0.4766980850165613
-0.4728071133749978	-0.46773902725192856
-0.4727460782187478	-0.4583978447269266
-0.4726850430624978	-0.4487306892374597
-0.4726240079062478	-0.4386801627609328
-0.4725629727499978	-0.4282456577794758
-0.4725019375937478	-0.4175048545021011
-0.4724409024374978	-0.4064321023122709
-0.4723798672812478	-0.3949875234153348
-0.4723188321249978	-0.3832423925565699
-0.4722577969687478	-0.37121585123922546
-0.4721967618124978	-0.3588502655458688
-0.4721357266562478	-0.3461867227117876
-0.4720746914999978	-0.3332823212760619
-0.4720136563437478	-0.32008653202279586
-0.4719526211874978	-0.30659890489539154
-0.4718915860312478	-0.2928967929484336
-0.4718305508749978	-0.2789617121047166
-0.4717695157187478	-0.26475637589132034
-0.4717084805624978	-0.25035038439292673
-0.4716474454062478	-0.23576765310310724
-0.4715864102499978	-0.22095341506171928
-0.4715253750937478	-0.20594609377532722
-0.4714643399374978	-0.19080689044927535
-0.4714033047812478	-0.17549152603477447
-0.4713422696249978	-0.15999785568855798
-0.4712812344687478	-0.14440324849101677
-0.4712201993124978	-0.12869409378408514
-0.4711591641562478	-0.11283245615765783
-0.4710981289999978	-0.09688686321849803
-0.4710370938437478	-0.08088696304619933
-0.4709760586874978	-0.06477977494653332
-0.4709150235312478	-0.048600798478578504
-0.4708539883749978	-0.03241434220370785
-0.4707929532187478	-0.016178368942702734
-0.4707319180624978	0.00011284270597493217
-0.4706708829062478	0.016379429289026633
-0.4706098477499978	0.03263011519071317
-0.4705488125937478	0.048906039096406395
-0.4704877774374978	0.06513974885212757
-0.4704267422812478	0.08129771033465694
-0.4703657071249978	0.09743495728164026
-0.4703046719687478	0.11351819889882371
-0.4702436368124978	0.12947876201023104
-0.4701826016562478	0.1453581918893409
-0.4701215664999978	0.16116654653611762
-0.4700605313437478	0.1768228670296817
-0.4699994961874978	0.1923340732134719
-0.4699384610312478	0.2077452495216781
-0.4698774258749978	0.22298949920042085
-0.4698163907187478	0.23802999515347104
-0.4697553555624978	0.25292500556815567
-0.4696943204062478	0.2676444277716066
-0.4696332852499978	0.2821162380033466
-0.4695722500937478	0.2963843929651391
