Time	Frequency
-0.5000033209999941	-0.2330658088360323
-0.4999422858437441	-0.24543555978261744
-0.4998812506874941	-0.2576535986093232
-0.4998202155312441	-0.2696978302281046
-0.4997591803749941	-0.28153493322945217
-0.4996981452187441	-0.2932007367544158
-0.4996371100624941	-0.3046566789119482
-0.4995760749062441	-0.31588858972096434
-0.4995150397499941	-0.326926280483299
-0.4994540045937441	-0.33772179540236646
-0.4993929694374941	-0.34828026986257793
-0.4993319342812441	-0.3586176083192365
-0.4992708991249941	-0.368684708948946
-0.4992098639687441	-0.37850331360948525
-0.4991488288124941	-0.38807211175099027
-0.4990877936562441	-0.3973490279167813
-0.4990267584999941	-0.40636537295133135
-0.4989657233437441	-0.4151026307311424
-0.4989046881874941	-0.4235329202936107
-0.4988436530312441	-0.43168878777390346
-0.4987826178749941	-0.4395374823579641
-0.4987215827187441	-0.447069109204901
-0.4986605475624941	-0.4543101754167544
-0.4985995124062441	-0.4612202693192748
-0.4985384772499941	-0.46780711808673037
-0.4984774420937441	-0.47408476860074816
-0.4984164069374941	-0.4800127508849245
-0.4983553717812441	-0.48561283993488724
-0.4982943366249941	-0.49088393734355906
-0.4982333014687441	-0.4957935562887787
-0.4981722663124941	-0.5003710339163601
-0.4981112311562441	-0.5045997258683805
-0.4980501959999941	-0.5084607171050489
-0.4979891608437441	-0.5119841063019536
-0.4979281256874941	-0.5151418535320939
-0.4978670905312441	-0.5179311490959144
-0.4978060553749941	-0.5203753575205572
-0.4977450202187441	-0.5224411751385929
-0.4976839850624941	-0.5241413874648636
-0.4976229499062441	-0.5254874423274631
-0.4975619147499941	-0.5264481604778541
-0.4975008795937441	-0.5270481242357584
-0.4974398444374941	-0.5272843631714108
-0.4973788092812441	-0.5271343988592473
-0.4973177741249941	-0.5266284859878623
-0.4972567389687441	-0.5257505518076794
-0.4971957038124941	-0.52449170911647
-0.4971346686562441	-0.5228805823842942
-0.4970736334999941	-0.5208920547378222
-0.4970125983437441	-0.5185326938667851
-0.4969515631874941	-0.5158230980777595
-0.4968905280312441	-0.5127355346193309
-0.4968294928749941	-0.5092905473611061
-0.4967684577187441	-0.5054961997388088
-0.4967074225624941	-0.5013289699581968
-0.4966463874062441	-0.49681880033931786
-0.4965853522499941	-0.49196007535237757
-0.4965243170937441	-0.48673989747715374
-0.4964632819374941	-0.4811911761591898
-0.4964022467812441	-0.4752964933866616
-0.4963412116249941	-0.4690570962838017
-0.4962801764687441	-0.4625014403341838
-0.4962191413124941	-0.45560561044439685
-0.4961581061562441	-0.4483866581546928
-0.4960970709999941	-0.44086269506242387
-0.4960360358437441	-0.43300911476568915
-0.4959750006874941	-0.42485546598454654
-0.4959139655312441	-0.416406416532452
-0.4958529303749941	-0.4076446486396907
-0.4957918952187441	-0.39860683999172575
-0.4957308600624941	-0.3892832260457308
-0.4956698249062441	-0.379669171438009
-0.4956087897499941	-0.3698016002044212
-0.4955477545937441	-0.3596598585437156
-0.4954867194374941	-0.34925522456418995
-0.4954256842812441	-0.338617277930677
-0.4953646491249941	-0.3277201730337672
-0.4953036139687441	-0.31659084359645845
-0.4952425788124941	-0.305245850947589
-0.4951815436562441	-0.2936617961372021
-0.4951205084999941	-0.2818777801276951
-0.4950594733437441	-0.26989444988896155
-0.4949984381874941	-0.25769772505849026
-0.4949374030312441	-0.24533195412671507
-0.4948763678749941	-0.2327825684715094
-0.4948153327187441	-0.22005071925126635
-0.4947542975624941	-0.2071785076856365
-0.4946932624062441	-0.19414081736639763
-0.4946322272499941	-0.1809565776758937
-0.4945711920937441	-0.1676569321944609
-0.4945101569374941	-0.15421220343737815
-0.4944491217812441	-0.14065824835567792
-0.4943880866249941	-0.12701069262138598
-0.4943270514687441	-0.11324439663802818
-0.4942660163124941	-0.0994071583981569
-0.4942049811562441	-0.08549598350932511
-0.4941439459999941	-0.0714971843444916
-0.4940829108437441	-0.05746204651647591
-0.4940218756874941	-0.043370947241274736
-0.4939608405312441	-0.029228979147768515
-0.4938998053749941	-0.01508304592260586
-0.4938387702187441	-0.0009012592558372643
-0.4937777350624941	0.013292120695718475
-0.4937166999062441	0.027463022320896622
-0.4936556647499941	0.041646438304752995
-0.4935946295937441	0.05580057315485244
-0.4935335944374941	0.0699104369672556
-0.4934725592812441	0.0840049347616092
-0.4934115241249941	0.09802979057161687
-0.4933504889687441	0.11199107954781333
-0.4932894538124941	0.12590490023923656
-0.4932284186562441	0.13971403273303673
-0.4931673834999941	0.1534418410125125
-0.4931063483437441	0.1670842219718443
-0.4930453131874941	0.18059103202032256
-0.4929842780312441	0.1939985666976367
-0.4929232428749941	0.20728155747210095
-0.4928622077187441	0.2204044848530336
-0.4928011725624941	0.23340658439231018
-0.4927401374062441	0.24624378863552981
-0.4926791022499941	0.2589016249935744
-0.4926180670937441	0.2714139237282439
-0.4925570319374941	0.2837246714783757
-0.4924959967812441	0.29584077728689834
-0.4924349616249941	0.30778109627124617
-0.4923739264687441	0.3194872620164486
-0.4923128913124941	0.3309858489746468
-0.4922518561562441	0.34227572151823726
-0.4921908209999941	0.35330555778473954
-0.4921297858437441	0.36411424150297494
-0.4920687506874941	0.37467920417338435
-0.4920077155312441	0.3849649739708321
-0.4919466803749941	0.3950139624703082
-0.4918856452187441	0.4047852824319472
-0.4918246100624941	0.4142644429479763
-0.4917635749062441	0.42348765462419913
-0.4917025397499941	0.43240250117271856
-0.4916415045937441	0.4410166933587664
-0.4915804694374941	0.4493522938152999
-0.4915194342812441	0.45735460334749545
-0.4914583991249941	0.4650503615245423
-0.4913973639687441	0.4724423404020056
-0.4913363288124941	0.479482880210363
-0.4912752936562441	0.486210816107387
-0.4912142584999941	0.4926088083399683
-0.4911532233437441	0.49864466379236405
-0.4910921881874941	0.5043605463517234
-0.4910311530312441	0.5097219376318265
-0.4909701178749941	0.5147168719626697
-0.4909090827187441	0.5193817807079699
-0.4908480475624941	0.5236714893781229
-0.4907870124062441	0.527594878120051
-0.4907259772499941	0.5311753406008095
-0.4906649420937441	0.5343661667462744
-0.4906039069374941	0.5371938004289422
-0.4905428717812441	0.5396637050656963
-0.4904818366249941	0.5417362477952906
-0.4904208014687441	0.54344911835155
-0.4903597663124941	0.5447895538432357
-0.4902987311562441	0.545732119221659
-0.4902376959999941	0.5463172286411571
-0.4901766608437441	0.546517291597023
-0.4901156256874941	0.5463253240765148
-0.4900545905312441	0.5457759891456486
-0.4899935553749941	0.5448330775986826
-0.4899325202187441	0.5435084492431621
-0.4898714850624941	0.5418245691305946
-0.4898104499062441	0.5397446028981827
-0.4897494147499941	0.5372956543637034
-0.4896883795937441	0.5344842381205535
-0.4896273444374941	0.5312808868421427
-0.4895663092812441	0.5277218136036946
-0.4895052741249941	0.5237976465363623
-0.4894442389687441	0.5194924737222407
-0.4893832038124941	0.5148437380776416
-0.4893221686562441	0.5098293830568964
-0.4892611334999941	0.5044503167595433
-0.4892000983437441	0.4987381468162101
-0.4891390631874941	0.49266441096798336
-0.4890780280312441	0.4862462499461003
-0.4890169928749941	0.47950348282095084
-0.4889559577187441	0.472408649783744
-0.4888949225624941	0.4649915309838451
-0.4888338874062441	0.4572574419757739
-0.4887728522499941	0.44918720934186507
-0.4887118170937441	0.44081700581419925
-0.4886507819374941	0.43213785507016644
-0.4885897467812441	0.42314404215331936
-0.4885287116249941	0.4138712648193325
-0.4884676764687441	0.4043004438698064
-0.4884066413124941	0.394441359450272
-0.4883456061562441	0.38432196332150526
-0.4882845709999941	0.3739191652593372
-0.4882235358437441	0.3632572976554829
-0.4881625006874941	0.3523520753966129
-0.4881014655312441	0.3411836138683839
-0.4880404303749941	0.3297862147584
-0.4879793952187441	0.31816141795491837
-0.4879183600624941	0.3062990405018664
-0.4878573249062441	0.2942369062502943
-0.4877962897499941	0.2819639168948797
-0.4877352545937441	0.2694839697118245
-0.4876742194374941	0.25683143433124495
-0.4876131842812441	0.24398704349262587
-0.4875521491249941	0.230969487758727
-0.4874911139687441	0.21780322599345672
-0.4874300788124941	0.20446819978710143
-0.4873690436562441	0.19099663485688587
-0.4873080084999941	0.17739870579633063
-0.4872469733437441	0.16365904098552617
-0.4871859381874941	0.14981728305237607
-0.4871249030312441	0.13586972717772408
-0.4870638678749941	0.12181354615938834
-0.4870028327187441	0.1076888786815614
-0.4869417975624941	0.09347948026561916
-0.4868807624062441	0.0791977932173263
-0.4868197272499941	0.06487744147956791
-0.4867586920937441	0.05049574062886389
-0.4866976569374941	0.036080279149299704
-0.4866366217812441	0.021651750955833642
-0.4865755866249941	0.007188799037877882
-0.4865145514687441	-0.007268483324549357
-0.4864535163124941	-0.021715396143372985
-0.4863924811562441	-0.03616523978227888
-0.4863314459999941	-0.05057277320087093
-0.4862704108437441	-0.06494928522429773
-0.4862093756874941	-0.07929342381806109
-0.4861483405312441	-0.09356155933096953
-0.4860873053749941	-0.10777673760128306
-0.4860262702187441	-0.12192102228084771
-0.4859652350624941	-0.13596144864683138
-0.4859041999062441	-0.14992604601748655
-0.4858431647499941	-0.163779686914913
-0.4857821295937441	-0.17750521840122216
-0.4857210944374941	-0.19112831177196443
-0.4856600592812441	-0.20460252311450491
-0.4855990241249941	-0.21792934341576867
-0.4855379889687441	-0.23112293061674302
-0.4854769538124941	-0.2441322920614324
-0.4854159186562441	-0.25697691112220755
-0.4853548834999941	-0.2696542595002012
-0.4852938483437441	-0.28211779694420835
-0.4852328131874941	-0.2943995305372
-0.4851717780312441	-0.30647758692610527
-0.4851107428749941	-0.3183184118270897
-0.4850497077187441	-0.32995854552005993
-0.4849886725624941	-0.3413585270291389
-0.4849276374062441	-0.352503986321045
-0.4848666022499941	-0.36342670358492946
-0.4848055670937441	-0.3740752362100131
-0.4847445319374941	-0.3844568712176692
-0.4846834967812441	-0.39459025689585164
-0.4846224616249941	-0.40442013308061714
-0.4845614264687441	-0.4139730373919707
-0.4845003913124941	-0.42324910308011876
-0.4844393561562441	-0.4321996137950111
-0.4843783209999941	-0.44086388189172754
-0.4843172858437441	-0.4492207104510495
-0.4842562506874941	-0.45723694183056696
-0.4841952155312441	-0.4649564618192371
-0.4841341803749941	-0.47233897918100615
-0.4840731452187441	-0.4793723918878667
-0.4840121100624941	-0.48609547699520045
-0.4839510749062441	-0.4924557599994669
-0.4838900397499941	-0.4984641004076682
-0.4838290045937441	-0.5041450739420448
-0.4837679694374941	-0.5094431247507802
-0.4837069342812441	-0.5143894412624012
-0.4836458991249941	-0.5189885433877618
-0.4835848639687441	-0.5231920581175008
-0.4835238288124941	-0.5270449721825392
-0.4834627936562441	-0.5305300020098564
-0.4834017584999941	-0.5336147203347366
-0.4833407233437441	-0.5363485250430212
-0.4832796881874941	-0.5386951174143544
-0.4832186530312441	-0.5406438314844795
-0.4831576178749941	-0.5422386326233534
-0.4830965827187441	-0.5434310449360364
-0.4830355475624941	-0.5442335639956895
-0.4829745124062441	-0.5446759991066643
-0.4829134772499941	-0.5447070591774543
-0.4828524420937441	-0.544359528923297
-0.4827914069374941	-0.5436434915396758
-0.4827303717812441	-0.5425146585919114
-0.4826693366249941	-0.5410193320615009
-0.4826083014687441	-0.5391464966886935
-0.4825472663124941	-0.5368672816356513
-0.4824862311562441	-0.5342323513922127
-0.4824251959999941	-0.5312126616020784
-0.4823641608437441	-0.5278001762003216
-0.4823031256874941	-0.5240402505182693
-0.4822420905312441	-0.5198923420894789
-0.4821810553749941	-0.5153704370715025
-0.4821200202187441	-0.5105065000261116
-0.4820589850624941	-0.5052573145356213
-0.4819979499062441	-0.49965585007554125
-0.4819369147499941	-0.4937159509989734
-0.4818758795937441	-0.48740101310312656
-0.4818148444374941	-0.4807559651653911
-0.4817538092812441	-0.47377528939734986
-0.4816927741249941	-0.46643705764389176
-0.4816317389687441	-0.45878989914242735
-0.4815707038124941	-0.450811653144798
-0.4815096686562441	-0.44249912270525227
-0.4814486334999941	-0.43389613061158283
-0.4813875983437441	-0.4249710347078869
-0.4813265631874941	-0.4157400119984441
-0.4812655280312441	-0.4062340106289164
-0.4812044928749941	-0.3964196311490635
-0.4811434577187441	-0.3863296595738374
-0.4810824225624941	-0.37597866370971195
-0.4810213874062441	-0.3653397937416828
-0.4809603522499941	-0.35445568101521774
-0.4808993170937441	-0.34332387738050624
-0.4808382819374941	-0.33193095284629576
-0.4807772467812441	-0.3203214265800523
-0.4807162116249941	-0.3084788195640709
-0.4806551764687441	-0.29640693047829286
-0.4805941413124941	-0.28414461330789254
-0.4805331061562441	-0.2716672547094281
-0.4804720709999941	-0.2589954847675662
-0.4804110358437441	-0.24615647552831202
-0.4803500006874941	-0.2331254400231313
-0.4802889655312441	-0.21993631780259867
-0.4802279303749941	-0.20660092283434023
-0.4801668952187441	-0.19310143465773116
-0.4801058600624941	-0.17947912301317206
-0.4800448249062441	-0.16573120762886684
-0.4799837897499941	-0.1518528871276168
-0.4799227545937441	-0.13788459303257458
-0.4798617194374941	-0.12381144030340475
-0.4798006842812441	-0.10964459442561361
-0.4797396491249941	-0.09541780605452024
-0.4796786139687441	-0.08111068218852066
-0.4796175788124941	-0.06674868973713036
-0.4795565436562441	-0.052353027279653935
-0.4794955084999941	-0.03790536671571842
-0.4794344733437441	-0.02344147918325626
-0.4793734381874941	-0.008967313150991326
-0.4793124030312441	0.005526562943036631
-0.4792513678749941	0.019999603447600104
-0.4791903327187441	0.03445960377660063
-0.4791292975624941	0.04890329192286826
-0.4790682624062441	0.06329334941469938
-0.4790072272499941	0.07764684287544202
-0.4789461920937441	0.09194573752681007
-0.4788851569374941	0.10616196277105246
-0.4788241217812441	0.12031499868033985
-0.4787630866249941	0.1343743386390378
-0.4787020514687441	0.14832687265654051
-0.4786410163124941	0.16218766546200936
-0.4785799811562441	0.17591712698978879
-0.4785189459999941	0.18951697570484138
-0.4784579108437441	0.2029922459219631
-0.4783968756874941	0.2163029236269936
-0.4783358405312441	0.22946381022283016
-0.4782748053749941	0.2424650051258283
-0.4782137702187441	0.2552724754083649
-0.4781527350624941	0.26790867794704654
-0.4780916999062441	0.2803488681019436
-0.4780306647499941	0.29257191795732307
-0.4779696295937441	0.3046006396454162
-0.4779085944374941	0.3163979973695857
-0.4778475592812441	0.3279593082966999
-0.4777865241249941	0.3393004810321583
-0.4777254889687441	0.3503783808643725
-0.4776644538124941	0.36120454685104
-0.4776034186562441	0.37178172047811175
-0.4775423834999941	0.38206879322788856
-0.4774813483437441	0.3920900770513503
-0.4774203131874941	0.4018317509155247
-0.4773592780312441	0.4112626223285226
-0.4772982428749941	0.4204134564860659
-0.4772372077187441	0.4292543378561994
-0.4771761725624941	0.43776992711012164
-0.4771151374062441	0.4459889869306815
-0.4770541022499941	0.45386968776719144
-0.4769930670937441	0.46141608791993466
-0.4769320319374941	0.46864730410525995
-0.4768709967812441	0.47551664417992895
-0.4768099616249941	0.4820461662470929
-0.4767489264687441	0.4882390055383728
-0.4766878913124941	0.49405290610578156
-0.4766268561562441	0.499523329925839
-0.4765658209999941	0.5046341844993769
-0.4765047858437441	0.5093560614767515
-0.4764437506874941	0.5137304088562795
-0.4763827155312441	0.5177235188320726
-0.4763216803749941	0.5213248733964274
-0.4762606452187441	0.5245722007147047
-0.4761996100624941	0.5274196854466453
-0.4761385749062441	0.5298786348157208
-0.4760775397499941	0.531974267823356
-0.4760165045937441	0.5336570508404372
-0.4759554694374941	0.5349585115216486
-0.4758944342812441	0.5358850659831532
-0.4758333991249941	0.5363929638409597
-0.4757723639687441	0.5365279401403743
-0.4757113288124941	0.536275438279683
-0.4756502936562441	0.5356067545409778
-0.4755892584999941	0.5345727613389404
-0.4755282233437441	0.533139778445327
-0.4754671881874941	0.5313006119475736
-0.4754061530312441	0.5291013540682366
-0.4753451178749941	0.52649541500756
-0.4752840827187441	0.5234992815874744
-0.4752230475624941	0.5201451109637655
-0.4751620124062441	0.5163826553952511
-0.4751009772499941	0.512249706300354
-0.4750399420937441	0.5077581638567025
-0.4749789069374941	0.5028644239408466
-0.4749178717812441	0.4976210134524823
-0.4748568366249941	0.49201744981569223
-0.4747958014687441	0.48602589386183953
-0.4747347663124941	0.4797040132925127
-0.4746737311562441	0.4730216210854923
-0.4746126959999941	0.46597317478478134
-0.4745516608437441	0.4586111027493415
-0.4744906256874941	0.45089177939431874
-0.4744295905312441	0.4428336229589829
-0.4743685553749941	0.4344749926804231
-0.4743075202187441	0.4257686228442009
-0.4742464850624941	0.4167540694403659
-0.4741854499062441	0.407449256840066
-0.4741244147499941	0.3978133649445706
-0.4740633795937441	0.3879003811562846
-0.4740023444374941	0.3777060800401351
-0.4739413092812441	0.36720505231100153
-0.4738802741249941	0.35645637131903934
-0.4738192389687441	0.3454363845694366
-0.4737582038124941	0.3341407410984584
-0.4736971686562441	0.32262328352321107
-0.4736361334999941	0.3108475277864661
-0.4735750983437441	0.29883213471309916
-0.4735140631874941	0.28661739416731835
-0.4734530280312441	0.2741629275388369
-0.4733919928749941	0.2615070132679387
-0.4733309577187441	0.24867057574659882
-0.4732699225624941	0.23561929808186008
-0.4732088874062441	0.22240487545272739
-0.4731478522499941	0.2090274279600902
-0.4730868170937441	0.19546635610457097
-0.4730257819374941	0.1817775676308098
-0.4729647467812441	0.16794376335995487
-0.4729037116249941	0.1539637332390622
-0.4728426764687441	0.13988782790993184
-0.4727816413124941	0.1256867172339679
-0.4727206061562441	0.11137976849810308
-0.4726595709999941	0.09700513092445645
-0.4725985358437441	0.08253028606182268
-0.4725375006874941	0.0679911414251063
-0.4724764655312441	0.05340813213539187
-0.4724154303749941	0.038754852345562134
-0.4723543952187441	0.02407815662920113
-0.4722933600624941	0.009379740506529673
-0.4722323249062441	-0.00535412140298573
-0.4721712897499941	-0.02007392825908187
-0.4721102545937441	-0.03479349442058703
-0.4720492194374941	-0.04950967751788245
-0.4719881842812441	-0.06417865400537365
-0.4719271491249941	-0.07882368276732805
-0.4718661139687441	-0.09342428405321046
-0.4718050788124941	-0.10794886042455969
-0.4717440436562441	-0.12242243740768638
-0.4716830084999941	-0.1368108649732312
-0.4716219733437441	-0.15109898156670437
-0.4715609381874941	-0.16530554194438143
-0.4714999030312441	-0.17938780439404206
-0.4714388678749941	-0.19334697599251788
-0.4713778327187441	-0.20719055104895565
-0.4713167975624941	-0.22087586510841833
-0.4712557624062441	-0.2344166310742518
-0.4711947272499941	-0.24780436937701178
-0.4711336920937441	-0.2610038208048801
-0.4710726569374941	-0.27403665021326584
-0.4710116217812441	-0.28687956658390334
-0.4709505866249941	-0.2995094738459132
-0.4708895514687441	-0.3119475407287322
-0.4708285163124941	-0.32415984863889685
-0.4707674811562441	-0.3361390597448796
-0.4707064459999941	-0.3478986254523171
-0.4706454108437441	-0.3593998203775762
-0.4705843756874941	-0.3706506188527994
-0.4705233405312441	-0.3816522455101709
-0.4704623053749941	-0.39236829215241986
-0.4704012702187441	-0.402817104726051
-0.4703402350624941	-0.412985392081965
-0.4702791999062441	-0.4228464260811112
-0.4702181647499941	-0.4324232333305945
-0.4701571295937441	-0.441689736713257
-0.4700960944374941	-0.45063324813796524
-0.4700350592812441	-0.4592734492974176
-0.4699740241249941	-0.4675756465546119
-0.4699129889687441	-0.4755432396363915
-0.4698519538124941	-0.4831867509363489
-0.4697909186562441	-0.4904698125776729
-0.4697298834999941	-0.49740963317685366
-0.4696688483437441	-0.5040030373763248
-0.4696078131874941	-0.5102196410432439
-0.4695467780312441	-0.5160854847354738
