Time	Frequency
-0.5000448224062524	3.3658065575035896e-24
-0.49998378725000236	3.6662891499792684e-24
-0.49992275209375236	3.9642118307969046e-24
-0.49986171693750236	4.2593525543953265e-24
-0.49980068178125236	4.551498525182161e-24
-0.49973964662500236	4.840424091916943e-24
-0.49967861146875236	5.1259080401857e-24
-0.49961757631250236	5.4077359659375464e-24
-0.49955654115625236	5.6857059157860886e-24
-0.49949550600000236	5.959619366451523e-24
-0.49943447084375236	6.229261767555526e-24
-0.49937343568750236	6.494425912291289e-24
-0.49931240053125236	6.754913718079038e-24
-0.49925136537500236	7.010540416796812e-24
-0.49919033021875236	7.26110576065862e-24
-0.49912929506250236	7.506421288098778e-24
-0.49906825990625236	7.746309308208499e-24
-0.49900722475000236	7.980596899335893e-24
-0.49894618959375236	8.209102984690324e-24
-0.49888515443750236	8.431644573204017e-24
-0.49882411928125236	8.648059404558492e-24
-0.49876308412500236	8.858184099910554e-24
-0.49870204896875236	9.061869024447583e-24
-0.49864101381250236	9.258962982129457e-24
-0.49857997865625236	9.44931461371156e-24
-0.49851894350000236	9.632777086292784e-24
-0.49845790834375236	9.80920998893295e-24
-0.49839687318750236	9.978477749981942e-24
-0.49833583803125236	1.0140458957376507e-23
-0.49827480287500236	1.0295039295595693e-23
-0.49821376771875236	1.0442094662040027e-23
-0.49815273256250236	1.0581511246390916e-23
-0.49809169740625236	1.0713184292973338e-23
-0.49803066225000236	1.0837014159828955e-23
-0.49796962709375236	1.0952907000915558e-23
-0.49790859193750236	1.1060777438435047e-23
-0.49784755678125236	1.1160547086253843e-23
-0.49778652162500236	1.1252136504630508e-23
-0.49772548646875236	1.133547298904184e-23
-0.49766445131250236	1.1410491126187372e-23
-0.49760341615625236	1.1477136835046985e-23
-0.49754238100000236	1.1535361258459804e-23
-0.49748134584375236	1.1585118687446249e-23
-0.49742031068750236	1.1626371330830655e-23
-0.49735927553125236	1.1659083964720779e-23
-0.49729824037500236	1.1683232545329063e-23
-0.49723720521875236	1.1698794802584405e-23
-0.49717617006250236	1.1705761633204526e-23
-0.49711513490625236	1.1704124771544987e-23
-0.49705409975000236	1.1693885344260673e-23
-0.49699306459375236	1.1675050506907024e-23
-0.49693202943750236	1.1647631060341243e-23
-0.49687099428125236	1.1611646967627549e-23
-0.49680995912500236	1.1567122862072668e-23
-0.49674892396875236	1.1514092902135588e-23
-0.49668788881250236	1.1452593941400286e-23
-0.49662685365625236	1.1382674032273057e-23
-0.49656581850000236	1.1304378556951704e-23
-0.49650478334375236	1.1217772418628075e-23
-0.49644374818750236	1.112291566508619e-23
-0.49638271303125236	1.1019876603031038e-23
-0.49632167787500236	1.0908732881926316e-23
-0.49626064271875236	1.0789567817764765e-23
-0.49619960756250236	1.066246817495845e-23
-0.49613857240625236	1.052752974337523e-23
-0.49607753725000236	1.0384856471585601e-23
-0.49601650209375236	1.0234545818997478e-23
-0.49595546693750236	1.007671273372986e-23
-0.49589443178125236	9.911474337721402e-24
-0.49583339662500236	9.738961211553234e-24
-0.49577236146875236	9.55929490071274e-24
-0.49571132631250236	9.372613568424945e-24
-0.49565029115625236	9.179051278872141e-24
-0.49558925600000236	8.978752664593395e-24
-0.49552822084375236	8.771868670545488e-24
-0.49546718568750236	8.558557886839408e-24
-0.49540615053125236	8.338981451449939e-24
-0.49534511537500236	8.113297983885688e-24
-0.49528408021875236	7.881674300153996e-24
-0.49522304506250236	7.644280972653877e-24
-0.49516200990625236	7.401315411432322e-24
-0.49510097475000236	7.15294918931438e-24
-0.49503993959375236	6.899361237105636e-24
-0.49497890443750236	6.64073226574424e-24
-0.49491786928125236	6.37727743156616e-24
-0.49485683412500236	6.109195431812668e-24
-0.49479579896875236	5.8366866204042455e-24
-0.49473476381250236	5.559941592004194e-24
-0.49467372865625236	5.279166987531352e-24
-0.49461269350000236	4.9945857231501335e-24
-0.49455165834375236	4.706403499727563e-24
-0.49449062318750236	4.414851576306762e-24
-0.49442958803125236	4.120135035382792e-24
-0.49436855287500236	3.822489063216136e-24
-0.49430751771875236	3.522117147943533e-24
-0.49424648256250236	3.2192543044459025e-24
-0.49418544740625236	2.9141253012024877e-24
-0.49412441225000236	2.6069777155200644e-24
-0.49406337709375236	2.2980341078654785e-24
-0.49400234193750236	1.9875118060324185e-24
-0.49394130678125236	1.67566079845611e-24
-0.49388027162500236	1.3627090652989804e-24
-0.49381923646875236	1.0489081581383367e-24
-0.49375820131250236	7.344622931035951e-25
-0.49369716615625236	4.196331771182973e-25
-0.49363613100000236	1.0464780167019807e-25
-0.49357509584375236	-2.1023837541408332e-25
-0.49351406068750236	-5.24798627508584e-25
-0.49345302553125236	-8.388012561048e-25
-0.49339199037500236	-1.152007450090795e-24
-0.49333095521875236	-1.4641894113465397e-24
-0.49326992006250236	-1.7750878153096684e-24
-0.49320888490625236	-2.084489406303869e-24
-0.49314784975000236	-2.3921351654054205e-24
-0.49308681459375236	-2.697819525595326e-24
-0.49302577943750236	-3.0012993818878535e-24
-0.49296474428125236	-3.3023512092585114e-24
-0.49290370912500236	-3.600743537012507e-24
-0.49284267396875236	-3.896247753013213e-24
-0.49278163881250236	-4.188640665230224e-24
-0.49272060365625236	-4.477692148535414e-24
-0.49265956850000236	-4.7632110529997835e-24
-0.49259853334375236	-5.0449600228105826e-24
-0.49253749818750236	-5.322737545334168e-24
-0.49247646303125236	-5.596320010834602e-24
-0.49241542787500236	-5.86550327128901e-24
-0.49235439271875236	-6.13008432609113e-24
-0.49229335756250236	-6.3898712760257374e-24
-0.49223232240625236	-6.644661971318453e-24
-0.49217128725000236	-6.894253380529436e-24
-0.49211025209375236	-7.138475898551447e-24
-0.49204921693750236	-7.377133126985435e-24
-0.49198818178125236	-7.610048062566156e-24
-0.49192714662500236	-7.837030969550621e-24
-0.49186611146875236	-8.057918139270072e-24
-0.49180507631250236	-8.272548324493741e-24
-0.49174404115625236	-8.480757195582305e-24
-0.49168300600000236	-8.682385837569192e-24
-0.49162197084375236	-8.877272055052567e-24
-0.49156093568750236	-9.06527538438782e-24
-0.49149990053125236	-9.246253524297573e-24
-0.49143886537500236	-9.42007232759164e-24
-0.49137783021875236	-9.586591510384362e-24
-0.49131679506250236	-9.745688575079295e-24
-0.49125575990625236	-9.897244937213333e-24
-0.49119472475000236	-1.0041141709742598e-23
-0.49113368959375236	-1.0177272314237089e-23
-0.49107265443750236	-1.0305528012770816e-23
-0.49101161928125236	-1.0425819204242234e-23
-0.49095058412500236	-1.0538052947040725e-23
-0.49088954896875236	-1.0642144343309725e-23
-0.49082851381250236	-1.0738007075659424e-23
-0.49076747865625236	-1.0825569697329126e-23
-0.49070644350000236	-1.0904772909195642e-23
-0.49064540834375236	-1.0975553296510123e-23
-0.49058437318750236	-1.1037858123272391e-23
-0.49052333803125236	-1.1091635327639781e-23
-0.49046230287500236	-1.1136850336586851e-23
-0.49040126771875236	-1.1173464005254491e-23
-0.49034023256250236	-1.1201449834252823e-23
-0.49027919740625236	-1.1220787128049968e-23
-0.49021816225000236	-1.123146279534913e-23
-0.49015712709375236	-1.1233468257737158e-23
-0.49009609193750236	-1.1226799546524898e-23
-0.49003505678125236	-1.1211466419438672e-23
-0.48997402162500236	-1.1187475707214106e-23
-0.48991298646875236	-1.1154849389837339e-23
-0.48985195131250236	-1.1113611155527529e-23
-0.48979091615625236	-1.1063792699936953e-23
-0.48972988100000236	-1.1005434213838402e-23
-0.48966884584375236	-1.0938581829043206e-23
-0.48960781068750236	-1.0863281245351024e-23
-0.48954677553125236	-1.0779591807472518e-23
-0.48948574037500236	-1.0687582306205126e-23
-0.48942470521875236	-1.058731672065308e-23
-0.48936367006250236	-1.0478876147485662e-23
-0.48930263490625236	-1.0362346346770791e-23
-0.48924159975000236	-1.0237813708784082e-23
-0.48918056459375236	-1.0105370696622578e-23
-0.48911952943750236	-9.965119645924025e-24
-0.48905849428125236	-9.817174522731577e-24
-0.48899745912500236	-9.661648332830306e-24
-0.48893642396875236	-9.498653758311072e-24
-0.48887538881250236	-9.328311101085923e-24
-0.48881435365625236	-9.150762812602129e-24
-0.48875331850000236	-8.966150859614087e-24
-0.48869228334375236	-8.774605114891415e-24
-0.48863124818750236	-8.57627078556029e-24
-0.48857021303125236	-8.371306882417085e-24
-0.48850917787500236	-8.159872787086633e-24
-0.48844814271875236	-7.942121410190853e-24
-0.48838710756250236	-7.71822359855952e-24
-0.48832607240625236	-7.48835520857794e-24
-0.48826503725000236	-7.252698982696685e-24
-0.48820400209375236	-7.011433693073612e-24
-0.48814296693750236	-6.764737327254755e-24
-0.48808193178125236	-6.512798834846371e-24
-0.48802089662500236	-6.255812449774133e-24
-0.48795986146875236	-5.993977989783163e-24
-0.48789882631250236	-5.727499032385818e-24
-0.48783779115625236	-5.456591448855807e-24
-0.48777675600000236	-5.181456040229506e-24
-0.48771572084375236	-4.9023005120961746e-24
-0.48765468568750236	-4.619334621755212e-24
-0.48759365053125236	-4.332785387438197e-24
-0.48753261537500236	-4.042876461323835e-24
-0.48747158021875236	-3.749823022466175e-24
-0.48741054506250236	-3.453850403076954e-24
-0.48734950990625236	-3.1551979092509708e-24
-0.48728847475000236	-2.854097296998409e-24
-0.48722743959375236	-2.5507735036636502e-24
-0.48716640443750236	-2.2454635072722723e-24
-0.48710536928125236	-1.9383921201818445e-24
-0.48704433412500236	-1.6298096885324525e-24
-0.48698329896875236	-1.3199552940837526e-24
-0.48692226381250236	-1.009063370341541e-24
-0.48686122865625236	-6.973698622564963e-25
-0.48680019350000236	-3.8512590732314274e-25
-0.48673915834375236	-7.257242123645152e-26
-0.48667812318750236	2.4004928733095173e-25
-0.48661708803125236	5.524964909584854e-25
-0.48655605287500236	8.64530836207114e-25
-0.48649501771875236	1.1759145083365693e-24
-0.48643398256250236	1.4864090422951189e-24
-0.48637294740625236	1.795753318488909e-24
-0.48631191225000236	2.103716414737872e-24
-0.48625087709375236	2.410061503463839e-24
-0.48618984193750236	2.7145572636220688e-24
-0.48612880678125236	3.0169528712584795e-24
-0.48606777162500236	3.317023106049939e-24
-0.48600673646875236	3.6145303115651275e-24
-0.48594570131250236	3.909245545058317e-24
-0.48588466615625236	4.200942608463692e-24
-0.48582363100000236	4.489393111963643e-24
-0.48576259584375236	4.774368736043138e-24
-0.48570156068750236	5.0556262679834335e-24
-0.48564052553125236	5.332975803627957e-24
-0.48557949037500236	5.606197966547456e-24
-0.48551845521875236	5.875087356211787e-24
-0.48545742006250236	6.1394074536768665e-24
-0.48539638490625236	6.398963889197602e-24
-0.48533534975000236	6.653547369429688e-24
-0.48527431459375236	6.902965770115926e-24
-0.48521327943750236	7.147028568856496e-24
-0.48515224428125236	7.385535549953607e-24
-0.48509120912500236	7.618312663091107e-24
-0.48503017396875236	7.845150924759215e-24
-0.48496913881250236	8.065894929040371e-24
-0.48490810365625236	8.280355699284386e-24
-0.48484706850000236	8.488384673274389e-24
-0.48478603334375236	8.689793424658144e-24
-0.48472499818750236	8.884436402526516e-24
-0.48466396303125236	9.072160176672769e-24
-0.48460292787500236	9.252810593710296e-24
-0.48454189271875236	9.426254261147267e-24
-0.48448085756250236	9.592334134607281e-24
-0.48441982240625236	9.750941894260476e-24
-0.48435878725000236	9.901927497041187e-24
-0.48429775209375236	1.0045192278323112e-23
-0.48423671693750236	1.0180601820517118e-23
-0.48417568178125236	1.030806170132898e-23
-0.48411464662500236	1.0427464323035696e-23
-0.48405361146875236	1.0538711635641596e-23
-0.48399257631250236	1.0641717971939522e-23
-0.48393154115625236	1.0736388655002051e-23
-0.48387050600000236	1.0822664695693862e-23
-0.48380947084375236	1.090045351934196e-23
-0.48374843568750236	1.0969707493535232e-23
-0.48368740053125236	1.1030356530512484e-23
-0.48362636537500236	1.1082359681031424e-23
-0.48356533021875236	1.1125666215614448e-23
-0.48350429506250236	1.1160239522136136e-23
-0.48344325990625236	1.1186048766294069e-23
-0.48338222475000236	1.1203062470867796e-23
-0.48332118959375236	1.1211275367340613e-23
-0.48326015443750236	1.1210665824714661e-23
-0.48319911928125236	1.1201239881772128e-23
-0.48313808412500236	1.1182988055121316e-23
-0.48307704896875236	1.1155926294789579e-23
-0.48301601381250236	1.1120070725760217e-23
-0.48295497865625236	1.1075444246129673e-23
-0.48289394350000236	1.1022078831373878e-23
-0.48283290834375236	1.0960003880793933e-23
-0.48277187318750236	1.088926950193104e-23
-0.48271083803125236	1.0809921714538753e-23
-0.48264980287500236	1.0722021526928369e-23
-0.48258876771875236	1.0625626744241722e-23
-0.48252773256250236	1.0520812260288625e-23
-0.48246669740625236	1.0407653448255784e-23
-0.48240566225000236	1.0286228419049964e-23
-0.48234462709375236	1.0156633618998464e-23
-0.48228359193750236	1.0018959123331287e-23
-0.48222255678125236	9.87330846559566e-24
-0.48216152162500236	9.71979020377763e-24
-0.48210048646875236	9.558526271832085e-24
-0.48203945131250236	9.38962764736361e-24
-0.48197841615625236	9.21321656740345e-24
-0.48191738100000236	9.029431266565423e-24
-0.48185634584375236	8.838411815818771e-24
-0.48179531068750236	8.6403049214332e-24
-0.48173427553125236	8.435252093141169e-24
-0.48167324037500236	8.223413548515246e-24
-0.48161220521875236	8.004942571704441e-24
-0.48155117006250236	7.780005576966714e-24
-0.48149013490625236	7.548777509035906e-24
-0.48142909975000236	7.311433988647201e-24
-0.48136806459375236	7.068149448330982e-24
-0.48130702943750236	6.819110219349765e-24
-0.48124599428125236	6.564513249430335e-24
-0.48118495912500236	6.304543462899993e-24
-0.48112392396875236	6.03940086865637e-24
-0.48106288881250236	5.769284940138802e-24
-0.48100185365625236	5.494401400827795e-24
-0.48094081850000236	5.2149672774324296e-24
-0.48087978334375236	4.931195775651853e-24
-0.48081874818750236	4.643291185123444e-24
-0.48075771303125236	4.351482356682077e-24
-0.48069667787500236	4.056000347045901e-24
-0.48063564271875236	3.7570579483376794e-24
-0.48057460756250236	3.454888811916444e-24
-0.48051357240625236	3.1497260354424358e-24
-0.48045253725000236	2.841801214217958e-24
-0.48039150209375236	2.5313541629638122e-24
-0.48033046693750236	2.2186190855647104e-24
-0.48026943178125236	1.90383298947995e-24
-0.48020839662500236	1.5872464530907084e-24
-0.48014736146875236	1.2691116520055395e-24
-0.48008632631250236	9.496618168952907e-25
-0.48002529115625236	6.291337446004322e-25
-0.47996425600000236	3.0777681831144877e-25
-0.47990322084375236	-1.4154168239824368e-26
-0.47984218568750236	-3.3640365979884443e-25
-0.47978115053125236	-6.587267718441113e-25
-0.47972011537500236	-9.808780444006265e-25
-0.47965908021875236	-1.3026128648809817e-24
-0.47959804506250236	-1.6236802841148748e-24
-0.47953700990625236	-1.9438326625182694e-24
-0.47947597475000236	-2.2628151414395244e-24
-0.47941493959375236	-2.58038147916516e-24
-0.47935390443750236	-2.8962931606884177e-24
-0.47929286928125236	-3.210307433829329e-24
-0.47923183412500236	-3.522173212553131e-24
-0.47917079896875236	-3.831639330751589e-24
-0.47910976381250236	-4.138476315811508e-24
-0.47904872865625236	-4.442450049196123e-24
-0.47898769350000236	-4.743325247438846e-24
-0.47892665834375236	-5.04086139584361e-24
-0.47886562318750236	-5.334829025512544e-24
-0.47880458803125236	-5.624992027574369e-24
-0.47874355287500236	-5.911125955686045e-24
-0.47868251771875236	-6.193011795069189e-24
-0.47862148256250236	-6.470430495205106e-24
-0.47856044740625236	-6.743165784289086e-24
-0.47849941225000236	-7.011008158868886e-24
-0.47843837709375236	-7.27374690110745e-24
-0.47837734193750236	-7.531160917045413e-24
-0.47831630678125236	-7.783054901140542e-24
-0.47825527162500236	-8.029233569103196e-24
-0.47819423646875236	-8.269515348595398e-24
-0.47813320131250236	-8.503706863950409e-24
-0.47807216615625236	-8.731617914883458e-24
-0.47801113100000236	-8.953060450710265e-24
-0.47795009584375236	-9.167868306721458e-24
-0.47788906068750236	-9.375875709009319e-24
-0.47782802553125236	-9.57691807727639e-24
-0.47776699037500236	-9.770834865645322e-24
-0.47770595521875236	-9.957469280837709e-24
-0.47764492006250236	-1.0136677987396373e-23
-0.47758388490625236	-1.0308309485151917e-23
-0.47752284975000236	-1.0472235148706026e-23
-0.47746181459375236	-1.0628318738182054e-23
-0.47740077943750236	-1.0776444732955802e-23
-0.47733974428125236	-1.0916485293456956e-23
-0.47727870912500236	-1.1048336185040702e-23
-0.47721767396875236	-1.1171880391939402e-23
-0.47715663881250236	-1.1287021026622786e-23
-0.47709560365625236	-1.1393667021115456e-23
-0.47703456850000236	-1.1491732454701895e-23
-0.47697353334375236	-1.1581140687531537e-23
-0.47691249818750236	-1.1661803978739691e-23
-0.47685146303125236	-1.1733671771599191e-23
-0.47679042787500236	-1.1796668186027193e-23
-0.47672939271875236	-1.1850754653348479e-23
-0.47666835756250236	-1.1895867555024469e-23
-0.47660732240625236	-1.1931984214642152e-23
-0.47654628725000236	-1.1959060960649817e-23
-0.47648525209375236	-1.1977076961148446e-23
-0.47642421693750236	-1.198601274840756e-23
-0.47636318178125236	-1.1985848964331627e-23
-0.47630214662500236	-1.197659561815111e-23
-0.47624111146875236	-1.1958235138986277e-23
-0.47618007631250236	-1.1930799548047836e-23
-0.47611904115625236	-1.189428213338351e-23
-0.47605800600000236	-1.1848727906349144e-23
-0.47599697084375236	-1.1794145651479625e-23
-0.47593593568750236	-1.1730589216787305e-23
-0.47587490053125236	-1.1658095556833146e-23
-0.47581386537500236	-1.1576713945414609e-23
-0.47575283021875236	-1.1486514311882392e-23
-0.47569179506250236	-1.1387540534285538e-23
-0.47563075990625236	-1.1279885598846878e-23
-0.47556972475000236	-1.1163606091777861e-23
-0.47550868959375236	-1.1038812264776222e-23
-0.47544765443750236	-1.0905572370178724e-23
-0.47538661928125236	-1.076400156799887e-23
-0.47532558412500236	-1.0614197379270693e-23
-0.47526454896875236	-1.0456269755725062e-23
-0.47520351381250236	-1.0290337426393307e-23
-0.47514247865625236	-1.0116515719286604e-23
-0.47508144350000236	-9.934957666750523e-24
-0.47502040834375236	-9.745778182709425e-24
-0.47495937318750236	-9.549131225640557e-24
-0.47489833803125236	-9.345145870844755e-24
-0.47483730287500236	-9.133991838755919e-24
-0.47477626771875236	-8.915828023114783e-24
-0.47471523256250236	-8.690821108058562e-24
-0.47465419740625236	-8.459132057531108e-24
-0.47459316225000236	-8.220926408583973e-24
-0.47453212709375236	-7.976404666815904e-24
-0.47447109193750236	-7.725748027789054e-24
-0.47441005678125236	-7.469149907448922e-24
-0.47434902162500236	-7.206783593952471e-24
-0.47428798646875236	-6.938862617230157e-24
-0.47422695131250236	-6.665593479796013e-24
-0.47416591615625236	-6.3871810637437154e-24
-0.47410488100000236	-6.103841765603852e-24
-0.47404384584375236	-5.815784774186057e-24
-0.47398281068750236	-5.523230162417809e-24
-0.47392177553125236	-5.226396884229798e-24
-0.47386074037500236	-4.9255199946625935e-24
-0.47379970521875236	-4.6208221724591016e-24
-0.47373867006250236	-4.3125439945259465e-24
-0.47367763490625236	-4.00092316786973e-24
-0.47361659975000236	-3.6861885265586256e-24
-0.47355556459375236	-3.368579772285631e-24
-0.47349452943750236	-3.0483365371221536e-24
-0.47343349428125236	-2.725715689108222e-24
-0.47337245912500236	-2.400965302589214e-24
-0.47331142396875236	-2.0743361461172515e-24
-0.47325038881250236	-1.7460674129126933e-24
-0.47318935365625236	-1.4164061462367867e-24
-0.47312831850000236	-1.0856139019276078e-24
-0.47306728334375236	-7.539528918207307e-25
-0.47300624818750236	-4.216761058283584e-25
-0.47294521303125236	-8.902500351675944e-26
-0.47288417787500236	2.437409972848579e-25
-0.47282314271875236	5.763686919092697e-25
-0.47276210756250236	9.085853542686412e-25
-0.47270107240625236	1.2401315238252489e-24
-0.47264003725000236	1.5707704873476052e-24
-0.47257900209375236	1.9002588947390724e-24
-0.47251796693750236	2.22833083028836e-24
-0.47245693178125236	2.5547185859992853e-24
-0.47239589662500236	2.8791813220372384e-24
-0.47233486146875236	3.2014693735614714e-24
