Time	Frequency
-0.5000276780625015	-0.19081912087236652
-0.4999666429062515	-0.20024564881667295
-0.4999056077500015	-0.20957544511093382
-0.4998445725937515	-0.21880370424268147
-0.4997835374375015	-0.22792553278093255
-0.4997225022812515	-0.23693646626081646
-0.4996614671250015	-0.24583264575240082
-0.4996004319687515	-0.2546095728401743
-0.4995393968125015	-0.2632620960258671
-0.4994783616562515	-0.2717858594244668
-0.4994173265000015	-0.2801771686758269
-0.4993562913437515	-0.28843169334225116
-0.4992952561875015	-0.29654493385232017
-0.4992342210312515	-0.30451305685071955
-0.4991731858750015	-0.31233215465089875
-0.4991121507187515	-0.31999803705432006
-0.4990511155625015	-0.3275069062381193
-0.4989900804062515	-0.334855024729662
-0.4989290452500015	-0.3420385260676283
-0.4988680100937515	-0.34905388194870585
-0.4988069749375015	-0.35589768315158427
-0.4987459397812515	-0.3625664210340203
-0.4986849046250015	-0.36905656256448693
-0.4986238694687515	-0.375364684291184
-0.4985628343125015	-0.3814877365726347
-0.4985017991562515	-0.3874228262277636
-0.4984407640000015	-0.3931669188355284
-0.4983797288437515	-0.3987169388293871
-0.4983186936875015	-0.4040698265690281
-0.4982576585312515	-0.4092227885335706
-0.4981966233750015	-0.41417357709171665
-0.4981355882187515	-0.41891989504199234
-0.4980745530625015	-0.4234590030772433
-0.4980135179062515	-0.4277883637401393
-0.4979524827500015	-0.4319058089777564
-0.4978914475937515	-0.4358092686485765
-0.4978304124375015	-0.43949683440409926
-0.4977693772812515	-0.4429665935301944
-0.4977083421250015	-0.4462166693974421
-0.4976473069687515	-0.44924545260522136
-0.4975862718125015	-0.45205132818929794
-0.4975252366562515	-0.4546327144722899
-0.4974642015000015	-0.4569883099682791
-0.4974031663437515	-0.45911690710052566
-0.4973421311875015	-0.4610173302667129
-0.4972810960312515	-0.4626885459056131
-0.4972200608750015	-0.4641297151732467
-0.4971590257187515	-0.46534011210883175
-0.4970979905625015	-0.46631897089409025
-0.4970369554062515	-0.4670656211550554
-0.4969759202500015	-0.4675796425902959
-0.4969148850937515	-0.4678607758887876
-0.4968538499375015	-0.4679088410882914
-0.4967928147812515	-0.46772373915836696
-0.4967317796250015	-0.46730547671419986
-0.4966707444687515	-0.46665415323531956
-0.4966097093125015	-0.46576999185544693
-0.4965486741562515	-0.46465339964423524
-0.4964876390000015	-0.4633048622305859
-0.4964266038437515	-0.4617249263125987
-0.4963655686875015	-0.4599143497502769
-0.4963045335312515	-0.45787403428410367
-0.4962434983750015	-0.4556049460539316
-0.4961824632187515	-0.45310813041832093
-0.4961214280625015	-0.45038460672009323
-0.4960603929062515	-0.4474355598133502
-0.4959993577500015	-0.4442626361676125
-0.4959383225937515	-0.4408675097761062
-0.4958772874375015	-0.4372515930764876
-0.4958162522812515	-0.433416609151676
-0.4957552171250015	-0.4293645366732389
-0.4956941819687515	-0.4250971889440801
-0.4956331468125015	-0.42061658004931307
-0.4955721116562515	-0.41592494564103927
-0.4955110765000015	-0.41102453967203895
-0.4954500413437515	-0.4059179940375704
-0.4953890061875015	-0.40060798587120305
-0.4953279710312515	-0.3950966349598168
-0.4952669358750015	-0.38938629555818877
-0.4952059007187515	-0.3834801620707208
-0.4951448655625015	-0.3773814988362318
-0.4950838304062515	-0.37109322335442213
-0.4950227952500015	-0.36461817269204133
-0.4949617600937515	-0.35795928506849606
-0.4949007249375015	-0.35111989776203373
-0.4948396897812515	-0.3441037956429289
-0.4947786546250015	-0.33691459502024845
-0.4947176194687515	-0.3295554826962308
-0.4946565843125015	-0.32202969971964324
-0.4945955491562515	-0.31434113701651584
-0.4945345140000015	-0.30649413743419235
-0.4944734788437515	-0.2984924925291982
-0.4944124436875015	-0.2903397985440926
-0.4943514085312515	-0.2820403238181833
-0.4942903733750015	-0.2735981443147218
-0.4942293382187515	-0.2650170090871982
-0.4941683030625015	-0.25630147194743097
-0.4941072679062515	-0.24745631738698048
-0.4940462327500015	-0.23848571613003144
-0.4939851975937515	-0.2293939482305064
-0.4939241624375015	-0.22018545996005642
-0.4938631272812515	-0.2108647572261127
-0.4938020921250015	-0.20143692811032082
-0.4937410569687515	-0.19190667582021256
-0.4936800218125015	-0.18227811375213254
-0.4936189866562515	-0.17255610686369172
-0.4935579515000015	-0.1627460278798705
-0.4934969163437515	-0.15285295759746786
-0.4934358811875015	-0.1428815137484471
-0.4933748460312515	-0.13283640640924482
-0.4933138108750015	-0.12272283583514652
-0.4932527757187515	-0.11254587025028515
-0.4931917405625015	-0.10231031440071409
-0.4931307054062515	-0.09202127939740193
-0.4930696702500015	-0.08168461570207172
-0.4930086350937515	-0.07130585570592558
-0.4929475999375015	-0.06088939290186474
-0.4928865647812515	-0.05043991106215318
-0.4928255296250015	-0.03996294066453066
-0.4927644944687515	-0.029463963788374428
-0.4927034593125015	-0.01894832972988469
-0.4926424241562515	-0.00842169061465881
-0.4925813890000015	0.002110512897409807
-0.4925203538437515	0.012643654909609581
-0.4924593186875015	0.023172936769314218
-0.4923982835312515	0.03369271083638503
-0.4923372483750015	0.044197223313078356
-0.4922762132187515	0.05468117287945995
-0.4922151780625015	0.06513954601564045
-0.4921541429062515	0.07556707751385608
-0.4920931077500015	0.08595824203304855
-0.4920320725937515	0.09630791395164845
-0.4919710374375015	0.1066113407380954
-0.4919100022812515	0.11686334334863703
-0.4918489671250015	0.12705828549678794
-0.4917879319687515	0.13719089287338668
-0.4917268968125015	0.14725633527761833
-0.4916658616562515	0.15724943030530558
-0.4916048265000015	0.16716485461018066
-0.4915437913437515	0.1769980041680193
-0.4914827561875015	0.18674438243176417
-0.4914217210312515	0.19639880261031029
-0.4913606858750015	0.2059558378322464
-0.4912996507187515	0.21541040245479504
-0.4912386155625015	0.2247580258919577
-0.4911775804062515	0.23399440408558425
-0.4911165452500015	0.2431148255422075
-0.4910555100937515	0.25211466128735754
-0.4909944749375015	0.26098923927009454
-0.4909334397812515	0.2697335707498169
-0.4908724046250015	0.2783432546797939
-0.4908113694687515	0.2868143334526392
-0.4907503343125015	0.29514268268995375
-0.4906892991562515	0.30332411063484804
-0.4906282640000015	0.3113540795141737
-0.4905672288437515	0.31922823555716134
-0.4905061936875015	0.3269429526492449
-0.4904451585312515	0.3344942280038865
-0.4903841233750015	0.34187794579949915
-0.4903230882187515	0.34909097624295304
-0.4902620530625015	0.35612980795534654
-0.4902010179062515	0.3629899695681706
-0.4901399827500015	0.36966778544500106
-0.4900789475937515	0.37616041112745874
-0.4900179124375015	0.382464700732078
-0.4899568772812515	0.3885773880508134
-0.4898958421250015	0.39449515156539605
-0.4898348069687515	0.40021468715414926
-0.4897737718125015	0.4057332043738942
-0.4897127366562515	0.4110480718470084
-0.4896517015000015	0.4161565306473371
-0.4895906663437515	0.4210558818462588
-0.4895296311875015	0.42574349936287287
-0.4894685960312515	0.4302169213902319
-0.4894075608750015	0.43447396900896795
-0.4893465257187515	0.43851257716298747
-0.4892854905625015	0.44233050069766056
-0.4892244554062515	0.4459255361253327
-0.4891634202500015	0.4492959098442049
-0.4891023850937515	0.4524401141230585
-0.4890413499375015	0.45535650490313073
-0.4889803147812515	0.45804328956735796
-0.4889192796250015	0.46049895126102736
-0.4888582444687515	0.46272236132916456
-0.4887972093125015	0.4647124405981474
-0.4887361741562515	0.46646808912615867
-0.4886751390000015	0.46798832429157655
-0.4886141038437515	0.4692722652655622
-0.4885530686875015	0.4703191724850769
-0.4884920335312515	0.4711284766693646
-0.4884309983750015	0.47169971634663954
-0.4883699632187515	0.4720325668230178
-0.4883089280625015	0.4721268351597162
-0.4882478929062515	0.4719823977918586
-0.4881868577500015	0.47159921857803444
-0.4881258225937515	0.47097740775205216
-0.4880647874375015	0.47011723906709607
-0.4880037522812515	0.469019094521271
-0.4879427171250015	0.4676834439295504
-0.4878816819687515	0.4661109141262949
-0.4878206468125015	0.4643023196135075
-0.4877596116562515	0.46225852276020835
-0.4876985765000015	0.4599803782000549
-0.4876375413437515	0.457468939016995
-0.4875765061875015	0.4547255014810763
-0.4875154710312515	0.45175144195599676
-0.4874544358750015	0.4485481529661936
-0.4873934007187515	0.4451171343576771
-0.4873323655625015	0.44146016653156595
-0.4872713304062515	0.4375791986015415
-0.4872102952500015	0.43347601627529125
-0.4871492600937515	0.4291523717772631
-0.4870882249375015	0.4246104195196043
-0.4870271897812515	0.4198526793054166
-0.4869661546250015	0.41488159432005706
-0.4869051194687515	0.40969952695094475
-0.4868440843125015	0.40430901984395234
-0.4867830491562515	0.39871271347560633
-0.4867220140000015	0.3929133205661506
-0.4866609788437515	0.3869136475368778
-0.4865999436875015	0.3807167332098831
-0.4865389085312515	0.3743259683361776
-0.4864778733750015	0.3677446978272395
-0.4864168382187515	0.3609760093531903
-0.4863558030625015	0.3540229819424057
-0.4862947679062515	0.34688896448548606
-0.4862337327500015	0.3395776982694219
-0.4861726975937515	0.33209316160756386
-0.4861116624375015	0.32443924086279063
-0.4860506272812515	0.3166196794353479
-0.4859895921250015	0.3086382420182894
-0.4859285569687515	0.30049876447354074
-0.4858675218125015	0.29220527794236717
-0.4858064866562515	0.28376206969223416
-0.4857454515000015	0.2751736310988605
-0.4856844163437515	0.2664443976107492
-0.4856233811875015	0.2575786360426854
-0.4855623460312515	0.2485807167199889
-0.4855013108750015	0.23945514749408928
-0.4854402757187515	0.2302065797682697
-0.4853792405625015	0.22083967952931538
-0.4853182054062515	0.21135901231298432
-0.4852571702500015	0.20176941683295913
-0.4851961350937515	0.19207611695225926
-0.4851350999375015	0.18228416945607748
-0.4850740647812515	0.1723981760051181
-0.4850130296250015	0.16242290430426748
-0.4849519944687515	0.15236343576690115
-0.4848909593125015	0.14222490894151804
-0.4848299241562515	0.13201278574660755
-0.4847688890000015	0.12173231162787437
-0.4847078538437515	0.11138840053455475
-0.4846468186875015	0.10098642268747465
-0.4845857835312515	0.09053185714436063
-0.4845247483750015	0.08002979285920088
-0.4844637132187515	0.0694851477199718
-0.4844026780625015	0.05890338010472617
-0.4843416429062515	0.04829049902000301
-0.4842806077500015	0.03765200660810039
-0.4842195725937515	0.02699294617487667
-0.4841585374375015	0.01631869515962913
-0.4840975022812515	0.005634739924685246
-0.4840364671250015	-0.005053728320672431
-0.4839754319687515	-0.015741313785739664
-0.4839143968125015	-0.026422187798324868
-0.4838533616562515	-0.037090610621668615
-0.4837923265000015	-0.047741364397445196
-0.4837312913437515	-0.05836930376222759
-0.4836702561875015	-0.06896879063215947
-0.4836092210312515	-0.07953446212077332
-0.4835481858750015	-0.09006108585464127
-0.4834871507187515	-0.100543012942106
-0.4834261155625015	-0.1109750011051248
-0.4833650804062515	-0.12135180161986278
-0.4833040452500015	-0.1316677872399277
-0.4832430100937515	-0.1419177009019475
-0.4831819749375015	-0.1520963271353232
-0.4831209397812515	-0.162198409566817
-0.4830599046250015	-0.17221918754927124
-0.4829988694687515	-0.1821537427717032
-0.4829378343125015	-0.1919965006678944
-0.4828767991562515	-0.20174194005251825
-0.4828157640000015	-0.21138504557370785
-0.4827547288437515	-0.22092118216381731
-0.4826936936875015	-0.2303458049165391
-0.4826326585312515	-0.23965420813512328
-0.4825716233750015	-0.24884148380147142
-0.4825105882187515	-0.2579025523918607
-0.4824495530625015	-0.26683233351182795
-0.4823885179062515	-0.2756261898246261
-0.4823274827500015	-0.284280190062256
-0.4822664475937515	-0.29279041911184855
-0.4822054124375015	-0.30115205901260955
-0.4821443772812515	-0.30936011426025606
-0.4820833421250015	-0.3174105792320945
-0.4820223069687515	-0.3252996057634687
-0.4819612718125015	-0.3330229466439714
-0.4819002366562515	-0.34057671160954833
-0.4818392015000015	-0.34795698152658283
-0.4817781663437515	-0.35515966472585797
-0.4817171311875015	-0.36218117145351675
-0.4816560960312515	-0.3690179666727792
-0.4815950608750015	-0.3756664524693072
-0.4815340257187515	-0.3821232840249455
-0.4814729905625015	-0.38838483767327775
-0.4814119554062515	-0.3944476296340243
-0.4813509202500015	-0.4003088744831529
-0.4812898850937515	-0.40596566032665116
-0.4812288499375015	-0.4114147921602838
-0.4811678147812515	-0.416653335767497
-0.4811067796250015	-0.42167863015557516
-0.4810457444687515	-0.42648809510651203
-0.4809847093125015	-0.43107913335180625
-0.4809236741562515	-0.4354492629440463
-0.4808626390000015	-0.4395962146328556
-0.4808016038437515	-0.443517815807806
-0.4807405686875015	-0.44721204466330694
-0.4806795335312515	-0.45067699223902774
-0.4806184983750015	-0.45391065588404594
-0.4805574632187515	-0.45691121848178573
-0.4804964280625015	-0.4596771716398758
-0.4804353929062515	-0.4622070749986138
-0.4803743577500015	-0.4644996164501956
-0.4803133225937515	-0.46655352996576027
-0.4802522874375015	-0.46836754313656537
-0.4801912522812515	-0.4699406199768676
-0.4801302171250015	-0.4712719825564103
-0.4800691819687515	-0.4723609308764144
-0.4800081468125015	-0.4732067873939221
-0.4799471116562515	-0.47380900370757095
-0.4798860765000015	-0.474167200379182
-0.4798250413437515	-0.4742811101931136
-0.4797640061875015	-0.4741505845802237
-0.4797029710312515	-0.4737756369161683
-0.4796419358750015	-0.4731564050691151
-0.4795809007187515	-0.4722931176930963
-0.4795198655625015	-0.4711861353181149
-0.4794588304062515	-0.4698359201287764
-0.4793977952500015	-0.4682430563372838
-0.4793367600937515	-0.4664083315606973
-0.4792757249375015	-0.46433266524134575
-0.4792146897812515	-0.46201702119953747
-0.4791536546250015	-0.4594624503011833
-0.4790926194687515	-0.4566701847063424
-0.4790315843125015	-0.45364163640400823
-0.4789705491562515	-0.45037828487320114
-0.4789095140000015	-0.44688167236380116
-0.4788484788437515	-0.4431535449426969
-0.4787874436875015	-0.4391957727632311
-0.4787264085312515	-0.43501034451991244
-0.4786653733750015	-0.4305994087148839
-0.4786043382187515	-0.4259649284159287
-0.4785433030625015	-0.4211090861087595
-0.4784822679062515	-0.4160347043382626
-0.4784212327500015	-0.41074438535847757
-0.4783601975937515	-0.4052404722613449
-0.4782991624375015	-0.3995257180184686
-0.4782381272812515	-0.3936030101271801
-0.4781770921250015	-0.3874753936459938
-0.4781160569687515	-0.3811462003946555
-0.4780550218125015	-0.3746184334286076
-0.4779939866562515	-0.3678950520568793
-0.4779329515000015	-0.36097966897167544
-0.4778719163437515	-0.35387600263349167
-0.4778108811875015	-0.34658760700264596
-0.4777498460312515	-0.339118071452928
-0.4776888108750015	-0.3314709478246825
-0.4776277757187515	-0.3236502603740295
-0.4775667405625015	-0.3156603138054858
-0.4775057054062515	-0.30750492472288776
-0.4774446702500015	-0.29918798382761563
-0.4773836350937515	-0.2907139201061296
-0.4773225999375015	-0.28208715441025006
-0.4772615647812515	-0.27331203955004285
-0.4772005296250015	-0.26439315633055854
-0.4771394944687515	-0.2553348671258032
-0.4770784593125015	-0.24614148927021065
-0.4770174241562515	-0.23681800082325824
-0.4769563890000015	-0.2273694298727007
-0.4768953538437515	-0.21780056069302786
-0.4768343186875015	-0.2081161520688414
-0.4767732835312515	-0.19832078531604255
-0.4767122483750015	-0.18841951332989135
-0.4766512132187515	-0.1784180410783024
-0.4765901780625015	-0.1683215486740696
-0.4765291429062515	-0.15813446767081615
-0.4764681077500015	-0.1478618057508686
-0.4764070725937515	-0.13750950868937276
-0.4763460374375015	-0.12708330237069737
-0.4762850022812515	-0.11658817861673933
-0.4762239671250015	-0.10602887957767285
-0.4761629319687515	-0.09541069846919041
-0.4761018968125015	-0.08474001869101995
-0.4760408616562515	-0.07402272595374895
-0.4759798265000015	-0.0632631343707755
-0.4759187913437515	-0.052466558576379385
-0.4758577561875015	-0.041639752029300675
-0.4757967210312515	-0.030788236025246767
-0.4757356858750015	-0.019916822633456094
-0.4756746507187515	-0.009031150274852798
-0.4756136155625015	0.001862903453301655
-0.4755525804062515	0.012759687505699278
-0.4754915452500015	0.02365362305178913
-0.4754305100937515	0.03453882621766377
-0.4753694749375015	0.04540962883262974
-0.4753084397812515	0.056261089206740264
-0.4752474046250015	0.06708762400695926
-0.4751863694687515	0.07788284465075969
-0.4751253343125015	0.08864120466374287
-0.4750642991562515	0.0993577875641119
-0.4750032640000015	0.11002706417665359
-0.4749422288437515	0.12064297952586847
-0.4748811936875015	0.13119984109444713
-0.4748201585312515	0.14169256709992634
-0.4747591233750015	0.15211589396698347
-0.4746980882187515	0.16246437659348195
-0.4746370530625015	0.1727326990697087
-0.4745760179062515	0.18291523450800556
-0.4745149827500015	0.1930065852159274
-0.4744539475937515	0.20300166825826862
-0.4743929124375015	0.21289502926805276
-0.4743318772812515	0.22268175129362192
-0.4742708421250015	0.2323573978438937
-0.4742098069687515	0.24191664260554666
-0.4741487718125015	0.2513538472435299
-0.4740877366562515	0.2606640480472206
-0.4740267015000015	0.2698427954621701
-0.4739656663437515	0.2788855259070382
-0.4739046311875015	0.2877871686691199
-0.4738435960312515	0.2965430094015334
-0.4737825608750015	0.3051488640441803
-0.4737215257187515	0.3136001737209953
-0.4736604905625015	0.32189235610735767
-0.4735994554062515	0.3300209798387869
-0.4735384202500015	0.33798158116361626
-0.4734773850937515	0.345770097696669
-0.4734163499375015	0.3533826821238827
-0.4733553147812515	0.3608153943772227
-0.4732942796250015	0.3680643368037951
-0.4732332444687515	0.3751257265714322
-0.4731722093125015	0.38199568138778023
-0.4731111741562515	0.38867021757317577
-0.4730501390000015	0.3951457933073185
-0.4729891038437515	0.40141942165298616
-0.4729280686875015	0.40748804190548127
-0.4728670335312515	0.4133482953370722
-0.4728059983750015	0.4189969546867237
-0.4727449632187515	0.4244308780275149
-0.4726839280625015	0.4296469563315751
-0.4726228929062515	0.4346425462006357
-0.4725618577500015	0.4394152397235075
-0.4725008225937515	0.443962522301266
-0.4724397874375015	0.44828204974179064
-0.4723787522812515	0.4523714919464024
-0.4723177171250015	0.45622830418039867
-0.4722566819687515	0.4598502523726822
-0.4721956468125015	0.463235596430359
-0.4721346116562515	0.46638267581445697
-0.4720735765000015	0.4692898314742951
-0.4720125413437515	0.471955465088847
-0.4719515061875015	0.4743779836079833
-0.4718904710312515	0.47655595226327124
-0.4718294358750015	0.4784881718056322
-0.4717684007187515	0.48017360762231537
-0.4717073655625015	0.48161138500435174
-0.4716463304062515	0.4828006884970626
-0.4715852952500015	0.4837407622782704
-0.4715242600937515	0.48443100148034796
-0.4714632249375015	0.48487096629950555
-0.4714021897812515	0.4850603554751334
-0.4713411546250015	0.4849989637255646
-0.4712801194687515	0.48468675953309703
-0.4712190843125015	0.4841238607121841
-0.4711580491562515	0.48331046133582056
-0.4710970140000015	0.48224687004216726
-0.4710359788437515	0.4809335073464804
-0.4709749436875015	0.4793709785705864
-0.4709139085312515	0.47756009329889104
-0.4708528733750015	0.47550172810449304
-0.4707918382187515	0.4731968355456161
-0.4707308030625015	0.4706464660758731
-0.4706697679062515	0.4678517770921044
-0.4706087327500015	0.4648142379725454
-0.4705476975937515	0.4615354599122585
-0.4704866624375015	0.4580169525240902
-0.4704256272812515	0.4542604895613496
-0.4703645921250015	0.45026803053797004
-0.4703035569687515	0.44604131964748267
-0.4702425218125015	0.44158238687131757
-0.4701814866562515	0.4368937857292781
-0.4701204515000015	0.4319780258775946
-0.4700594163437515	0.42683752469245756
-0.4699983811875015	0.4214746033033369
-0.4699373460312515	0.4158916931571161
-0.4698763108750015	0.4100919050492827
-0.4698152757187515	0.40407842794376814
-0.4697542405625015	0.3978543384062666
-0.4696932054062515	0.3914228727217786
-0.4696321702500015	0.3847869530160828
