Time	Frequency
-0.5000457762812545	0.23972907375431848
-0.49998474112500446	0.25190704258506685
-0.49992370596875446	0.2639219851396749
-0.49986267081250446	0.2757660523355299
-0.49980163565625446	0.2874303582962197
-0.49974060050000446	0.2989062383242203
-0.49967956534375446	0.3101862362554371
-0.49961853018750446	0.3212625784381618
-0.49955749503125446	0.3321273135925172
-0.49949645987500446	0.34277330458166577
-0.49943542471875446	0.3531933388935754
-0.49937438956250446	0.3633798918268653
-0.49931335440625446	0.3733257877299547
-0.49925231925000446	0.3830237647599995
-0.49919128409375446	0.3924670204200124
-0.49913024893750446	0.4016497817282638
-0.49906921378125446	0.41056568153002215
-0.49900817862500446	0.4192078092760857
-0.49894714346875446	0.42757000353019015
-0.49888610831250446	0.4356465010272649
-0.49882507315625446	0.4434317391942005
-0.49876403800000446	0.450920619757879
-0.49870300284375446	0.4581078639301617
-0.49864196768750446	0.46498780336065726
-0.49858093253125446	0.4715555272762568
-0.49851989737500446	0.47780675394097655
-0.49845886221875446	0.483736996995095
-0.49839782706250446	0.4893420407434909
-0.49833679190625446	0.49461792535010524
-0.49827575675000446	0.4995606618047938
-0.49821472159375446	0.504166657483656
-0.49815368643750446	0.5084327209925202
-0.49809265128125446	0.5123557791744298
-0.49803161612500446	0.5159328520453275
-0.49797058096875446	0.51916128614811
-0.49790954581250446	0.5220388609644719
-0.49784851065625446	0.5245633369108724
-0.49778747550000446	0.5267325822719041
-0.49772644034375446	0.5285450499593712
-0.49766540518750446	0.5299994113896612
-0.49760437003125446	0.5310943733101775
-0.49754333487500446	0.531828974195918
-0.49748229971875446	0.5322025563493399
-0.49742126456250446	0.5322146316484578
-0.49736022940625446	0.5318649410479345
-0.49729919425000446	0.5311535358243303
-0.49723815909375446	0.5300807758948854
-0.49717712393750446	0.5286471572042202
-0.49711608878125446	0.526853382435418
-0.49705505362500446	0.5247005364647559
-0.49699401846875446	0.5221898303192681
-0.49693298331250446	0.5193227706417586
-0.49687194815625446	0.516101244162477
-0.49681091300000446	0.5125271712131935
-0.49674987784375446	0.5086027613793681
-0.49668884268750446	0.5043304939525047
-0.49662780753125446	0.49971299146590353
-0.49656677237500446	0.49475330937362466
-0.49650573721875446	0.4894547697019503
-0.49644470206250446	0.48382071063911186
-0.49638366690625446	0.4778546841585644
-0.49632263175000446	0.47156059296321
-0.49626159659375446	0.46494249501349827
-0.49620056143750446	0.45800479475582784
-0.49613952628125446	0.4507523159679027
-0.49607849112500446	0.4431896429954427
-0.49601745596875446	0.43532129879443765
-0.49595642081250446	0.4271526173744562
-0.49589538565625446	0.4186895167158245
-0.49583435050000446	0.40993776318859027
-0.49577331534375446	0.4009028363513041
-0.49571228018750446	0.39159017815391634
-0.49565124503125446	0.38200592661292004
-0.49559020987500446	0.37215714273435424
-0.49552917471875446	0.36205071033017977
-0.49546813956250446	0.35169299141460336
-0.49540710440625446	0.3410905849327042
-0.49534606925000446	0.33025061838568914
-0.49528503409375446	0.3191805014321336
-0.49522399893750446	0.3078875755765732
-0.49516296378125446	0.2963794181645392
-0.49510192862500446	0.2846641167159968
-0.49504089346875446	0.2727494781256888
-0.49497985831250446	0.26064304309086417
-0.49491882315625446	0.24835296180055635
-0.49485778800000446	0.23588772735213398
-0.49479675284375446	0.22325589030073684
-0.49473571768750446	0.21046602584161414
-0.49467468253125446	0.19752639712313777
-0.49461364737500446	0.18444555711370478
-0.49455261221875446	0.1712327622800605
-0.49449157706250446	0.1578970479263768
-0.49443054190625446	0.14444707389607045
-0.49436950675000446	0.13089206998853606
-0.49430847159375446	0.11724155238261143
-0.49424743643750446	0.10350436901761868
-0.49418640128125446	0.08968925576613623
-0.49412536612500446	0.07580596847708415
-0.49406433096875446	0.06186460977315296
-0.49400329581250446	0.04787455065216277
-0.49394226065625446	0.033844966368205526
-0.49388122550000446	0.01978511923824572
-0.49382019034375446	0.005704311247021141
-0.49375915518750446	-0.008387607887072723
-0.49369812003125446	-0.022480658966362355
-0.49363708487500446	-0.036565370793275265
-0.49357604971875446	-0.05063230129698131
-0.49351501456250446	-0.06467185568631027
-0.49345397940625446	-0.0786744298164827
-0.49339294425000446	-0.09263046962050354
-0.49333190909375446	-0.1065307183096573
-0.49327087393750446	-0.12036576653081904
-0.49320983878125446	-0.1341260781343319
-0.49314880362500446	-0.14780199657230803
-0.49308776846875446	-0.161383699684666
-0.49302673331250446	-0.17486251047391557
-0.49296569815625446	-0.1882299199832121
-0.49290466300000446	-0.20147609813928974
-0.49284362784375446	-0.2145916558192965
-0.49278259268750446	-0.22756805110759293
-0.49272155753125446	-0.24039638651138923
-0.49266052237500446	-0.25306784266043103
-0.49259948721875446	-0.26557380319272794
-0.49253845206250446	-0.2779055285557339
-0.49247741690625446	-0.290054529878803
-0.49241638175000446	-0.30201252765383485
-0.49235534659375446	-0.3137714001881694
-0.49229431143750446	-0.3253233310587249
-0.49223327628125446	-0.3366603457623684
-0.49217224112500446	-0.3477742957224364
-0.49211120596875446	-0.3586575116500187
-0.49205017081250446	-0.36930260558482353
-0.49198913565625446	-0.3797021804715587
-0.49192810050000446	-0.3898492866446298
-0.49186706534375446	-0.3997372977739126
-0.49180603018750446	-0.4093592237489249
-0.49174499503125446	-0.4187079427866051
-0.49168395987500446	-0.4277769480474138
-0.49162292471875446	-0.4365602276267473
-0.49156188956250446	-0.44505195963190897
-0.49150085440625446	-0.4532463460918734
-0.49143981925000446	-0.4611374606556736
-0.49137878409375446	-0.46871971809888613
-0.49131774893750446	-0.4759880256490579
-0.49125671378125446	-0.48293738378278245
-0.49119567862500446	-0.48956289747540643
-0.49113464346875446	-0.4958600094893779
-0.49107360831250446	-0.5018243630327258
-0.49101257315625446	-0.5074516663079739
-0.49095153800000446	-0.5127381208415286
-0.49089050284375446	-0.5176802338798555
-0.49082946768750446	-0.522274327173344
-0.49076843253125446	-0.5265170329593281
-0.49070739737500446	-0.5304055239097787
-0.49064636221875446	-0.5339371562098977
-0.49058532706250446	-0.5371094327315362
-0.49052429190625446	-0.5399201181631538
-0.49046325675000446	-0.5423671237341567
-0.49040222159375446	-0.5444486253167493
-0.49034118643750446	-0.5461632516724224
-0.49028015128125446	-0.5475098006786087
-0.49021911612500446	-0.5484872197745853
-0.49015808096875446	-0.5490947580961683
-0.49009704581250446	-0.5493319186766945
-0.49003601065625446	-0.5491984810914782
-0.48997497550000446	-0.5486945171153887
-0.48991394034375446	-0.5478203112287235
-0.48985290518750446	-0.5465763087650433
-0.48979187003125446	-0.5449632923646786
-0.48973083487500446	-0.5429823635328309
-0.48966979971875446	-0.5406348056644235
-0.48960876456250446	-0.5379221825268418
-0.48954772940625446	-0.5348462706210108
-0.48948669425000446	-0.5314090880677504
-0.48942565909375446	-0.5276129910640359
-0.48936462393750446	-0.5234605084146718
-0.48930358878125446	-0.5189543925936786
-0.48924255362500446	-0.5140975908484023
-0.48918151846875446	-0.508893335419631
-0.48912048331250446	-0.5033455552013174
-0.48905944815625446	-0.49745814343647027
-0.48899841300000446	-0.4912343945344326
-0.48893737784375446	-0.48467833860520915
-0.48887634268750446	-0.47779504674897655
-0.48881530753125446	-0.4705893125343193
-0.48875427237500446	-0.4630658087671866
-0.48869323721875446	-0.4552296832078532
-0.48863220206250446	-0.447086200218132
-0.48857116690625446	-0.43864082379693403
-0.48851013175000446	-0.4298993871926464
-0.48844909659375446	-0.4208679751941057
-0.48838806143750446	-0.41155269504561914
-0.48832702628125446	-0.4019597847348185
-0.48826599112500446	-0.39209596057147134
-0.48820495596875446	-0.38196798333254267
-0.48814392081250446	-0.37158279132038297
-0.48808288565625446	-0.3609475631131229
-0.48802185050000446	-0.3500692237365342
-0.48796081534375446	-0.33895528451074036
-0.48789978018750446	-0.32761381457707983
-0.48783874503125446	-0.3160524020751249
-0.48777770987500446	-0.30427859354113634
-0.48771667471875446	-0.2923007154427412
-0.48765563956250446	-0.2801274358865752
-0.48759460440625446	-0.26776692569384924
-0.48753356925000446	-0.2552271958314595
-0.48747253409375446	-0.24251674258525702
-0.48741149893750446	-0.2296447074334273
-0.48735046378125446	-0.21662049857836874
-0.48728942862500446	-0.2034528386856728
-0.48722839346875446	-0.19014999365343777
-0.48716735831250446	-0.17672130072720174
-0.48710632315625446	-0.16317674768541654
-0.48704528800000446	-0.14952533256978365
-0.48698425284375446	-0.13577600273820706
-0.48692321768750446	-0.12193863112761788
-0.48686218253125446	-0.10802296743309098
-0.48680114737500446	-0.094038414974351
-0.48674011221875446	-0.07999457774170575
-0.48667907706250446	-0.06590116192550818
-0.48661804190625446	-0.05176774124532028
-0.48655700675000446	-0.03760407895739925
-0.48649597159375446	-0.023420187237925782
-0.48643493643750446	-0.009225790320630003
-0.48637390128125446	0.004969348452964142
-0.48631286612500446	0.01915513393063878
-0.48625183096875446	0.033321898021855256
-0.48619079581250446	0.04746019936021547
-0.48612976065625446	0.06156024832600052
-0.48606872550000446	0.07561222017296078
-0.48600769034375446	0.08960604866539575
-0.48594665518750446	0.10353174079518429
-0.48588562003125446	0.117380190481119
-0.48582458487500446	0.13114229134902794
-0.48576354971875446	0.14480805276354944
-0.48570251456250446	0.15836741918586153
-0.48564147940625446	0.17181130520469812
-0.48558044425000446	0.18513117800358314
-0.48551940909375446	0.19831765840667517
-0.48545837393750446	0.2113606519322489
-0.48539733878125446	0.22425099574539048
-0.48533630362500446	0.23698048456267443
-0.48527526846875446	0.2495405558070063
-0.48521423331250446	0.261922321060565
-0.48515319815625446	0.2741170676838882
-0.48509216300000446	0.2861160914308433
-0.48503112784375446	0.29791082611791775
-0.48497009268750446	0.3094932288463841
-0.48490905753125446	0.320855595877585
-0.48484802237500446	0.33198999586930783
-0.48478698721875446	0.34288866476942975
-0.48472595206250446	0.35354428802863275
-0.48466491690625446	0.36394898002583753
-0.48460388175000446	0.37409488357959425
-0.48454284659375446	0.38397553407968116
-0.48448181143750446	0.39358471002842316
-0.48442077628125446	0.4029154859411872
-0.48435974112500446	0.4119610052868895
-0.48429870596875446	0.4207146491537451
-0.48423767081250446	0.4291702213170026
-0.48417663565625446	0.43732241211427086
-0.48411560050000446	0.44516595571534745
-0.48405456534375446	0.4526949635765724
-0.48399353018750446	0.4599036718964824
-0.48393249503125446	0.4667870691743314
-0.48387145987500446	0.4733406660801954
-0.48381042471875446	0.4795600873698378
-0.48374938956250446	0.485440970503025
-0.48368835440625446	0.49097902874085225
-0.48362731925000446	0.4961702188804849
-0.48356628409375446	0.5010108716763635
-0.48350524893750446	0.5054977488113874
-0.48344421378125446	0.5096278945777751
-0.48338317862500446	0.5133983142372351
-0.48332214346875446	0.5168062107868535
-0.48326110831250446	0.5198491975267708
-0.48320007315625446	0.5225251457653121
-0.48313903800000446	0.5248322336383296
-0.48307800284375446	0.5267688712323813
-0.48301696768750446	0.5283336333694255
-0.48295593253125446	0.5295253595058006
-0.48289489737500446	0.5303431986460303
-0.48283386221875446	0.5307865928500706
-0.48277282706250446	0.5308552213858603
-0.48271179190625446	0.5305490150923086
-0.48265075675000446	0.5298681521042389
-0.48258972159375446	0.5288130927242272
-0.48252868643750446	0.5273845657069868
-0.48246765128125446	0.5255835147401048
-0.48240661612500446	0.5234111649038428
-0.48234558096875446	0.5208690021994412
-0.48228454581250446	0.5179588577603165
-0.48222351065625446	0.5146828124055554
-0.48216247550000446	0.5110430538867531
-0.48210144034375446	0.5070420709883081
-0.48204040518750446	0.502682587722224
-0.48197937003125446	0.4979676160603872
-0.48191833487500446	0.49290056194872595
-0.48185729971875446	0.4874850270737232
-0.48179626456250446	0.4817248378507423
-0.48173522940625446	0.4756238937657573
-0.48167419425000446	0.46918618722535144
-0.48161315909375446	0.46241631850473314
-0.48155212393750446	0.45531925010620716
-0.48149108878125446	0.44789994054606214
-0.48143005362500446	0.4401635389831223
-0.48136901846875446	0.4321152778367518
-0.48130798331250446	0.4237606694243259
-0.48124694815625446	0.41510588252517117
-0.48118591300000446	0.40615717411303465
-0.48112487784375446	0.3969204285904073
-0.48106384268750446	0.3874018851375507
-0.48100280753125446	0.3776085284591934
-0.48094177237500446	0.36754737401516524
-0.48088073721875446	0.3572253185122309
-0.48081970206250446	0.3466496028224761
-0.48075866690625446	0.3358276881020851
-0.48069763175000446	0.3247670590602729
-0.48063659659375446	0.31347543886162776
-0.48057556143750446	0.301960838078724
-0.48051452628125446	0.29023147577988984
-0.48045349112500446	0.2782956141918296
-0.48039245596875446	0.26616139637959874
-0.48033142081250446	0.25383733583309287
-0.48027038565625446	0.24133236223351592
-0.48020935050000446	0.2286550967423086
-0.48014831534375446	0.21581436188649114
-0.48008728018750446	0.20281962468037104
-0.48002624503125446	0.18967988986727402
-0.47996520987500446	0.17640391143322215
-0.47990417471875446	0.1630012858689432
-0.47984313956250446	0.14948177533702228
-0.47978210440625446	0.13585473928393116
-0.47972106925000446	0.12212985891248353
-0.47966003409375446	0.10831688114069839
-0.47959899893750446	0.09442510777891608
-0.47953796378125446	0.08046440482404317
-0.47947692862500446	0.06644502657051504
-0.47941589346875446	0.05237669008695368
-0.47935485831250446	0.038269485705831344
-0.47929382315625446	0.024133690270644534
-0.47923278800000446	0.009978621252374371
-0.47917175284375446	-0.004186179978123072
-0.47911071768750446	-0.018349961372194187
-0.47904968253125446	-0.03250197082436476
-0.47898864737500446	-0.04663263899896081
-0.47892761221875446	-0.06073287804900666
-0.47886657706250446	-0.07479248569240611
-0.47880554190625446	-0.08880062597660475
-0.47874450675000446	-0.1027475074078299
-0.47868347159375446	-0.11662378530052786
-0.47862243643750446	-0.13041928152178076
-0.47856140128125446	-0.144124127227524
-0.47850036612500446	-0.157729171151923
-0.47843933096875446	-0.17122454467124043
-0.47837829581250446	-0.184600022138124
-0.47831726065625446	-0.1978461446467202
-0.47825622550000446	-0.2109539229731876
-0.47819519034375446	-0.2239141041423065
-0.47813415518750446	-0.23671732257459283
-0.47807312003125446	-0.24935448897593637
-0.47801208487500446	-0.2618166461926752
-0.47795104971875446	-0.27409467961977935
-0.47789001456250446	-0.28617945035484416
-0.47782897940625446	-0.2980626637809917
-0.47776794425000446	-0.3097363978758873
-0.47770690909375446	-0.32119198380390557
-0.47764587393750446	-0.33242099819207416
-0.47758483878125446	-0.34341548522377835
-0.47752380362500446	-0.354167161765362
-0.47746276846875446	-0.3646685895487875
-0.47740173331250446	-0.3749128637984786
-0.47734069815625446	-0.3848922068356918
-0.47727966300000446	-0.3945991159936633
-0.47721862784375446	-0.4040266712828315
-0.47715759268750446	-0.4131680800423104
-0.47709655753125446	-0.422017089866873
-0.47703552237500446	-0.43056733664411245
-0.47697448721875446	-0.4388122644363634
-0.47691345206250446	-0.4467459069482965
-0.47685241690625446	-0.45436264833623974
-0.47679138175000446	-0.46165701260535436
-0.47673034659375446	-0.46862378914864466
-0.47666931143750446	-0.47525775299072426
-0.47660827628125446	-0.48155378038826074
-0.47654724112500446	-0.48750744147335173
-0.47648620596875446	-0.4931147138228256
-0.47642517081250446	-0.4983712952613041
-0.47636413565625446	-0.5032730644904155
-0.47630310050000446	-0.5078165304395497
-0.47624206534375446	-0.5119983851836781
-0.47618103018750446	-0.5158154217763177
-0.47611999503125446	-0.5192647403588778
-0.47605895987500446	-0.5223437278531653
-0.47599792471875446	-0.5250501187253174
-0.47593688956250446	-0.527381899498676
-0.47587585440625446	-0.5293371287665097
-0.47581481925000446	-0.5309141298509134
-0.47575378409375446	-0.5321116792037281
-0.47569274893750446	-0.5329288340813181
-0.47563171378125446	-0.5333648260566628
-0.47557067862500446	-0.5334191682147564
-0.47550964346875446	-0.533091592223415
-0.47544860831250446	-0.5323820980235198
-0.47538757315625446	-0.5312910938928059
-0.47532653800000446	-0.529819161986958
-0.47526550284375446	-0.527967086257546
-0.47520446768750446	-0.5257360522819475
-0.47514343253125446	-0.5231274883825863
-0.47508239737500446	-0.5201430610741816
-0.47502136221875446	-0.5167846979305172
-0.47496032706250446	-0.513054491024906
-0.47489929190625446	-0.5089548415089552
-0.47483825675000446	-0.5044886117829582
-0.47477722159375446	-0.4996589009206995
-0.47471618643750446	-0.49446886693511355
-0.47465515128125446	-0.48892193080062873
-0.47459411612500446	-0.4830218010069905
-0.47453308096875446	-0.4767724869861374
-0.47447204581250446	-0.4701783534269587
-0.47441101065625446	-0.4632439067957314
-0.47434997550000446	-0.4559737877854369
-0.47428894034375446	-0.4483729188990599
-0.47422790518750446	-0.44044667404512033
-0.47416687003125446	-0.43220061362871837
-0.47410583487500446	-0.42364015180965753
-0.47404479971875446	-0.4147711555616061
-0.47398376456250446	-0.4055999571157499
-0.47392272940625446	-0.39613281311148785
-0.47386169425000446	-0.38637619711530935
-0.47380065909375446	-0.3763369944799909
-0.47373962393750446	-0.3660222074352087
-0.47367858878125446	-0.35543892250041004
-0.47361755362500446	-0.3445944599893403
-0.47355651846875446	-0.33349633616870633
-0.47349548331250446	-0.3221524970602579
-0.47343444815625446	-0.3105708809271561
-0.47337341300000446	-0.29875888567051917
-0.47331237784375446	-0.28672477370121463
-0.47325134268750446	-0.2744780118655675
-0.47319030753125446	-0.26202737232569157
-0.47312927237500446	-0.24938055838460868
-0.47306823721875446	-0.23654582283160291
-0.47300720206250446	-0.22353280653535001
-0.47294616690625446	-0.21035127233726922
-0.47288513175000446	-0.1970100535670368
-0.47282409659375446	-0.18351819088660776
-0.47276306143750446	-0.1698856089180894
-0.47270202628125446	-0.15612204946660382
-0.47264099112500446	-0.14223670876353428
-0.47257995596875446	-0.1282389101409261
-0.47251892081250446	-0.11413871452322505
-0.47245788565625446	-0.09994688472996308
-0.47239685050000446	-0.08567364580204202
-0.47233581534375446	-0.07132817587130896
-0.47227478018750446	-0.05692012659591762
-0.47221374503125446	-0.04246019657559473
-0.47215270987500446	-0.02795899298614091
-0.47209167471875446	-0.013426662208101767
-0.47203063956250446	0.001126761772242254
-0.47196960440625446	0.01569110392459387
-0.47190856925000446	0.030255899652381495
-0.47184753409375446	0.04481072878922489
-0.47178649893750446	0.059345476754507694
-0.47172546378125446	0.07384991059721098
-0.47166442862500446	0.08831348803829844
-0.47160339346875446	0.10272585563530776
-0.47154235831250446	0.11707704411332678
-0.47148132315625446	0.13135701643299444
-0.47142028800000446	0.14555558090846787
-0.47135925284375446	0.15966242193447058
-0.47129821768750446	0.1736671781622989
-0.47123718253125446	0.1875603147505244
-0.47117614737500446	0.20133245169118943
-0.47111511221875446	0.21497320364293498
-0.47105407706250446	0.2284724626746137
-0.47099304190625446	0.2418210149777756
-0.47093200675000446	0.2550095281068249
-0.47087097159375446	0.26802847373487326
-0.47080993643750446	0.2808685184278747
-0.47074890128125446	0.2935203799289116
-0.47068786612500446	0.3059749962397824
-0.47062683096875446	0.3182236801334876
-0.47056579581250446	0.33025752482678017
-0.47050476065625446	0.3420676358802067
-0.47044372550000446	0.3536458794248015
-0.47038269034375446	0.3649841733948706
-0.47032165518750446	0.3760740098807404
