Time	Frequency
-0.5000047721249956	0.5062429947660582
-0.4999437369687456	0.509540446891759
-0.4998827018124956	0.5124945053972542
-0.4998216666562456	0.5151030107984041
-0.4997606314999956	0.517364138896684
-0.4996995963437456	0.5192762023806115
-0.4996385611874956	0.5208376952186061
-0.4995775260312456	0.5220473448754638
-0.4995164908749956	0.5229041024820782
-0.4994554557187456	0.5234072044842629
-0.4993944205624956	0.5235561538909261
-0.4993333854062456	0.5233506536582927
-0.4992723502499956	0.5227906413813467
-0.4992113150937456	0.5218763032129612
-0.4991502799374956	0.5206080580788447
-0.4990892447812456	0.5189865691170094
-0.4990282096249956	0.51701273774289
-0.4989671744687456	0.5146876955619587
-0.4989061393124956	0.5120128306017743
-0.4988451041562456	0.5089897761975363
-0.4987840689999956	0.5056203666910968
-0.4987230338437456	0.5019066919278194
-0.4986619986874956	0.4978511002952558
-0.4986009635312456	0.49345609386199973
-0.4985399283749956	0.48872437289772064
-0.4984788932187456	0.48365903707513846
-0.4984178580624956	0.478263496024029
-0.4983568229062456	0.4725410985908131
-0.4982957877499956	0.4664953727287713
-0.4982347525937456	0.46013033590172175
-0.4981737174374956	0.45345010692756843
-0.4981126822812456	0.4464589156328971
-0.4980516471249956	0.43916143325371443
-0.4979906119687456	0.4315626098406872
-0.4979295768124956	0.4236673979500416
-0.4978685416562456	0.4154806550794403
-0.4978075064999956	0.4070075366591529
-0.4977464713437456	0.3982538770639773
-0.4976854361874956	0.3892257328268595
-0.4976244010312456	0.37992908345484167
-0.4975633658749956	0.3703698708506812
-0.4975023307187456	0.3605540165172888
-0.4974412955624956	0.35048804644051296
-0.4973802604062456	0.34017910174543003
-0.4973192252499956	0.3296340552363457
-0.4972581900937456	0.3188595215475391
-0.4971971549374956	0.3078625566938757
-0.4971361197812456	0.29665083817479704
-0.4970750846249956	0.28523188760656515
-0.4970140494687456	0.27361284211567904
-0.4969530143124956	0.26180137411872023
-0.4968919791562456	0.24980564636350142
-0.4968309439999956	0.23763382928608343
-0.4967699088437456	0.2252941258375168
-0.4967088736874956	0.2127945053843196
-0.4966478385312456	0.2001429422355779
-0.4965868033749956	0.18734801807094145
-0.4965257682187456	0.17441868913117362
-0.4964647330624956	0.16136370229991967
-0.4964036979062456	0.14819152745748848
-0.4963426627499956	0.1349107948133267
-0.4962816275937456	0.12153053092913746
-0.4962205924374956	0.10805990783333361
-0.4961595572812456	0.09450786971695664
-0.4960985221249956	0.08088325912937562
-0.4960374869687456	0.06719539089698333
-0.4959764518124956	0.053453754752690166
-0.4959154166562456	0.03966738467067017
-0.4958543814999956	0.025845275043775953
-0.4957933463437456	0.01199687236606
-0.4957323111874956	-0.0018682995710021261
-0.4956712760312456	-0.01574101620012874
-0.4956102408749956	-0.029611992732680743
-0.4955492057187456	-0.043471698736722374
-0.4954881705624956	-0.05731081920786218
-0.4954271354062456	-0.07112038944063208
-0.4953661002499956	-0.08489105294586538
-0.4953050650937456	-0.09861299413664658
-0.4952440299374956	-0.11227703393611944
-0.4951829947812456	-0.12587428241208048
-0.4951219596249956	-0.13939534887171678
-0.4950609244687456	-0.15283113127797002
-0.4949998893124956	-0.16617274458285247
-0.4949388541562456	-0.179410903895109
-0.4948778189999956	-0.19253652274369923
-0.4948167838437456	-0.2055409143166294
-0.4947557486874956	-0.2184152673737665
-0.4946947135312456	-0.231150564016488
-0.4946336783749956	-0.24373827316533647
-0.4945726432187456	-0.2561703906096267
-0.4945116080624956	-0.2684383131363576
-0.4944505729062456	-0.28053313078661096
-0.4943895377499956	-0.2924467397189472
-0.4943285025937456	-0.30417128531301085
-0.4942674674374956	-0.31569859619616236
-0.4942064322812456	-0.32702088065971635
-0.4941453971249956	-0.3381308071444728
-0.4940843619687456	-0.3490207131027859
-0.4940233268124956	-0.35968274818095436
-0.4939622916562456	-0.3701096223389671
-0.4939012564999956	-0.380294431822339
-0.4938402213437456	-0.39023020546099546
-0.4937791861874956	-0.3999101167585384
-0.4937181510312456	-0.4093276820976805
-0.4936571158749956	-0.4184764897063615
-0.4935960807187456	-0.42735007432454564
-0.4935350455624956	-0.43594230137420764
-0.4934740104062456	-0.4442473803597141
-0.4934129752499956	-0.4522595011170428
-0.4933519400937456	-0.4599731737661337
-0.4932909049374956	-0.46738335285106425
-0.4932298697812456	-0.4744849337486286
-0.4931688346249956	-0.4812727569152101
-0.4931077994687456	-0.48774192460651183
-0.4930467643124956	-0.4938880883028151
-0.4929857291562456	-0.4997073708877509
-0.4929246939999956	-0.5051958106524975
-0.4928636588437456	-0.5103492476560203
-0.4928026236874956	-0.5151638440659388
-0.4927415885312456	-0.5196364463539926
-0.4926805533749956	-0.5237641728221998
-0.4926195182187456	-0.5275440524008784
-0.4925584830624956	-0.530973316540875
-0.4924974479062456	-0.5340495098251983
-0.4924364127499956	-0.536770459885998
-0.4923753775937456	-0.5391342793937712
-0.4923143424374956	-0.5411392595974005
-0.4922533072812456	-0.5427838967783937
-0.4921922721249956	-0.5440669727355165
-0.4921312369687456	-0.544987551399769
-0.4920702018124956	-0.5455449053810499
-0.4920091666562456	-0.5457385294287187
-0.4919481314999956	-0.5455681829781136
-0.4918870963437456	-0.5450338641528408
-0.4918260611874956	-0.5441358581038941
-0.4917650260312456	-0.5428747105217251
-0.4917039908749956	-0.5412511356222657
-0.4916429557187456	-0.5392660968250005
-0.4915819205624956	-0.5369208665395901
-0.4915208854062456	-0.5342169667016637
-0.4914598502499956	-0.5311561189559103
-0.4913988150937456	-0.5277402443851847
-0.4913377799374956	-0.523971596525964
-0.4912767447812456	-0.5198526995851503
-0.4912157096249956	-0.5153861939818148
-0.4911546744687456	-0.5105750200659471
-0.4910936393124956	-0.5054223832000054
-0.4910326041562456	-0.4999316071853687
-0.4909715689999956	-0.49410628446713556
-0.4909105338437456	-0.48795033539844757
-0.4908494986874956	-0.4814679968710879
-0.4907884635312456	-0.47466363765004327
-0.4907274283749956	-0.4675416212583551
-0.4906663932187456	-0.46010655213222074
-0.4906053580624956	-0.45236339332820696
-0.4905443229062456	-0.44431746755303925
-0.4904832877499956	-0.43597432843341055
-0.4904222525937456	-0.42733951152158794
-0.4903612174374956	-0.4184186982714482
-0.4903001822812456	-0.40921782118553807
-0.4902391471249956	-0.39974301543959
-0.4901781119687456	-0.3900007630173613
-0.4901170768124956	-0.3799976529526104
-0.4900560416562456	-0.36974027370763035
-0.4899950064999956	-0.3592356274460835
-0.4899339713437456	-0.3484910391835403
-0.4898729361874956	-0.337513619414127
-0.4898119010312456	-0.3263103005652714
-0.4897508658749956	-0.3148886191116094
-0.4896898307187456	-0.3032569035749856
-0.4896287955624956	-0.2914233605786083
-0.4895677604062456	-0.27939547433091694
-0.4895067252499956	-0.26718067572716386
-0.4894456900937456	-0.2547875302106919
-0.4893846549374956	-0.24222516489966256
-0.4893236197812456	-0.2295019513855796
-0.4892625846249956	-0.216626124954518
-0.4892015494687456	-0.20360637950346064
-0.4891405143124956	-0.19045159894076977
-0.4890794791562456	-0.17717077645340398
-0.4890184439999956	-0.16377285583498832
-0.4889574088437456	-0.15026697210805892
-0.4888963736874956	-0.13666243897894123
-0.4888353385312456	-0.12296836726735959
-0.4887743033749956	-0.10919404885914698
-0.4887132682187456	-0.09534893325460603
-0.4886522330624956	-0.0814420944118118
-0.4885911979062456	-0.06748296417728718
-0.4885301627499956	-0.05348150211997695
-0.4884691275937456	-0.03944724610057583
-0.4884080924374956	-0.025389615010797083
-0.4883470572812456	-0.011318029378428433
-0.4882860221249956	0.0027581979336323845
-0.4882249869687456	0.01682917730068068
-0.4881639518124956	0.03088492716753716
-0.4881029166562456	0.04491622660944038
-0.4880418814999956	0.05891401123801219
-0.4879808463437456	0.07286835754418906
-0.4879198111874956	0.08676904313073136
-0.4878587760312456	0.10060691426455598
-0.4877977408749956	0.11437331954221862
-0.4877367057187456	0.1280587474474896
-0.4876756705624956	0.14165318892470682
-0.4876146354062456	0.1551472819393015
-0.4875536002499956	0.16853226553947578
-0.4874925650937456	0.18179909884427464
-0.4874315299374956	0.1949384311602602
-0.4873704947812456	0.2079411392093507
-0.4873094596249956	0.22079849586860004
-0.4872484244687456	0.23350204122530532
-0.4871873893124956	0.24604297861285968
-0.4871263541562456	0.2584122256502395
-0.4870653189999956	0.2706014449096589
-0.4870042838437456	0.2826027516123809
-0.4869432486874956	0.2944077290140737
-0.4868822135312456	0.30600791343493966
-0.4868211783749956	0.3173955572530589
-0.4867601432187456	0.3285632326764041
-0.4866991080624956	0.3395032066846114
-0.4866380729062456	0.3502076372959546
-0.4865770377499956	0.3606691447823697
-0.4865160025937456	0.37088069341602264
-0.4864549674374956	0.3808352526133644
-0.4863939322812456	0.3905260447772706
-0.4863328971249956	0.39994650356650985
-0.4862718619687456	0.409090152248727
-0.4862108268124956	0.4179507276486472
-0.4861497916562456	0.42652192742321215
-0.4860887564999956	0.4347976932321632
-0.4860277213437456	0.4427726165346141
-0.4859666861874956	0.450441358506784
-0.4859056510312456	0.45779845488192933
-0.4858446158749956	0.4648387928907996
-0.4857835807187456	0.47155765187552096
-0.4857225455624956	0.4779504157428729
-0.4856615104062456	0.4840125352116029
-0.4856004752499956	0.48973979624692937
-0.4855394400937456	0.49512839945256437
-0.4854784049374956	0.5001746445726527
-0.4854173697812456	0.5048748684866481
-0.4853563346249956	0.5092258613712378
-0.4852952994687456	0.5132248017596607
-0.4852342643124956	0.5168688699478803
-0.4851732291562456	0.5201554292608228
-0.4851121939999956	0.5230822193003886
-0.4850511588437456	0.5256472246896394
-0.4849901236874956	0.5278486537994761
-0.4849290885312456	0.5296849918666312
-0.4848680533749956	0.5311549760595903
-0.4848070182187456	0.5322575823406757
-0.4847459830624956	0.5329920187345233
-0.4846849479062456	0.5333577502435983
-0.4846239127499956	0.5333545234199258
-0.4845628775937456	0.5329823008563195
-0.4845018424374956	0.5322412931596145
-0.4844408072812456	0.5311320266594733
-0.4843797721249956	0.5296553136643565
-0.4843187369687456	0.5278121563405113
-0.4842577018124956	0.5256036677466829
-0.4841966666562456	0.5230313171023354
-0.4841356314999956	0.5200970639709419
-0.4840745963437456	0.5168030059720012
-0.4840135611874956	0.5131512194087189
-0.4839525260312456	0.509144016736248
-0.4838914908749956	0.5047842757476964
-0.4838304557187456	0.5000752517176049
-0.4837694205624956	0.49502006051739483
-0.4837083854062456	0.4896219726410775
-0.4836473502499956	0.48388484270092375
-0.4835863150937456	0.47781272608723824
-0.4835252799374956	0.47140964515004774
-0.4834642447812456	0.4646799465035714
-0.4834032096249956	0.45762847316359984
-0.4833421744687456	0.45026014222106087
-0.4832811393124956	0.44257977287965106
-0.4832201041562456	0.4345926923993746
-0.4831590689999956	0.42630469119799747
-0.4830980338437456	0.4177212891121191
-0.4830369986874956	0.40884821014729283
-0.4829759635312456	0.3996919301859993
-0.4829149283749956	0.39025886630082746
-0.4828538932187456	0.38055520419078104
-0.4827928580624956	0.37058770079054865
-0.4827318229062456	0.3603634826058199
-0.4826707877499956	0.3498894524896458
-0.4826097525937456	0.3391727682866987
-0.4825487174374956	0.3282210628543973
-0.4824876822812456	0.31704187165462844
-0.4824266471249956	0.30564272889817107
-0.4823656119687456	0.29403169160615233
-0.4823045768124956	0.28221711333555277
-0.4822435416562456	0.2702070360733219
-0.4821825064999956	0.2580094628559227
-0.4821214713437456	0.24563278192923352
-0.4820604361874956	0.23308568259185639
-0.4819994010312456	0.22037727175044572
-0.4819383658749956	0.20751652692257003
-0.4818773307187456	0.19451200498646087
-0.4818162955624956	0.18137252896137326
-0.4817552604062456	0.1681071835853411
-0.4816942252499956	0.15472535383063113
-0.4816331900937456	0.14123669877427247
-0.4815721549374956	0.12765050502797248
-0.4815111197812456	0.11397595974780331
-0.4814500846249956	0.10022269110979118
-0.4813890494687456	0.08640034466056054
-0.4813280143124956	0.0725183052583219
-0.4812669791562456	0.05858612588451915
-0.4812059439999956	0.04461380540663244
-0.4811449088437456	0.030611524395916353
-0.4810838736874956	0.016588950304648166
-0.4810228385312456	0.002555212331372637
-0.4809618033749956	-0.011480113999418798
-0.4809007682187456	-0.02550686797175339
-0.4808397330624956	-0.03951486940632831
-0.4807786979062456	-0.05349411306959163
-0.4807176627499956	-0.06743511826102978
-0.4806566275937456	-0.08132863424694448
-0.4805955924374956	-0.09516487120571766
-0.4805345572812456	-0.10893395028939325
-0.4804735221249956	-0.12262626016866743
-0.4804124869687456	-0.1362320215722236
-0.4803514518124956	-0.14974154748217572
-0.4802904166562456	-0.1631455642833359
-0.4802293814999956	-0.17643490751515487
-0.4801683463437456	-0.18960039033947362
-0.4801073111874956	-0.20263274943845844
-0.4800462760312456	-0.21552253467627366
-0.4799852408749956	-0.2282605145794786
-0.4799242057187456	-0.24083783186408217
-0.4798631705624956	-0.25324582676899954
-0.4798021354062456	-0.2654760326912126
-0.4797411002499956	-0.2775197199714695
-0.4796800650937456	-0.2893681295345482
-0.4796190299374956	-0.30101304846713234
-0.4795579947812456	-0.3124464326436946
-0.4794969596249956	-0.3236601561791178
-0.4794359244687456	-0.33464612344732264
-0.4793748893124956	-0.34539657692237
-0.4793138541562456	-0.35590404398481307
-0.4792528189999956	-0.366161122467807
-0.4791917838437456	-0.376160734865803
-0.4791307486874956	-0.3858958264364124
-0.4790697135312456	-0.39535919943681624
-0.4790086783749956	-0.4045440078846353
-0.4789476432187456	-0.4134439055016718
-0.4788866080624956	-0.42205280529009304
-0.4788255729062456	-0.4303645389806476
-0.4787645377499956	-0.43837298463126734
-0.4787035025937456	-0.44607240953807253
-0.4786424674374956	-0.45345748737048847
-0.4785814322812456	-0.46052309817202364
-0.4785203971249956	-0.467263989609012
-0.4784593619687456	-0.47367510624334697
-0.4783983268124956	-0.479752100919387
-0.4783372916562456	-0.4854907569614918
-0.4782762564999956	-0.4908866847925914
-0.4782152213437456	-0.49593594935806123
-0.4781541861874956	-0.5006350761740199
-0.4780931510312456	-0.5049806322589052
-0.4780321158749956	-0.5089693735805669
-0.4779710807187456	-0.512598423585182
-0.4779100455624956	-0.5158650872148083
-0.4778490104062456	-0.5187668856466563
-0.4777879752499956	-0.5213017155498126
-0.4777269400937456	-0.5234677173854434
-0.4776659049374956	-0.5252631967585497
-0.4776048697812456	-0.5266867119756902
-0.4775438346249956	-0.5277371530104641
-0.4774827994687456	-0.5284136877042784
-0.4774217643124956	-0.5287156757575465
-0.4773607291562456	-0.5286427303981086
-0.4772996939999956	-0.5281947512672894
-0.4772386588437456	-0.5273719398808693
-0.4771776236874956	-0.5261747859802106
-0.4771165885312456	-0.5246039621139055
-0.4770555533749956	-0.5226603283300418
-0.4769945182187456	-0.5203450634273817
-0.4769334830624956	-0.5176597636597481
-0.4768724479062456	-0.5146062546270102
-0.4768114127499956	-0.5111864178922845
-0.4767503775937456	-0.5074024261683113
-0.4766893424374956	-0.5032568519291332
-0.4766283072812456	-0.49875247289434615
-0.4765672721249956	-0.49389225568932477
-0.4765062369687456	-0.48867952760408984
-0.4764452018124956	-0.48311784392508716
-0.4763841666562456	-0.4772108084995499
-0.4763231314999956	-0.4709623775871776
-0.4762620963437456	-0.46437697111338283
-0.4762010611874956	-0.4574591299012347
-0.4761400260312456	-0.45021344253001383
-0.4760789908749956	-0.4426447727363239
-0.4760179557187456	-0.4347583091899328
-0.4759569205624956	-0.4265594894244114
-0.4758958854062456	-0.4180539106085184
-0.4758348502499956	-0.40924738845065156
-0.4757738150937456	-0.4001461424147201
-0.4757127799374956	-0.39075649537209756
-0.4756517447812456	-0.3810846589833232
-0.4755907096249956	-0.37113709512142906
-0.4755296744687456	-0.36092077970057407
-0.4754686393124956	-0.3504430494699394
-0.4754076041562456	-0.339711190906825
-0.4753465689999956	-0.32873244123299694
-0.4752855338437456	-0.3175142057709785
-0.4752244986874956	-0.30606416138989706
-0.4751634635312456	-0.2943904968679451
-0.4751024283749956	-0.2825016143181327
-0.4750413932187456	-0.2704055964142649
-0.4749803580624956	-0.258110428829611
-0.4749193229062456	-0.2456245708578882
-0.4748582877499956	-0.23295701391379026
-0.4747972525937456	-0.22011673667113638
-0.4747362174374956	-0.2071125592703168
-0.4746751822812456	-0.19395347522010425
-0.4746141471249956	-0.18064862011905927
-0.4745531119687456	-0.16720719792149927
-0.4744920768124956	-0.1536385888075047
-0.4744310416562456	-0.1399523038227969
-0.4743700064999956	-0.12615784465570865
-0.4743089713437456	-0.11226480626202753
-0.4742479361874956	-0.09828309031544333
-0.4741869010312456	-0.08422249775184454
-0.4741258658749956	-0.07009257861759868
-0.4740648307187456	-0.05590327753781897
-0.4740037955624956	-0.04166477522642463
-0.4739427604062456	-0.02738688440688686
-0.4738817252499956	-0.01307917485143298
-0.4738206900937456	0.0012482369228852962
-0.4737596549374956	0.015584594962444943
-0.4736986197812456	0.029919831180263846
-0.4736375846249956	0.04424439396922745
-0.4735765494687456	0.05854825084797529
-0.4735155143124956	0.0728214971294081
-0.4734544791562456	0.0870542296410128
-0.4733934439999956	0.10123592919112676
-0.4733324088437456	0.11535620604551118
-0.4732713736874956	0.12940553523687837
-0.4732103385312456	0.14337455993385742
-0.4731493033749956	0.15725323367317318
-0.4730882682187456	0.1710313839574856
-0.4730272330624956	0.18469937188893884
-0.4729661979062456	0.1982478582588542
-0.4729051627499956	0.21166729168084603
-0.4728441275937456	0.22494783626391815
-0.4727830924374956	0.23807987485328697
-0.4727220572812456	0.2510544468902367
-0.4726610221249956	0.2638628852241509
-0.4725999869687456	0.27649591284446595
-0.4725389518124956	0.2889441182059468
-0.4724779166562456	0.3011987556395783
-0.4724168814999956	0.3132510836219488
-0.4723558463437456	0.3250924860338937
-0.4722948111874956	0.3367151059087911
-0.4722337760312456	0.34811085493498956
-0.4721727408749956	0.35927103071323596
-0.4721117057187456	0.3701873996812459
-0.4720506705624956	0.3808523346237767
-0.4719896354062456	0.39125852869116495
-0.4719286002499956	0.4013988077638899
-0.4718675650937456	0.41126568564276067
-0.4718065299374956	0.4208517906397927
-0.4717454947812456	0.4301503723483759
-0.4716844596249956	0.4391549227178859
-0.4716234244687456	0.44785897071542946
-0.4715623893124956	0.4562562523068382
-0.4715013541562456	0.46434065850217005
-0.4714403189999956	0.47210627810599354
-0.4713792838437456	0.47954757360399913
-0.4713182486874956	0.4866592712699268
-0.4712572135312456	0.49343617848809673
-0.4711961783749956	0.49987324155988844
-0.4711351432187456	0.5059657950737292
-0.4710741080624956	0.5117095291041858
-0.4710130729062456	0.5171002386188659
-0.4709520377499956	0.522133858209228
-0.4708910025937456	0.5268066136219132
-0.4708299674374956	0.5311150787823354
-0.4707689322812456	0.535056155574392
-0.4707078971249956	0.5386269442881046
-0.4706468619687456	0.541824675516396
-0.4705858268124956	0.544646835695555
-0.4705247916562456	0.5470912663786556
-0.4704637564999956	0.5491561064335774
-0.4704027213437456	0.5508397452035795
-0.4703416861874956	0.5521408383300414
-0.4702806510312456	0.5530582537357523
-0.4702196158749956	0.5535910934156028
-0.4701585807187456	0.5537388033056561
-0.4700975455624956	0.5535011526624031
-0.4700365104062456	0.5528781500896932
-0.4699754752499956	0.5518699578089438
-0.4699144400937456	0.550477014149338
-0.4698534049374956	0.5487001978761258
-0.4697923697812456	0.5465406224788343
-0.4697313346249956	0.5439995609682244
-0.4696702994687456	0.541078630337395
-0.4696092643124956	0.5377797066129678
-0.4695482291562456	0.5341048333798608
-0.4694871939999956	0.5300563834571073
