Time	Frequency
-0.5000228881562521	0.08370003713743124
-0.49996185300000207	0.0725354590802476
-0.49990081784375207	0.06131808745826461
-0.49983978268750207	0.04992909559057014
-0.49977874753125207	0.03853575492122588
-0.49971771237500207	0.02725473691407996
-0.49965667721875207	0.015928866148999427
-0.49959564206250207	0.004467727994855198
-0.49953460690625207	-0.006958297421569923
-0.49947357175000207	-0.018259178369429033
-0.49941253659375207	-0.029591909589488326
-0.49935150143750207	-0.041021510115080664
-0.49929046628125207	-0.052380104880151324
-0.49922943112500207	-0.06360169254800192
-0.49916839596875207	-0.07483965559732707
-0.49910736081250207	-0.08613717102451053
-0.49904632565625207	-0.0973301685415825
-0.49898529050000207	-0.10837175497072497
-0.49892425534375207	-0.11941197520287662
-0.49886322018750207	-0.13047823262664532
-0.49880218503125207	-0.1414095797076083
-0.49874114987500207	-0.15217245439895277
-0.49868011471875207	-0.16291463962631206
-0.49861907956250207	-0.17365201337428027
-0.49855804440625207	-0.18422562990051897
-0.49849700925000207	-0.19461342363205944
-0.49843597409375207	-0.20496215468442366
-0.49837493893750207	-0.215276403341526
-0.49831390378125207	-0.22539747523865072
-0.49825286862500207	-0.23531530739009338
-0.49819183346875207	-0.24517878915860053
-0.49813079831250207	-0.25498090459052974
-0.49806976315625207	-0.2645594304390522
-0.49800872800000207	-0.27391673648143877
-0.49794769284375207	-0.2832072331491526
-0.49788665768750207	-0.292410973492069
-0.49782562253125207	-0.30135991125922146
-0.49776458737500207	-0.31007196071976456
-0.49770355221875207	-0.31870859449779065
-0.49764251706250207	-0.3272327235053695
-0.49758148190625207	-0.33546975812759605
-0.49752044675000207	-0.3434578765781769
-0.49745941159375207	-0.3513655474868535
-0.49739837643750207	-0.3591336417064164
-0.49733734128125207	-0.3665824658215998
-0.49727630612500207	-0.3737757221995564
-0.49721527096875207	-0.38088595712047046
-0.49715423581250207	-0.38782682041190797
-0.49709320065625207	-0.3944177355612357
-0.49703216550000207	-0.4007529721312276
-0.49697113034375207	-0.40700443877058234
-0.49691009518750207	-0.4130538855268425
-0.49684906003125207	-0.41872498709951134
-0.49678802487500207	-0.42414678980343834
-0.49672698971875207	-0.42948471399454774
-0.49666595456250207	-0.43458538712751793
-0.49660491940625207	-0.43928407576393036
-0.49654388425000207	-0.443746763209502
-0.49648284909375207	-0.4481236176083276
-0.49642181393750207	-0.45222519926346116
-0.49636077878125207	-0.4559078763707795
-0.49629974362500207	-0.4593743878400349
-0.49623870846875207	-0.4627502098030928
-0.49617767331250207	-0.46581132587423535
-0.49611663815625207	-0.468444943754072
-0.49605560300000207	-0.47088761724431794
-0.49599456784375207	-0.47322973792384926
-0.49593353268750207	-0.4752173249425807
-0.49587249753125207	-0.4767789824987387
-0.49581146237500207	-0.478179049081248
-0.49575042721875207	-0.4794631718794602
-0.49568939206250207	-0.48035486541339284
-0.49562835690625207	-0.48083261422563267
-0.49556732175000207	-0.48117948133930966
-0.49550628659375207	-0.4813889706639195
-0.49544525143750207	-0.48117268714043565
-0.49538421628125207	-0.4805653031088325
-0.49532318112500207	-0.47985694437586346
-0.49526214596875207	-0.47898409733417247
-0.49520111081250207	-0.4776589298895657
-0.49514007565625207	-0.4759754481546772
-0.49507904050000207	-0.4742177078021091
-0.49501800534375207	-0.4722638175218147
-0.49495697018750207	-0.4698401109380668
-0.49489593503125207	-0.46709955821886306
-0.49483489987500207	-0.4643062328776896
-0.49477386471875207	-0.4612820642366312
-0.49471282956250207	-0.4577815418298658
-0.49465179440625207	-0.45401241583950364
-0.49459075925000207	-0.4502050022295905
-0.49452972409375207	-0.44613096772172495
-0.49446868893750207	-0.4415861406539133
-0.49440765378125207	-0.43682566368628434
-0.49434661862500207	-0.43203377608088434
-0.49428558346875207	-0.4269407856306232
-0.49422454831250207	-0.42139475522752917
-0.49416351315625207	-0.4156874337603719
-0.49410247800000207	-0.40994796595208344
-0.49404144284375207	-0.40387762861330384
-0.49398040768750207	-0.397383725793146
-0.49391937253125207	-0.3907813157001188
-0.49385833737500207	-0.38413885233430006
-0.49379730221875207	-0.3771426572063647
-0.49373626706250207	-0.3697637025458295
-0.49367523190625207	-0.3623251479339644
-0.49361419675000207	-0.35483149695761257
-0.49355316159375207	-0.34696969376482867
-0.49349212643750207	-0.3387762054972417
-0.49343109128125207	-0.3305672685234438
-0.49337005612500207	-0.3222833736772912
-0.49330902096875207	-0.31362631930703094
-0.49324798581250207	-0.30469512833838397
-0.49318695065625207	-0.29578520860060925
-0.49312591550000207	-0.28677924667037846
-0.49306488034375207	-0.2774069005639043
-0.49300384518750207	-0.2678211662769566
-0.49294281003125207	-0.2582850244119331
-0.49288177487500207	-0.24863297169904222
-0.49282073971875207	-0.23863270492200048
-0.49275970456250207	-0.22848072384423526
-0.49269866940625207	-0.21839806224617397
-0.49263763425000207	-0.20818174852204846
-0.49257659909375207	-0.19764598348251777
-0.49251556393750207	-0.18702047031274055
-0.49245452878125207	-0.17647752693674382
-0.49239349362500207	-0.16578659474665952
-0.49233245846875207	-0.15481281748354053
-0.49227142331250207	-0.14380786256644304
-0.49221038815625207	-0.13289295430372317
-0.49214935300000207	-0.12182302905351969
-0.49208831784375207	-0.11051471871574331
-0.49202728268750207	-0.09922766492008198
-0.49196624753125207	-0.08803240429094855
-0.49190521237500207	-0.07668257742940096
-0.49184417721875207	-0.0651449355980267
-0.49178314206250207	-0.05367570812385239
-0.49172210690625207	-0.042297238369881286
-0.49166107175000207	-0.030770413994506304
-0.49160003659375207	-0.01910770574053757
-0.49153900143750207	-0.007554876268586185
-0.49147796628125207	0.003907137125294187
-0.49141693112500207	0.01550254380195667
-0.49135589596875207	0.027182332776530344
-0.49129486081250207	0.03872001963834303
-0.49123382565625207	0.05016706647664499
-0.49117279050000207	0.0617252252377433
-0.49111175534375207	0.07331580230096424
-0.49105072018750207	0.08473608871532921
-0.49098968503125207	0.0960644844217441
-0.49092864987500207	0.10747907836458825
-0.49086761471875207	0.11887840195469945
-0.49080657956250207	0.130083484741046
-0.49074554440625207	0.14119100009305438
-0.49068450925000207	0.1523549082855307
-0.49062347409375207	0.1634599927800174
-0.49056243893750207	0.17435213484961282
-0.49050140378125207	0.18513870286225517
-0.49044036862500207	0.19595015557715184
-0.49037933346875207	0.20666302331309613
-0.49031829831250207	0.21714462534183096
-0.49025726315625207	0.22751000608237962
-0.49019622800000207	0.23787128632145216
-0.49013519284375207	0.24809858239077826
-0.49007415768750207	0.2580757577769887
-0.49001312253125207	0.2679233994512698
-0.48995208737500207	0.27773965319137556
-0.48989105221875207	0.2873911428966382
-0.48983001706250207	0.29677465673852904
-0.48976898190625207	0.30601448490300015
-0.48970794675000207	0.31519746109905916
-0.48964691159375207	0.3241862491011039
-0.48958587643750207	0.3328889606814856
-0.48952484128125207	0.3414359844629066
-0.48946380612500207	0.34990452487534646
-0.48940277096875207	0.3581506187237208
-0.48934173581250207	0.3660919153432495
-0.48928070065625207	0.37386764875425604
-0.48921966550000207	0.38154641817626234
-0.48915863034375207	0.3889742745152157
-0.48909759518750207	0.3960789821418498
-0.48903656003125207	0.40301301213819607
-0.48897552487500207	0.40983489990000616
-0.48891448971875207	0.4163765142108989
-0.48885345456250207	0.42257772645838687
-0.48879241940625207	0.42860714545124096
-0.48873138425000207	0.4345102933371117
-0.48867034909375207	0.4401034983285777
-0.48860931393750207	0.4453436107762638
-0.48854827878125207	0.45041606088485825
-0.48848724362500207	0.45534697595537693
-0.48842620846875207	0.4599368075788631
-0.48836517331250207	0.4641663760216721
-0.48830413815625207	0.4682379067138199
-0.48824310300000207	0.4721512801802637
-0.48818206784375207	0.47569203744427574
-0.48812103268750207	0.4788716573358287
-0.48805999753125207	0.4819069307404989
-0.48799896237500207	0.48476511299534397
-0.48793792721875207	0.4872206353846151
-0.48787689206250207	0.48932184376473586
-0.48781585690625207	0.4912947794192376
-0.48775482175000207	0.4930680440139196
-0.48769378659375207	0.49441178933528196
-0.48763275143750207	0.4954169266679097
-0.48757171628125207	0.4963106283791538
-0.48751068112500207	0.49697797299037344
-0.48744964596875207	0.497194043777911
-0.48738861081250207	0.4970961499498144
-0.48732757565625207	0.4969025381389831
-0.48726654050000207	0.496452049979544
-0.48720550534375207	0.49553556971698365
-0.48714447018750207	0.4943382007376678
-0.48708343503125207	0.4930577179116844
-0.48702239987500207	0.49148707363433647
-0.48696136471875207	0.48944489675488845
-0.48690032956250207	0.4871618559694263
-0.48683929440625207	0.48480317705320786
-0.48677825925000207	0.48211981029097895
-0.48671722409375207	0.47897015979884516
-0.48665618893750207	0.4756249978570723
-0.48659515378125207	0.4722052644295823
-0.48653411862500207	0.46842710414159194
-0.48647308346875207	0.4641996141158414
-0.48641204831250207	0.4598246819767566
-0.48635101315625207	0.4553693529013134
-0.48628997800000207	0.45052533953293433
-0.48622894284375207	0.4452603282178909
-0.48616790768750207	0.4398956367114214
-0.48610687253125207	0.4344381853947995
-0.48604583737500207	0.42856841718392114
-0.48598480221875207	0.422317475421522
-0.48592376706250207	0.41601153578255395
-0.48586273190625207	0.4095933799105735
-0.48580169675000207	0.40274728812081084
-0.48574066159375207	0.3955705039286898
-0.48567962643750207	0.3883789452930965
-0.48561859128125207	0.3810509695256583
-0.48555755612500207	0.37328966736012026
-0.48549652096875207	0.365255822316908
-0.48543548581250207	0.3572400890635754
-0.48537445065625207	0.3490610516966934
-0.48531341550000207	0.3404551644530241
-0.48525238034375207	0.3316402206628406
-0.48519134518750207	0.32286776429433467
-0.48513031003125207	0.31390500355213335
-0.48506927487500207	0.3045346664130925
-0.48500823971875207	0.29502152190570047
-0.48494720456250207	0.2855661202740885
-0.48488616940625207	0.27589507467434066
-0.48482513425000207	0.2658473776995416
-0.48476409909375207	0.2557230872552962
-0.48470306393750207	0.24566370448509173
-0.48464202878125207	0.23536803291178063
-0.48458099362500207	0.22473789781144674
-0.48451995846875207	0.2140946901401525
-0.48445892331250207	0.20351556653178132
-0.48439788815625207	0.19268619398134823
-0.48433685300000207	0.1815737801330538
-0.48427581784375207	0.1705053282450069
-0.48421478268750207	0.15949426883170253
-0.48415374753125207	0.14822961887117528
-0.48409271237500207	0.13674120026099656
-0.48403167721875207	0.1253451564183303
-0.48397064206250207	0.11399463325729689
-0.48390960690625207	0.10239674880363059
-0.48384857175000207	0.09063939826775658
-0.48378753659375207	0.0790152921977458
-0.48372650143750207	0.06742335019791873
-0.48366546628125207	0.055599509209219786
-0.48360443112500207	0.04368196441058739
-0.48354339596875207	0.03193052157527048
-0.48348236081250207	0.020198532085087442
-0.48342132565625207	0.008258264506227481
-0.48336029050000207	-0.0037111163252887703
-0.48329925534375207	-0.015488741069421748
-0.48323822018750207	-0.02725641691190902
-0.48317718503125207	-0.039199993432679804
-0.48311614987500207	-0.0511118841361996
-0.48305511471875207	-0.06281568099207603
-0.48299407956250207	-0.0745153340363064
-0.48293304440625207	-0.08635058323525513
-0.48287200925000207	-0.0980965086401265
-0.48281097409375207	-0.10962359226092276
-0.48274993893750207	-0.12114903719642842
-0.48268890378125207	-0.13276643947419914
-0.48262786862500207	-0.14424290869554873
-0.48256683346875207	-0.15549328780042945
-0.48250579831250207	-0.16673742613238382
-0.48244476315625207	-0.1780278155607692
-0.48238372800000207	-0.18913413782919147
-0.48232269284375207	-0.20000973249520265
-0.48226165768750207	-0.21086829423809025
-0.48220062253125207	-0.22172679275798649
-0.48213958737500207	-0.23236498479481865
-0.48207855221875207	-0.2427694291462097
-0.48201751706250207	-0.25314128217247694
-0.48195648190625207	-0.26346822836808625
-0.48189544675000207	-0.2735451381740882
-0.48183441159375207	-0.2833848952736838
-0.48177337643750207	-0.29317300451301326
-0.48171234128125207	-0.30287449489099727
-0.48165130612500207	-0.3123008303962611
-0.48159027096875207	-0.3214854643810792
-0.48152923581250207	-0.33059893412355906
-0.48146820065625207	-0.33958923146839803
-0.48140716550000207	-0.3482817802332947
-0.48134613034375207	-0.35672531394726886
-0.48128509518750207	-0.36507857959707585
-0.48122406003125207	-0.3732771998747679
-0.48116302487500207	-0.3811584293058699
-0.48110198971875207	-0.38878260138433435
-0.48104095456250207	-0.396298850715478
-0.48097991940625207	-0.40363306172981184
-0.48091888425000207	-0.4106311536090393
-0.48085784909375207	-0.41736396988665725
-0.48079681393750207	-0.4239745524374549
-0.48073577878125207	-0.43037901379385457
-0.48067474362500207	-0.4364291904455082
-0.48061370846875207	-0.44220741552390924
-0.48055267331250207	-0.447852964847611
-0.48049163815625207	-0.45327033251062737
-0.48043060300000207	-0.458315447415799
-0.48036956784375207	-0.4630849687849495
-0.48030853268750207	-0.46771543365595936
-0.48024749753125207	-0.47209620435627037
-0.48018646237500207	-0.4760871329561117
-0.48012542721875207	-0.4798034247948647
-0.48006439206250207	-0.48337865907002836
-0.48000335690625207	-0.48668262520743244
-0.47994232175000207	-0.48958011928848366
-0.47988128659375207	-0.4922090202808918
-0.47982025143750207	-0.4946974150463337
-0.47975921628125207	-0.4968919438381247
-0.47969818112500207	-0.49866681661453943
-0.47963714596875207	-0.5001859982338879
-0.47957611081250207	-0.501566288584039
-0.47951507565625207	-0.5026280019597428
-0.47945404050000207	-0.503261193664572
-0.47939300534375207	-0.503658455066359
-0.47933197018750207	-0.5039184315963842
-0.47927093503125207	-0.5038336986460871
-0.47920989987500207	-0.5033177795691974
-0.47914886471875207	-0.5025920248912101
-0.47908782956250207	-0.5017285814353468
-0.47902679440625207	-0.5004935096948122
-0.47896575925000207	-0.4988325234102476
-0.47890472409375207	-0.49699303281521406
-0.47884368893750207	-0.4950118554588291
-0.47878265378125207	-0.4926328759957969
-0.47872161862500207	-0.4898428157404428
-0.47866058346875207	-0.4869092293547207
-0.47859954831250207	-0.483825018261353
-0.47853851315625207	-0.48031906470725816
-0.47847747800000207	-0.47642707058011713
-0.47841644284375207	-0.47242829822267074
-0.47835540768750207	-0.46826466195170885
-0.47829437253125207	-0.4636600263121937
-0.47823333737500207	-0.45870481578916245
-0.47817230221875207	-0.4536783486538963
-0.47811126706250207	-0.44846741613668906
-0.47805023190625207	-0.4428035444754697
-0.47798919675000207	-0.4368343705260153
-0.47792816159375207	-0.43082610048729936
-0.47786712643750207	-0.4246091565280488
-0.47780609128125207	-0.4179361660395381
-0.47774505612500207	-0.4110118038062058
-0.47768402096875207	-0.40407532846432487
-0.47762298581250207	-0.3969028874964502
-0.47756195065625207	-0.3892818579240469
-0.47750091550000207	-0.38146946418360217
-0.47743988034375207	-0.37366521351748894
-0.47737884518750207	-0.3655974087205782
-0.47731781003125207	-0.3570998397278526
-0.47725677487500207	-0.348473937614985
-0.47719573971875207	-0.3398681834063621
-0.47713470456250207	-0.3309735722201866
-0.47707366940625207	-0.3216813038573229
-0.47701263425000207	-0.31232432667449717
-0.47695159909375207	-0.30298962169374355
-0.47689056393750207	-0.2933443287377711
-0.47682952878125207	-0.2833463493802767
-0.47676849362500207	-0.27334622161483674
-0.47670745846875207	-0.2633620566948177
-0.47664642331250207	-0.2530521985061925
-0.47658538815625207	-0.24244504072858633
-0.47652435300000207	-0.23189206808654028
-0.47646331784375207	-0.2213424471193945
-0.47640228268750207	-0.2104625156403945
-0.47634124753125207	-0.199348998776169
-0.47628021237500207	-0.18833842978586512
-0.47621917721875207	-0.17731341141518642
-0.47615814206250207	-0.16596314074973306
-0.47609710690625207	-0.15444974306998285
-0.47603607175000207	-0.14307998035674457
-0.47597503659375207	-0.131674728304551
-0.47591400143750207	-0.11996058188698323
-0.47585296628125207	-0.10815705780666576
-0.47579193112500207	-0.0965277958578133
-0.47573089596875207	-0.08484219096986165
-0.47566986081250207	-0.07287530238281638
-0.47560882565625207	-0.060892706433146815
-0.47554779050000207	-0.049105232994663295
-0.47548675534375207	-0.03724290217246304
-0.47542572018750207	-0.025138389084506774
-0.47536468503125207	-0.013089264732662169
-0.47530364987500207	-0.001245233450596315
-0.47524261471875207	0.010687444455680086
-0.47518157956250207	0.02281313424355903
-0.47512054440625207	0.034818427507833496
-0.47505950925000207	0.04661644488856842
-0.47499847409375207	0.05850902786406689
-0.47493743893750207	0.07053859382731517
-0.47487640378125207	0.08239081117881492
-0.47481536862500207	0.09403987380313235
-0.47475433346875207	0.10578257872503531
-0.47469329831250207	0.11760212684838979
-0.47463226315625207	0.129194636837864
-0.47457122800000207	0.14059096788016953
-0.47451019284375207	0.1520726510785237
-0.47444915768750207	0.1635695484345411
-0.47438812253125207	0.1747987764083008
-0.47432708737500207	0.18584155223519147
-0.47426605221875207	0.1969535339921648
-0.47420501706250207	0.20801914437448044
-0.47414398190625207	0.21878605458809788
-0.47408294675000207	0.2293757917160039
-0.47402191159375207	0.2400104365441502
-0.47396087643750207	0.2505402183028623
-0.47389984128125207	0.26075000761928296
-0.47383880612500207	0.2707909877709659
-0.47377777096875207	0.28084680751723223
-0.47371673581250207	0.29074345540267016
-0.47365570065625207	0.30030492165830985
-0.47359466550000207	0.3097025361440601
-0.47353363034375207	0.31908259868865374
-0.47347259518750207	0.3282566989434722
-0.47341156003125207	0.3370857802416521
-0.47335052487500207	0.3457513266341697
-0.47328948971875207	0.35436449923303726
-0.47322845456250207	0.3627321964316234
-0.47316741940625207	0.37075017637077834
-0.47310638425000207	0.37860165144475527
-0.47304534909375207	0.3863658745186051
-0.47298431393750207	0.3938517651267784
-0.47292327878125207	0.4009849546499229
-0.47286224362500207	0.4079458742831981
-0.47280120846875207	0.4147883780182278
-0.47274017331250207	0.42132622431480915
-0.47267913815625207	0.4275082759937104
-0.47261810300000207	0.4335106188364718
-0.47255706784375207	0.439367491344108
-0.47249603268750207	0.44489816577542945
-0.47243499753125207	0.450070325524347
-0.47237396237500207	0.45505605611168043
-0.47231292721875207	0.4598736393326828
-0.47225189206250207	0.4643467568025247
-0.47219085690625207	0.4684585553676824
-0.47212982175000207	0.4723790422947857
-0.47206878659375207	0.4761136065168502
-0.47200775143750207	0.479487847545592
-0.47194671628125207	0.4824982157890983
-0.47188568112500207	0.4853155805412657
-0.47182464596875207	0.48793351621857
-0.47176361081250207	0.49017645244311225
-0.47170257565625207	0.492054367807468
-0.47164154050000207	0.4937420255919753
-0.47158050534375207	0.49521969851101977
-0.47151947018750207	0.49630801579439315
-0.47145843503125207	0.49703314790544206
-0.47139739987500207	0.49757599660909985
-0.47133636471875207	0.4978999856488598
-0.47127532956250207	0.49782015773927524
-0.47121429440625207	0.49738317193429477
-0.47115325925000207	0.496777126346854
-0.47109222409375207	0.49594372868127007
-0.47103118893750207	0.4946926254276385
-0.47097015378125207	0.4930962067312163
-0.47090911862500207	0.49134805849199065
-0.47084808346875207	0.4893628009932155
-0.47078704831250207	0.48694782593250957
-0.47072601315625207	0.48420661792646086
-0.47066497800000207	0.48133394463521173
-0.47060394284375207	0.47821197618919997
-0.47054290768750207	0.4746510367330749
-0.47048187253125207	0.4707909822152129
-0.47042083737500207	0.4668216250425483
