Time	Frequency
-0.5000610344062579	2.9636369383725004e-24
-0.49999999925000793	3.236535753123796e-24
-0.49993896409375793	3.5068441757002876e-24
-0.49987792893750793	3.774334875139892e-24
-0.49981689378125793	4.038777883158702e-24
-0.49975585862500793	4.299946752229784e-24
-0.49969482346875793	4.557623145899383e-24
-0.49963378831250793	4.8115901221873104e-24
-0.49957275315625793	5.061632722353368e-24
-0.49951171800000793	5.307539629972102e-24
-0.49945068284375793	5.549097087502513e-24
-0.49938964768750793	5.786097841516895e-24
-0.49932861253125793	6.0183478937106726e-24
-0.49926757737500793	6.2456514277943795e-24
-0.49920654221875793	6.467810729294549e-24
-0.49914550706250793	6.684635756327843e-24
-0.49908447190625793	6.895940675409589e-24
-0.49902343675000793	7.101545680023636e-24
-0.49896240159375793	7.301280214788994e-24
-0.49890136643750793	7.494973972963063e-24
-0.49884033128125793	7.682457903157306e-24
-0.49877929612500793	7.863570929019002e-24
-0.49871826096875793	8.038157705510934e-24
-0.49865722581250793	8.206070514995137e-24
-0.49859619065625793	8.367166752412068e-24
-0.49853515550000793	8.52130558856066e-24
-0.49847412034375793	8.668355025284622e-24
-0.49841308518750793	8.808191949094999e-24
-0.49835205003125793	8.940694112881043e-24
-0.49829101487500793	9.065742498645271e-24
-0.49822997971875793	9.183230684879501e-24
-0.49816894456250793	9.293060971097642e-24
-0.49810790940625793	9.395136452145307e-24
-0.49804687425000793	9.48936711611284e-24
-0.49798583909375793	9.575671090297244e-24
-0.49792480393750793	9.653971639891255e-24
-0.49786376878125793	9.724200990035091e-24
-0.49780273362500793	9.786297992689322e-24
-0.49774169846875793	9.840206353754213e-24
-0.49768066331250793	9.885876504236022e-24
-0.49761962815625793	9.923267379177891e-24
-0.49755859300000793	9.95234629791151e-24
-0.49749755784375793	9.973085502989974e-24
-0.49743652268750793	9.985463843940308e-24
-0.49737548753125793	9.989467445359135e-24
-0.49731445237500793	9.985088929695743e-24
-0.49725341721875793	9.972330824285236e-24
-0.49719238206250793	9.951202191579233e-24
-0.49713134690625793	9.921716138069416e-24
-0.49707031175000793	9.88389470546232e-24
-0.49700927659375793	9.837767550015496e-24
-0.49694824143750793	9.783370099968462e-24
-0.49688720628125793	9.720745448710628e-24
-0.49682617112500793	9.649943414706052e-24
-0.49676513596875793	9.571020294271678e-24
-0.49670410081250793	9.484042108340841e-24
-0.49664306565625793	9.389081738407605e-24
-0.49658203050000793	9.286212692173206e-24
-0.49652099534375793	9.17551661027735e-24
-0.49645996018750793	9.057087253638005e-24
-0.49639892503125793	8.93102325267122e-24
-0.49633788987500793	8.797428639937882e-24
-0.49627685471875793	8.656413893759479e-24
-0.49621581956250793	8.50809369700007e-24
-0.49615478440625793	8.352589642375723e-24
-0.49609374925000793	8.190033386637833e-24
-0.49603271409375793	8.020560813517604e-24
-0.49597167893750793	7.844310061857595e-24
-0.49591064378125793	7.661427363726485e-24
-0.49584960862500793	7.472066838383524e-24
-0.49578857346875793	7.276389357424818e-24
-0.49572753831250793	7.074556881339473e-24
-0.49566650315625793	6.866732528551041e-24
-0.49560546800000793	6.65309020926916e-24
-0.49554443284375793	6.4338121910611315e-24
-0.49548339768750793	6.209083906573405e-24
-0.49542236253125793	5.979094239572359e-24
-0.49536132737500793	5.744034289159334e-24
-0.49530029221875793	5.504097721233149e-24
-0.49523925706250793	5.2594844735629254e-24
-0.49517822190625793	5.0104025705961106e-24
-0.49511718675000793	4.757063786876041e-24
-0.49505615159375793	4.4996810403850075e-24
-0.49499511643750793	4.238470266973079e-24
-0.49493408128125793	3.973650943669683e-24
-0.49487304612500793	3.7054425385572e-24
-0.49481201096875793	3.4340685795284964e-24
-0.49475097581250793	3.1597620539943725e-24
-0.49468994065625793	2.882757757143116e-24
-0.49462890550000793	2.6032864503164058e-24
-0.49456787034375793	2.3215810529064573e-24
-0.49450683518750793	2.0378816945446414e-24
-0.49444580003125793	1.752428034599495e-24
-0.49438476487500793	1.465458448736617e-24
-0.49432372971875793	1.177214846822841e-24
-0.49426269456250793	8.879428143747441e-25
-0.49420165940625793	5.9788900311515065e-25
-0.49414062425000793	3.072972490013098e-25
-0.49407958909375793	1.6408675648488805e-26
-0.49401855393750793	-2.7452671160921456e-25
-0.49395751878125793	-5.652564057427828e-25
-0.49389648362500793	-8.55539840272468e-25
-0.49383544846875793	-1.1451399484990601e-24
-0.49377441331250793	-1.4338081824444448e-24
-0.49371337815625793	-1.721289302261546e-24
-0.49365234300000793	-2.0073389598481107e-24
-0.49359130784375793	-2.2917216101405077e-24
-0.49353027268750793	-2.5742031609932306e-24
-0.49346923753125793	-2.8545388886866888e-24
-0.49340820237500793	-3.132481615195064e-24
-0.49334716721875793	-3.407798206154279e-24
-0.49328613206250793	-3.680261628578186e-24
-0.49322509690625793	-3.949641455471421e-24
-0.49316406175000793	-4.215704750044551e-24
-0.49310302659375793	-4.478220584094559e-24
-0.49304199143750793	-4.736967636223971e-24
-0.49298095628125793	-4.991730045170431e-24
-0.49291992112500793	-5.242291600772338e-24
-0.49285888596875793	-5.4884367645170084e-24
-0.49279785081250793	-5.729951789481835e-24
-0.49273681565625793	-5.966634943199599e-24
-0.49267578050000793	-6.198288445566718e-24
-0.49261474534375793	-6.424709044765166e-24
-0.49255371018750793	-6.645698675094158e-24
-0.49249267503125793	-6.861073732280528e-24
-0.49243163987500793	-7.070654841847119e-24
-0.49237060471875793	-7.274262097328166e-24
-0.49230956956250793	-7.47172030624565e-24
-0.49224853440625793	-7.662856917916541e-24
-0.49218749925000793	-7.84750606349709e-24
-0.49212646409375793	-8.025513218216135e-24
-0.49206542893750793	-8.196729970285534e-24
-0.49200439378125793	-8.361008024294947e-24
-0.49194335862500793	-8.518204130585676e-24
-0.49188232346875793	-8.6681838786953e-24
-0.49182128831250793	-8.810817665292758e-24
-0.49176025315625793	-8.945981774810756e-24
-0.49169921800000793	-9.073563594728542e-24
-0.49163818284375793	-9.19345475297093e-24
-0.49157714768750793	-9.305547596191916e-24
-0.49151611253125793	-9.409745285964883e-24
-0.49145507737500793	-9.50595987816338e-24
-0.49139404221875793	-9.594106250240312e-24
-0.49133300706250793	-9.674108630517637e-24
-0.49127197190625793	-9.745899906557003e-24
-0.49121093675000793	-9.80941651869701e-24
-0.49114990159375793	-9.864602037124238e-24
-0.49108886643750793	-9.911407899524456e-24
-0.49102783128125793	-9.949792556674804e-24
-0.49096679612500793	-9.979721957878093e-24
-0.49090576096875793	-1.0001170277531744e-23
-0.49084472581250793	-1.0014118502262781e-23
-0.49078369065625793	-1.0018552590285334e-23
-0.49072265550000793	-1.0014466492331476e-23
-0.49066162034375793	-1.0001864730200006e-23
-0.49060058518750793	-9.980757740048884e-24
-0.49053955003125793	-9.951159355974572e-24
-0.49047851487500793	-9.913092048855594e-24
-0.49041747971875793	-9.866588214194254e-24
-0.49035644456250793	-9.81168857400856e-24
-0.49029540940625793	-9.748439028826417e-24
-0.49023437425000793	-9.676889408603819e-24
-0.49017333909375793	-9.597099036664643e-24
-0.49011230393750793	-9.509136903965468e-24
-0.49005126878125793	-9.413075688645484e-24
-0.48999023362500793	-9.308995006801341e-24
-0.48992919846875793	-9.196985627350001e-24
-0.48986816331250793	-9.07714233721139e-24
-0.48980712815625793	-8.949562209924868e-24
-0.48974609300000793	-8.814353451035276e-24
-0.48968505784375793	-8.671634204314475e-24
-0.48962402268750793	-8.521523521940713e-24
-0.48956298753125793	-8.364146241142919e-24
-0.48950195237500793	-8.199638823038522e-24
-0.48944091721875793	-8.02814123006177e-24
-0.48937988206250793	-7.849796115319006e-24
-0.48931884690625793	-7.66475558816122e-24
-0.48925781175000793	-7.47317849196159e-24
-0.48919677659375793	-7.275228204815236e-24
-0.48913574143750793	-7.071072502965995e-24
-0.48907470628125793	-6.860883255386252e-24
-0.48901367112500793	-6.644839087840177e-24
-0.48895263596875793	-6.4231258246163654e-24
-0.48889160081250793	-6.1959356717560124e-24
-0.48883056565625793	-5.963460789317243e-24
-0.48876953050000793	-5.725894085535193e-24
-0.48870849534375793	-5.483439656093426e-24
-0.48864746018750793	-5.236308402377422e-24
-0.48858642503125793	-4.984711609307235e-24
-0.48852538987500793	-4.728862902471868e-24
-0.48846435471875793	-4.4689785306209565e-24
-0.48840331956250793	-4.205282811091819e-24
-0.48834228440625793	-3.9380044222473594e-24
-0.48828124925000793	-3.667366348072158e-24
-0.48822021409375793	-3.3935967220607135e-24
-0.48815917893750793	-3.1169354598750402e-24
-0.48809814378125793	-2.8376236371805625e-24
-0.48803710862500793	-2.555901497151572e-24
-0.48797607346875793	-2.272008465504851e-24
-0.48791503831250793	-1.9861784371525768e-24
-0.48785400315625793	-1.698653193864562e-24
-0.48779296800000793	-1.4096908520161227e-24
-0.48773193284375793	-1.1195454720567206e-24
-0.48767089768750793	-8.28461621759476e-25
-0.48760986253125793	-5.366833620574183e-25
-0.48754882737500793	-2.4445729440118917e-25
-0.48748779221875793	4.796013883539157e-26
-0.48742675706250793	3.403119480680626e-25
-0.48736572190625793	6.323511674050087e-25
-0.48730468675000793	9.238292166429463e-25
-0.48724365159375793	1.2144930833008328e-24
-0.48718261643750793	1.5040947294844969e-24
-0.48712158128125793	1.7923855439325578e-24
-0.48706054612500793	2.0791112494847808e-24
-0.48699951096875793	2.3640261167930953e-24
-0.48693847581250793	2.6468907740944688e-24
-0.48687744065625793	2.927459149718128e-24
-0.48681640550000793	3.2054865393395882e-24
-0.48675537034375793	3.480735473990453e-24
-0.48669433518750793	3.752968917291683e-24
-0.48663330003125793	4.021949759036597e-24
-0.48657226487500793	4.287445955821663e-24
-0.48651122971875793	4.54922912944337e-24
-0.48645019456250793	4.8070731547259605e-24
-0.48638915940625793	5.060756676133728e-24
-0.48632812425000793	5.3100596845910744e-24
-0.48626708909375793	5.5547641930297345e-24
-0.48620605393750793	5.7946590375131174e-24
-0.48614501878125793	6.029537766378385e-24
-0.48608398362500793	6.259195512328896e-24
-0.48602294846875793	6.483433826482959e-24
-0.48596191331250793	6.702061951061006e-24
-0.48590087815625793	6.914888707129114e-24
-0.48583984300000793	7.121723700594446e-24
-0.48577880784375793	7.322387366399956e-24
-0.48571777268750793	7.516710954624376e-24
-0.48565673753125793	7.704527362854095e-24
-0.48559570237500793	7.885669998870747e-24
-0.48553466721875793	8.059978747008667e-24
-0.48547363206250793	8.227303749674788e-24
-0.48541259690625793	8.387498756515848e-24
-0.48535156175000793	8.540422239510904e-24
-0.48529052659375793	8.685941091692917e-24
-0.48522949143750793	8.823930591573678e-24
-0.48516845628125793	8.954271239445604e-24
-0.48510742112500793	9.076846947688722e-24
-0.48504638596875793	9.19154735470203e-24
-0.48498535081250793	9.298271326434037e-24
-0.48492431565625793	9.396927089837857e-24
-0.48486328050000793	9.487427890911015e-24
-0.48480224534375793	9.569694693654054e-24
-0.48474121018750793	9.643652480011409e-24
-0.48468017503125793	9.709234748670721e-24
-0.48461913987500793	9.766384266622861e-24
-0.48455810471875793	9.815049628792293e-24
-0.48449706956250793	9.855185665407178e-24
-0.48443603440625793	9.886755172241223e-24
-0.48437499925000793	9.909729610438336e-24
-0.48431396409375793	9.924088460828525e-24
-0.48425292893750793	9.929816202625455e-24
-0.48419189378125793	9.926904172529345e-24
-0.48413085862500793	9.915353744748246e-24
-0.48406982346875793	9.895172535222035e-24
-0.48400878831250793	9.866376647056947e-24
-0.48394775315625793	9.828988406944787e-24
-0.48388671800000793	9.783036619204275e-24
-0.48382568284375793	9.728559428931642e-24
-0.48376464768750793	9.66560367687349e-24
-0.48370361253125793	9.594219939289353e-24
-0.48364257737500793	9.514467166731232e-24
-0.48358154221875793	9.426413924435182e-24
-0.48352050706250793	9.330132522750896e-24
-0.48345947190625793	9.225703445068793e-24
-0.48339843675000793	9.113217719742293e-24
-0.48333740159375793	8.99277119725651e-24
-0.48327636643750793	8.86446204336801e-24
-0.48321533128125793	8.728399047680742e-24
-0.48315429612500793	8.58470142459445e-24
-0.48309326096875793	8.433490594629021e-24
-0.48303222581250793	8.274893338207594e-24
-0.48297119065625793	8.10904792873867e-24
-0.48291015550000793	7.936097044452963e-24
-0.48284912034375793	7.756184907133523e-24
-0.48278808518750793	7.569464552642042e-24
-0.48272705003125793	7.376096561148587e-24
-0.48266601487500793	7.176247835980072e-24
-0.48260497971875793	6.970093189574332e-24
-0.48254394456250793	6.757807582107368e-24
-0.48248290940625793	6.539569474819538e-24
-0.48242187425000793	6.3155687125539415e-24
-0.48236083909375793	6.085998114621973e-24
-0.48229980393750793	5.851054238782363e-24
-0.48223876878125793	5.610941614426855e-24
-0.48217773362500793	5.365865320951904e-24
-0.48211669846875793	5.116031644898409e-24
-0.48205566331250793	4.861659117848113e-24
-0.48199462815625793	4.602975582214221e-24
-0.48193359300000793	4.340202227540068e-24
-0.48187255784375793	4.0735543848764134e-24
-0.48181152268750793	3.803261427430571e-24
-0.48175048753125793	3.5295667835111405e-24
-0.48168945237500793	3.252708685999479e-24
-0.48162841721875793	2.972922124350191e-24
-0.48156738206250793	2.6904468163951656e-24
-0.48150634690625793	2.4055275156879524e-24
-0.48144531175000793	2.1184136613221867e-24
-0.48138427659375793	1.829352866553199e-24
-0.48132324143750793	1.5385941932274166e-24
-0.48126220628125793	1.2463917277303268e-24
-0.48120117112500793	9.52996402841953e-25
-0.48114013596875793	6.586618644295247e-25
-0.48107910081250793	3.636484396508702e-25
-0.48101806565625793	6.821233932155212e-26
-0.48095703050000793	-2.2739512783694143e-25
-0.48089599534375793	-5.229204846667444e-25
-0.48083496018750793	-8.181026287747651e-25
-0.48077392503125793	-1.1126788568213308e-24
-0.48071288987500793	-1.4063952511544246e-24
-0.48065185471875793	-1.699000737002015e-24
-0.48059081956250793	-1.9902408555748828e-24
-0.48052978440625793	-2.279861698285516e-24
-0.48046874925000793	-2.5676100838809467e-24
-0.48040771409375793	-2.8532320283681226e-24
-0.48034667893750793	-3.1364776950064114e-24
-0.48028564378125793	-3.417105474163176e-24
-0.48022460862500793	-3.694872117822242e-24
-0.48016357346875793	-3.9695299907083854e-24
-0.48010253831250793	-4.24083946551182e-24
-0.48004150315625793	-4.50856491348957e-24
-0.47998046800000793	-4.772469512316351e-24
-0.47991943284375793	-5.0323221239346796e-24
-0.47985839768750793	-5.287897977179739e-24
-0.47979736253125793	-5.538977062013719e-24
-0.47973632737500793	-5.7853396433031765e-24
-0.47967529221875793	-6.026762711869422e-24
-0.47961425706250793	-6.263030498162654e-24
-0.47955322190625793	-6.493940865682443e-24
-0.47949218675000793	-6.719295510430158e-24
-0.47943115159375793	-6.938894624082967e-24
-0.47937011643750793	-7.15254126632749e-24
-0.47930908128125793	-7.360047144335434e-24
-0.47924804612500793	-7.561233845413043e-24
-0.47918701096875793	-7.755923572620311e-24
-0.47912597581250793	-7.943937599690713e-24
-0.47906494065625793	-8.125111358979187e-24
-0.47900390550000793	-8.299291428181266e-24
-0.47894287034375793	-8.466320860018183e-24
-0.47888183518750793	-8.626047399087888e-24
-0.47882080003125793	-8.778330924939002e-24
-0.47875976487500793	-8.923037568377769e-24
-0.47869872971875793	-9.060037690524655e-24
-0.47863769456250793	-9.18920775630048e-24
-0.47857665940625793	-9.31043358164223e-24
-0.47851562425000793	-9.423607061801709e-24
-0.47845458909375793	-9.528624134211151e-24
-0.47839355393750793	-9.625389730002826e-24
-0.47833251878125793	-9.713818086979607e-24
-0.47827148362500793	-9.793830043907631e-24
-0.47821044846875793	-9.865350281467613e-24
-0.47814941331250793	-9.928312331730933e-24
-0.47808837815625793	-9.98266103211849e-24
-0.47802734300000793	-1.0028344359836792e-23
-0.47796630784375793	-1.0065315817591359e-23
-0.47790527268750793	-1.0093541216228966e-23
-0.47784423753125793	-1.0112994000702601e-23
-0.47778320237500793	-1.0123652239838049e-23
-0.47772216721875793	-1.0125503287770695e-23
-0.47766113206250793	-1.0118542887688132e-23
-0.47760009690625793	-1.0102772114888162e-23
-0.47753906175000793	-1.0078200193696346e-23
-0.47747802659375793	-1.004484480207201e-23
-0.47741699143750793	-1.0002732356305203e-23
-0.47735595628125793	-9.951896940379716e-24
-0.47729492112500793	-9.892378486067699e-24
-0.47723388596875793	-9.824223205116975e-24
-0.47717285081250793	-9.747485641077433e-24
-0.47711181565625793	-9.662230882335395e-24
-0.47705078050000793	-9.568531871586558e-24
-0.47698974534375793	-9.466465584898733e-24
-0.47692871018750793	-9.356115323469073e-24
-0.47686767503125793	-9.237573273816678e-24
-0.47680663987500793	-9.110939099706468e-24
-0.47674560471875793	-8.976321545621718e-24
-0.47668456956250793	-8.833833968855352e-24
-0.47662353440625793	-8.683596077080138e-24
-0.47656249925000793	-8.525736275541116e-24
-0.47650146409375793	-8.360389698741981e-24
-0.47644042893750793	-8.187694280772038e-24
-0.47637939378125793	-8.00779432029494e-24
-0.47631835862500793	-7.820847023975017e-24
-0.47625732346875793	-7.627018167123812e-24
-0.47619628831250793	-7.426471142676528e-24
-0.47613525315625793	-7.219370600481848e-24
-0.47607421800000793	-7.005895387588211e-24
-0.47601318284375793	-6.786229792890043e-24
-0.47595214768750793	-6.560562728758629e-24
-0.47589111253125793	-6.329091391541955e-24
-0.47583007737500793	-6.092016439331647e-24
-0.47576904221875793	-5.8495370230758104e-24
-0.47570800706250793	-5.6018595066262554e-24
-0.47564697190625793	-5.349200249977978e-24
-0.47558593675000793	-5.091778073980617e-24
-0.47552490159375793	-4.829812205589866e-24
-0.47546386643750793	-4.563531204414018e-24
-0.47540283128125793	-4.293169365769937e-24
-0.47534179612500793	-4.0189556256472476e-24
-0.47528076096875793	-3.741124188820459e-24
-0.47521972581250793	-3.459916447671367e-24
-0.47515869065625793	-3.175577740415592e-24
-0.47509765550000793	-2.888356752624564e-24
-0.47503662034375793	-2.5985012870823674e-24
-0.47497558518750793	-2.3062589795440984e-24
-0.47491455003125793	-2.0118857840661357e-24
-0.47485351487500793	-1.715637633643147e-24
-0.47479247971875793	-1.4177686225376533e-24
-0.47473144456250793	-1.1185398187493816e-24
-0.47467040940625793	-8.182117996687962e-25
-0.47460937425000793	-5.17044462832103e-25
-0.47454833909375793	-2.1530242968792453e-25
-0.47448730393750793	8.675378572321174e-26
-0.47442626878125793	3.888677186472395e-25
-0.47436523362500793	6.907707473511119e-25
-0.47430419846875793	9.921919481632152e-25
-0.47424316331250793	1.2928753553629934e-24
-0.47418212815625793	1.5925668980946483e-24
-0.47412109300000793	1.8910014280273935e-24
-0.47406005784375793	2.1879122700951753e-24
-0.47399902268750793	2.4830396918945867e-24
-0.47393798753125793	2.7761267560848204e-24
-0.47387695237500793	3.0669184107436528e-24
-0.47381591721875793	3.3551664585760496e-24
-0.47375488206250793	3.640621699132472e-24
-0.47369384690625793	3.92302849044297e-24
-0.47363281175000793	4.202134776212792e-24
-0.47357177659375793	4.477695550053357e-24
-0.47351074143750793	4.749471446516346e-24
-0.47344970628125793	5.017229218034377e-24
-0.47338867112500793	5.280736811330729e-24
-0.47332763596875793	5.5397578241913326e-24
-0.47326660081250793	5.794062309594998e-24
-0.47320556565625793	6.043431777562127e-24
-0.47314453050000793	6.28764763118784e-24
-0.47308349534375793	6.526492098913388e-24
-0.47302246018750793	6.75975286054293e-24
-0.47296142503125793	6.987223442886541e-24
-0.47290038987500793	7.20870904838361e-24
-0.47283935471875793	7.424021313184678e-24
-0.47277831956250793	7.632965062078352e-24
-0.47271728440625793	7.835347229033975e-24
-0.47265624925000793	8.030991592393427e-24
-0.47259521409375793	8.219730746765625e-24
-0.47253417893750793	8.401398418600382e-24
-0.47247314378125793	8.575833467645773e-24
-0.47241210862500793	8.742878622624038e-24
-0.47235107346875793	8.9023832426306e-24
-0.47229003831250793	9.054208510105852e-24
-0.47222900315625793	9.198222551156715e-24
-0.47216796800000793	9.334295608844354e-24
