Time	Frequency
-0.5000106555937549	-0.5609928462688698
-0.4999496204375049	-0.5621531576100578
-0.4998885852812549	-0.5628977444989718
-0.4998275501250049	-0.5632439523867534
-0.4997665149687549	-0.5631798349604689
-0.4997054798125049	-0.5627039543753365
-0.4996444446562549	-0.5618300890876553
-0.4995834095000049	-0.5605407523497945
-0.4995223743437549	-0.5588489188193069
-0.4994613391875049	-0.5567561239017241
-0.4994003040312549	-0.5542511617126893
-0.4993392688750049	-0.5513533995954987
-0.4992782337187549	-0.5480519493161706
-0.4992171985625049	-0.5443499183578808
-0.4991561634062549	-0.5402618257743772
-0.4990951282500049	-0.5357730062637561
-0.4990340930937549	-0.530899801613976
-0.4989730579375049	-0.5256440132475889
-0.4989120227812549	-0.519998655837894
-0.4988509876250049	-0.5139848471756756
-0.4987899524687549	-0.5075932380631601
-0.4987289173125049	-0.5008311397627345
-0.4986678821562549	-0.4937132384267974
-0.4986068470000049	-0.4862281222221592
-0.4985458118437549	-0.4783949269188136
-0.4984847766875049	-0.47021554548023403
-0.4984237415312549	-0.4616876428989964
-0.4983627063750049	-0.4528335974698335
-0.4983016712187549	-0.44364546801378213
-0.4982406360625049	-0.43413435502800485
-0.4981796009062549	-0.4243144940853272
-0.4981185657500049	-0.4141777842487445
-0.4980575305937549	-0.4037463265610132
-0.4979964954375049	-0.39302235241873795
-0.4979354602812549	-0.3820071916335165
-0.4978744251250049	-0.37072330384694785
-0.4978133899687549	-0.35916448046169314
-0.4977523548125049	-0.3473456988823636
-0.4976913196562549	-0.33528069677388544
-0.4976302845000049	-0.32296444968929383
-0.4975692493437549	-0.3104206499522556
-0.4975082141875049	-0.29765127238655126
-0.4974471790312549	-0.2846619402665216
-0.4973861438750049	-0.2714750792773022
-0.4973251087187549	-0.2580851485952064
-0.4972640735625049	-0.2445104053546102
-0.4972030384062549	-0.23076436734113262
-0.4971420032500049	-0.21684459485145985
-0.4970809680937549	-0.20277534358248994
-0.4970199329375049	-0.1885582215662116
-0.4969588977812549	-0.17420244624934
-0.4968978626250049	-0.15973018318638668
-0.4968368274687549	-0.14513727987295472
-0.4967757923125049	-0.13044376423820989
-0.4967147571562549	-0.11566111465397287
-0.4966537220000049	-0.10078982633362105
-0.4965926868437549	-0.08585556173068219
-0.4965316516875049	-0.07085906989908868
-0.4964706165312549	-0.05581165030605996
-0.4964095813750049	-0.04073428800325533
-0.4963485462187549	-0.025623692401212265
-0.4962875110625049	-0.010501714458943464
-0.4962264759062549	0.00462166542400358
-0.4961654407500049	0.019744186918469683
-0.4961044055937549	0.034840552746127795
-0.4960433704375049	0.04991073953873321
-0.4959823352812549	0.06494132176714168
-0.4959213001250049	0.07991343395942839
-0.4958602649687549	0.09482978954459942
-0.4957992298125049	0.10966728377946434
-0.4957381946562549	0.12441828111203874
-0.4956771595000049	0.13907894063286666
-0.4956161243437549	0.1536249371125792
-0.4955550891875049	0.1680580547399662
-0.4954940540312549	0.182363002208089
-0.4954330188750049	0.19652278844705337
-0.4953719837187549	0.21054025268066973
-0.4953109485625049	0.22439236664824136
-0.4952499134062549	0.23807454663697386
-0.4951888782500049	0.2515813306004524
-0.4951278430937549	0.26488937273590885
-0.4950668079375049	0.27800269053770893
-0.4950057727812549	0.29090511326474516
-0.4949447376250049	0.303583014906967
-0.4948837024687549	0.31603986579521204
-0.4948226673125049	0.32825184617710046
-0.4947616321562549	0.34021711785048137
-0.4947005970000049	0.351930146073226
-0.4946395618437549	0.36337013172835636
-0.4945785266875049	0.3745435139546994
-0.4945174915312549	0.3854333901086465
-0.4944564563750049	0.396029173007529
-0.4943954212187549	0.4063347180090482
-0.4943343860625049	0.41632711113827586
-0.4942733509062549	0.4260088054929174
-0.4942123157500049	0.43537417570818265
-0.4941512805937549	0.4444045424712595
-0.4940902454375049	0.453108497300777
-0.4940292102812549	0.461469053169324
-0.4939681751250049	0.4694797503719863
-0.4939071399687549	0.4771456152859115
-0.4938461048125049	0.48444531535723684
-0.4937850696562549	0.491384995047183
-0.4937240345000049	0.497958308588286
-0.4936629993437549	0.5041500532767931
-0.4936019641875049	0.509972025841402
-0.4935409290312549	0.5154070098861784
-0.4934798938750049	0.5204529773523862
-0.4934188587187549	0.5251162579208831
-0.4933578235625049	0.5293766705310498
-0.4932967884062549	0.5332447594505697
-0.4932357532500049	0.53671477329444
-0.4931747180937549	0.5397746758083917
-0.4931136829375049	0.5424389069895049
-0.4930526477812549	0.5446908884856652
-0.4929916126250049	0.5465330776291053
-0.4929305774687549	0.5479729463308753
-0.4928695423125049	0.5489925452043206
-0.4928085071562549	0.5496065619106772
-0.4927474720000049	0.5498094277023178
-0.4926864368437549	0.5495929643558601
-0.4926254016875049	0.5489741551692693
-0.4925643665312549	0.5479372783856421
-0.4925033313750049	0.5464895603304867
-0.4924422962187549	0.5446393932855668
-0.4923812610625049	0.5423713122076703
-0.4923202259062549	0.5397038237320619
-0.4922591907500049	0.5366316239988884
-0.4921981555937549	0.5331509314123212
-0.4921371204375049	0.5292808932259088
-0.4920760852812549	0.525006743989346
-0.4920150501250049	0.5203403117682044
-0.4919540149687549	0.5152906106671574
-0.4918929798125049	0.5098450899825159
-0.4918319446562549	0.5040259170203596
-0.4917709095000049	0.4978280707157838
-0.4917098743437549	0.4912517550140156
-0.4916488391875049	0.48431779452137697
-0.4915878040312549	0.47701299620304105
-0.4915267688750049	0.46935344817967867
-0.4914657337187549	0.4613485981018902
-0.4914046985625049	0.45298890144259113
-0.4913436634062549	0.444299171646026
-0.4912826282500049	0.4352747215941404
-0.4912215930937549	0.4259199263954883
-0.4911605579375049	0.41625698344318435
-0.4910995227812549	0.4062745419972084
-0.4910384876250049	0.3959918808257683
-0.4909774524687549	0.3854180978975676
-0.4909164173125049	0.3745470720720765
-0.4908553821562549	0.3634060174148301
-0.4907943470000049	0.35199093033189754
-0.4907333118437549	0.3403096517542742
-0.4906722766875049	0.3283843124524965
-0.4906112415312549	0.3162058475693203
-0.4905502063750049	0.3037963829150593
-0.4904891712187549	0.29116413097613447
-0.4904281360625049	0.27830652313575865
-0.4903671009062549	0.265252375379546
-0.4903060657500049	0.2519983032043999
-0.4902450305937549	0.23855517059451192
-0.4901839954375049	0.2249436363258858
-0.4901229602812549	0.21115660724618646
-0.4900619251250049	0.1972193190175891
-0.4900008899687549	0.18313990150992
-0.4899398548125049	0.16891854472729279
-0.4898788196562549	0.1545828677251425
-0.4898177845000049	0.14012951986652158
-0.4897567493437549	0.12557330425807509
-0.4896957141875049	0.11093418098275239
-0.4896346790312549	0.09620692199610457
-0.4895736438750049	0.08141743206322097
-0.4895126087187549	0.06657181830539832
-0.4894515735625049	0.05167339081233581
-0.4893905384062549	0.036749908342199586
-0.4893295032500049	0.02179823588996545
-0.4892684680937549	0.006834987989033101
-0.4892074329375049	-0.008122123803877182
-0.4891463977812549	-0.023076859976663314
-0.4890853626250049	-0.03800285293708107
-0.4890243274687549	-0.05289488868344624
-0.4889632923125049	-0.06774676443210892
-0.4889022571562549	-0.08253320112730735
-0.4888412220000049	-0.09725844140359265
-0.4887801868437549	-0.11190374728330069
-0.4887191516875049	-0.1264532053873538
-0.4886581165312549	-0.14090897358190893
-0.4885970813750049	-0.1552451956417768
-0.4885360462187549	-0.16945967223575953
-0.4884750110625049	-0.1835447630727845
-0.4884139759062549	-0.19747644605436235
-0.4883529407500049	-0.21125885412384546
-0.4882919055937549	-0.2248729485105552
-0.4882308704375049	-0.2383063454141971
-0.4881698352812549	-0.25156021357639313
-0.4881088001250049	-0.2646096896294453
-0.4880477649687549	-0.27745471942678274
-0.4879867298125049	-0.29008610604646534
-0.4879256946562549	-0.3024832469346964
-0.4878646595000049	-0.31465170103891527
-0.4878036243437549	-0.32657126832036165
-0.4877425891875049	-0.3382326773672362
-0.4876815540312549	-0.3496378104446361
-0.4876205188750049	-0.3607634546091485
-0.4875594837187549	-0.3716114973997377
-0.4874984485625049	-0.3821724020866876
-0.4874374134062549	-0.3924290089328635
-0.4873763782500049	-0.40238753888011053
-0.4873153430937549	-0.4120288507268193
-0.4872543079375049	-0.42134823079279743
-0.4871932727812549	-0.4303464790748675
-0.4871322376250049	-0.4390020813209067
-0.4870712024687549	-0.4473207543848956
-0.4870101673125049	-0.45529301338232053
-0.4869491321562549	-0.4629052330917972
-0.4868880970000049	-0.47016508980513416
-0.4868270618437549	-0.4770541772219347
-0.4867660266875049	-0.483571861952183
-0.4867049915312549	-0.48971956615982887
-0.4866439563750049	-0.4954787368990816
-0.4865829212187549	-0.500857976465574
-0.4865218860625049	-0.5058474168131096
-0.4864608509062549	-0.510438005350755
-0.4863998157500049	-0.5146396435194821
-0.4863387805937549	-0.5184348626840337
-0.4862777454375049	-0.5218272471763031
-0.4862167102812549	-0.5248186138869978
-0.4861556751250049	-0.5273934398184548
-0.4860946399687549	-0.5295640350529263
-0.4860336048125049	-0.5313209633766408
-0.4859725696562549	-0.5326594341644926
-0.4859115345000049	-0.5335909023266885
-0.4858504993437549	-0.5340994794605117
-0.4857894641875049	-0.5341935810057906
-0.4857284290312549	-0.5338753969008506
-0.4856673938750049	-0.5331326291658327
-0.4856063587187549	-0.5319811892548446
-0.4855453235625049	-0.5304119418428074
-0.4854842884062549	-0.5284245767819552
-0.4854232532500049	-0.5260325352816949
-0.4853622180937549	-0.5232216648229657
-0.4853011829375049	-0.520004561870731
-0.4852401477812549	-0.5163838897140637
-0.4851791126250049	-0.5123512367320449
-0.4851180774687549	-0.5079256134847419
-0.4850570423125049	-0.5030981715350401
-0.4849960071562549	-0.49787344306188136
-0.4849349720000049	-0.4922660484889146
-0.4848739368437549	-0.48626367090446776
-0.4848129016875049	-0.47988400056882474
-0.4847518665312549	-0.47312946333022277
-0.4846908313750049	-0.46599460082132904
-0.4846297962187549	-0.458501933577479
-0.4845687610625049	-0.45064307183103897
-0.4845077259062549	-0.44242716358922896
-0.4844466907500049	-0.43387024185679807
-0.4843856555937549	-0.4249611023436938
-0.4843246204375049	-0.4157211914747714
-0.4842635852812549	-0.40615346436325134
-0.4842025501250049	-0.3962563156357728
-0.4841415149687549	-0.38605475439956144
-0.4840804798125049	-0.3755403532538915
-0.4840194446562549	-0.3647260588757037
-0.4839584095000049	-0.35362863103239184
-0.4838973743437549	-0.3422393614895965
-0.4838363391875049	-0.33058334383347854
-0.4837753040312549	-0.3186625662731878
-0.4837142688750049	-0.30647857526976957
-0.4836532337187549	-0.29405838184956246
-0.4835921985625049	-0.28139432810379306
-0.4835311634062549	-0.26850332870151006
-0.4834701282500049	-0.2554012792571396
-0.4834090930937549	-0.24208103336023323
-0.4833480579375049	-0.22857095493433663
-0.4832870227812549	-0.21487275668726122
-0.4832259876250049	-0.20099144925129586
-0.4831649524687549	-0.18695436502547047
-0.4831039173125049	-0.17275348636068089
-0.4830428821562549	-0.15840931119352117
-0.4829818470000049	-0.1439371906809783
-0.4829208118437549	-0.1293318147721629
-0.4828597766875049	-0.11462365631363118
-0.4827987415312549	-0.09981331375652429
-0.4827377063750049	-0.08490843767067988
-0.4826766712187549	-0.06993619584138118
-0.4826156360625049	-0.054888528813853185
-0.4825546009062549	-0.039788595540662795
-0.4824935657500049	-0.024650676726116313
-0.4824325305937549	-0.009471411938052215
-0.4823714954375049	0.005717825156656513
-0.4823104602812549	0.020918615573324115
-0.4822494251250049	0.03612134762730741
-0.4821883899687549	0.05129881679871045
-0.4821273548125049	0.0664586246030238
-0.4820663196562549	0.08157659218704245
-0.4820052845000049	0.09664031703216648
-0.4819442493437549	0.11165185704341551
-0.4818832141875049	0.12658057253371358
-0.4818221790312549	0.14142856715903193
-0.4817611438750049	0.15618403448012652
-0.4817001087187549	0.17082277993223474
-0.4816390735625049	0.18535244941926257
-0.4815780384062549	0.199747825497739
-0.4815170032500049	0.213998913705101
-0.4814559680937549	0.2281061566198123
-0.4813949329375049	0.24204046108961316
-0.4813338977812549	0.25580590972921863
-0.4812728626250049	0.2693895410102012
-0.4812118274687549	0.2827700886291602
-0.4811507923125049	0.2959545315152479
-0.4810897571562549	0.308917710052928
-0.4810287220000049	0.32165350072975896
-0.4809676868437549	0.33416142869541815
-0.4809066516875049	0.3464143425189258
-0.4808456165312549	0.35841791544744406
-0.4807845813750049	0.37015843047525454
-0.4807235462187549	0.38161843213679725
-0.4806625110625049	0.3928052707126908
-0.4806014759062549	0.4036949275815288
-0.4805404407500049	0.4142844392362953
-0.4804794055937549	0.42457258059838926
-0.4804183704375049	0.434535583339779
-0.4803573352812549	0.44418078255139093
-0.4802963001250049	0.45349425289655304
-0.4802352649687549	0.4624632116780753
-0.4801742298125049	0.4710953008161454
-0.4801131946562549	0.47936791903540565
-0.4800521595000049	0.4872818578190495
-0.4799911243437549	0.49483563996853736
-0.4799300891875049	0.5020093870192569
-0.4798690540312549	0.508812634172477
-0.4798080188750049	0.5152315659990966
-0.4797469837187549	0.5212578441676481
-0.4796859485625049	0.5268998839636972
-0.4796249134062549	0.5321375520738053
-0.4795638782500049	0.5369753859970074
-0.4795028430937549	0.5414117194522274
-0.4794418079375049	0.5454309481558237
-0.4793807727812549	0.5490450122588638
-0.4793197376250049	0.5522409286910129
-0.4792587024687549	0.555015001595131
-0.4791976673125049	0.557376171350687
-0.4791366321562549	0.5593070492692599
-0.4790755970000049	0.5608164826825514
-0.4790145618437549	0.5619030759680752
-0.4789535266875049	0.56255522235311
-0.4788924915312549	0.5627872179789917
-0.4788314563750049	0.562587493627962
-0.4787704212187549	0.5619569291227353
-0.4787093860625049	0.560905227280617
-0.4786483509062549	0.5594183232248746
-0.4785873157500049	0.5575087825694317
-0.4785262805937549	0.5551754017809832
-0.4784652454375049	0.5524112933661187
-0.4784042102812549	0.5492328596110908
-0.4783431751250049	0.5456298350911976
-0.4782821399687549	0.5416080400775778
-0.4782211048125049	0.5371778009790315
-0.4781600696562549	0.532328120350048
-0.4780990345000049	0.5270754258457617
-0.4780379993437549	0.521418814399115
-0.4779769641875049	0.5153558525461149
-0.4779159290312549	0.5089050371209831
-0.4778548938750049	0.5020573706963011
-0.4777938587187549	0.49482336852097764
-0.4777328235625049	0.4872139101925145
-0.4776717884062549	0.47922088553851305
-0.4776107532500049	0.47086443353806046
-0.4775497180937549	0.4621440304608124
-0.4774886829375049	0.4530614265949641
-0.4774276477812549	0.44363666508859073
-0.4773666126250049	0.43386203827716335
-0.4773055774687549	0.42375241608775865
-0.4772445423125049	0.4133188043991032
-0.4771835071562549	0.40255652546098697
-0.4771224720000049	0.39148888466472603
-0.4770614368437549	0.3801146296343411
-0.4770004016875049	0.3684398376976385
-0.4769393665312549	0.3564859987508774
-0.4768783313750049	0.3442460757199987
-0.4768172962187549	0.33173940278811315
-0.4767562610625049	0.3189771183634527
-0.4766952259062549	0.30595648818840615
-0.4766341907500049	0.29270315576704914
-0.4765731555937549	0.27921618112108376
-0.4765121204375049	0.265505438539202
-0.4764510852812549	0.2515925899536127
-0.4763900501250049	0.2374718553054593
-0.4763290149687549	0.22316626367822756
-0.4762679798125049	0.20868538641445206
-0.4762069446562549	0.19402905696880074
-0.4761459095000049	0.17922547304548614
-0.4760848743437549	0.1642725041153451
-0.4760238391875049	0.14918346455551812
-0.4759628040312549	0.13398009455956209
-0.4759017688750049	0.11865663893537291
-0.4758407337187549	0.10323974323390503
-0.4757796985625049	0.08773770237780894
-0.4757186634062549	0.0721514460577488
-0.4756576282500049	0.05651052793290457
-0.4755965930937549	0.04081199764460961
-0.4755355579375049	0.02507234418762415
-0.4754745227812549	0.009312713899446138
-0.4754134876250049	-0.006472955009805144
-0.4753524524687549	-0.022256414534264544
-0.4752914173125049	-0.03803130636823903
-0.4752303821562549	-0.05379407655879296
-0.4751693470000049	-0.06951450838507722
-0.4751083118437549	-0.08519794205433424
-0.4750472766875049	-0.1008258504617449
-0.4749862415312549	-0.1163784260506068
-0.4749252063750049	-0.13186169575421328
-0.4748641712187549	-0.14724605712569883
-0.4748031360625049	-0.16252764762399913
-0.4747421009062549	-0.177701389832084
-0.4746810657500049	-0.19273796486599537
-0.4746200305937549	-0.20764456452277893
-0.4745589954375049	-0.22240062288940912
-0.4744979602812549	-0.2369894526160004
-0.4744369251250049	-0.2514176017561141
-0.4743758899687549	-0.2656539400916641
-0.4743148548125049	-0.27969741312023216
-0.4742538196562549	-0.29354274232108035
-0.4741927845000049	-0.3071623612277207
-0.4741317493437549	-0.32056548822754416
-0.4740707141875049	-0.33373071288153794
-0.4740096790312549	-0.3466438226374062
-0.4739486438750049	-0.3593113270695549
-0.4738876087187549	-0.371703431441367
-0.4738265735625049	-0.3838229407170634
-0.4737655384062549	-0.39566379618808456
-0.4737045032500049	-0.4072006699699531
-0.4736434680937549	-0.4184442074251546
-0.4735824329375049	-0.42937279881104357
-0.4735213977812549	-0.4399769485120111
-0.4734603626250049	-0.4502640581389496
-0.4733993274687549	-0.46020526782105353
-0.4733382923125049	-0.46980616308840195
-0.4732772571562549	-0.47906067763742916
-0.4732162220000049	-0.4879473486570421
-0.4731551868437549	-0.4964789690221877
-0.4730941516875049	-0.5046347822323372
-0.4730331165312549	-0.5124087092993466
-0.4729720813750049	-0.5198081511176766
-0.4729110462187549	-0.5268079839919441
-0.4728500110625049	-0.5334173571874112
-0.4727889759062549	-0.5396296116936662
-0.4727279407500049	-0.5454275529971708
-0.4726669055937549	-0.5508256592026438
-0.4726058704375049	-0.5558047171071879
-0.4725448352812549	-0.5603634143493706
-0.4724838001250049	-0.5645093315222579
-0.4724227649687549	-0.5682207462314164
-0.4723617298125049	-0.5715100057686585
-0.4723006946562549	-0.5743708241826184
-0.4722396595000049	-0.5767910634296967
-0.4721786243437549	-0.5787865974000115
-0.4721175891875049	-0.5803400909520166
-0.4720565540312549	-0.5814549436437217
-0.4719955188750049	-0.5821390343255886
-0.4719344837187549	-0.5823746181251498
-0.4718734485625049	-0.5821771794034077
-0.4718124134062549	-0.5815412114549355
-0.4717513782500049	-0.5804594654877542
-0.4716903430937549	-0.578948923705496
-0.4716293079375049	-0.5769950637486098
-0.4715682727812549	-0.574605793059285
-0.4715072376250049	-0.57178887365665
-0.4714462024687549	-0.5685310896580739
-0.4713851673125049	-0.5648508988457895
-0.4713241321562549	-0.5607435579544513
-0.4712630970000049	-0.5562069559066305
-0.4712020618437549	-0.5512588955452155
-0.4711410266875049	-0.5458874965051526
-0.4710799915312549	-0.5401051912640447
-0.4710189563750049	-0.5339198710505708
-0.4709579212187549	-0.5273227275261372
-0.4708968860625049	-0.5203346556068023
-0.4708358509062549	-0.5129517161252574
-0.4707748157500049	-0.5051768739801185
-0.4707137805937549	-0.4970285930672078
-0.4706527454375049	-0.48849763126365237
-0.4705917102812549	-0.47960054952982245
-0.4705306751250049	-0.4703451289356863
-0.4704696399687549	-0.46072670218608164
-0.4704086048125049	-0.45076839133887947
-0.4703475696562549	-0.44046711816468853
-0.4702865345000049	-0.42983049963935543
-0.4702254993437549	-0.41887723738991983
-0.4701644641875049	-0.4076003447297603
-0.4701034290312549	-0.39602013517824414
-0.4700423938750049	-0.3841445148969361
-0.4699813587187549	-0.371972567623134
-0.4699203235625049	-0.3595286832986906
-0.4698592884062549	-0.34681053960143743
-0.4697982532500049	-0.33382994937898636
-0.4697372180937549	-0.3206054066912358
-0.4696761829375049	-0.30713256656956384
-0.4696151477812549	-0.29343467337125645
-0.4695541126250049	-0.2795185969021634
