Time	Frequency
-0.5000066753437409	9.618540776541319e-24
-0.4999456401874909	9.68023695992899e-24
-0.4998846050312409	9.733770461367569e-24
-0.4998235698749909	9.779331708980524e-24
-0.4997625347187409	9.816485043017793e-24
-0.4997014995624909	9.845432439298205e-24
-0.4996404644062409	9.866241398518971e-24
-0.4995794292499909	9.878537269898534e-24
-0.4995183940937409	9.88263716185325e-24
-0.4994573589374909	9.878474892238615e-24
-0.4993963237812409	9.865789933570294e-24
-0.4993352886249909	9.844959540730117e-24
-0.4992742534687409	9.815802356118727e-24
-0.4992132183124909	9.778206679810941e-24
-0.4991521831562409	9.732548065896524e-24
-0.4990911479999909	9.67856929230906e-24
-0.4990301128437409	9.61632379727675e-24
-0.4989690776874909	9.546131097237108e-24
-0.4989080425312409	9.467702938741375e-24
-0.4988470073749909	9.381244927198773e-24
-0.4987859722187409	9.28698689569752e-24
-0.4987249370624909	9.184671871971427e-24
-0.4986639019062409	9.074631355419765e-24
-0.4986028667499909	8.956980951267614e-24
-0.4985418315937409	8.831534726306673e-24
-0.4984807964374909	8.698703027966532e-24
-0.4984197612812409	8.558496926186237e-24
-0.4983587261249909	8.410850430219675e-24
-0.4982976909687409	8.256202665067406e-24
-0.4982366558124909	8.094471946257212e-24
-0.4981756206562409	7.925726467606719e-24
-0.4981145854999909	7.750386629879335e-24
-0.4980535503437409	7.568324115320402e-24
-0.4979925151874909	7.379752659766673e-24
-0.4979314800312409	7.185025687950849e-24
-0.4978704448749909	6.983992296042975e-24
-0.4978094097187409	6.77699059042702e-24
-0.4977483745624909	6.5642988437312315e-24
-0.4976873394062409	6.345809344537108e-24
-0.4976263042499909	6.121950593415235e-24
-0.4975652690937409	5.892888866718363e-24
-0.4975042339374909	5.6585843685459284e-24
-0.4974431987812409	5.419528119028741e-24
-0.4973821636249909	5.175801219818005e-24
-0.4973211284687409	4.927468601644272e-24
-0.4972600933124909	4.675021275091322e-24
-0.4971990581562409	4.418456264131632e-24
-0.4971380229999909	4.157967526663242e-24
-0.4970769878437409	3.894019032946029e-24
-0.4970159526874909	3.6265556885899735e-24
-0.4969549175312409	3.355892183626269e-24
-0.4968938823749909	3.0824256528875788e-24
-0.4968328472187409	2.806093154379943e-24
-0.4967718120624909	2.5273112098202116e-24
-0.4967107769062409	2.2463743517320428e-24
-0.4966497417499909	1.9632617271088227e-24
-0.4965887065937409	1.6784793953019054e-24
-0.4965276714374909	1.3922095281539756e-24
-0.4964666362812409	1.1044923884719249e-24
-0.4964056011249909	8.158607087237666e-25
-0.4963445659687409	5.263955451839595e-25
-0.4962835308124909	2.3625484878004405e-25
-0.4962224956562409	-5.40323798958771e-26
-0.4961614604999909	-3.444742215591882e-25
-0.4961004253437409	-6.348042425924859e-25
-0.4960393901874909	-9.245524348638054e-25
-0.4959783550312409	-1.2137699301686512e-24
-0.4959173198749909	-1.5020747908483656e-24
-0.4958562847187409	-1.7890984370118853e-24
-0.4957952495624909	-2.0748903191264345e-24
-0.4957342144062409	-2.3589600669559312e-24
-0.4956731792499909	-2.6410667860528582e-24
-0.4956121440937409	-2.9212315206151317e-24
-0.4955511089374909	-3.1989062124027395e-24
-0.4954900737812409	-3.473971192266096e-24
-0.4954290386249909	-3.746353051422555e-24
-0.4953680034687409	-4.0155047735596904e-24
-0.4953069683124909	-4.281437326027277e-24
-0.4952459331562409	-4.543949951380898e-24
-0.4951848979999909	-4.80253639282089e-24
-0.4951238628437409	-5.057296632464892e-24
-0.4950628276874909	-5.3079021177711234e-24
-0.4950017925312409	-5.553953804230883e-24
-0.4949407573749909	-5.7955936984396896e-24
-0.4948797222187409	-6.032376648734817e-24
-0.4948186870624909	-6.2640382554332546e-24
-0.4947576519062409	-6.4906920290328806e-24
-0.4946966167499909	-6.711818117211575e-24
-0.4946355815937409	-6.927320131701586e-24
-0.4945745464374909	-7.137232399951863e-24
-0.4945135112812409	-7.341010301446042e-24
-0.4944524761249909	-7.538717807066852e-24
-0.4943914409687409	-7.73026670868739e-24
-0.4943304058124909	-7.915145727621283e-24
-0.4942693706562409	-8.093539767522395e-24
-0.4942083354999909	-8.265222256720557e-24
-0.4941473003437409	-8.429793791796523e-24
-0.4940862651874909	-8.587508000629072e-24
-0.4940252300312409	-8.737995432730074e-24
-0.4939641948749909	-8.881011744295237e-24
-0.4939031597187409	-9.016815154083396e-24
-0.4938421245624909	-9.144938795197009e-24
-0.4937810894062409	-9.265323004506058e-24
-0.4937200542499909	-9.378154034237642e-24
-0.4936590190937409	-9.48292313372584e-24
-0.4935979839374909	-9.579757759948305e-24
-0.4935369487812409	-9.668721890035015e-24
-0.4934759136249909	-9.749338668413646e-24
-0.4934148784687409	-9.821887362012137e-24
-0.4933538433124909	-9.886276139605198e-24
-0.4932928081562409	-9.942131606453258e-24
-0.4932317729999909	-9.989829032270262e-24
-0.4931707378437409	-1.0029125424679489e-23
-0.4931097026874909	-1.0059809334359075e-23
-0.4930486675312409	-1.008227503491672e-23
-0.4929876323749909	-1.0096158989429134e-23
-0.4929265972187409	-1.010144861253945e-23
-0.4928655620624909	-1.0098487352386267e-23
-0.4928045269062409	-1.008684959512378e-23
-0.4927434917499909	-1.0066720442517509e-23
-0.4926824565937409	-1.0038328041961302e-23
-0.4926214214374909	-1.0001259647889785e-23
-0.4925603862812409	-9.955871732476306e-24
-0.4924993511249909	-9.90223895293672e-24
-0.4924383159687409	-9.84003615901397e-24
-0.4923772808124909	-9.769737114589187e-24
-0.4923162456562409	-9.691255897574073e-24
-0.4922552104999909	-9.604416037211566e-24
-0.4921941753437409	-9.509735135648497e-24
-0.4921331401874909	-9.406994388315545e-24
-0.4920721050312409	-9.296207242562823e-24
-0.4920110698749909	-9.177853956730843e-24
-0.4919500347187409	-9.051631656994151e-24
-0.4918889995624909	-8.917759854975835e-24
-0.4918279644062409	-8.776626584941611e-24
-0.4917669292499909	-8.627912657046132e-24
-0.4917058940937409	-8.472005607794815e-24
-0.4916448589374909	-8.309149022837028e-24
-0.4915838237812409	-8.139091565694303e-24
-0.4915227886249909	-7.962352447875105e-24
-0.4914617534687409	-7.779010855234393e-24
-0.4914007183124909	-7.588936444109762e-24
-0.4913396831562409	-7.392718717836547e-24
-0.4912786479999909	-7.190299913253127e-24
-0.4912176128437409	-6.9817095550015e-24
-0.4911565776874909	-6.767518226137988e-24
-0.4910955425312409	-6.5475657032865755e-24
-0.4910345073749909	-6.322069245668485e-24
-0.4909734722187409	-6.091534614018502e-24
-0.4909124370624909	-5.8557637724526465e-24
-0.4908514019062409	-5.615135836471985e-24
-0.4907903667499909	-5.370025367474108e-24
-0.4907293315937409	-5.120256190764507e-24
-0.4906682964374909	-4.8663478393809175e-24
-0.4906072612812409	-4.608535316759325e-24
-0.4905462261249909	-4.34671937487581e-24
-0.4904851909687409	-4.081497725351805e-24
-0.4904241558124909	-3.812972416211884e-24
-0.4903631206562409	-3.541165424011791e-24
-0.4903020854999909	-3.2666751694495765e-24
-0.4902410503437409	-2.989488830573904e-24
-0.4901800151874909	-2.709791624197969e-24
-0.4901189800312409	-2.4281477874598365e-24
-0.4900579448749909	-2.1444699217492927e-24
-0.4899969097187409	-1.8590811433908176e-24
-0.4899358745624909	-1.5724474927364957e-24
-0.4898748394062409	-1.2844661287987688e-24
-0.4898138042499909	-9.955944819396388e-25
-0.4897527690937409	-7.061813109394247e-25
-0.4896917339374909	-4.161539947237738e-25
-0.4896306987812409	-1.2604666592560394e-25
-0.4895696636249909	1.6392300896177898e-25
-0.4895086284687409	4.537374390017559e-25
-0.4894475933124909	7.428266266674214e-25
-0.4893865581562409	1.0311050488035121e-24
-0.4893255229999909	1.3184471492974712e-24
-0.4892644878437409	1.6042892621977032e-24
-0.4892034526874909	1.88863595606324e-24
-0.4891424175312409	2.171248162122448e-24
-0.4890813823749909	2.451631091063862e-24
-0.4890203472187409	2.729843931175114e-24
-0.4889593120624909	3.005530078158119e-24
-0.4888982769062409	3.2782905157952015e-24
-0.4888372417499909	3.5481975347966626e-24
-0.4887762065937409	3.814802306023829e-24
-0.4887151714374909	4.077821483337683e-24
-0.4886541362812409	4.337302599746106e-24
-0.4885931011249909	4.5927540538320215e-24
-0.4885320659687409	4.844018546597173e-24
-0.4884710308124909	5.091057534978237e-24
-0.4884099956562409	5.333356119844527e-24
-0.4883489604999909	5.570890084660369e-24
-0.4882879253437409	5.803544239689494e-24
-0.4882268901874909	6.030832365056282e-24
-0.4881658550312409	6.252808685533269e-24
-0.4881048198749909	6.469247675359302e-24
-0.4880437847187409	6.67974622549254e-24
-0.4879827495624909	6.884421237955286e-24
-0.4879217144062409	7.082952483770059e-24
-0.4878606792499909	7.275048746271177e-24
-0.4877996440937409	7.460830421668425e-24
-0.4877386089374909	7.639896298555875e-24
-0.4876775737812409	7.812091606124867e-24
-0.4876165386249909	7.977509747292548e-24
-0.4875555034687409	8.135716236479825e-24
-0.4874944683124909	8.2866916232411e-24
-0.4874334331562409	8.430449422131516e-24
-0.4873723979999909	8.566558621175569e-24
-0.4873113628437409	8.695128928114217e-24
-0.4872503276874909	8.81608658293214e-24
-0.4871892925312409	8.929056975222305e-24
-0.4871282573749909	9.03423076917507e-24
-0.4870672222187409	9.131425338633841e-24
-0.4870061870624909	9.220377356456791e-24
-0.4869451519062409	9.301328870800244e-24
-0.4868841167499909	9.373996653948962e-24
-0.4868230815937409	9.438252500504369e-24
-0.4867620464374909	9.494336993218207e-24
-0.4867010112812409	9.541903177349309e-24
-0.4866399761249909	9.580978409007277e-24
-0.4865789409687409	9.611745614808842e-24
-0.4865179058124909	9.63383921103376e-24
-0.4864568706562409	9.647440544493998e-24
-0.4863958354999909	9.652632195291483e-24
-0.4863348003437409	9.649087638063856e-24
-0.4862737651874909	9.637116680371884e-24
-0.4862127300312409	9.616678311677204e-24
-0.4861516948749909	9.58754059839612e-24
-0.4860906597187409	9.550090734153324e-24
-0.4860296245624909	9.504167169481938e-24
-0.4859685894062409	9.449683298430716e-24
-0.4859075542499909	9.387041778641523e-24
-0.4858465190937409	9.315986991046287e-24
-0.4857854839374909	9.236606478985727e-24
-0.4857244487812409	9.149251435002782e-24
-0.4856634136249909	9.053621130007395e-24
-0.4856023784687409	8.949985168719933e-24
-0.4855413433124909	8.838587106366986e-24
-0.4854803081562409	8.719139944384844e-24
-0.4854192729999909	8.59207098360598e-24
-0.4853582378437409	8.457486247024887e-24
-0.4852972026874909	8.315183057006563e-24
-0.4852361675312409	8.165689369436374e-24
-0.4851751323749909	8.00895905108071e-24
-0.4851140972187409	7.844934135056349e-24
-0.4850530620624909	7.674178040281232e-24
-0.4849920269062409	7.496523420778767e-24
-0.4849309917499909	7.31210175618472e-24
-0.4848699565937409	7.121427532107012e-24
-0.4848089214374909	6.924248528636542e-24
-0.4847478862812409	6.72089057772094e-24
-0.4846868511249909	6.511765143648029e-24
-0.4846258159687409	6.296625323107131e-24
-0.4845647808124909	6.0759676781934805e-24
-0.4845037456562409	5.850030563552579e-24
-0.4844427104999909	5.6186330055052684e-24
-0.4843816753437409	5.3824047564105296e-24
-0.4843206401874909	5.141418734945283e-24
-0.4842596050312409	4.895627379376051e-24
-0.4841985698749909	4.6457020128315115e-24
-0.4841375347187409	4.3915569552457555e-24
-0.4840764995624909	4.1333260765849795e-24
-0.4840154644062409	3.8716514204709414e-24
-0.4839544292499909	3.606351085411593e-24
-0.4838933940937409	3.3377592594937835e-24
-0.4838323589374909	3.0664007075737276e-24
-0.4837713237812409	2.7920510817074485e-24
-0.4837102886249909	2.5152287363230306e-24
-0.4836492534687409	2.2363035589203542e-24
-0.4835882183124909	1.955093953942168e-24
-0.4835271831562409	1.6722465457648927e-24
-0.4834661479999909	1.387943869413362e-24
-0.4834051128437409	1.1021198999441996e-24
-0.4833440776874909	8.154901076451416e-25
-0.4832830425312409	5.28063626057532e-25
-0.4832220073749909	2.3992624235208705e-25
-0.4831609722187409	-4.8233732626751214e-26
-0.4830999370624909	-3.36529254143306e-25
-0.4830389019062409	-6.246724106530208e-25
-0.4829778667499909	-9.120690736922212e-25
-0.4829168315937409	-1.1989167755829402e-24
-0.4828557964374909	-1.4847637346490867e-24
-0.4827947612812409	-1.7691605405250478e-24
-0.4827337261249909	-2.05228287150895e-24
-0.4826726909687409	-2.3335349768162877e-24
-0.4826116558124909	-2.6126553475302727e-24
-0.4825506206562409	-2.889758809992699e-24
-0.4824895854999909	-3.164185087266607e-24
-0.4824285503437409	-3.4358475198673485e-24
-0.4823675151874909	-3.704719505982223e-24
-0.4823064800312409	-3.97013326730221e-24
-0.4822454448749909	-4.232153337496763e-24
-0.4821844097187409	-4.490603887518797e-24
-0.4821233745624909	-4.7448926931261325e-24
-0.4820623394062409	-4.995179623828901e-24
-0.4820013042499909	-5.24113367598157e-24
-0.4819402690937409	-5.482293352197001e-24
-0.4818792339374909	-5.718846267734488e-24
-0.4818181987812409	-5.950318489724417e-24
-0.4817571636249909	-6.1764057546042e-24
-0.4816961284687409	-6.397280058979627e-24
-0.4816350933124909	-6.6124038292368395e-24
-0.4815740581562409	-6.821641942419707e-24
-0.4815130229999909	-7.025067526649653e-24
-0.4814519878437409	-7.22211548807497e-24
-0.4813909526874909	-7.412809304034445e-24
-0.4813299175312409	-7.597108676828725e-24
-0.4812688823749909	-7.7744924790288e-24
-0.4812078472187409	-7.945103888150232e-24
-0.4811468120624909	-8.108773120598619e-24
-0.4810857769062409	-8.265070751985818e-24
-0.4810247417499909	-8.414208186875611e-24
-0.4809637065937409	-8.555902608875707e-24
-0.4809026714374909	-8.689856684859142e-24
-0.4808416362812409	-8.816289734432122e-24
-0.4807806011249909	-8.934834155080359e-24
-0.4807195659687409	-9.045352833469772e-24
-0.4806585308124909	-9.14803135254889e-24
-0.4805974956562409	-9.242456927562527e-24
-0.4805364604999909	-9.328639237644565e-24
-0.4804754253437409	-9.406686611558786e-24
-0.4804143901874909	-9.47619844186514e-24
-0.4803533550312409	-9.537321128171857e-24
-0.4802923198749909	-9.590066157307666e-24
-0.4802312847187409	-9.63408821424895e-24
-0.4801702495624909	-9.669627818890582e-24
-0.4801092144062409	-9.696593263598756e-24
-0.4800481792499909	-9.714739510195272e-24
-0.4799871440937409	-9.72436191901696e-24
-0.4799261089374909	-9.725280924590718e-24
-0.4798650737812409	-9.717379399107088e-24
-0.4798040386249909	-9.700956016050592e-24
-0.4797430034687409	-9.675768477336106e-24
-0.4796819683124909	-9.641846829923393e-24
-0.4796209331562409	-9.599453755370336e-24
-0.4795598979999909	-9.548317598931665e-24
-0.4794988628437409	-9.48860627154094e-24
-0.4794378276874909	-9.420513633149319e-24
-0.4793767925312409	-9.343791940368149e-24
-0.4793157573749909	-9.258728975642675e-24
-0.4792547222187409	-9.165420786693096e-24
-0.4791936870624909	-9.063684911896147e-24
-0.4791326519062409	-8.95389778326825e-24
-0.4790716167499909	-8.836057289850139e-24
-0.4790105815937409	-8.710085117720405e-24
-0.4789495464374909	-8.576394551476336e-24
-0.4788885112812409	-8.43489592327164e-24
-0.4788274761249909	-8.285649991121793e-24
-0.4787664409687409	-8.129065400985607e-24
-0.4787054058124909	-7.964994129586915e-24
-0.4786443706562409	-7.793638464345912e-24
-0.4785833354999909	-7.615346263053304e-24
-0.4785223003437409	-7.429951421744212e-24
-0.4784612651874909	-7.237798868568802e-24
-0.4784002300312409	-7.03915281112468e-24
-0.4783391948749909	-6.833882342047094e-24
-0.4782781597187409	-6.622437037628116e-24
-0.4782171245624909	-6.404964068182201e-24
-0.4781560894062409	-6.1814174425618184e-24
-0.4780950542499909	-5.9523144823760825e-24
-0.4780340190937409	-5.717680319795023e-24
-0.4779729839374909	-5.4775955272393584e-24
-0.4779119487812409	-5.232608798202644e-24
-0.4778509136249909	-4.982652824965665e-24
-0.4777898784687409	-4.72794007524046e-24
-0.4777288433124909	-4.4689631650344046e-24
-0.4776678081562409	-4.2056098056424416e-24
-0.4776067729999909	-3.9382625828746905e-24
-0.4775457378437409	-3.667312716720825e-24
-0.4774847026874909	-3.3926392383135e-24
-0.4774236675312409	-3.114761491173471e-24
-0.4773626323749909	-2.833937099654721e-24
-0.4773015972187409	-2.5501070173771034e-24
-0.4772405620624909	-2.263885734415832e-24
-0.4771795269062409	-1.975382321959701e-24
-0.4771184917499909	-1.6846469055046126e-24
-0.4770574565937409	-1.3923188642717002e-24
-0.4769964214374909	-1.0983796052062386e-24
-0.4769353862812409	-8.030418866260742e-25
-0.4768743511249909	-5.069020570252668e-25
-0.4768133159687409	-2.098481652348154e-25
-0.4767522808124909	8.773131972772019e-26
-0.4766912456562409	3.853563992949887e-25
-0.4766302104999909	6.831853400115086e-25
-0.4765691753437409	9.806660262255586e-25
-0.4765081401874909	1.277463694340167e-24
-0.4764471050312409	1.5736969820696348e-24
-0.4763860698749909	1.868699469575498e-24
-0.4763250347187409	2.162317593110825e-24
-0.4762639995624909	2.4545765256803678e-24
-0.4762029644062409	2.7447810015966394e-24
-0.4761419292499909	3.0329432417176406e-24
-0.4760808940937409	3.318906988811124e-24
-0.4760198589374909	3.602006132403822e-24
-0.4759588237812409	3.88239846706889e-24
-0.4758977886249909	4.159758956000036e-24
-0.4758367534687409	4.433535882733073e-24
-0.4757757183124909	4.703944093624941e-24
-0.4757146831562409	4.9704800448448605e-24
-0.4756536479999909	5.2327689270393094e-24
-0.4755926128437409	5.4910191151465105e-24
-0.4755315776874909	5.744599271170062e-24
-0.4754705425312409	5.993334476818033e-24
-0.4754095073749909	6.237340951764471e-24
-0.4753484722187409	6.475933910162785e-24
-0.4752874370624909	6.709144380215741e-24
-0.4752264019062409	6.936935833880159e-24
-0.4751653667499909	7.158643145436288e-24
-0.4751043315937409	7.374462944615458e-24
-0.4750432964374909	7.584183953147569e-24
-0.4749822612812409	7.787246955793027e-24
-0.4749212261249909	7.983945788012956e-24
-0.4748601909687409	8.173893113081462e-24
-0.4747991558124909	8.356696584882486e-24
-0.4747381206562409	8.532667194923665e-24
-0.4746770854999909	8.70128804626935e-24
-0.4746160503437409	8.862383257596927e-24
-0.4745550151874909	9.01619646485415e-24
-0.4744939800312409	9.16212666290172e-24
-0.4744329448749909	9.300212814491082e-24
-0.4743719097187409	9.430580873011646e-24
-0.4743108745624909	9.552639114191248e-24
-0.4742498394062409	9.666608637421349e-24
-0.4741888042499909	9.772447801034875e-24
-0.4741277690937409	9.869647021219205e-24
-0.4740667339374909	9.958552907273989e-24
-0.4740056987812409	1.0038960125045053e-23
-0.4739446636249909	1.011051576635671e-23
-0.4738836284687409	1.0173614920359115e-23
-0.4738225933124909	1.0227906824713258e-23
-0.4737615581562409	1.0273233277673695e-23
-0.4737005229999909	1.030996501106897e-23
-0.4736394878437409	1.033766483039138e-23
-0.4735784526874909	1.0356381838889083e-23
-0.4735174175312409	1.0366394872813923e-23
-0.4734563823749909	1.0367248908822396e-23
-0.4733953472187409	1.0359181090725292e-23
-0.4733343120624909	1.0342334942857557e-23
-0.4732732769062409	1.0316308031165806e-23
-0.4732122417499909	1.0281477943553735e-23
-0.4731512065937409	1.0237841372030222e-23
-0.4730901714374909	1.0185116536859364e-23
-0.4730291362812409	1.0123758622461632e-23
-0.4729681011249909	1.005362611684064e-23
-0.4729070659687409	9.974597562406747e-24
-0.4728460308124909	9.887138944294216e-24
-0.4727849956562409	9.791015053882973e-24
-0.4727239604999909	9.686289046399611e-24
-0.4726629253437409	9.573371923546202e-24
-0.4726018901874909	9.451980698662198e-24
-0.4725408550312409	9.322353812267785e-24
-0.4724798198749909	9.184806438609259e-24
-0.4724187847187409	9.039076148154104e-24
-0.4723577495624909	8.88554965394292e-24
-0.4722967144062409	8.724414521292261e-24
-0.4722356792499909	8.555474679409781e-24
-0.4721746440937409	8.37921823828118e-24
-0.4721136089374909	8.195715318417007e-24
-0.4720525737812409	8.004884507372636e-24
-0.4719915386249909	7.807250235652925e-24
-0.4719305034687409	7.602786335452532e-24
-0.4718694683124909	7.391565414877723e-24
-0.4718084331562409	7.17408473920718e-24
-0.4717473979999909	6.950236599839863e-24
-0.4716863628437409	6.720258853927879e-24
-0.4716253276874909	6.484601018354026e-24
-0.4715642925312409	6.243127612770479e-24
-0.4715032573749909	5.996206606777378e-24
-0.4714422222187409	5.744190580887758e-24
