Time	Frequency
-0.5000181608750012	-0.5095371342985241
-0.49995712571875117	-0.5041312645658993
-0.49989609056250117	-0.49831990408938986
-0.49983505540625117	-0.49210802458563857
-0.49977402025000117	-0.48549918250500296
-0.49971298509375117	-0.4785000257511556
-0.49965194993750117	-0.4711148756905395
-0.49959091478125117	-0.4633511138011792
-0.49952987962500117	-0.455213624963548
-0.49946884446875117	-0.4467092726504737
-0.49940780931250117	-0.4378455402286896
-0.49934677415625117	-0.42862831770178134
-0.49928573900000117	-0.419066195834341
-0.49922470384375117	-0.40916521217934915
-0.49916366868750117	-0.3989345789590811
-0.49910263353125117	-0.3883816398584961
-0.49904159837500117	-0.37751515456854823
-0.49898056321875117	-0.3663447907619159
-0.49891952806250117	-0.3548779274270694
-0.49885849290625117	-0.34312468849563466
-0.49879745775000117	-0.3310929187481289
-0.49873642259375117	-0.31879386942509014
-0.49867538743750117	-0.3062372287877795
-0.49861435228125117	-0.29343225769033016
-0.49855331712500117	-0.2803898597285351
-0.49849228196875117	-0.26711954778600777
-0.49843124681250117	-0.2536336043782513
-0.49837021165625117	-0.2399411618142024
-0.49830917650000117	-0.2260536639643626
-0.49824814134375117	-0.2119824607644159
-0.49818710618750117	-0.19773855954215702
-0.49812607103125117	-0.18333399164514153
-0.49806503587500117	-0.16877890352351357
-0.49800400071875117	-0.15408658550590335
-0.49794296556250117	-0.13926754695156593
-0.49788193040625117	-0.12433436642248236
-0.49782089525000117	-0.10929935277410958
-0.49775986009375117	-0.09417378154399485
-0.49769882493750117	-0.07897041299181375
-0.49763778978125117	-0.06369963511240272
-0.49757675462500117	-0.04837581232333336
-0.49751571946875117	-0.033010973804070795
-0.49745468431250117	-0.01761735640931281
-0.49739364915625117	-0.0022070726506926357
-0.49733261400000117	0.013208205342995105
-0.49727157884375117	0.02861463896634013
-0.49721054368750117	0.044001362502646024
-0.49714950853125117	0.05935467711246099
-0.49708847337500117	0.07466302504352942
-0.49702743821875117	0.08991351951590185
-0.49696640306250117	0.10509374329900692
-0.49690536790625117	0.12019290708290004
-0.49684433275000117	0.13519682178094033
-0.49678329759375117	0.15009484179141427
-0.49672226243750117	0.16487372795595873
-0.49666122728125117	0.17952266754425641
-0.49660019212500117	0.19403004394659856
-0.49653915696875117	0.20838295326262427
-0.49647812181250117	0.2225707412176237
-0.49641708665625117	0.23658038582180643
-0.49635605150000117	0.2504025797726709
-0.49629501634375117	0.26402446487870374
-0.49623398118750117	0.2774360250416754
-0.49617294603125117	0.2906267597505748
-0.49611191087500117	0.3035843359125247
-0.49605087571875117	0.31630007065004884
-0.49598984056250117	0.32876153906836986
-0.49592880540625117	0.3409608657609939
-0.49586777025000117	0.3528867083910292
-0.49580673509375117	0.36452936916746814
-0.49574569993750117	0.37587988261169736
-0.49568466478125117	0.38692760273631127
-0.49562362962500117	0.3976665772970103
-0.49556259446875117	0.40808491291558646
-0.49550155931250117	0.41817587196918266
-0.49544052415625117	0.4279301347535218
-0.49537948900000117	0.437339614250264
-0.49531845384375117	0.4463982545492707
-0.49525741868750117	0.4550956767754746
-0.49519638353125117	0.46342800880118346
-0.49513534837500117	0.47138556159781286
-0.49507431321875117	0.4789637940639731
-0.49501327806250117	0.4861558386527155
-0.49495224290625117	0.4929542888164152
-0.49489120775000117	0.499355951153767
-0.49483017259375117	0.5053520247341465
-0.49476913743750117	0.5109418600975029
-0.49470810228125117	0.5161173200065516
-0.49464706712500117	0.5208751386130787
-0.49458603196875117	0.5252121646123126
-0.49452499681250117	0.5291221323606182
-0.49446396165625117	0.5326056895194481
-0.49440292650000117	0.5356550202259228
-0.49434189134375117	0.5382715008319886
-0.49428085618750117	0.5404505679896593
-0.49421982103125117	0.5421902641570613
-0.49415878587500117	0.5434911166628584
-0.49409775071875117	0.5443476904135108
-0.49403671556250117	0.5447642158752698
-0.49397568040625117	0.5447352983131528
-0.49391464525000117	0.5442638619990644
-0.49385361009375117	0.5433492925771519
-0.49379257493750117	0.5419903370417424
-0.49373153978125117	0.5401915147098193
-0.49367050462500117	0.5379491331860891
-0.49360946946875117	0.5352697259325155
-0.49354843431250117	0.5321513206664606
-0.49348739915625117	0.5285978515041084
-0.49342636400000117	0.524612692952244
-0.49336532884375117	0.5201958206762112
-0.49330429368750117	0.5153551500387549
-0.49324325853125117	0.5100893424237299
-0.49318222337500117	0.5044062130564748
-0.49312118821875117	0.498307814082632
-0.49306015306250117	0.4917989770890266
-0.49299911790625117	0.48488679531550766
-0.49293808275000117	0.4775728301815378
-0.49287704759375117	0.46986713396124297
-0.49281601243750117	0.4617719343986829
-0.49275497728125117	0.4532956831364458
-0.49269394212500117	0.4444438410104676
-0.49263290696875117	0.43522259162122057
-0.49257187181250117	0.4256420146393957
-0.49251083665625117	0.41570602208349944
-0.49244980150000117	0.40542545379321004
-0.49238876634375117	0.39480575165322007
-0.49232773118750117	0.3838568922677948
-0.49226669603125117	0.3725872287003776
-0.49220566087500117	0.36100399862100485
-0.49214462571875117	0.3491190453407074
-0.49208359056250117	0.33693895525849976
-0.49202255540625117	0.3244757524791338
-0.49196152025000117	0.31173736854435846
-0.49190048509375117	0.2987345492786523
-0.49183944993750117	0.2854779523019353
-0.49177841478125117	0.2719767480870891
-0.49171737962500117	0.2582439623095474
-0.49165634446875117	0.24428745337584934
-0.49159530931250117	0.23011997702484788
-0.49153427415625117	0.21575238507466823
-0.49147323900000117	0.2011969388492291
-0.49141220384375117	0.1864653430126108
-0.49135116868750117	0.17156669827102597
-0.49129013353125117	0.15651463477604574
-0.49122909837500117	0.14132015022732694
-0.49116806321875117	0.1259975233337959
-0.49110702806250117	0.11055776518263066
-0.49104599290625117	0.09501235106047591
-0.49098495775000117	0.07937463620646783
-0.49092392259375117	0.06365579656722603
-0.49086288743750117	0.047869536072427055
-0.49080185228125117	0.03202742881273163
-0.49074081712500117	0.01614409862696839
-0.49067978196875117	0.00023118371572642657
-0.49061874681250117	-0.01569951842908203
-0.49055771165625117	-0.03163450461518234
-0.49049667650000117	-0.04756211999243922
-0.49043564134375117	-0.0634678602502272
-0.49037460618750117	-0.07934013897364235
-0.49031357103125117	-0.09516491463587212
-0.49025253587500117	-0.11093043544432524
-0.49019150071875117	-0.1266251950192783
-0.49013046556250117	-0.14223508424578377
-0.49006943040625117	-0.15774839880127775
-0.49000839525000117	-0.173151388826676
-0.48994736009375117	-0.18843328436972104
-0.48988632493750117	-0.2035809894541216
-0.48982528978125117	-0.2185821452579648
-0.48976425462500117	-0.23342537706648475
-0.48970321946875117	-0.2480976103489033
-0.48964218431250117	-0.26258840939066685
-0.48958114915625117	-0.2768847244088972
-0.48952011400000117	-0.2909761933583206
-0.48945907884375117	-0.3048511468790001
-0.48939804368750117	-0.3184979423014886
-0.48933700853125117	-0.3319058822562452
-0.48927597337500117	-0.3450630668592265
-0.48921493821875117	-0.3579607718122935
-0.48915390306250117	-0.37058706643008044
-0.48909286790625117	-0.3829324161405965
-0.48903183275000117	-0.39498660527245116
-0.48897079759375117	-0.40673940714140405
-0.48890976243750117	-0.4181824259148159
-0.48884872728125117	-0.42930482870450776
-0.48878769212500117	-0.4400988493798705
-0.48872665696875117	-0.45055460546406867
-0.48866562181250117	-0.46066410992545404
-0.48860458665625117	-0.4704191974901016
-0.48854355150000117	-0.4798117321572729
-0.48848251634375117	-0.48883489856709134
-0.48842148118750117	-0.4974792424467851
-0.48836044603125117	-0.5057392728035519
-0.48829941087500117	-0.5136073942032257
-0.48823837571875117	-0.5210777973269667
-0.48817734056250117	-0.528144173202268
-0.48811630540625117	-0.5347997053764613
-0.48805527025000117	-0.5410405522738773
-0.48799423509375117	-0.5468597206022667
-0.48793319993750117	-0.5522537863845711
-0.48787216478125117	-0.5572171787429319
-0.48781112962500117	-0.5617461194082777
-0.48775009446875117	-0.5658371850234432
-0.48768905931250117	-0.5694857094684009
-0.48762802415625117	-0.5726902666405168
-0.48756698900000117	-0.5754461512124854
-0.48750595384375117	-0.5777526593953877
-0.48744491868750117	-0.5796064935962518
-0.48738388353125117	-0.5810061564464319
-0.48732284837500117	-0.5819512717692094
-0.48726181321875117	-0.5824391303743589
-0.48720077806250117	-0.5824712491002341
-0.48713974290625117	-0.5820450427888
-0.48707870775000117	-0.5811624446256521
-0.48701767259375117	-0.5798230829700186
-0.48695663743750117	-0.5780275691547708
-0.48689560228125117	-0.5757786039850012
-0.48683456712500117	-0.5730753050859415
-0.48677353196875117	-0.5699223744460167
-0.48671249681250117	-0.566319517333197
-0.48665146165625117	-0.5622710714785359
-0.48659042650000117	-0.5577796605741467
-0.48652939134375117	-0.5528476855823811
-0.48646835618750117	-0.5474814168872784
-0.48640732103125117	-0.5416815262863696
-0.48634628587500117	-0.5354555705303226
-0.48628525071875117	-0.5288057909196459
-0.48622421556250117	-0.5217386831121802
-0.48616318040625117	-0.5142601573554817
-0.48610214525000117	-0.5063737250022311
-0.48604111009375117	-0.49808901826849045
-0.48598007493750117	-0.4894083787572154
-0.48591903978125117	-0.48034226844479994
-0.48585800462500117	-0.47089533087335517
-0.48579696946875117	-0.4610753492186588
-0.48573593431250117	-0.45089201779268884
-0.48567489915625117	-0.44034915999459034
-0.48561386400000117	-0.4294598917134719
-0.48555282884375117	-0.41822851288209
-0.48549179368750117	-0.4066668722332958
-0.48543075853125117	-0.3947826896430975
-0.48536972337500117	-0.3825841419718203
-0.48530868821875117	-0.37008467638823384
-0.48524765306250117	-0.35728905995263444
-0.48518661790625117	-0.344212468375869
-0.48512558275000117	-0.33086079761294795
-0.48506454759375117	-0.3172464997767229
-0.48500351243750117	-0.3033816318063609
-0.48494247728125117	-0.2892741596896978
-0.48488144212500117	-0.274939359934474
-0.48482040696875117	-0.2603831944202444
-0.48475937181250117	-0.24562229379123487
-0.48469833665625117	-0.2306655540741378
-0.48463730150000117	-0.21552479081915135
-0.48457626634375117	-0.20021445316180828
-0.48451523118750117	-0.18474257479486042
-0.48445419603125117	-0.16912624571421656
-0.48439316087500117	-0.15337318083689397
-0.48433212571875117	-0.13749937020082276
-0.48427109056250117	-0.12151635109750426
-0.48421005540625117	-0.10543531312570106
-0.48414902025000117	-0.08927263723126021
-0.48408798509375117	-0.07303679835665938
-0.48402694993750117	-0.056744646181542326
-0.48396591478125117	-0.040406182268204846
-0.48390487962500117	-0.024036087244352345
-0.48384384446875117	-0.007647415043919681
-0.48378280931250117	0.008748743770298944
-0.48372177415625117	0.025135826660176816
-0.48366073900000117	0.04150450113852516
-0.48359970384375117	0.05783848936420326
-0.48353866868750117	0.0741265166207835
-0.48347763353125117	0.0903553590718983
-0.48341659837500117	0.10651163321222444
-0.48335556321875117	0.12258439651348196
-0.48329452806250117	0.13855725183197723
-0.48323349290625117	0.15442009375160987
-0.48317245775000117	0.17015859938734387
-0.48311142259375117	0.18576179607326013
-0.48305038743750117	0.20121689686163682
-0.48298935228125117	0.21651006718171378
-0.48292831712500117	0.23163117069899922
-0.48286728196875117	0.24656560349058254
-0.48280624681250117	0.2613037513723235
-0.48274521165625117	0.27583251340168075
-0.48268417650000117	0.29014084988609334
-0.48262314134375117	0.3042175614273914
-0.48256210618750117	0.31804980863205207
-0.48250107103125117	0.3316281146820681
-0.48244003587500117	0.34494002734565343
-0.48237900071875117	0.357977122137357
-0.48231796556250117	0.3707276901227377
-0.48225693040625117	0.38318108510465204
-0.48219589525000117	0.3953277361011168
-0.48213486009375117	0.407157203917999
-0.48207382493750117	0.41866175043871884
-0.48201278978125117	0.4298303647906953
-0.48195175462500117	0.4406554187177202
-0.48189071946875117	0.4511273073484162
-0.48182968431250117	0.4612375823003769
-0.48176864915625117	0.4709787261596505
-0.48170761400000117	0.4803420751050468
-0.48164657884375117	0.48932172471768975
-0.48158554368750117	0.49790866366604664
-0.48152450853125117	0.5060971533961371
-0.48146347337500117	0.5138799517211885
-0.48140243821875117	0.5212507336698365
-0.48134140306250117	0.5282044431951808
-0.48128036790625117	0.5347342332332223
-0.48121933275000117	0.5408365525530242
-0.48115829759375117	0.5465049179163746
-0.48109726243750117	0.5517356045357666
-0.48103622728125117	0.5565242300193611
-0.48097519212500117	0.5608665424571123
-0.48091415696875117	0.5647600559192492
-0.48085312181250117	0.5682003253287583
-0.48079208665625117	0.5711860233543852
-0.48073105150000117	0.5737135842290961
-0.48067001634375117	0.575781721591949
-0.48060898118750117	0.5773886267129577
-0.48054794603125117	0.5785324758331245
-0.48048691087500117	0.5792135473610474
-0.48042587571875117	0.5794298455329452
-0.48036484056250117	0.5791826964824418
-0.48030380540625117	0.5784712164357473
-0.48024277025000117	0.5772964597687656
-0.48018173509375117	0.5756596768811064
-0.48012069993750117	0.5735614420419568
-0.48005966478125117	0.5710047081439854
-0.47999862962500117	0.5679900088320968
-0.47993759446875117	0.5645211204295693
-0.47987655931250117	0.560600233251625
-0.47981552415625117	0.5562309931612566
-0.47975448900000117	0.551416984803567
-0.47969345384375117	0.5461611310721614
-0.47963241868750117	0.540469250752214
-0.47957138353125117	0.5343443067450001
-0.47951034837500117	0.5277928889815627
-0.47944931321875117	0.520819738501921
-0.47938827806250117	0.5134305276680579
-0.47932724290625117	0.5056315947247865
-0.47926620775000117	0.4974279422812077
-0.47920517259375117	0.48882816228221193
-0.47914413743750117	0.47983779179720326
-0.47908310228125117	0.47046542067250735
-0.47902206712500117	0.4607178992053305
-0.47896103196875117	0.45060320893893563
-0.47889999681250117	0.4401304352487388
-0.47883896165625117	0.4293064245502861
-0.47877792650000117	0.41814195813272365
-0.47871689134375117	0.4066444577789628
-0.47865585618750117	0.39482495556546277
-0.47859482103125117	0.38269232569499234
-0.47853378587500117	0.370255659051811
-0.47847275071875117	0.35752635540298777
-0.47841171556250117	0.3445132150789665
-0.47835068040625117	0.3312297119456535
-0.47828964525000117	0.3176843843914327
-0.47822861009375117	0.3038893884866947
-0.47816757493750117	0.2898555402629365
-0.47810653978125117	0.2755929666107479
-0.47804550462500117	0.2611156127887389
-0.47798446946875117	0.24643333906008527
-0.47792343431250117	0.23156117056160871
-0.47786239915625117	0.2165084797061456
-0.47780136400000117	0.20128824732970668
-0.47774032884375117	0.18591344336839546
-0.47767929368750117	0.17039504271504094
-0.47761825853125117	0.15474908628792416
-0.47755722337500117	0.1389846659277914
-0.47749618821875117	0.12311748895468844
-0.47743515306250117	0.10715869486525821
-0.47737411790625117	0.09112187143699184
-0.47731308275000117	0.07502159293501277
-0.47725204759375117	0.05886789621317233
-0.47719101243750117	0.04267847219290842
-0.47712997728125117	0.026462328794132996
-0.47706894212500117	0.010235424503325673
-0.47700790696875117	-0.005990244783319394
-0.47694687181250117	-0.022201991527153145
-0.47688583665625117	-0.03838295361727846
-0.47682480150000117	-0.0545248138094406
-0.47676376634375117	-0.07060951877554635
-0.47670273118750117	-0.0866279080935216
-0.47664169603125117	-0.10256491058921986
-0.47658066087500117	-0.11840683151490503
-0.47651962571875117	-0.13414295582889105
-0.47645859056250117	-0.1497559845140716
-0.47639755540625117	-0.1652391728342266
-0.47633652025000117	-0.1805743280101
-0.47627548509375117	-0.19575155973672087
-0.47621444993750117	-0.21075852890125674
-0.47615341478125117	-0.22558072948947006
-0.47609237962500117	-0.24021010899425144
-0.47603134446875117	-0.25462911872663185
-0.47597030931250117	-0.26883080905950346
-0.47590927415625117	-0.2827995098745053
-0.47584823900000117	-0.2965257948843935
-0.47578720384375117	-0.3100001384722214
-0.47572616868750117	-0.32320695172752034
-0.47566513353125117	-0.3361400916049625
-0.47560409837500117	-0.3487842125708967
-0.47554306321875117	-0.36113303551618164
-0.47548202806250117	-0.37317402051367926
-0.47542099290625117	-0.3848967051275752
-0.47535995775000117	-0.3962945915576026
-0.47529892259375117	-0.40735383756062293
-0.47523788743750117	-0.4180694242111402
-0.47517685228125117	-0.42842909119220063
-0.47511581712500117	-0.4384267172710292
-0.47505478196875117	-0.4480532385179031
-0.47499374681250117	-0.4572992307130943
-0.47493271165625117	-0.46616011473164637
-0.47487167650000117	-0.4746248688014033
-0.47481064134375117	-0.48269003138364297
-0.47474960618750117	-0.49034616191425656
-0.47468857103125117	-0.4975879010563116
-0.47462753587500117	-0.5044097532400754
-0.47456650071875117	-0.5108042747846432
-0.47450546556250117	-0.5167689382166375
-0.47444443040625117	-0.5222958664271447
-0.47438339525000117	-0.5273828106025167
-0.47432236009375117	-0.532023716585354
-0.47426132493750117	-0.5362152850813902
-0.47420028978125117	-0.5399548098111722
-0.47413925462500117	-0.5432372532634764
-0.47407821946875117	-0.5460622732169174
-0.47401718431250117	-0.548425057667763
-0.47395614915625117	-0.5503254204427339
-0.47389511400000117	-0.5517607439831478
-0.47383407884375117	-0.5527296903638566
-0.47377304368750117	-0.5532323991368384
-0.47371200853125117	-0.5532667978060036
-0.47365097337500117	-0.5528346058238893
-0.47358993821875117	-0.5519341884379315
-0.47352890306250117	-0.5505677033261476
-0.47346786790625117	-0.5487356298639529
-0.47340683275000117	-0.5464391066802913
-0.47334579759375117	-0.5436808015145742
-0.47328476243750117	-0.5404614942821958
-0.47322372728125117	-0.5367855383998038
-0.47316269212500117	-0.5326543442658249
-0.47310165696875117	-0.5280722948223583
-0.47304062181250117	-0.5230425478403555
-0.47297958665625117	-0.5175689776247957
-0.47291855150000117	-0.5116571007544097
-0.47285751634375117	-0.5053100443580277
-0.47279648118750117	-0.49853462641364615
-0.47273544603125117	-0.4913352521342296
-0.47267441087500117	-0.4837186081847325
-0.47261337571875117	-0.4756904320128346
-0.47255234056250117	-0.4672568570265253
-0.47249130540625117	-0.45842611580525794
-0.47243027025000117	-0.4492037822840051
-0.47236923509375117	-0.4395988801483142
-0.47230819993750117	-0.42961818081488756
-0.47224716478125117	-0.4192706991829453
-0.47218612962500117	-0.40856513413804496
-0.47212509446875117	-0.3975090601441086
-0.47206405931250117	-0.3861125778666277
-0.47200302415625117	-0.3743838907179819
-0.47194198900000117	-0.3623342415527027
-0.47188095384375117	-0.34997268269213994
-0.47181991868750117	-0.33730991622027806
-0.47175888353125117	-0.32435643431542743
-0.47169784837500117	-0.3111214968144473
-0.47163681321875117	-0.29761744552292474
-0.47157577806250117	-0.2838542122057461
-0.47151474290625117	-0.269844765171332
-0.47145370775000117	-0.2556001458129954
-0.47139267259375117	-0.24113173928995857
-0.47133163743750117	-0.22645167501318358
-0.47127060228125117	-0.2115713103373875
-0.47120956712500117	-0.196504634778623
-0.47114853196875117	-0.18126270979243306
-0.47108749681250117	-0.16585911910582887
-0.47102646165625117	-0.15030575830732662
-0.47096542650000117	-0.1346156771504627
-0.47090439134375117	-0.11880275285341838
-0.47084335618750117	-0.10287901696600679
-0.47078232103125117	-0.08685944396613535
-0.47072128587500117	-0.0707552597574263
-0.47066025071875117	-0.054580657297366095
-0.47059921556250117	-0.03834873480529004
-0.47053818040625117	-0.022072978271946556
-0.47047714525000117	-0.005768468752255545
-0.47041611009375117	0.010552916208505007
-0.47035507493750117	0.02687614975618651
-0.47029403978125117	0.04318913172695884
