Time	Frequency
-0.5000068511249935	-0.3643727683209667
-0.49994581596874355	-0.3572770815311443
-0.49988478081249355	-0.3499987694698197
-0.49982374565624355	-0.34254137592317346
-0.49976271049999355	-0.33490877525464063
-0.49970167534374355	-0.32710482381516054
-0.49964064018749355	-0.31913345846692825
-0.49957960503124355	-0.3109987185839458
-0.49951856987499355	-0.30270459787177445
-0.49945753471874355	-0.29425524070153164
-0.49939649956249355	-0.2856552002051275
-0.49933546440624355	-0.27690895237505725
-0.49927442924999355	-0.26802054366298433
-0.49921339409374355	-0.25899459810792647
-0.49915235893749355	-0.2498359030398218
-0.49909132378124355	-0.24054860423891705
-0.49903028862499355	-0.23113744154539753
-0.49896925346874355	-0.22160768213795032
-0.49890821831249355	-0.2119644227040067
-0.49884718315624355	-0.20221257957065214
-0.49878614799999355	-0.19235634595749243
-0.49872511284374355	-0.1824003691525921
-0.49866407768749355	-0.17235049378831496
-0.49860304253124355	-0.16221216219390938
-0.49854200737499355	-0.15199031849954903
-0.49848097221874355	-0.14169008237531744
-0.49841993706249355	-0.13131641341689648
-0.49835890190624355	-0.12087465596250938
-0.49829786674999355	-0.11037083529581214
-0.49823683159374355	-0.099810073198206
-0.49817579643749355	-0.08919682430546402
-0.49811476128124355	-0.07853689213837967
-0.49805372612499355	-0.06783660389918499
-0.49799269096874355	-0.057101253912692114
-0.49793165581249355	-0.04633584589994804
-0.49787062065624355	-0.0355458402280594
-0.49780958549999355	-0.02473685977828771
-0.49774855034374355	-0.01391454103776692
-0.49768751518749355	-0.003084648476530089
-0.49762648003124355	0.007747271267650418
-0.49756544487499355	0.018576135919573997
-0.49750440971874355	0.029396424770757695
-0.49744337456249355	0.04020208451896232
-0.49738233940624355	0.0509874639960386
-0.49732130424999355	0.06174708186939483
-0.49726026909374355	0.0724757326665525
-0.49719923393749355	0.08316824749229079
-0.49713819878124355	0.09381858400701779
-0.49707716362499355	0.10442091938305784
-0.49701612846874355	0.11497031384216934
-0.49695509331249355	0.1254615756751722
-0.49689405815624355	0.1358888994278527
-0.49683302299999355	0.14624667495159324
-0.49677198784374355	0.15652973454761876
-0.49671095268749355	0.16673287155265126
-0.49664991753124355	0.1768510331342163
-0.49658888237499355	0.1868792685486037
-0.49652784721874355	0.1968118967119896
-0.49646681206249355	0.20664324505157305
-0.49640577690624355	0.2163687971101215
-0.49634474174999355	0.22598379959160403
-0.49628370659374355	0.23548291647662017
-0.49622267143749355	0.2448615279259615
-0.49616163628124355	0.2541147382214323
-0.49610060112499355	0.26323727155820736
-0.49603956596874355	0.2722248911369732
-0.49597853081249355	0.2810732901808011
-0.49591749565624355	0.28977713380492187
-0.49585646049999355	0.29833151497136684
-0.49579542534374355	0.30673265394722926
-0.49573439018749355	0.31497689219969316
-0.49567335503124355	0.32305964846525337
-0.49561231987499355	0.3309760195562016
-0.49555128471874355	0.3387219606552192
-0.49549024956249355	0.34629359232150414
-0.49542921440624355	0.35368696696296215
-0.49536817924999355	0.36089866573776125
-0.49530714409374355	0.36792491375391145
-0.49524610893749355	0.37476162781167566
-0.49518507378124355	0.38140532318478737
-0.49512403862499355	0.3878525887198656
-0.49506300346874355	0.39410005333567816
-0.49500196831249355	0.4001446543202736
-0.49494093315624355	0.405983108837444
-0.49487989799999355	0.4116122223038307
-0.49481886284374355	0.4170291467112608
-0.49475782768749355	0.4222311397373399
-0.49469679253124355	0.42721558514291835
-0.49463575737499355	0.43197973634556713
-0.49457472221874355	0.4365208945706385
-0.49451368706249355	0.4408368220933355
-0.49445265190624355	0.44492541884525255
-0.49439161674999355	0.4487844667781092
-0.49433058159374355	0.45241181912090117
-0.49426954643749355	0.45580555465604616
-0.49420851128124355	0.4589640403064267
-0.49414747612499355	0.46188564002113375
-0.49408644096874355	0.4645686544517854
-0.49402540581249355	0.4670116713113637
-0.49396437065624355	0.46921339258332123
-0.49390333549999355	0.471172625571499
-0.49384230034374355	0.47288847097119585
-0.49378126518749355	0.4743600184968502
-0.49372023003124355	0.47558633391799365
-0.49365919487499355	0.4765667359614348
-0.49359815971874355	0.4773007387121441
-0.49353712456249355	0.4777879453337015
-0.49347608940624355	0.47802806927215724
-0.49341505424999355	0.47802093186810635
-0.49335401909374355	0.47776651209382276
-0.49329298393749355	0.47726496434955684
-0.49323194878124355	0.4765165024630921
-0.49317091362499355	0.4755214103086994
-0.49310987846874355	0.4742801954442348
-0.49304884331249355	0.47279353141284974
-0.49298780815624355	0.47106212834045924
-0.49292677299999355	0.4690868387418396
-0.49286573784374355	0.466868696951932
-0.49280470268749355	0.46440882754011187
-0.49274366753124355	0.4617084446322216
-0.49268263237499355	0.4587689453026106
-0.49262159721874355	0.45559187974681503
-0.49256056206249355	0.45217882465635206
-0.49249952690624355	0.4485314803977587
-0.49243849174999355	0.4446516628415758
-0.49237745659374355	0.4405414031499257
-0.49231642143749355	0.4362031295058123
-0.49225538628124355	0.43163904999634567
-0.49219435112499355	0.42685099565139223
-0.49213331596874355	0.4218414759861009
-0.49207228081249355	0.41661356399069727
-0.49201124565624355	0.4111698343055949
-0.49195021049999355	0.40551280578589743
-0.49188917534374355	0.3996455516042418
-0.49182814018749355	0.3935713370452222
-0.49176710503124355	0.38729335052939073
-0.49170606987499355	0.38081453844216057
-0.49164503471874355	0.37413788846779195
-0.49158399956249355	0.36726703745710426
-0.49152296440624355	0.36020613894540565
-0.49146192924999355	0.3529590421487316
-0.49140089409374355	0.3455289810480855
-0.49133985893749355	0.3379195332863547
-0.49127882378124355	0.3301349552674725
-0.49121778862499355	0.32217921005235384
-0.49115675346874355	0.31405626115513985
-0.49109571831249355	0.3057707341776009
-0.49103468315624355	0.2973271296111115
-0.49097364799999355	0.2887296597580399
-0.49091261284374355	0.2799827017169735
-0.49085157768749355	0.2710905680385875
-0.49079054253124355	0.26205770911942133
-0.49072950737499355	0.2528892081126006
-0.49066847221874355	0.24359021160619604
-0.49060743706249355	0.23416531354222106
-0.49054640190624355	0.22461938703154938
-0.49048536674999355	0.21495754668103975
-0.49042433159374355	0.20518433250251783
-0.49036329643749355	0.19530491759408758
-0.49030226128124355	0.18532518643832285
-0.49024122612499355	0.17525013228520675
-0.49018019096874355	0.1650842858320365
-0.49011915581249355	0.1548331818897032
-0.49005812065624355	0.14450311369700689
-0.48999708549999355	0.13409938635051122
-0.48993605034374355	0.1236265434442724
-0.48987501518749355	0.11309007817832231
-0.48981398003124355	0.1024960107236101
-0.48975294487499355	0.09184965047832723
-0.48969190971874355	0.08115640691069649
-0.48963087456249355	0.07042275528028091
-0.48956983940624355	0.059654477597907214
-0.48950880424999355	0.048856184536753604
-0.48944776909374355	0.03803336388344963
-0.48938673393749355	0.027192099103336836
-0.48932569878124355	0.016338152724700017
-0.48926466362499355	0.005477527344038615
-0.48920362846874355	-0.005383974877412316
-0.48914259331249355	-0.016241036376842155
-0.48908155815624355	-0.0270879590073486
-0.48902052299999355	-0.03791891919892895
-0.48895948784374355	-0.04872827244941349
-0.48889845268749355	-0.05951022370943486
-0.48883741753124355	-0.07025933002280602
-0.48877638237499355	-0.08097007494239736
-0.48871534721874355	-0.09163615293145107
-0.48865431206249355	-0.10225178550393242
-0.48859327690624355	-0.11281208510762858
-0.48853224174999355	-0.12331143637691376
-0.48847120659374355	-0.13374395183677326
-0.48841017143749355	-0.1441045621614899
-0.48834913628124355	-0.1543876518085463
-0.48828810112499355	-0.16458719747204992
-0.48822706596874355	-0.17469807576317448
-0.48816603081249355	-0.18471515395618082
-0.48810499565624355	-0.19463319704938573
-0.48804396049999355	-0.20444711084503192
-0.48798292534374355	-0.21415119523375772
-0.48792189018749355	-0.22374021431180366
-0.48786085503124355	-0.233209699324067
-0.48779981987499355	-0.24255446689714116
-0.48773878471874355	-0.25176905704227254
-0.48767774956249355	-0.2608487222190878
-0.48761671440624355	-0.2697890218976226
-0.48755567924999355	-0.2785852565961484
-0.48749464409374355	-0.28723249053218297
-0.48743360893749355	-0.2957259590159596
-0.48737257378124355	-0.3040610999954446
-0.48731153862499355	-0.3122335993384964
-0.48725050346874355	-0.32023947683705944
-0.48718946831249355	-0.328074436101693
-0.48712843315624355	-0.3357338085087484
-0.48706739799999355	-0.3432133844113883
-0.48700636284374355	-0.35050940765123617
-0.48694532768749355	-0.3576181011219153
-0.48688429253124355	-0.3645357682070643
-0.48682325737499355	-0.37125879364289094
-0.48676222221874355	-0.37778332693390343
-0.48670118706249355	-0.38410558229620206
-0.48664015190624355	-0.3902222566141006
-0.48657911674999355	-0.39613010578355595
-0.48651808159374355	-0.40182602248417065
-0.48645704643749355	-0.4073073671066994
-0.48639601128124355	-0.4125711009552738
-0.48633497612499355	-0.4176137415921557
-0.48627394096874355	-0.42243253254715646
-0.48621290581249355	-0.42702527759423664
-0.48615187065624355	-0.43138953552392023
-0.48609083549999355	-0.4355228254256823
-0.48602980034374355	-0.43942282620980716
-0.48596876518749355	-0.4430873539344047
-0.48590773003124355	-0.446514526105354
-0.48584669487499355	-0.44970248400718643
-0.48578565971874355	-0.4526493251416032
-0.48572462456249355	-0.4553534384918931
-0.48566358940624355	-0.4578133340309158
-0.48560255424999355	-0.46002759458020565
-0.48554151909374355	-0.4619950685280597
-0.48548048393749355	-0.4637146571103277
-0.48541944878124355	-0.4651852728816249
-0.48535841362499355	-0.4664060551240871
-0.48529737846874355	-0.4673763032181246
-0.48523634331249355	-0.4680953979694906
-0.48517530815624355	-0.46856287503869276
-0.48511427299999355	-0.46877844244105027
-0.48505323784374355	-0.4687419236221423
-0.48499220268749355	-0.4684532081976138
-0.48493116753124355	-0.46791232741927175
-0.48487013237499355	-0.46711950071931974
-0.48480909721874355	-0.4660750707718314
-0.48474806206249355	-0.4647795330148651
-0.48468702690624355	-0.46323352542728014
-0.48462599174999355	-0.46143773793379733
-0.48456495659374355	-0.4593929706605026
-0.48450392143749355	-0.4571001899636507
-0.48444288628124355	-0.4545605789698496
-0.48438185112499355	-0.4517755031009525
-0.48432081596874355	-0.44874632393008046
-0.48425978081249355	-0.44547450667575145
-0.48419874565624355	-0.44196164852749126
-0.48413771049999355	-0.43820945137844464
-0.48407667534374355	-0.43421997410692276
-0.48401564018749355	-0.4299953451153512
-0.48395460503124355	-0.4255375243356731
-0.48389356987499355	-0.42084878728475533
-0.48383253471874355	-0.41593160493086756
-0.48377149956249355	-0.41078842120479775
-0.48371046440624355	-0.4054220110963834
-0.48364942924999355	-0.39983521686226353
-0.48358839409374355	-0.39403079969842547
-0.48352735893749355	-0.38801152424857316
-0.48346632378124355	-0.38178039492891275
-0.48340528862499355	-0.375341200949427
-0.48334425346874355	-0.36869757838971073
-0.48328321831249355	-0.36185225285037603
-0.48322218315624355	-0.3548083489297047
-0.48316114799999355	-0.34757015085196996
-0.48310011284374355	-0.3401418062308623
-0.48303907768749355	-0.3325268181591455
-0.48297804253124355	-0.32472909211221884
-0.48291700737499355	-0.3167526681385505
-0.48285597221874355	-0.3086014504071622
-0.48279493706249355	-0.3002800588599064
-0.48273390190624355	-0.29179320334214226
-0.48267286674999355	-0.2831448292154326
-0.48261183159374355	-0.27433914574215496
-0.48255079643749355	-0.26538119100010926
-0.48248976128124355	-0.2562759880287974
-0.48242872612499355	-0.24702802781545424
-0.48236769096874355	-0.23764173734006547
-0.48230665581249355	-0.2281222597471724
-0.48224562065624355	-0.21847500004367626
-0.48218458549999355	-0.2087047697774724
-0.48212355034374355	-0.19881657436192512
-0.48206251518749355	-0.18881591221746907
-0.48200148003124355	-0.17870778598786052
-0.48194044487499355	-0.1684973217566437
-0.48187940971874355	-0.15819028221346848
-0.48181837456249355	-0.14779223948842315
-0.48175733940624355	-0.13730858526754414
-0.48169630424999355	-0.12674450611476698
-0.48163526909374355	-0.11610537448788946
-0.48157423393749355	-0.10539733467501304
-0.48151319878124355	-0.09462625938026945
-0.48145216362499355	-0.08379749320681
-0.48139112846874355	-0.0729166741363145
-0.48133009331249355	-0.06198972714416538
-0.48126905815624355	-0.05102239677907565
-0.48120802299999355	-0.04002013885433928
-0.48114698784374355	-0.028988944439163576
-0.48108595268749355	-0.017935274230374148
-0.48102491753124355	-0.006864812477757048
-0.48096388237499355	0.004217049074342555
-0.48090284721874355	0.015304220698856735
-0.48084181206249355	0.0263909147315039
-0.48078077690624355	0.03747153552043042
-0.48071974174999355	0.04853948064506012
-0.48065870659374355	0.05958871026005533
-0.48059767143749355	0.07061410780460516
-0.48053663628124355	0.08160963459567926
-0.48047560112499355	0.09256910104882451
-0.48041456596874355	0.10348680330077314
-0.48035353081249355	0.11435696357855481
-0.48029249565624355	0.12517410462222836
-0.48023146049999355	0.13593240188383154
-0.48017042534374355	0.1466254779759688
-0.48010939018749355	0.15724769770042382
-0.48004835503124355	0.16779380905953917
-0.47998731987499355	0.17825807649725064
-0.47992628471874355	0.18863490348259188
-0.47986524956249355	0.1989188416862857
-0.47980421440624355	0.20910429941345793
-0.47974317924999355	0.21918590212770123
-0.47968214409374355	0.22915801670941355
-0.47962110893749355	0.23901491090568602
-0.47956007378124355	0.24875166059464093
-0.47949903862499355	0.25836336651394054
-0.47943800346874355	0.2678448311028334
-0.47937696831249355	0.2771910960876813
-0.47931593315624355	0.28639675042816415
-0.47925489799999355	0.2954563380277108
-0.47919386284374355	0.30436526416250254
-0.47913282768749355	0.3131191488097115
-0.47907179253124355	0.32171344641359434
-0.47901075737499355	0.33014332899379734
-0.47894972221874355	0.33840383820546277
-0.47888868706249355	0.3464904603377843
-0.47882765190624355	0.354399033653407
-0.47876661674999355	0.3621255435588741
-0.47870558159374355	0.36966583030274314
-0.47864454643749355	0.3770153628916885
-0.47858351128124355	0.38417003185554205
-0.47852247612499355	0.39112637089943514
-0.47846144096874355	0.3978805813095316
-0.47840040581249355	0.4044287258724121
-0.47833937065624355	0.4107674000501874
-0.47827833549999355	0.41689315014273964
-0.47821730034374355	0.4228024422285454
-0.47815626518749355	0.42849219470761596
-0.47809523003124355	0.43395931620155365
-0.47803419487499355	0.4392005683232131
-0.47797315971874355	0.44421307001154536
-0.47791212456249355	0.4489942261450955
-0.47785108940624355	0.4535414945790079
-0.47779005424999355	0.4578523038208519
-0.47772901909374355	0.46192403645137065
-0.47766798393749355	0.4657542957478719
-0.47760694878124355	0.46934111505252624
-0.47754591362499355	0.4726826755538771
-0.47748487846874355	0.475777001196709
-0.47742384331249355	0.4786221770299389
-0.47736280815624355	0.4812165727455517
-0.47730177299999355	0.4835587494932015
-0.47724073784374355	0.48564735698806205
-0.47717970268749355	0.48748116927089474
-0.47711866753124355	0.4890590966939494
-0.47705763237499355	0.4903801441413832
-0.47699659721874355	0.4914435022392921
-0.47693556206249355	0.49224851279251963
-0.47687452690624355	0.4927945869260722
-0.47681349174999355	0.4930813046329359
-0.47675245659374355	0.4931084141650567
-0.47669142143749355	0.49287577706643837
-0.47663038628124355	0.4923833983678267
-0.47656935112499355	0.4916314356555757
-0.47650831596874355	0.49062015543553367
-0.47644728081249355	0.4893499191625609
-0.47638624565624355	0.4878212936894019
-0.47632521049999355	0.4860350670360154
-0.47626417534374355	0.4839920282742396
-0.47620314018749355	0.48169307623361657
-0.47614210503124355	0.4791393898324756
-0.47608106987499355	0.4763321394144254
-0.47602003471874355	0.4732726449618168
-0.47595899956249355	0.46996257061313185
-0.47589796440624355	0.46640352990352346
-0.47583692924999355	0.46259726054952255
-0.47577589409374355	0.4585458170661747
-0.47571485893749355	0.45425107010782195
-0.47565382378124355	0.4497148983469701
-0.47559278862499355	0.4449398543000902
-0.47553175346874355	0.43992877337544023
-0.47547071831249355	0.4346840184019233
-0.47540968315624355	0.4292079208339685
-0.47534864799999355	0.4235034552782335
-0.47528761284374355	0.4175736233733387
-0.47522657768749355	0.411421275333084
-0.47516554253124355	0.40504975237721325
-0.47510450737499355	0.39846244898651834
-0.47504347221874355	0.3916627265078313
-0.47498243706249355	0.3846541982661917
-0.47492140190624355	0.37744022652158654
-0.47486036674999355	0.37002424355580044
-0.47479933159374355	0.3624103846070936
-0.47473829643749355	0.3546031213877885
-0.47467726128124355	0.34660648482239903
-0.47461622612499355	0.33842413562910567
-0.47455519096874355	0.3300601955799188
-0.47449415581249355	0.32151931478749435
-0.47443312065624355	0.3128061067956111
-0.47437208549999355	0.30392486366881555
-0.47431105034374355	0.29488016224851926
-0.47425001518749355	0.28567732287375
-0.47418898003124355	0.27632122742026516
-0.47412794487499355	0.2668159936007054
-0.47406690971874355	0.2571663545280839
-0.47400587456249355	0.24737795561858755
-0.47394483940624355	0.23745646612307947
-0.47388380424999355	0.22740700562253355
-0.47382276909374355	0.21723428471229433
-0.47376173393749355	0.20694322813635416
-0.47370069878124355	0.1965396497880405
-0.47363966362499355	0.18602982534917153
-0.47357862846874355	0.17541918568842646
-0.47351759331249355	0.1647125611462374
-0.47345655815624355	0.15391549295823867
-0.47339552299999355	0.14303398748735954
-0.47333448784374355	0.132073944602311
-0.47327345268749355	0.12104138083867072
-0.47321241753124355	0.10994222973584702
-0.47315138237499355	0.09878203498939334
-0.47309034721874355	0.087566220589196
-0.47302931206249355	0.07630091522527735
-0.47296827690624355	0.06499243684586808
-0.47290724174999355	0.053646638786035074
-0.47284620659374355	0.042270049026728304
-0.47278517143749355	0.03086898316355397
-0.47272413628124355	0.019448216124811298
-0.47266310112499355	0.00801323213240352
-0.47260206596874355	-0.003428601219971833
-0.47254103081249355	-0.014870398684042387
-0.47247999565624355	-0.026306736117366412
-0.47241896049999355	-0.03773220555577887
-0.47235792534374355	-0.04914084894364569
-0.47229689018749355	-0.060526326190316906
-0.47223585503124355	-0.07188196349135947
-0.47217481987499355	-0.08320159241452858
-0.47211378471874355	-0.09447988648052338
-0.47205274956249355	-0.105711025556918
-0.47199171440624355	-0.11688838518044756
-0.47193067924999355	-0.12800604189962034
-0.47186964409374355	-0.13905858654877987
-0.47180860893749355	-0.15003989021538752
-0.47174757378124355	-0.16094377758164694
-0.47168653862499355	-0.17176448026441338
-0.47162550346874355	-0.1824962836726757
-0.47156446831249355	-0.19313362298886452
-0.47150343315624355	-0.2036707205926068
-0.47144239799999355	-0.21410191939587095
-0.47138136284374355	-0.2244219262686905
-0.47132032768749355	-0.2346249008576868
-0.47125929253124355	-0.24470503271215582
-0.47119825737499355	-0.25465727179299635
-0.47113722221874355	-0.2644763348027855
-0.47107618706249355	-0.27415669615620936
-0.47101515190624355	-0.2836935418420257
-0.47095411674999355	-0.29308200386159244
-0.47089308159374355	-0.3023165475744937
-0.47083204643749355	-0.3113920043204113
-0.47077101128124355	-0.32030354161503044
-0.47070997612499355	-0.3290463836076636
-0.47064894096874355	-0.3376164305759676
-0.47058790581249355	-0.34600911859110706
-0.47052687065624355	-0.3542190511501756
-0.47046583549999355	-0.3622419074563927
-0.47040480034374355	-0.37007385871913456
-0.47034376518749355	-0.3777106412860917
