Time	Frequency
-0.5000001048437497	0.057299759198307175
-0.4999390696874997	0.06735057152597833
-0.4998780345312497	0.07737945167914385
-0.4998169993749997	0.08737014185906773
-0.4997559642187497	0.09732484160369745
-0.4996949290624997	0.10723926987563377
-0.4996338939062497	0.11710141579241304
-0.4995728587499997	0.12691793301179785
-0.4995118235937497	0.13667178333085572
-0.4994507884374997	0.14636639927330733
-0.4993897532812497	0.15599542103458117
-0.4993287181249997	0.16554957172952517
-0.4992676829687497	0.17503420142018764
-0.4992066478124997	0.18443284808079496
-0.4991456126562497	0.19375069326672342
-0.4990845774999997	0.20297841349800785
-0.4990235423437497	0.2121094033511979
-0.4989625071874997	0.2211476449057619
-0.4989014720312497	0.2300768489143065
-0.4988404368749997	0.23890394596144052
-0.4987794017187497	0.24761830852671676
-0.4987183665624997	0.25621563504587874
-0.4986573314062497	0.2646978922779581
-0.4985962962499997	0.27304996873228
-0.4985352610937497	0.28127943408679484
-0.4984742259374997	0.28937418054797526
-0.4984131907812497	0.2973328054203788
-0.4983521556249997	0.30515558180421504
-0.4982911204687497	0.31282909314512825
-0.4982300853124997	0.32036087429512555
-0.4981690501562497	0.32773772339014834
-0.4981080149999997	0.334960811192725
-0.4980469798437497	0.342028300865057
-0.4979859446874997	0.34892942934170446
-0.4979249095312497	0.35567157168175656
-0.4978638743749997	0.36224046169333324
-0.4978028392187497	0.3686398330048256
-0.4977418040624997	0.3748659266927765
-0.4976807689062497	0.3809101460246035
-0.4976197337499997	0.38677939106921816
-0.4975586985937497	0.39245989424499583
-0.4974976634374997	0.3979573383022166
-0.4974366282812497	0.4032655449617445
-0.4973755931249997	0.40837875545459423
-0.4973145579687497	0.41330306849779946
-0.4972535228124997	0.4180251651120035
-0.4971924876562497	0.4225524701725545
-0.4971314524999997	0.4268773646701227
-0.4970704173437497	0.4309968050469406
-0.4970093821874997	0.43491518020699094
-0.4969483470312497	0.4386205559347929
-0.4968873118749997	0.4421217340892378
-0.4968262767187497	0.44540942658119625
-0.4967652415624997	0.4484836548129912
-0.4967042064062497	0.45134743759169843
-0.4966431712499997	0.4539901758647798
-0.4965821360937497	0.45642112499667176
-0.4965211009374997	0.4586303934727593
-0.4964600657812497	0.4606210067591237
-0.4963990306249997	0.46239388594066005
-0.4963379954687497	0.4639405620880208
-0.4962769603124997	0.46527051568089944
-0.4962159251562497	0.46637328965459174
-0.4961548899999997	0.46725459205376996
-0.4960938548437497	0.4679134095647362
-0.4960328196874997	0.4683438924595671
-0.4959717845312497	0.4685552538432793
-0.4959107493749997	0.46853686702646646
-0.4958497142187497	0.4682967305785531
-0.4957886790624997	0.46783199199958747
-0.4957276439062497	0.4671396444497417
-0.4956666087499997	0.46622814038727833
-0.4956055735937497	0.4650873861832807
-0.4955445384374997	0.4637272545406351
-0.4954835032812497	0.46214308916265556
-0.4954224681249997	0.4603350056018945
-0.4953614329687497	0.45831023614106214
-0.4953003978124997	0.45605951613656825
-0.4952393626562497	0.45359426904961714
-0.4951783274999997	0.4509084899558041
-0.4951172923437497	0.4480051754041821
-0.4950562571874997	0.4448899894677295
-0.4949952220312497	0.4415554036674995
-0.4949341868749997	0.43801367791402307
-0.4948731517187497	0.43425751886698166
-0.4948121165624997	0.4302928880736515
-0.4947510814062497	0.42612354629793653
-0.4946900462499997	0.42174407224195704
-0.4946290110937497	0.41716728605937736
-0.4945679759374997	0.41238509903412385
-0.4945069407812497	0.40740615611210107
-0.4944459056249997	0.40223218328538113
-0.4943848704687497	0.39685992466885683
-0.4943238353124997	0.39130199031623064
-0.4942628001562497	0.3855504461153453
-0.4942017649999997	0.37961642374942006
-0.4941407298437497	0.3734991951678326
-0.4940796946874997	0.3671982871751412
-0.4940186595312497	0.3607259938749055
-0.4939576243749997	0.35407424777240537
-0.4938965892187497	0.34725560204327993
-0.4938355540624997	0.34026796329668174
-0.4937745189062497	0.3331142965438836
-0.4937134837499997	0.3258049283074205
-0.4936524485937497	0.3183323698856696
-0.4935914134374997	0.31071142102078153
-0.4935303782812497	0.3029380126803411
-0.4934693431249997	0.29501737371217845
-0.4934083079687497	0.28695829490934005
-0.4933472728124997	0.2787550662066293
-0.4932862376562497	0.27042348808592476
-0.4932252024999997	0.2619576236262084
-0.4931641673437497	0.2533656665532762
-0.4931031321874997	0.24465467162240906
-0.4930420970312497	0.2358201837898458
-0.4929810618749997	0.2268779670977512
-0.4929200267187497	0.21782153177096117
-0.4928589915624997	0.20866231977505661
-0.4927979564062497	0.19940457100715903
-0.4927369212499997	0.19004556002836215
-0.4926758860937497	0.18060141088314133
-0.4926148509374997	0.17106472205611517
-0.4925538157812497	0.1614487586472338
-0.4924927806249997	0.15175589458564698
-0.4924317454687497	0.1419860290149699
-0.4923707103124997	0.1321542679228377
-0.4923096751562497	0.12225304654191853
-0.4922486399999997	0.11229730469704612
-0.4921876048437497	0.10228707899249051
-0.4921265696874997	0.09222529067808691
-0.4920655345312497	0.08212543366392525
-0.4920044993749997	0.07197981317864464
-0.4919434642187497	0.061804943413268545
-0.4918824290624997	0.05159905182460368
-0.4918213939062497	0.041368018401510144
-0.4917603587499997	0.031123056164400843
-0.4916993235937497	0.02085675724308994
-0.4916382884374997	0.01058693672672446
-0.4915772532812497	0.0003100147356161692
-0.4915162181249997	-0.009965985227314093
-0.4914551829687497	-0.020231922767444375
-0.4913941478124997	-0.030493411864624585
-0.4913331126562497	-0.040732396865859895
-0.4912720774999997	-0.05095467696701028
-0.4912110423437497	-0.061150227376220154
-0.4911500071874997	-0.07131178679690314
-0.4910889720312497	-0.08144285025784356
-0.4910279368749997	-0.09152640147219329
-0.4909669017187497	-0.10156932795852132
-0.4909058665624997	-0.11155917645527828
-0.4908448314062497	-0.12149198806725281
-0.4907837962499997	-0.13136883514644768
-0.4907227610937497	-0.14117308444045093
-0.4906617259374997	-0.1509134266621269
-0.4906006907812497	-0.1605759090707327
-0.4905396556249997	-0.17015818999527477
-0.4904786204687497	-0.1796593467636897
-0.4904175853124997	-0.18906464888219054
-0.4903565501562497	-0.19838266980762176
-0.4902955149999997	-0.20759844735270877
-0.4902344798437497	-0.2167123551432362
-0.4901734446874997	-0.22572134491724677
-0.4901124095312497	-0.23461298395018934
-0.4900513743749997	-0.24339465510159708
-0.4899903392187497	-0.2520500053307432
-0.4899293040624997	-0.2605827789385054
-0.4898682689062497	-0.2689884947827285
-0.4898072337499997	-0.2772565842209888
-0.4897461985937497	-0.2853935083812434
-0.4896851634374997	-0.2933831697787794
-0.4896241282812497	-0.3012305674965501
-0.4895630931249997	-0.3089286556380292
-0.4895020579687497	-0.31647061026048184
-0.4894410228124997	-0.32386202110759044
-0.4893799876562497	-0.33108690633694243
-0.4893189524999997	-0.33815211772311793
-0.4892579173437497	-0.3450484272749652
-0.4891968821874997	-0.3517713040206165
-0.4891358470312497	-0.3583252896202932
-0.4890748118749997	-0.3646959893332027
-0.4890137767187497	-0.37089110084935856
-0.4889527415624997	-0.3768998616673813
-0.4888917064062497	-0.38272089347597854
-0.4888306712499997	-0.3883564601392757
-0.4887696360937497	-0.3937936647897545
-0.4887086009374997	-0.3990414616831024
-0.4886475657812497	-0.4040880828272508
-0.4885865306249997	-0.4089347533077712
-0.4885254954687497	-0.4135817414094396
-0.4884644603124997	-0.4180182201093519
-0.4884034251562497	-0.4222532099759843
-0.4883423899999997	-0.42627445540551484
-0.4882813548437497	-0.4300860328451521
-0.4882203196874997	-0.4336861904663412
-0.4881592845312497	-0.437066626093755
-0.4880982493749997	-0.44023589456360457
-0.4880372142187497	-0.44318149850626093
-0.4879761790624997	-0.445909993805113
-0.4879151439062497	-0.44841777438991864
-0.4878541087499997	-0.4506994509194954
-0.4877930735937497	-0.4527627815548947
-0.4877320384374997	-0.4545956482603914
-0.4876710032812497	-0.45620658741053505
-0.4876099681249997	-0.4575901228493949
-0.4875489329687497	-0.4587438472423147
-0.4874878978124997	-0.45967447543478496
-0.4874268626562497	-0.4603709995379176
-0.4873658274999997	-0.460843356488313
-0.4873047923437497	-0.4610845099590561
-0.4872437571874997	-0.46109519048775804
-0.4871827220312497	-0.46088051287379844
-0.4871216868749997	-0.4604310425635359
-0.4870606517187497	-0.4597577322115788
-0.4869996165624997	-0.45885237099247306
-0.4869385814062497	-0.4577187927980513
-0.4868775462499997	-0.45636027036095933
-0.4868165110937497	-0.4547693728174958
-0.4867554759374997	-0.4529575362391904
-0.4866944407812497	-0.45091577644055164
-0.4866334056249997	-0.448650763962085
-0.4865723704687497	-0.44616388881470925
-0.4865113353124997	-0.44345024337411537
-0.4864503001562497	-0.44052107002396423
-0.4863892649999997	-0.4373670441874185
-0.4863282298437497	-0.43399750907339374
-0.4862671946874997	-0.43041184632530854
-0.4862061595312497	-0.4266078005899245
-0.4861451243749997	-0.4225961616106113
-0.4860840892187497	-0.41836803189012906
-0.4860230540624997	-0.41393464532251634
-0.4859620189062497	-0.4092932905020925
-0.4859009837499997	-0.4044449099131916
-0.4858399485937497	-0.3993992535566469
-0.4857789134374997	-0.3941481249003112
-0.4857178782812497	-0.38870445032725853
-0.4856568431249997	-0.3830638854510651
-0.4855958079687497	-0.37723039518411117
-0.4855347728124997	-0.37121202550309396
-0.4854737376562497	-0.3650019516031656
-0.4854127024999997	-0.35861432378696906
-0.4853516673437497	-0.3520432921243335
-0.4852906321874997	-0.3452958340444639
-0.4852295970312497	-0.33837817057084046
-0.4851685618749997	-0.3312852437847106
-0.4851075267187497	-0.3240317468195539
-0.4850464915624997	-0.3166108037868536
-0.4849854564062497	-0.30903217490722656
-0.4849244212499997	-0.30130000941174023
-0.4848633860937497	-0.29341140502626506
-0.4848023509374997	-0.28538080814925426
-0.4847413157812497	-0.2772010123846768
-0.4846802806249997	-0.2688844105933064
-0.4846192454687497	-0.26043248938098124
-0.4845582103124997	-0.25184519433624514
-0.4844971751562497	-0.24313673146825868
-0.4844361399999997	-0.23429920717111716
-0.4843751048437497	-0.22534676321125738
-0.4843140696874997	-0.2162790256422816
-0.4842530345312497	-0.20709903741759064
-0.4841919993749997	-0.19781972425915242
-0.4841309642187497	-0.18843334024523659
-0.4840699290624997	-0.178955759691491
-0.4840088939062497	-0.16938472607194227
-0.4839478587499997	-0.15972570228779326
-0.4838868235937497	-0.14998968817316916
-0.4838257884374997	-0.14017046912288006
-0.4837647532812497	-0.13028497411686504
-0.4837037181249997	-0.12032864938162838
-0.4836426829687497	-0.11031027252705287
-0.4835816478124997	-0.10023875288129444
-0.4835206126562497	-0.09010848512614072
-0.4834595774999997	-0.07993712211038204
-0.4833985423437497	-0.06971908995789787
-0.4833375071874997	-0.059465529716481426
-0.4832764720312497	-0.04918288313365782
-0.4832154368749997	-0.03886764971009111
-0.4831544017187497	-0.028537234013865147
-0.4830933665624997	-0.018184552088909404
-0.4830323314062497	-0.00782294429209476
-0.4829712962499997	0.0025433393616290235
-0.4829102610937497	0.012915284959160838
-0.4828492259374997	0.023276483248866588
-0.4827881907812497	0.03363469957213381
-0.4827271556249997	0.043974695295757246
-0.4826661204687497	0.054295329884983604
-0.4826050853124997	0.06459505007733903
-0.4825440501562497	0.07485842534357612
-0.4824830149999997	0.08509332530920898
-0.4824219798437497	0.09528289474689762
-0.4823609446874997	0.10542863069655423
-0.4822999095312497	0.11552684941855905
-0.4822388743749997	0.12556402167427572
-0.4821778392187497	0.13554753539876133
-0.4821168040624997	0.14545991236577674
-0.4820557689062497	0.15530470723979273
-0.4819947337499997	0.16507509965365194
-0.4819336985937497	0.17476019121498532
-0.4818726634374997	0.1843669202371487
-0.4818116282812497	0.1938775524874444
-0.4817505931249997	0.2032976221065189
-0.4816895579687497	0.21261773810936185
-0.4816285228124997	0.22182977938546664
-0.4815674876562497	0.23093965598004068
-0.4815064524999997	0.23992942629185268
-0.4814454173437497	0.2488059173305975
-0.4813843821874997	0.2575584443332013
-0.4813233470312497	0.2661815414717969
-0.4812623118749997	0.27467898807082974
-0.4812012767187497	0.2830347640001458
-0.4811402415624997	0.29125678136029715
-0.4810792064062497	0.2993316976946026
-0.4810181712499997	0.3072570851216721
-0.4809571360937497	0.3150350227264082
-0.4808961009374997	0.3226508632564996
-0.4808350657812497	0.33011341245583325
-0.4807740306249997	0.33740862984486747
-0.4807129954687497	0.34453670111167867
-0.4806519603124997	0.3514969892385708
-0.4805909251562497	0.35827685736358655
-0.4805298899999997	0.36488524779802883
-0.4804688548437497	0.3713075278771634
-0.4804078196874997	0.3775469775736887
-0.4803467845312497	0.38360093467336165
-0.4802857493749997	0.38945908431041
-0.4802247142187497	0.3951296115971154
-0.4801636790624997	0.4005974643334845
-0.4801026439062497	0.40586849392019286
-0.4800416087499997	0.4109382031398244
-0.4799805735937497	0.4157991810428416
-0.4799195384374997	0.4204587888206447
-0.4798585032812497	0.42490245743543564
-0.4797974681249997	0.4291378412382497
-0.4797364329687497	0.433158208509663
-0.4796753978124997	0.43695929630381164
-0.4796143626562497	0.44054744407271473
-0.4795533274999997	0.4439091087002283
-0.4794922923437497	0.4470535310191935
-0.4794312571874997	0.4499723717633074
-0.4793702220312497	0.45266430282444475
-0.4793091868749997	0.45513400526394887
-0.4792481517187497	0.4573696804131385
-0.4791871165624997	0.45938156692101995
-0.4791260814062497	0.4611599826056387
-0.4790650462499997	0.46270679517547086
-0.4790040110937497	0.4640248551073273
-0.4789429759374997	0.46510443908158583
-0.4788819407812497	0.4659562977984763
-0.4788209056249997	0.4665698568917552
-0.4787598704687497	0.4669499513464031
-0.4786988353124997	0.46709751457680504
-0.4786378001562497	0.4670052384992813
-0.4785767649999997	0.4666838278057769
-0.4785157298437497	0.4661225329945056
-0.4784546946874997	0.46532883674666997
-0.4783936595312497	0.464301594430636
-0.4783326243749997	0.4630363284688808
-0.4782715892187497	0.4615431979917559
-0.4782105540624997	0.4598117446429439
-0.4781495189062497	0.4578517181300318
-0.4780884837499997	0.45566006266069387
-0.4780274485937497	0.45323538193351437
-0.4779664134374997	0.4505867152046387
-0.4779053782812497	0.4477043737430464
-0.4778443431249997	0.4446000030282355
-0.4777833079687497	0.4412689571128719
-0.4777222728124997	0.4377129315019251
-0.4776612376562497	0.43393938275701255
-0.4776002024999997	0.42994003048280416
-0.4775391673437497	0.42572776856660316
-0.4774781321874997	0.4212965872405217
-0.4774170970312497	0.41665141181511817
-0.4773560618749997	0.41179769293840046
-0.4772950267187497	0.4067290113432011
-0.4772339915624997	0.4014593163364867
-0.4771729564062497	0.395981471601915
-0.4771119212499997	0.39030295139719645
-0.4770508860937497	0.3844273625788572
-0.4769898509374997	0.37835095111881584
-0.4769288157812497	0.3720874616484705
-0.4768677806249997	0.36562897149491935
-0.4768067454687497	0.35898602136939967
-0.4767457103124997	0.3521602109245347
-0.4766846751562497	0.3451501110521152
-0.4766236399999997	0.3379689631037096
-0.4765626048437497	0.33060908497955155
-0.4765015696874997	0.3230830213999963
-0.4764405345312497	0.31538998412763763
-0.4763794993749997	0.3075318914322617
-0.4763184642187497	0.29952105270884666
-0.4762574290624997	0.29135003888780747
-0.4761963939062497	0.28303327882349916
-0.4761353587499997	0.2745680599224943
-0.4760743235937497	0.2659590305283939
-0.4760132884374997	0.25721662295789527
-0.4759522532812497	0.24833473001122014
-0.4758912181249997	0.2393295773882706
-0.4758301829687497	0.23019657070579932
-0.4757691478124997	0.2209429471717349
-0.4757081126562497	0.21157723930808736
-0.4756470774999997	0.20209498465315268
-0.4755860423437497	0.19251268418690934
-0.4755250071874997	0.1828243464392979
-0.4754639720312497	0.17304054857732482
-0.4754029368749997	0.1631673038111899
-0.4753419017187497	0.1532020682814819
-0.4752808665624997	0.1431618341623492
-0.4752198314062497	0.13303903365902578
-0.4751587962499997	0.12284644062661688
-0.4750977610937497	0.1125883450002039
-0.4750367259374997	0.10226426537298053
-0.4749756907812497	0.09189003317267236
-0.4749146556249997	0.08145829894093282
-0.4748536204687497	0.07098423715006875
-0.4747925853124997	0.06046914069510723
-0.4747315501562497	0.04991513853285082
-0.4746705149999997	0.039336719535030144
-0.4746094798437497	0.028726302240214496
-0.4745484446874997	0.01810095585194101
-0.4744874095312497	0.0074597070713665154
-0.4744263743749997	-0.0031925438489121
-0.4743653392187497	-0.013843100367129355
-0.4743043040624997	-0.024499123694612837
-0.4742432689062497	-0.03514244842781871
-0.4741822337499997	-0.04577650650350972
-0.4741211985937497	-0.056393867147748626
-0.4740601634374997	-0.06698382525881551
-0.4739991282812497	-0.07755200592828664
-0.4739380931249997	-0.08807971113959541
-0.4738770579687497	-0.09857291740621318
-0.4738160228124997	-0.10902180382393531
-0.4737549876562497	-0.11941812421279568
-0.4736939524999997	-0.12976598387919303
-0.4736329173437497	-0.14004662665349427
-0.4735718821874997	-0.1502674201799953
-0.4735108470312497	-0.16041619189914114
-0.4734498118749997	-0.17048756303723328
-0.4733887767187497	-0.18048410727135897
-0.4733277415624997	-0.19038825722280317
-0.4732667064062497	-0.20020820674471762
-0.4732056712499997	-0.2099294238256684
-0.4731446360937497	-0.2195494118618925
-0.4730836009374997	-0.22906853689640122
-0.4730225657812497	-0.23847091072230753
-0.4729615306249997	-0.2477654010372825
-0.4729004954687497	-0.25693578154073377
-0.4728394603124997	-0.26598278783390983
-0.4727784251562497	-0.27490463511824115
-0.4727173899999997	-0.28368685513043695
-0.4726563548437497	-0.2923381316218519
-0.4725953196874997	-0.30084166854336825
-0.4725342845312497	-0.3092008960953426
-0.4724732493749997	-0.3174115229070805
-0.4724122142187497	-0.32546189422358496
-0.4723511790624997	-0.33336036648241646
-0.4722901439062497	-0.341089451716871
-0.4722291087499997	-0.3486547779418385
-0.4721680735937497	-0.356049871629065
-0.4721070384374997	-0.36326589473528453
-0.4720460032812497	-0.37031043915554795
-0.4719849681249997	-0.37716659924006374
-0.4719239329687497	-0.38384166021398286
-0.4718628978124997	-0.3903267887372029
-0.4718018626562497	-0.3966164083204179
-0.4717408274999997	-0.40271687432650216
-0.4716797923437497	-0.4086121725426869
-0.4716187571874997	-0.4143111064140326
-0.4715577220312497	-0.4198033208596119
-0.4714966868749997	-0.42508628529203946
-0.4714356517187497	-0.4301641772303092
-0.4713746165624997	-0.4350227071722816
-0.4713135814062497	-0.43967201842050785
-0.4712525462499997	-0.44410032593472676
-0.4711915110937497	-0.44830822834992873
-0.4711304759374997	-0.45229791137313147
-0.4710694407812497	-0.4560570155355282
-0.4710084056249997	-0.45959622360262137
-0.4709473704687497	-0.4629030798798765
-0.4708863353124997	-0.4659810799379023
-0.4708253001562497	-0.4688302214013147
-0.4707642649999997	-0.4714408194168217
-0.4707032298437497	-0.47382341299266123
-0.4706421946874997	-0.47596516424208435
-0.4705811595312497	-0.47787247645471237
-0.4705201243749997	-0.4795432243490017
-0.4704590892187497	-0.48097054050234317
-0.4703980540624997	-0.48216445451593504
-0.4703370189062497	-0.48311228698136044
-0.4702759837499997	-0.48382273407198223
-0.4702149485937497	-0.48429187043597555
-0.4701539134374997	-0.48451599279209157
-0.4700928782812497	-0.48450395620775066
-0.4700318431249997	-0.4842439381688143
-0.4699708079687497	-0.48374654182210663
-0.4699097728124997	-0.48300608755349733
-0.4698487376562497	-0.48202221702238235
-0.4697877024999997	-0.480802260564215
-0.4697266673437497	-0.47933565790513516
-0.4696656321874997	-0.47763445610517663
-0.4696045970312497	-0.475691669940495
