Time	Frequency
-0.5000068511249935	-1.3247981412633176e-23
-0.49994581596874355	-1.2989994167497938e-23
-0.49988478081249355	-1.2725366974450335e-23
-0.49982374565624355	-1.2454228679599437e-23
-0.49976271049999355	-1.2176720148287656e-23
-0.49970167534374355	-1.1892981590953323e-23
-0.49964064018749355	-1.1603156145288703e-23
-0.49957960503124355	-1.130739067614307e-23
-0.49951856987499355	-1.100583038793794e-23
-0.49945753471874355	-1.069862596304122e-23
-0.49939649956249355	-1.0385942945676191e-23
-0.49933546440624355	-1.0067944075406663e-23
-0.49927442924999355	-9.744776474413777e-24
-0.49921339409374355	-9.416608264984058e-24
-0.49915235893749355	-9.083613506387438e-24
-0.49909132378124355	-8.7459429322254e-24
-0.49903028862499355	-8.403768875120282e-24
-0.49896925346874355	-8.05728284083599e-24
-0.49890821831249355	-7.706670136360935e-24
-0.49884718315624355	-7.352109511084508e-24
-0.49878614799999355	-6.993753423423535e-24
-0.49872511284374355	-6.63177084096081e-24
-0.49866407768749355	-6.2663742647053276e-24
-0.49860304253124355	-5.8977615686010064e-24
-0.49854200737499355	-5.526112512910791e-24
-0.49848097221874355	-5.151613240233691e-24
-0.49841993706249355	-4.774444073132531e-24
-0.49835890190624355	-4.3947993227622615e-24
-0.49829786674999355	-4.012898058309228e-24
-0.49823683159374355	-3.6289264991364025e-24
-0.49817579643749355	-3.243046608313076e-24
-0.49811476128124355	-2.855469392100644e-24
-0.49805372612499355	-2.4664248969374046e-24
-0.49799269096874355	-2.0761056155747444e-24
-0.49793165581249355	-1.6846934748995944e-24
-0.49787062065624355	-1.2923870046820799e-24
-0.49780958549999355	-8.993906434338466e-25
-0.49774855034374355	-5.05909324353187e-25
-0.49768751518749355	-1.1215263388149346e-25
-0.49762648003124355	2.816777615547161e-25
-0.49756544487499355	6.753970789715142e-25
-0.49750440971874355	1.0688045946877502e-24
-0.49744337456249355	1.4616802208084966e-24
-0.49738233940624355	1.8538184903584182e-24
-0.49732130424999355	2.2450201112975904e-24
-0.49726026909374355	2.6350958213961336e-24
-0.49719923393749355	3.023857688311782e-24
-0.49713819878124355	3.4110860227330394e-24
-0.49707716362499355	3.796569116432711e-24
-0.49701612846874355	4.180127367376791e-24
-0.49695509331249355	4.5615720137457964e-24
-0.49689405815624355	4.940691978982421e-24
-0.49683302299999355	5.317283287512548e-24
-0.49677198784374355	5.6911580504946696e-24
-0.49671095268749355	6.0621269624034415e-24
-0.49664991753124355	6.430006310742979e-24
-0.49658888237499355	6.794616094793264e-24
-0.49652784721874355	7.155749759895321e-24
-0.49646681206249355	7.51320106083666e-24
-0.49640577690624355	7.866805786823634e-24
-0.49634474174999355	8.216391116001973e-24
-0.49628370659374355	8.561763039675137e-24
-0.49622267143749355	8.902753588254604e-24
-0.49616163628124355	9.239184761655579e-24
-0.49610060112499355	9.570864740482275e-24
-0.49603956596874355	9.897639481832938e-24
-0.49597853081249355	1.0219352398537334e-23
-0.49591749565624355	1.0535809523152216e-23
-0.49585646049999355	1.0846832444024874e-23
-0.49579542534374355	1.115228373641985e-23
-0.49573439018749355	1.1452030382233274e-23
-0.49567335503124355	1.174590581442436e-23
-0.49561231987499355	1.2033731761329396e-23
-0.49555128471874355	1.2315361160189267e-23
-0.49549024956249355	1.2590652961057034e-23
-0.49542921440624355	1.2859463636119314e-23
-0.49536817924999355	1.3121668882033545e-23
-0.49530714409374355	1.3377131450071868e-23
-0.49524610893749355	1.362570288195495e-23
-0.49518507378124355	1.3867256478892932e-23
-0.49512403862499355	1.41016682170824e-23
-0.49506300346874355	1.432881552967591e-23
-0.49500196831249355	1.4548587061614764e-23
-0.49494093315624355	1.4760863454492294e-23
-0.49487989799999355	1.4965528558627076e-23
-0.49481886284374355	1.5162478825228925e-23
-0.49475782768749355	1.5351614548064926e-23
-0.49469679253124355	1.5532840605077013e-23
-0.49463575737499355	1.570605713514456e-23
-0.49457472221874355	1.5871166015357527e-23
-0.49451368706249355	1.6028085885803504e-23
-0.49445265190624355	1.6176740391525074e-23
-0.49439161674999355	1.631704888801489e-23
-0.49433058159374355	1.6448933322287578e-23
-0.49426954643749355	1.6572323842101044e-23
-0.49420851128124355	1.6687161071516205e-23
-0.49414747612499355	1.6793385526471902e-23
-0.49408644096874355	1.6890935421517264e-23
-0.49402540581249355	1.6979759408270114e-23
-0.49396437065624355	1.7059810293030523e-23
-0.49390333549999355	1.713104471137085e-23
-0.49384230034374355	1.719342996608373e-23
-0.49378126518749355	1.7246932960716163e-23
-0.49372023003124355	1.7291519728218583e-23
-0.49365919487499355	1.7327165498642838e-23
-0.49359815971874355	1.73538526049352e-23
-0.49353712456249355	1.7371566618790432e-23
-0.49347608940624355	1.7380297121588575e-23
-0.49341505424999355	1.7380037617573953e-23
-0.49335401909374355	1.7370787342213786e-23
-0.49329298393749355	1.7352551909241658e-23
-0.49323194878124355	1.732533909307638e-23
-0.49317091362499355	1.7289159214909306e-23
-0.49310987846874355	1.724403072869097e-23
-0.49304884331249355	1.7189978123318262e-23
-0.49298780815624355	1.7127027217775842e-23
-0.49292677299999355	1.705520900806807e-23
-0.49286573784374355	1.697456110087487e-23
-0.49280470268749355	1.688512438364855e-23
-0.49274366753124355	1.6786942999964014e-23
-0.49268263237499355	1.668006774509638e-23
-0.49262159721874355	1.656455498154975e-23
-0.49256056206249355	1.6440462035177554e-23
-0.49249952690624355	1.630785072844908e-23
-0.49243849174999355	1.6166787083365054e-23
-0.49237745659374355	1.6017344949566237e-23
-0.49231642143749355	1.5859612611705312e-23
-0.49225538628124355	1.5693670352118212e-23
-0.49219435112499355	1.5519584743973264e-23
-0.49213331596874355	1.533744702902325e-23
-0.49207228081249355	1.514736893602765e-23
-0.49201124565624355	1.4949444074584388e-23
-0.49195021049999355	1.47437640260313e-23
-0.49188917534374355	1.4530440525760043e-23
-0.49182814018749355	1.4309592294030097e-23
-0.49176710503124355	1.4081335256453603e-23
-0.49170606987499355	1.3845776538651855e-23
-0.49164503471874355	1.3603024767802805e-23
-0.49158399956249355	1.3353212173689377e-23
-0.49152296440624355	1.3096489771874044e-23
-0.49146192924999355	1.2832997513382032e-23
-0.49140089409374355	1.2562852980326897e-23
-0.49133985893749355	1.2286186249790655e-23
-0.49127882378124355	1.2003152077466088e-23
-0.49121778862499355	1.1713894553586885e-23
-0.49115675346874355	1.1418557784865281e-23
-0.49109571831249355	1.111730995040688e-23
-0.49103468315624355	1.0810314680513553e-23
-0.49097364799999355	1.0497725127419305e-23
-0.49091261284374355	1.0179700435071686e-23
-0.49085157768749355	9.856397400564646e-24
-0.49079054253124355	9.527977832836052e-24
-0.49072950737499355	9.194626546789707e-24
-0.49066847221874355	8.856530663717397e-24
-0.49060743706249355	8.513857211629153e-24
-0.49054640190624355	8.166783368645539e-24
-0.49048536674999355	7.815495093275227e-24
-0.49042433159374355	7.460157452717283e-24
-0.49036329643749355	7.100958532123737e-24
-0.49030226128124355	6.738112281390246e-24
-0.49024122612499355	6.371800246693457e-24
-0.49018019096874355	6.002187156571844e-24
-0.49011915581249355	5.6294742474463925e-24
-0.49005812065624355	5.253890330902111e-24
-0.48999708549999355	4.875628291333156e-24
-0.48993605034374355	4.494853326182468e-24
-0.48987501518749355	4.111765158970154e-24
-0.48981398003124355	3.72658267299312e-24
-0.48975294487499355	3.339498909045492e-24
-0.48969190971874355	2.9507105462995243e-24
-0.48963087456249355	2.5604530143092023e-24
-0.48956983940624355	2.168936537269692e-24
-0.48950880424999355	1.7763287515080653e-24
-0.48944776909374355	1.3828291837222142e-24
-0.48938673393749355	9.886590184867718e-25
-0.48932569878124355	5.940277716444319e-25
-0.48926466362499355	1.9915368751465232e-25
-0.48920362846874355	-1.9575227707241627e-25
-0.48914259331249355	-5.904967844708267e-25
-0.48908155815624355	-9.848726596367567e-25
-0.48902052299999355	-1.3786681673532471e-24
-0.48895948784374355	-1.7716780830087802e-24
-0.48889845268749355	-2.1636917083487804e-24
-0.48883741753124355	-2.5545111466348845e-24
-0.48877638237499355	-2.9439358291215997e-24
-0.48871534721874355	-3.33173649709086e-24
-0.48865431206249355	-3.7177030545030065e-24
-0.48859327690624355	-4.1016577981746616e-24
-0.48853224174999355	-4.483396562850061e-24
-0.48847120659374355	-4.862705289833425e-24
-0.48841017143749355	-5.239399666962271e-24
-0.48834913628124355	-5.6132755225493706e-24
-0.48828810112499355	-5.984113859316536e-24
-0.48822706596874355	-6.351728399457526e-24
-0.48816603081249355	-6.715932525691619e-24
-0.48810499565624355	-7.076535902156699e-24
-0.48804396049999355	-7.433353312384718e-24
-0.48798292534374355	-7.786177509980125e-24
-0.48792189018749355	-8.134818126282809e-24
-0.48786085503124355	-8.479112684868385e-24
-0.48779981987499355	-8.818872726992085e-24
-0.48773878471874355	-9.153899736640075e-24
-0.48767774956249355	-9.484021101224112e-24
-0.48761671440624355	-9.809075370538413e-24
-0.48755567924999355	-1.0128891679326287e-23
-0.48749464409374355	-1.0443290570832824e-23
-0.48743360893749355	-1.0752098808946658e-23
-0.48737257378124355	-1.1055150525123812e-23
-0.48731153862499355	-1.1352288864770893e-23
-0.48725050346874355	-1.1643369114213e-23
-0.48718946831249355	-1.1928235063951508e-23
-0.48712843315624355	-1.2206716970677643e-23
-0.48706739799999355	-1.2478661778708042e-23
-0.48700636284374355	-1.2743932920437542e-23
-0.48694532768749355	-1.3002393066626919e-23
-0.48688429253124355	-1.3253907814518597e-23
-0.48682325737499355	-1.3498345719197677e-23
-0.48676222221874355	-1.3735566783120043e-23
-0.48670118706249355	-1.3965433361546306e-23
-0.48664015190624355	-1.418782535874205e-23
-0.48657911674999355	-1.4402624824537016e-23
-0.48651808159374355	-1.4609718781984383e-23
-0.48645704643749355	-1.4809011259328698e-23
-0.48639601128124355	-1.5000391774695666e-23
-0.48633497612499355	-1.5183733712502474e-23
-0.48627394096874355	-1.5358936852126176e-23
-0.48621290581249355	-1.5525921342479433e-23
-0.48615187065624355	-1.5684598425288917e-23
-0.48609083549999355	-1.5834877898817892e-23
-0.48602980034374355	-1.597667537214561e-23
-0.48596876518749355	-1.6109911440815754e-23
-0.48590773003124355	-1.6234517660506217e-23
-0.48584669487499355	-1.6350426451446724e-23
-0.48578565971874355	-1.645756864199688e-23
-0.48572462456249355	-1.6555885658296884e-23
-0.48566358940624355	-1.664532332546438e-23
-0.48560255424999355	-1.6725830117272373e-23
-0.48554151909374355	-1.6797364163054986e-23
-0.48548048393749355	-1.6859885513594536e-23
-0.48541944878124355	-1.6913354631204634e-23
-0.48535841362499355	-1.6957740221630435e-23
-0.48529737846874355	-1.699301681152127e-23
-0.48523634331249355	-1.7019161888015088e-23
-0.48517530815624355	-1.7036158568508417e-23
-0.48511427299999355	-1.7043996236929037e-23
-0.48505323784374355	-1.704266847405496e-23
-0.48499220268749355	-1.703217126649656e-23
-0.48493116753124355	-1.701250575051702e-23
-0.48487013237499355	-1.6983679904302428e-23
-0.48480909721874355	-1.694570618690614e-23
-0.48474806206249355	-1.6898602611623207e-23
-0.48468702690624355	-1.6842392374292646e-23
-0.48462599174999355	-1.6777100559417663e-23
-0.48456495659374355	-1.6702756258237864e-23
-0.48450392143749355	-1.661939460584242e-23
-0.48444288628124355	-1.652705861872618e-23
-0.48438185112499355	-1.6425797941332696e-23
-0.48432081596874355	-1.63156620781721e-23
-0.48425978081249355	-1.6196704302126937e-23
-0.48419874565624355	-1.606898268432379e-23
-0.48413771049999355	-1.5932559102736836e-23
-0.48407667534374355	-1.5787508414720865e-23
-0.48401564018749355	-1.5633908005410626e-23
-0.48395460503124355	-1.5471829134637284e-23
-0.48389356987499355	-1.530135453636939e-23
-0.48383253471874355	-1.5122574050859985e-23
-0.48377149956249355	-1.493557653532472e-23
-0.48371046440624355	-1.474046288372983e-23
-0.48364942924999355	-1.453733643574942e-23
-0.48358839409374355	-1.4326297583828518e-23
-0.48352735893749355	-1.4107446845765354e-23
-0.48346632378124355	-1.3880893457083313e-23
-0.48340528862499355	-1.36467751870884e-23
-0.48334425346874355	-1.3405224237523103e-23
-0.48328321831249355	-1.3156339706644445e-23
-0.48322218315624355	-1.2900235199594081e-23
-0.48316114799999355	-1.263706648356559e-23
-0.48310011284374355	-1.236698435882138e-23
-0.48303907768749355	-1.209011619192628e-23
-0.48297804253124355	-1.1806603979401427e-23
-0.48291700737499355	-1.151659461061855e-23
-0.48285597221874355	-1.1220230034601085e-23
-0.48279493706249355	-1.0917678224669521e-23
-0.48273390190624355	-1.060911042288474e-23
-0.48267286674999355	-1.0294670075961729e-23
-0.48261183159374355	-9.974510225605549e-24
-0.48255079643749355	-9.648814047856916e-24
-0.48248976128124355	-9.317764171989322e-24
-0.48242872612499355	-8.9815238827501e-24
-0.48236769096874355	-8.640254137690588e-24
-0.48230665581249355	-8.294141932901631e-24
-0.48224562065624355	-7.943383785349335e-24
-0.48218458549999355	-7.588154634827858e-24
-0.48212355034374355	-7.22863646975395e-24
-0.48206251518749355	-6.865029203452779e-24
-0.48200148003124355	-6.497514723642801e-24
-0.48194044487499355	-6.126279406105683e-24
-0.48187940971874355	-5.7515327725510694e-24
-0.48181837456249355	-5.373477416263246e-24
-0.48175733940624355	-4.99230936988406e-24
-0.48169630424999355	-4.608217208160555e-24
-0.48163526909374355	-4.221396264628153e-24
-0.48157423393749355	-3.8320699352748e-24
-0.48151319878124355	-3.440451741751798e-24
-0.48145216362499355	-3.046736004846433e-24
-0.48139112846874355	-2.65112771209618e-24
-0.48133009331249355	-2.253842285647133e-24
-0.48126905815624355	-1.8550885876349755e-24
-0.48120802299999355	-1.4550649822608496e-24
-0.48114698784374355	-1.053989294731255e-24
-0.48108595268749355	-6.5209642512352955e-25
-0.48102491753124355	-2.4959304320572604e-25
-0.48096388237499355	1.5332481626029804e-25
-0.48090284721874355	5.5643574103406325e-25
-0.48084181206249355	9.59529301370287e-25
-0.48078077690624355	1.3624020487728267e-24
-0.48071974174999355	1.764813930326984e-24
-0.48065870659374355	2.1665453474081443e-24
-0.48059767143749355	2.5674102704652234e-24
-0.48053663628124355	2.967189143133163e-24
-0.48047560112499355	3.3656569225248035e-24
-0.48041456596874355	3.762606225758861e-24
-0.48035353081249355	4.157826982721517e-24
-0.48029249565624355	4.551120049447574e-24
-0.48023146049999355	4.942273655163102e-24
-0.48017042534374355	5.3310559287816204e-24
-0.48010939018749355	5.717261983967717e-24
-0.48004835503124355	6.1007008669142076e-24
-0.47998731987499355	6.481164042443012e-24
-0.47992628471874355	6.858448030094931e-24
-0.47986524956249355	7.232354737775083e-24
-0.47980421440624355	7.602680860856458e-24
-0.47974317924999355	7.969230990228887e-24
-0.47968214409374355	8.331800315131888e-24
-0.47962110893749355	8.69018042048454e-24
-0.47956007378124355	9.044192273491905e-24
-0.47949903862499355	9.393657745210155e-24
-0.47943800346874355	9.738387861066509e-24
-0.47937696831249355	1.0078202346565424e-23
-0.47931593315624355	1.0412904465375818e-23
-0.47925489799999355	1.0742295842997066e-23
-0.47919386284374355	1.1066209422994009e-23
-0.47913282768749355	1.1384485955098625e-23
-0.47907179253124355	1.1696960170544334e-23
-0.47901075737499355	1.2003456532080407e-23
-0.47894972221874355	1.2303794762621889e-23
-0.47888868706249355	1.2597810751230585e-23
-0.47882765190624355	1.2885353184131392e-23
-0.47876661674999355	1.3166276097454002e-23
-0.47870558159374355	1.3440428249627754e-23
-0.47864454643749355	1.3707644901351087e-23
-0.47858351128124355	1.396777663919595e-23
-0.47852247612499355	1.4220697434507114e-23
-0.47846144096874355	1.446626917243444e-23
-0.47840040581249355	1.4704348702515727e-23
-0.47833937065624355	1.4934812241475734e-23
-0.47827833549999355	1.5157534218583198e-23
-0.47821730034374355	1.5372386146391407e-23
-0.47815626518749355	1.5579255983104373e-23
-0.47809523003124355	1.5778031331399589e-23
-0.47803419487499355	1.5968594448963583e-23
-0.47797315971874355	1.615084058525916e-23
-0.47791212456249355	1.6324675386032133e-23
-0.47785108940624355	1.649000642316843e-23
-0.47779005424999355	1.6646740201525473e-23
-0.47772901909374355	1.679478155613848e-23
-0.47766798393749355	1.6934043346198804e-23
-0.47760694878124355	1.7064454067333362e-23
-0.47754591362499355	1.7185947590614692e-23
-0.47748487846874355	1.7298452069996546e-23
-0.47742384331249355	1.7401897881076217e-23
-0.47736280815624355	1.749622574859451e-23
-0.47730177299999355	1.7581383358371294e-23
-0.47724073784374355	1.765732161631988e-23
-0.47717970268749355	1.7723995948622952e-23
-0.47711866753124355	1.7781366737519817e-23
-0.47705763237499355	1.7829397802271037e-23
-0.47699659721874355	1.7868059715401866e-23
-0.47693556206249355	1.789732854604272e-23
-0.47687452690624355	1.7917182883688625e-23
-0.47681349174999355	1.7927607457590502e-23
-0.47675245659374355	1.7928593114612254e-23
-0.47669142143749355	1.7920134820726592e-23
-0.47663038628124355	1.790223275884297e-23
-0.47656935112499355	1.7874892658536343e-23
-0.47650831596874355	1.7838124209511407e-23
-0.47644728081249355	1.779194055365934e-23
-0.47638624565624355	1.7736362300793162e-23
-0.47632521049999355	1.7671418101994052e-23
-0.47626417534374355	1.7597136646587764e-23
-0.47620314018749355	1.7513550614505686e-23
-0.47614210503124355	1.742070286923673e-23
-0.47608106987499355	1.7318635962507367e-23
-0.47602003471874355	1.7207397886657234e-23
-0.47595899956249355	1.7087049146964422e-23
-0.47589796440624355	1.695764840885503e-23
-0.47583692924999355	1.6819258852781353e-23
-0.47577589409374355	1.6671955177457175e-23
-0.47571485893749355	1.651580539673015e-23
-0.47565382378124355	1.6350877815974886e-23
-0.47559278862499355	1.617726524039996e-23
-0.47553175346874355	1.5995070760683832e-23
-0.47547071831249355	1.580438028531394e-23
-0.47540968315624355	1.560527858205458e-23
-0.47534864799999355	1.5397873802604058e-23
-0.47528761284374355	1.518227508149741e-23
-0.47522657768749355	1.4958586047717714e-23
-0.47516554253124355	1.472692818239889e-23
-0.47510450737499355	1.4487424903157022e-23
-0.47504347221874355	1.424019842291313e-23
-0.47498243706249355	1.3985380116092315e-23
-0.47492140190624355	1.3723092228816372e-23
-0.47486036674999355	1.345345955308195e-23
-0.47479933159374355	1.3176632439201624e-23
-0.47473829643749355	1.2892773471119303e-23
-0.47467726128124355	1.2602029206475074e-23
-0.47461622612499355	1.2304532742828985e-23
-0.47455519096874355	1.200043394088339e-23
-0.47449415581249355	1.1689901870918484e-23
-0.47443312065624355	1.1373104273631537e-23
-0.47437208549999355	1.1050197201275299e-23
-0.47431105034374355	1.0721347060110661e-23
-0.47425001518749355	1.038674728872216e-23
-0.47418898003124355	1.0046575383906816e-23
-0.47412794487499355	9.700981058775117e-24
-0.47406690971874355	9.350136401360728e-24
-0.47400587456249355	8.9942466695073e-24
-0.47394483940624355	8.633517987647245e-24
-0.47388380424999355	8.268136495139703e-24
-0.47382276909374355	7.898273461313754e-24
-0.47376173393749355	7.524107941583373e-24
-0.47370069878124355	7.145851319337874e-24
-0.47363966362499355	6.763731767819897e-24
-0.47357862846874355	6.377946744286323e-24
-0.47351759331249355	5.988671871796353e-24
-0.47345655815624355	5.596108620363849e-24
-0.47339552299999355	5.200475371249336e-24
-0.47333448784374355	4.801986633762561e-24
-0.47327345268749355	4.400861159024443e-24
-0.47321241753124355	3.997314680554667e-24
-0.47315138237499355	3.591548757805634e-24
-0.47309034721874355	3.183760597932878e-24
-0.47302931206249355	2.7741730298044102e-24
-0.47296827690624355	2.363015763398589e-24
-0.47290724174999355	1.950501616140073e-24
-0.47284620659374355	1.5368679344438668e-24
-0.47278517143749355	1.1223443427508551e-24
-0.47272413628124355	7.071044494282312e-25
-0.47266310112499355	2.913476515664264e-25
-0.47260206596874355	-1.2465817751129104e-25
-0.47254103081249355	-5.406627017505674e-25
-0.47247999565624355	-9.564687084492006e-25
-0.47241896049999355	-1.3718795731199461e-24
-0.47235792534374355	-1.786678670874344e-24
-0.47229689018749355	-2.2006354866728883e-24
