Time	Frequency
-0.5000307664062476	-1.6622259081627924e-23
-0.49996973124999755	-1.6808773149058936e-23
-0.49990869609374755	-1.698710682321004e-23
-0.49984766093749755	-1.7157532444184564e-23
-0.49978662578124755	-1.7320075775521512e-23
-0.49972559062499755	-1.7474144980740703e-23
-0.49966455546874755	-1.7620304781223478e-23
-0.49960352031249755	-1.7758051403286377e-23
-0.49954248515624755	-1.788730277688011e-23
-0.49948144999999755	-1.800844479239319e-23
-0.49942041484374755	-1.8120777243562354e-23
-0.49935937968749755	-1.8224735580266184e-23
-0.49929834453124755	-1.8320191342881418e-23
-0.49923730937499755	-1.8406715303911625e-23
-0.49917627421874755	-1.848489102883704e-23
-0.49911523906249755	-1.855414006043298e-23
-0.49905420390624755	-1.861458753291002e-23
-0.49899316874999755	-1.8666507637607678e-23
-0.49893213359374755	-1.870927261646362e-23
-0.49887109843749755	-1.8743430435045794e-23
-0.49881006328124755	-1.8768722311571222e-23
-0.49874902812499755	-1.878491455459554e-23
-0.49868799296874755	-1.879255651320914e-23
-0.49862695781249755	-1.8791043717183908e-23
-0.49856592265624755	-1.8780690976288705e-23
-0.49850488749999755	-1.876163542098411e-23
-0.49844385234374755	-1.8733371444191668e-23
-0.49838281718749755	-1.8696521207082807e-23
-0.49832178203124755	-1.8650716777828283e-23
-0.49826074687499755	-1.8595930849176945e-23
-0.49819971171874755	-1.8532639642047435e-23
-0.49813867656249755	-1.8460255148022654e-23
-0.49807764140624755	-1.8379255386486997e-23
-0.49801660624999755	-1.828963804443879e-23
-0.49795557109374755	-1.819105392336547e-23
-0.49789453593749755	-1.8084158241931782e-23
-0.49783350078124755	-1.7968501950787304e-23
-0.49777246562499755	-1.784425441804938e-23
-0.49771143046874755	-1.7711793999508413e-23
-0.49765039531249755	-1.7570595979710054e-23
-0.49758936015624755	-1.74212631435702e-23
-0.49752832499999755	-1.726366535202022e-23
-0.49746728984374755	-1.7097629835294777e-23
-0.49740625468749755	-1.69237897151322e-23
-0.49734521953124755	-1.6741659192191017e-23
-0.49728418437499755	-1.6551598584083044e-23
-0.49722314921874755	-1.635386200665943e-23
-0.49716211406249755	-1.614802605767556e-23
-0.49710107890624755	-1.5934772935113672e-23
-0.49704004374999755	-1.5713858346166608e-23
-0.49697900859374755	-1.5485306335659876e-23
-0.49691797343749755	-1.524968679506345e-23
-0.49685693828124755	-1.5006513114056398e-23
-0.49679590312499755	-1.4756317959864206e-23
-0.49673486796874755	-1.4499209499455468e-23
-0.49667383281249755	-1.4234888858277932e-23
-0.49661279765624755	-1.396409354376493e-23
-0.49655176249999755	-1.368649387123057e-23
-0.49649072734374755	-1.340229679862202e-23
-0.49642969218749755	-1.311197368679536e-23
-0.49636865703124755	-1.2815072490867427e-23
-0.49630762187499755	-1.2512259329882014e-23
-0.49624658671874755	-1.2203512402579748e-23
-0.49618555156249755	-1.1888698588795292e-23
-0.49612451640624755	-1.1568542437898305e-23
-0.49606348124999755	-1.1242633000644823e-23
-0.49600244609374755	-1.0911364426596102e-23
-0.49594141093749755	-1.057510409435452e-23
-0.49588037578124755	-1.023346939025523e-23
-0.49581934062499755	-9.88721312149962e-24
-0.49575830546874755	-9.536184072599885e-24
-0.49569727031249755	-9.180418023242256e-24
-0.49563623515624755	-8.82059142297957e-24
-0.49557519999999755	-8.456261027592111e-24
-0.49551416484374755	-8.087984456278468e-24
-0.49545312968749755	-7.71599642589176e-24
-0.49539209453124755	-7.34001982743686e-24
-0.49533105937499755	-6.960849458898235e-24
-0.49527002421874755	-6.578204580741188e-24
-0.49520898906249755	-6.19230612256165e-24
-0.49514795390624755	-5.803758736504889e-24
-0.49508691874999755	-5.4121164308657844e-24
-0.49502588359374755	-5.018064514690714e-24
-0.49496484843749755	-4.6216809445084064e-24
-0.49490381328124755	-4.2228173030188644e-24
-0.49484277812499755	-3.8222869057507206e-24
-0.49478174296874755	-3.419721071905984e-24
-0.49472070781249755	-3.0154932986465808e-24
-0.49465967265624755	-2.610074714194179e-24
-0.49459863749999755	-2.2030810470792716e-24
-0.49453760234374755	-1.795299146852625e-24
-0.49447656718749755	-1.3866378880430766e-24
-0.49441553203124755	-9.771062522803737e-25
-0.49435449687499755	-5.674726731523948e-25
-0.49429346171874755	-1.5729370081383991e-25
-0.49423242656249755	2.5288714351875546e-25
-0.49417139140624755	6.627485755013016e-25
-0.49411035624999755	1.0726127202603045e-24
-0.49404932109374755	1.4816327155100819e-24
-0.49398828593749755	1.890040639044364e-24
-0.49392725078124755	2.2976692889900633e-24
-0.49386621562499755	2.7038420299178257e-24
-0.49380518046874755	3.1090369505383745e-24
-0.49374414531249755	3.512574707043997e-24
-0.49368311015624755	3.914299114656111e-24
-0.49362207499999755	4.314422163369482e-24
-0.49356103984374755	4.712105501349925e-24
-0.49350000468749755	5.107716022345238e-24
-0.49343896953124755	5.5008969493289425e-24
-0.49337793437499755	5.891107176881524e-24
-0.49331689921874755	6.278836562848082e-24
-0.49325586406249755	6.663302714555327e-24
-0.49319482890624755	7.044529564747408e-24
-0.49313379374999755	7.422588215049467e-24
-0.49307275859374755	7.796670874050032e-24
-0.49301172343749755	8.167257528110855e-24
-0.49295068828124755	8.533860408721965e-24
-0.49288965312499755	8.896101970637566e-24
-0.49282861796874755	9.254400756325322e-24
-0.49276758281249755	9.607909837854107e-24
-0.49270654765624755	9.956842431776786e-24
-0.49264551249999755	1.0301139508195702e-23
-0.49258447734374755	1.0640090331282464e-23
-0.49252344218749755	1.0974207855117133e-23
-0.49246240703124755	1.130287020336658e-23
-0.49240137187499755	1.162592116629267e-23
-0.49234033671874755	1.1943688595657986e-23
-0.49227930156249755	1.2255308163836826e-23
-0.49221826640624755	1.2561149868549635e-23
-0.49215723124999755	1.2860994685998909e-23
-0.49209619609374755	1.3154288337108811e-23
-0.49203516093749755	1.344156998740112e-23
-0.49197412578124755	1.3722112593391697e-23
-0.49191309062499755	1.399595277874309e-23
-0.49185205546874755	1.4263291931364362e-23
-0.49179102031249755	1.4523329368442302e-23
-0.49172998515624755	1.4776571773768928e-23
-0.49166894999999755	1.502264320429596e-23
-0.49160791484374755	1.5261167793463472e-23
-0.49154687968749755	1.549265544143839e-23
-0.49148584453124755	1.5716327250465764e-23
-0.49142480937499755	1.5932414204771725e-23
-0.49136377421874755	1.614098200919665e-23
-0.49130273906249755	1.6341343034234917e-23
-0.49124170390624755	1.653407332628989e-23
-0.49118066874999755	1.6718669276010249e-23
-0.49111963359374755	1.6894970264768722e-23
-0.49105859843749755	1.7063405532666963e-23
-0.49099756328124755	1.7223205407376313e-23
-0.49093652812499755	1.737477826954324e-23
-0.49087549296874755	1.751802459556689e-23
-0.49081445781249755	1.7652414507839103e-23
-0.49075342265624755	1.777856713001226e-23
-0.49069238749999755	1.7895884102585422e-23
-0.49063135234374755	1.80044138522094e-23
-0.49057031718749755	1.8104476802319794e-23
-0.49050928203124755	1.819536597877977e-23
-0.49044824687499755	1.827762061400897e-23
-0.49038721171874755	1.8350996739117372e-23
-0.49032617656249755	1.8415167766497708e-23
-0.49026514140624755	1.8470727496529555e-23
-0.49020410624999755	1.8517022958610225e-23
-0.49014307109374755	1.855431508647128e-23
-0.49008203593749755	1.8582788247854817e-23
-0.49002100078124755	1.8601845962843545e-23
-0.48995996562499755	1.8612122091047312e-23
-0.48989893046874755	1.8613246669740956e-23
-0.48983789531249755	1.8605104405303073e-23
-0.48977686015624755	1.8588222768998426e-23
-0.48971582499999755	1.8561954311455035e-23
-0.48965478984374755	1.852674216606697e-23
-0.48959375468749755	1.8482622337037848e-23
-0.48953271953124755	1.842915411665932e-23
-0.48947168437499755	1.8367013023162033e-23
-0.48941064921874755	1.82957358972991e-23
-0.48934961406249755	1.8215423221480816e-23
-0.48928857890624755	1.812649909972429e-23
-0.48922754374999755	1.802837361346837e-23
-0.48916650859374755	1.7921635803118673e-23
-0.48910547343749755	1.7806174705917752e-23
-0.48904443828124755	1.768173485792044e-23
-0.48898340312499755	1.7548983942963494e-23
-0.48892236796874755	1.7407401474610678e-23
-0.48886133281249755	1.725729897555662e-23
-0.48880029765624755	1.7098979400392714e-23
-0.48873926249999755	1.6931944019885196e-23
-0.48867822734374755	1.6756878899734057e-23
-0.48861719218749755	1.6573547171447265e-23
-0.48855615703124755	1.6381893404147393e-23
-0.48849512187499755	1.6182537486013212e-23
-0.48843408671874755	1.597495072659273e-23
-0.48837305156249755	1.5759621497863323e-23
-0.48831201640624755	1.5536712781498092e-23
-0.48825098124999755	1.530585957570239e-23
-0.48818994609374755	1.5067793337018006e-23
-0.48812891093749755	1.4822183808127177e-23
-0.48806787578124755	1.4569187322572522e-23
-0.48800684062499755	1.4309321351094296e-23
-0.48794580546874755	1.4042090226399772e-23
-0.48788477031249755	1.3768133520042182e-23
-0.48782373515624755	1.3487460236763456e-23
-0.48776269999999755	1.3199878413060234e-23
-0.48770166484374755	1.2906134430300035e-23
-0.48764062968749755	1.2605805801089775e-23
-0.48757959453124755	1.2299242378526093e-23
-0.48751855937499755	1.1986855964148236e-23
-0.48745752421874755	1.1668217424530571e-23
-0.48739648906249755	1.1344076803648964e-23
-0.48733545390624755	1.1014308112670324e-23
-0.48727441874999755	1.0678882305800178e-23
-0.48721338359374755	1.033850272058831e-23
-0.48715234843749755	9.992728434554217e-24
-0.48709131328124755	9.642090240962915e-24
-0.48703027812499755	9.286843894305448e-24
-0.48696924296874755	8.926665039780242e-24
-0.48690820781249755	8.562370587357308e-24
-0.48684717265624755	8.193702453885801e-24
-0.48678613749999755	7.820824888384002e-24
-0.48672510234374755	7.444370941013011e-24
-0.48666406718749755	7.063884629739392e-24
-0.48660303203124755	6.68003932504565e-24
-0.48654199687499755	6.292949339426294e-24
-0.48648096171874755	5.90242309243937e-24
-0.48641992656249755	5.5092872766828004e-24
-0.48635889140624755	5.1131799022204664e-24
-0.48629785624999755	4.714449040960675e-24
-0.48623682109374755	4.3136129224654605e-24
-0.48617578593749755	3.91025227925408e-24
-0.48611475078124755	3.505155849232539e-24
-0.48605371562499755	3.098275361597096e-24
-0.48599268046874755	2.689569970160025e-24
-0.48593164531249755	2.2798371425235808e-24
-0.48587061015624755	1.868633767375227e-24
-0.48580957499999755	1.456480642382067e-24
-0.48574853984374755	1.0437630648887524e-24
-0.48568750468749755	6.301321216112698e-25
-0.48562646953124755	2.1643433068514475e-25
-0.48556543437499755	-1.9753314458349484e-25
-0.48550439921874755	-6.116471157576023e-25
-0.48544336406249755	-1.0251963502118157e-24
-0.48538232890624755	-1.4386424843546276e-24
-0.48532129374999755	-1.85129997620967e-24
-0.48526025859374755	-2.2629750747276093e-24
-0.48519922343749755	-2.6739285035155804e-24
-0.48513818828124755	-3.0832910021580647e-24
-0.48507715312499755	-3.4913956869611756e-24
-0.48501611796874755	-3.897937154934829e-24
-0.48495508281249755	-4.3023267225806386e-24
-0.48489404765624755	-4.70502967852094e-24
-0.48483301249999755	-5.105248572277959e-24
-0.48477197734374755	-5.502980365400096e-24
-0.48471094218749755	-5.898351136765658e-24
-0.48464990703124755	-6.2905206479061314e-24
-0.48458887187499755	-6.679939205823191e-24
-0.48452783671874755	-7.066121972019558e-24
-0.48446680156249755	-7.4486333281603e-24
-0.48440576640624755	-7.827913922636737e-24
-0.48434473124999755	-8.203100317596413e-24
-0.48428369609374755	-8.57437401989823e-24
-0.48422266093749755	-8.941707219674831e-24
-0.48416162578124755	-9.304336693405119e-24
-0.48410059062499755	-9.662777397193332e-24
-0.48403955546874755	-1.0016396038709453e-23
-0.48397852031249755	-1.0364966478843146e-23
-0.48391748515624755	-1.0708853615723196e-23
-0.48385644999999755	-1.1047164180852632e-23
-0.48379541484374755	-1.1380254772948034e-23
-0.48373437968749755	-1.1707924089158491e-23
-0.48367334453124755	-1.2029525837128123e-23
-0.48361230937499755	-1.234562656399432e-23
-0.48355127421874755	-1.265549826282742e-23
-0.48349023906249755	-1.2959103662091701e-23
-0.48342920390624755	-1.325668022057077e-23
-0.48336816874999755	-1.3547380640755834e-23
-0.48330713359374755	-1.3831701067756063e-23
-0.48324609843749755	-1.4109276741156347e-23
-0.48318506328124755	-1.4379652486852557e-23
-0.48312402812499755	-1.464337282576958e-23
-0.48306299296874755	-1.4899623218445175e-23
-0.48300195781249755	-1.5148580044985408e-23
-0.48294092265624755	-1.5390348410387934e-23
-0.48287988749999755	-1.5624177243360666e-23
-0.48281885234374755	-1.5850653949668512e-23
-0.48275781718749755	-1.6069261560867794e-23
-0.48269678203124755	-1.6279764442941818e-23
-0.48263574687499755	-1.6482642713402775e-23
-0.48257471171874755	-1.6677058622454222e-23
-0.48251367656249755	-1.6863391661070665e-23
-0.48245264140624755	-1.7041586633979274e-23
-0.48239160624999755	-1.7211023692715756e-23
-0.48233057109374755	-1.7372348469947846e-23
-0.48226953593749755	-1.7524943193444346e-23
-0.48220850078124755	-1.7668786417121838e-23
-0.48214746562499755	-1.780424702335858e-23
-0.48208643046874755	-1.7930539081571885e-23
-0.48202539531249755	-1.8048200658304318e-23
-0.48196436015624755	-1.8157011691998255e-23
-0.48190332499999755	-1.825654705094733e-23
-0.48184228984374755	-1.8347451610773766e-23
-0.48178125468749755	-1.8429031403863305e-23
-0.48172021953124755	-1.8501486504936046e-23
-0.48165918437499755	-1.8565057760680018e-23
-0.48159814921874755	-1.861905821692831e-23
-0.48153711406249755	-1.8664133067271408e-23
-0.48147607890624755	-1.8699923739371634e-23
-0.48141504374999755	-1.8726225257192616e-23
-0.48135400859374755	-1.8743620676571415e-23
-0.48129297343749755	-1.875140329359067e-23
-0.48123193828124755	-1.8749980301632407e-23
-0.48117090312499755	-1.8739435537254708e-23
-0.48110986796874755	-1.8719231850861603e-23
-0.48104883281249755	-1.8690075267924218e-23
-0.48098779765624755	-1.865149334567309e-23
-0.48092676249999755	-1.860351314861105e-23
-0.48086572734374755	-1.8546619244551326e-23
-0.48080469218749755	-1.8480142447229555e-23
-0.48074365703124755	-1.8404657064192032e-23
-0.48068262187499755	-1.8320094066133567e-23
-0.48062158671874755	-1.8226104960244933e-23
-0.48056055156249755	-1.8123398666343619e-23
-0.48049951640624755	-1.8011432102029658e-23
-0.48043848124999755	-1.7890456804271712e-23
-0.48037744609374755	-1.776082560409086e-23
-0.48031641093749755	-1.762196330189211e-23
-0.48025537578124755	-1.747456380722309e-23
-0.48019434062499755	-1.7318411845782727e-23
-0.48013330546874755	-1.715337485330542e-23
-0.48007227031249755	-1.698012149952354e-23
-0.48001123515624755	-1.6798078650924777e-23
-0.47995019999999755	-1.6607692728845444e-23
-0.47988916484374755	-1.6409170536836498e-23
-0.47982812968749755	-1.6202079316000862e-23
-0.47976709453124755	-1.5987184998901522e-23
-0.47970605937499755	-1.5764151189189903e-23
-0.47964502421874755	-1.5533056034866874e-23
-0.47958398906249755	-1.5294476724666747e-23
-0.47952295390624755	-1.5047870681347152e-23
-0.47946191874999755	-1.479386212343311e-23
-0.47940088359374755	-1.4532501749926883e-23
-0.47933984843749755	-1.426351143395683e-23
-0.47927881328124755	-1.398767171291345e-23
-0.47921777812499755	-1.3704567603453817e-23
-0.47915674296874755	-1.3414490628479933e-23
-0.47909570781249755	-1.3117903316498072e-23
-0.47903467265624755	-1.2814332223047122e-23
-0.47897363749999755	-1.2504511546826969e-23
-0.47891260234374755	-1.2188342276591717e-23
-0.47885156718749755	-1.1865742936578553e-23
-0.47879053203124755	-1.1537454608815719e-23
-0.47872949687499755	-1.1203021403907537e-23
-0.47866846171874755	-1.0862945866285623e-23
-0.47860742656249755	-1.0517530780870018e-23
-0.47854639140624755	-1.0166386023554214e-23
-0.47848535624999755	-9.810333158058142e-24
-0.47842432109374755	-9.449150786204749e-24
-0.47836328593749755	-9.082960008604975e-24
-0.47830225078124755	-8.712428847799453e-24
-0.47824121562499755	-8.337075487403514e-24
-0.47818018046874755	-7.957556309881328e-24
-0.47811914531249755	-7.574031241536118e-24
-0.47805811015624755	-7.186257715456902e-24
-0.47799707499999755	-6.795074199839159e-24
-0.47793603984374755	-6.400142935828857e-24
-0.47787500468749755	-6.00178907990346e-24
-0.47781396953124755	-5.600558945921713e-24
-0.47775293437499755	-5.195993699761378e-24
-0.47769189921874755	-4.788892571994445e-24
-0.47763086406249755	-4.379256415461633e-24
-0.47756982890624755	-3.966986567355305e-24
-0.47750879374999755	-3.552904690046992e-24
-0.47744775859374755	-3.1365892522178013e-24
-0.47738672343749755	-2.718537201466866e-24
-0.47732568828124755	-2.2991690241834962e-24
-0.47726465312499755	-1.8781023444910805e-24
-0.47720361796874755	-1.4561972004069864e-24
-0.47714258281249755	-1.0332866813225674e-24
-0.47708154765624755	-6.094622929436599e-25
-0.47702051249999755	-1.8548388889502276e-25
-0.47695947734374755	2.3912944027356075e-25
-0.47689844218749755	6.637248113780712e-25
-0.47683740703124755	1.0880475034171408e-24
-0.47677637187499755	1.5123717233399968e-24
-0.47671533671874755	1.9357989047023772e-24
-0.47665430156249755	2.3586511697514427e-24
-0.47659326640624755	2.780670878734673e-24
-0.47653223124999755	3.2012062883214965e-24
-0.47647119609374755	3.620729102766998e-24
-0.47641016093749755	4.038456148887908e-24
-0.47634912578124755	4.4543289292117584e-24
-0.47628809062499755	4.8684985837097275e-24
-0.47622705546874755	5.28009170114812e-24
-0.47616602031249755	5.689544376844101e-24
-0.47610498515624755	6.09640359605233e-24
-0.47604394999999755	6.500176302858876e-24
-0.47598291484374755	6.901318124906386e-24
-0.47592187968749755	7.298957410912846e-24
-0.47586084453124755	7.69322341900697e-24
-0.47579980937499755	8.084111202430196e-24
-0.47573877421874755	8.470818921194572e-24
-0.47567773906249755	8.853876223204163e-24
-0.47561670390624755	9.232658997443362e-24
-0.47555566874999755	9.60685901696853e-24
-0.47549463359374755	9.976868077443146e-24
-0.47543359843749755	1.0341772663099762e-23
-0.47537256328124755	1.0701899306809526e-23
-0.47531152812499755	1.1057083900873897e-23
-0.47525049296874755	1.140661398338875e-23
-0.47518945781249755	1.1751051001328596e-23
-0.47512842265624755	1.2089666211356175e-23
-0.47506738749999755	1.24223773378604e-23
-0.47500635234374755	1.2749458930750527e-23
-0.47494531718749755	1.3070009150451468e-23
-0.47488428203124755	1.3384499725086775e-23
-0.47482324687499755	1.369258767756901e-23
-0.47476221171874755	1.3993754239580718e-23
-0.47470117656249755	1.4288572597050503e-23
-0.47464014140624755	1.4576200534842038e-23
-0.47457910624999755	1.4856766481385005e-23
-0.47451807109374755	1.5130416990513405e-23
-0.47445703593749755	1.5396326667888173e-23
-0.47439600078124755	1.565508653603561e-23
-0.47433496562499755	1.5906195193608155e-23
-0.47427393046874755	1.6149333363583638e-23
-0.47421289531249755	1.6385022286214566e-23
-0.47415186015624755	1.6612391563658593e-23
-0.47409082499999755	1.683178240748314e-23
-0.47402978984374755	1.704317394003787e-23
-0.47396875468749755	1.7245869134186394e-23
-0.47390771953124755	1.7440526156112902e-23
-0.47384668437499755	1.762651395459706e-23
-0.47378564921874755	1.7803755953507768e-23
-0.47372461406249755	1.797267558026319e-23
-0.47366357890624755	1.8132415041781482e-23
-0.47360254374999755	1.828349815172549e-23
-0.47354150859374755	1.842573145174836e-23
-0.47348047343749755	1.8558599766730976e-23
-0.47341943828124755	1.8682791898398406e-23
-0.47335840312499755	1.8797583741751487e-23
-0.47329736796874755	1.890312176202017e-23
-0.47323633281249755	1.8999703773143948e-23
-0.47317529765624755	1.908655765480054e-23
-0.47311426249999755	1.9164336627656686e-23
-0.47305322734374755	1.923269361777389e-23
-0.47299219218749755	1.929133573228963e-23
-0.47293115703124755	1.934090832812517e-23
-0.47287012187499755	1.938065181645753e-23
-0.47280908671874755	1.9410936159422232e-23
-0.47274805156249755	1.943189938618636e-23
-0.47268701640624755	1.9442905497709868e-23
-0.47262598124999755	1.9444693883078492e-23
-0.47256494609374755	1.943678977327019e-23
-0.47250391093749755	1.9419136360415313e-23
-0.47244287578124755	1.9392289607847063e-23
