Time	Frequency
-0.5000605095625019	-1.225095306930952e-24
-0.4999994744062519	-9.107563728577803e-25
-0.4999384392500019	-5.954536931204433e-25
-0.4998774040937519	-2.772658993487822e-25
-0.4998163689375019	3.9502922531162116e-26
-0.4997553337812519	3.5404325710487474e-25
-0.4996942986250019	6.704707241864125e-25
-0.4996332634687519	9.874561543777535e-25
-0.4995722283125019	1.3008157546317363e-24
-0.4995111931562519	1.6129554121517926e-24
-0.4994501580000019	1.9265980646663167e-24
-0.4993891228437519	2.2377363309563297e-24
-0.4993280876875019	2.5446739083999582e-24
-0.4992670525312519	2.851550029931032e-24
-0.4992060173750019	3.1578903502160664e-24
-0.4991449822187519	3.459187582654205e-24
-0.4990839470625019	3.7571614174087735e-24
-0.4990229119062519	4.0551508789693736e-24
-0.4989618767500019	4.349613969230039e-24
-0.4989008415937519	4.638056324647004e-24
-0.4988398064375019	4.924477232476945e-24
-0.4987787712812519	5.209321896820225e-24
-0.4987177361250019	5.4879232962371186e-24
-0.4986567009687519	5.7611517428645326e-24
-0.4985956658125019	6.0328451008894196e-24
-0.4985346306562519	6.300171810354842e-24
-0.4984735955000019	6.559935195615892e-24
-0.4984125603437519	6.815740514525219e-24
-0.4983515251875019	7.06892123023881e-24
-0.4982904900312519	7.314913205419518e-24
-0.4982294548750019	7.55371230175499e-24
-0.4981684197187519	7.789438211334472e-24
-0.4981073845625019	8.020094080567314e-24
-0.4980463494062519	8.24195972629905e-24
-0.4979853142500019	8.458059004511008e-24
-0.4979242790937519	8.670516778220612e-24
-0.4978632439375019	8.875119015907533e-24
-0.4978022087812519	9.071017794215594e-24
-0.4977411736250019	9.262378849238575e-24
-0.4976801384687519	9.44810425127779e-24
-0.4976191033125019	9.62415629983734e-24
-0.4975580681562519	9.79284983949024e-24
-0.4974970330000019	9.956973505140918e-24
-0.4974359978437519	1.0112862154298968e-23
-0.4973749626875019	1.0258890425500893e-23
-0.4973139275312519	1.0399048545952746e-23
-0.4972528923750019	1.0533154195937778e-23
-0.4971918572187519	1.0657079003308799e-23
-0.4971308220625019	1.0772349726861595e-23
-0.4970697869062519	1.0882248952825764e-23
-0.4970087517500019	1.0983811351860317e-23
-0.4969477165937519	1.1074733776138688e-23
-0.4968866814375019	1.1158646876745276e-23
-0.4968256462812519	1.1236279489754554e-23
-0.4967646111250019	1.1303620142290753e-23
-0.4967035759687519	1.1361342088445399e-23
-0.4966425408125019	1.1413030658132278e-23
-0.4965815056562519	1.1456552218687856e-23
-0.4965204705000019	1.1489085814599396e-23
-0.4964594353437519	1.1513733042719532e-23
-0.4963984001875019	1.1532042073812818e-23
-0.4963373650312519	1.154031530554753e-23
-0.4962763298750019	1.1538390397738016e-23
-0.4962152947187519	1.1529966421954464e-23
-0.4961542595625019	1.151380374403322e-23
-0.4960932244062519	1.1486723527147086e-23
-0.4960321892500019	1.1451176868645226e-23
-0.4959711540937519	1.1409425287649935e-23
-0.4959101189375019	1.1358249419228325e-23
-0.4958490837812519	1.1296697064277838e-23
-0.4957880486250019	1.1228396737418763e-23
-0.4957270134687519	1.1153024224843015e-23
-0.4956659783125019	1.1067224521613735e-23
-0.4956049431562519	1.0972707919749949e-23
-0.4955439080000019	1.0872298721424473e-23
-0.4954828728437519	1.0763403025650765e-23
-0.4954218376875019	1.0644366197559806e-23
-0.4953608025312519	1.0518562471190915e-23
-0.4952997673750019	1.0386568437170817e-23
-0.4952387322187519	1.0245035998399239e-23
-0.4951776970625019	1.0094873460145752e-23
-0.4951166619062519	9.939307509624436e-24
-0.4950556267500019	9.776486483805814e-24
-0.4949945915937519	9.604161666403323e-24
-0.4949335564375019	9.425289405048603e-24
-0.4948725212812519	9.241292185332036e-24
-0.4948114861250019	9.04900211467234e-24
-0.4947504509687519	8.848511496877906e-24
-0.4946894158125019	8.643279372505335e-24
-0.4946283806562519	8.432257591912345e-24
-0.4945673455000019	8.212734200630174e-24
-0.4945063103437519	7.987135539828553e-24
-0.4944452751875019	7.757640360979524e-24
-0.4943842400312519	7.52139556193308e-24
-0.4943232048750019	7.277690159497816e-24
-0.4942621697187519	7.030057325920479e-24
-0.4942011345625019	6.778304342543404e-24
-0.4941400994062519	6.5193916555538224e-24
-0.4940790642500019	6.2550944918625026e-24
-0.4940180290937519	5.9882362832855725e-24
-0.4939569939375019	5.716417569734804e-24
-0.4938959587812519	5.438179842971632e-24
-0.4938349236250019	5.15697229603667e-24
-0.4937738884687519	4.873436777548501e-24
-0.4937128533125019	4.5843419884063325e-24
-0.4936518181562519	4.290760947464521e-24
-0.4935907830000019	3.996047320232045e-24
-0.4935297478437519	3.69835897226578e-24
-0.4934687126875019	3.395529643889099e-24
-0.4934076775312519	3.0907624519642945e-24
-0.4933466423750019	2.785547529058012e-24
-0.4932856072187519	2.4766150518905943e-24
-0.4932245720625019	2.1642555287115538e-24
-0.4931635369062519	1.8522053183869448e-24
-0.4931025017500019	1.5392783711784788e-24
-0.4930414665937519	1.2226973212447117e-24
-0.4929804314375019	9.05280217927266e-25
-0.4929193962812519	5.89311728588786e-25
-0.4928583611250019	2.716176605105481e-25
-0.4927973259687519	-4.833535863557927e-26
-0.4927362908125019	-3.665597457674901e-25
-0.4926752556562519	-6.834894305271861e-25
-0.4926142205000019	-1.0024449669093736e-24
-0.4925531853437519	-1.3211442957295856e-24
-0.4924921501875019	-1.6365368126322436e-24
-0.4924311150312519	-1.9515556672250912e-24
-0.4923700798750019	-2.2675955857509136e-24
-0.4923090447187519	-2.5805780156047326e-24
-0.4922480095625019	-2.890120048425621e-24
-0.4921869744062519	-3.1999538681658904e-24
-0.4921259392500019	-3.5084589061348576e-24
-0.4920649040937519	-3.8119358558615285e-24
-0.4920038689375019	-4.11292509481407e-24
-0.4919428337812519	-4.4136435194536224e-24
-0.4918817986250019	-4.710117369869801e-24
-0.4918207634687519	-5.001111830298593e-24
-0.4917597283125019	-5.29060160211012e-24
-0.4916986931562519	-5.577771863862056e-24
-0.4916376580000019	-5.8584082705002755e-24
-0.4915766228437519	-6.134471481590672e-24
-0.4915155876875019	-6.40895211873625e-24
-0.4914545525312519	-6.678201617253888e-24
-0.4913935173750019	-6.940135063243696e-24
-0.4913324822187519	-7.198773858991793e-24
-0.4912714470625019	-7.454180818772165e-24
-0.4912104119062519	-7.701808348031448e-24
-0.4911493767500019	-7.942918392574684e-24
-0.4910883415937519	-8.181165198154138e-24
-0.4910273064375019	-8.413413816995013e-24
-0.4909662712812519	-8.636774105933985e-24
-0.4909052361250019	-8.855113181784182e-24
-0.4908442009687519	-9.069428315577352e-24
-0.4907831658125019	-9.27504828317262e-24
-0.4907221306562519	-9.47241282709788e-24
-0.4906610955000019	-9.665676242681707e-24
-0.4906000603437519	-9.852416593443711e-24
-0.4905390251875019	-1.0029057755870835e-23
-0.4904779900312519	-1.0199087488588856e-23
-0.4904169548750019	-1.0364409564813368e-23
-0.4903559197187519	-1.0520474621847168e-23
-0.4902948845625019	-1.0666850379369467e-23
-0.4902338494062519	-1.0807982656993378e-23
-0.4901728142500019	-1.0942304807219208e-23
-0.4901117790937519	-1.1065715463066407e-23
-0.4900507439375019	-1.1181132978675739e-23
-0.4899897087812519	-1.1291295389805457e-23
-0.4899286736250019	-1.1392003287018348e-23
-0.4898676384687519	-1.1481950339872914e-23
-0.4898066033125019	-1.1565654555388218e-23
-0.4897455681562519	-1.16424980292032e-23
-0.4896845330000019	-1.170805212523104e-23
-0.4896234978437519	-1.1764500589434452e-23
-0.4895624626875019	-1.1815284692692525e-23
-0.4895014275312519	-1.1856788781676257e-23
-0.4894403923750019	-1.1886888089400977e-23
-0.4893793572187519	-1.1909915658449286e-23
-0.4893183220625019	-1.1926238429006075e-23
-0.4892572869062519	-1.1931356740791514e-23
-0.4891962517500019	-1.1926611449396543e-23
-0.4891352165937519	-1.191593082109695e-23
-0.4890741814375019	-1.1896457338076494e-23
-0.4890131462812519	-1.1865403246480723e-23
-0.4889521111250019	-1.18267010610043e-23
-0.4888910759687519	-1.1781638372743645e-23
-0.4888300408125019	-1.1725880835517486e-23
-0.4887690056562519	-1.1659892676921752e-23
-0.4887079705000019	-1.1587865046729884e-23
-0.4886469353437519	-1.1507822458613839e-23
-0.4885859001875019	-1.1416496005356875e-23
-0.4885248650312519	-1.1317230351982876e-23
-0.4884638298750019	-1.1212121080780452e-23
-0.4884027947187519	-1.109721135032611e-23
-0.4883417595625019	-1.0972112859824199e-23
-0.4882807244062519	-1.0841076342756114e-23
-0.4882196892500019	-1.0703068091614168e-23
-0.4881586540937519	-1.0554501859680229e-23
-0.4880976189375019	-1.0397997566665175e-23
-0.4880365837812519	-1.0236339203058737e-23
-0.4879755486250019	-1.006613570650237e-23
-0.4879145134687519	-9.886201334212618e-24
-0.4878534783125019	-9.700621691065976e-24
-0.4877924431562519	-9.509318232111092e-24
-0.4877314080000019	-9.308600109014211e-24
-0.4876703728437519	-9.100264229729272e-24
-0.4876093376875019	-8.887608054519761e-24
-0.4875483025312519	-8.667957507999479e-24
-0.4874872673750019	-8.439427518198932e-24
-0.4874262322187519	-8.205749296266223e-24
-0.4873651970625019	-7.967764980218824e-24
-0.4873041619062519	-7.721861400668177e-24
-0.4872431267500019	-7.468971381959907e-24
-0.4871820915937519	-7.212730070115623e-24
-0.4871210564375019	-6.951272250970917e-24
-0.4870600212812519	-6.682145914134413e-24
-0.4869989861250019	-6.4085682204170346e-24
-0.4869379509687519	-6.13221119079634e-24
-0.4868769158125019	-5.8497300645690235e-24
-0.4868158806562519	-5.5611998125011316e-24
-0.4867548455000019	-5.2703771238382e-24
-0.4866938103437519	-4.976266791549974e-24
-0.4866327751875019	-4.676025233571e-24
-0.4865717400312519	-4.3722135507648496e-24
-0.4865107048750019	-4.067211488003406e-24
-0.4864496697187519	-3.7581044034772055e-24
-0.4863886345625019	-3.4441288207568455e-24
-0.4863275994062519	-3.128993552853613e-24
-0.4862665642500019	-2.8126223633225778e-24
-0.4862055290937519	-2.4919073160885843e-24
-0.4861444939375019	-2.1686300348268618e-24
-0.4860834587812519	-1.845758897823132e-24
-0.4860224236250019	-1.5209552162382357e-24
-0.4859613884687519	-1.1926982921117745e-24
-0.4859003533125019	-8.644636240844123e-25
-0.4858393181562519	-5.370374809501597e-25
-0.4857782830000019	-2.0721691907445684e-25
-0.4857172478437519	1.2402178010345558e-25
-0.4856562126875019	4.532739298737367e-25
-0.4855951775312519	7.822174100389009e-25
-0.4855341423750019	1.1130511524657323e-24
-0.4854731072187519	1.442696598418753e-24
-0.4854120720625019	1.7695417545610755e-24
-0.4853510369062519	2.0967109510717468e-24
-0.4852900017500019	2.4240685069588776e-24
-0.4852289665937519	2.747950359106033e-24
-0.4851679314375019	3.0693057729272794e-24
-0.4851068962812519	3.390897788397938e-24
-0.4850458611250019	3.710168149541991e-24
-0.4849848259687519	4.024747596519081e-24
-0.4849237908125019	4.33755427848378e-24
-0.4848627556562519	4.6493082642588896e-24
-0.4848017205000019	4.956233359190045e-24
-0.4847406853437519	5.258497809912468e-24
-0.4846796501875019	5.559319688002553e-24
-0.4846186150312519	5.856765543958793e-24
-0.4845575798750019	6.147792887041564e-24
-0.4844965447187519	6.4350024042767346e-24
-0.4844355095625019	6.719956089851495e-24
-0.4843744744062519	6.998912442393961e-24
-0.4843134392500019	7.271224873974855e-24
-0.4842524040937519	7.540434752359353e-24
-0.4841913689375019	7.805357582496444e-24
-0.4841303337812519	8.062390258909415e-24
-0.4840692986250019	8.313647964200595e-24
-0.4840082634687519	8.561502854475359e-24
-0.4839472283125019	8.802446331885625e-24
-0.4838861931562519	9.034999385860345e-24
-0.4838251580000019	9.262868875327394e-24
-0.4837641228437519	9.48569607660784e-24
-0.4837030876875019	9.69944848807519e-24
-0.4836420525312519	9.905660298143232e-24
-0.4835810173750019	1.0107451161854784e-23
-0.4835199822187519	1.0301684805545312e-23
-0.4834589470625019	1.0486049927631759e-23
-0.4833979119062519	1.0664274455212773e-23
-0.4833368767500019	1.0836918634995007e-23
-0.4832758415937519	1.09996723313752e-23
-0.4832148064375019	1.1153346097340356e-23
-0.4831537712812519	1.1301692509199804e-23
-0.4830927361250019	1.1442139516136379e-23
-0.4830317009687519	1.1571623840342254e-23
-0.4829706658125019	1.1693698307148045e-23
-0.4829096306562519	1.1809841562951123e-23
-0.4828485955000019	1.1915655479146426e-23
-0.4827875603437519	1.2011153633841564e-23
-0.4827265251875019	1.2100589329950581e-23
-0.4826654900312519	1.2182109316819174e-23
-0.4826044548750019	1.2251971827193837e-23
-0.4825434197187519	1.2313362305421952e-23
-0.4824823845625019	1.2368684947538143e-23
-0.4824213494062519	1.2413668908384473e-23
-0.4823603142500019	1.2447455299877532e-23
-0.4822992790937519	1.2474602992571638e-23
-0.4822382439375019	1.249412900432988e-23
-0.4821772087812519	1.2501767744539512e-23
-0.4821161736250019	1.2500135660063931e-23
-0.4820551384687519	1.2492483817679401e-23
-0.4819941033125019	1.2474903091454036e-23
-0.4819330681562519	1.2445660248406208e-23
-0.4818720330000019	1.2409389773955983e-23
-0.4818109978437519	1.2366066229891719e-23
-0.4817499626875019	1.2311100552413186e-23
-0.4816889275312519	1.2246379434656719e-23
-0.4816278923750019	1.2175860968600573e-23
-0.4815668572187519	1.2096216964389546e-23
-0.4815058220625019	1.2004895670148208e-23
-0.4814447869062519	1.1906361302334588e-23
-0.4813837517500019	1.1801585155896275e-23
-0.4813227165937519	1.1685883497739426e-23
-0.4812616814375019	1.1560284710108596e-23
-0.4812006462812519	1.1429274467812456e-23
-0.4811396111250019	1.1290296968710658e-23
-0.4810785759687519	1.1140084565612921e-23
-0.4810175408125019	1.0982691323266262e-23
-0.4809565056562519	1.0820065931226266e-23
-0.4808954705000019	1.0647687559397148e-23
-0.4808344353437519	1.046564384515354e-23
-0.4807734001875019	1.0278696008568152e-23
-0.4807123650312519	1.0085225327174217e-23
-0.4806513298750019	9.881444666608228e-24
-0.4805902947187519	9.670768572221063e-24
-0.4805292595625019	9.455991626313304e-24
-0.4804682244062519	9.2330002858743e-24
-0.4804071892500019	9.000983325543382e-24
-0.4803461540937519	8.764722797164573e-24
-0.4802851189375019	8.52357771122966e-24
-0.4802240837812519	8.27346972665699e-24
-0.4801630486250019	8.017024482716434e-24
-0.4801020134687519	7.757692001128215e-24
-0.4800409783125019	7.491985273695344e-24
-0.4799799431562519	7.218291883663054e-24
-0.4799189080000019	6.941148211470804e-24
-0.4798578728437519	6.660876670301828e-24
-0.4797968376875019	6.373347705849467e-24
-0.4797358025312519	6.0803144350015314e-24
-0.4796747673750019	5.785682362381163e-24
-0.4796137322187519	5.486725533909306e-24
-0.4795526970625019	5.181140582262219e-24
-0.4794916619062519	4.873028820797559e-24
-0.4794306267500019	4.563635097104962e-24
-0.4793695915937519	4.248972326716322e-24
-0.4793085564375019	3.929863502105797e-24
-0.4792475212812519	3.610465314712987e-24
-0.4791864861250019	3.288939211257099e-24
-0.4791254509687519	2.9624476041337613e-24
-0.4790644158125019	2.6344455140340498e-24
-0.4790033806562519	2.306986436046062e-24
-0.4789423455000019	1.9764473699127663e-24
-0.4788813103437519	1.642746746726601e-24
-0.4788202751875019	1.3100764722341159e-24
-0.4787592400312519	9.775092165944989e-25
-0.4786982048750019	6.418228165628884e-25
-0.4786371697187519	3.057291674733802e-25
-0.4785761345625019	-2.801752077896768e-26
-0.4785150994062519	-3.625441479116394e-25
-0.4784540642500019	-6.988133413171692e-25
-0.4783930290937519	-1.0327947306662836e-24
-0.4783319939375019	-1.3644757329466565e-24
-0.4782709587812519	-1.6972586684911512e-24
-0.4782099236250019	-2.0292816380918424e-24
-0.4781488884687519	-2.35730004781979e-24
-0.4780878533125019	-2.6838092449138746e-24
-0.4780268181562519	-3.0105121523684916e-24
-0.4779657830000019	-3.333726503386431e-24
-0.4779047478437519	-3.652572561850497e-24
-0.4778437126875019	-3.970456257425546e-24
-0.4777826775312519	-4.286417297834535e-24
-0.4777216423750019	-4.5968830411598315e-24
-0.4776606072187519	-4.903587789559235e-24
-0.4775995720625019	-5.208891410595182e-24
-0.4775385369062519	-5.5096583756245936e-24
-0.4774775017500019	-5.8041798585931956e-24
-0.4774164665937519	-6.095678025662174e-24
-0.4773554314375019	-6.3841238651210236e-24
-0.4772943962812519	-6.665807460342995e-24
-0.4772333611250019	-6.941645159470576e-24
-0.4771723259687519	-7.214502150883133e-24
-0.4771112908125019	-7.481907023345718e-24
-0.4770502556562519	-7.741448041860664e-24
-0.4769892205000019	-7.996023558448891e-24
-0.4769281853437519	-8.246490664006079e-24
-0.4768671501875019	-8.48918062398095e-24
-0.4768061150312519	-8.72417885773178e-24
-0.4767450798750019	-8.954701208042918e-24
-0.4766840447187519	-9.1790327848311e-24
-0.4766230095625019	-9.394183686807145e-24
-0.4765619744062519	-9.60260742239102e-24
-0.4765009392500019	-9.806003297530561e-24
-0.4764399040937519	-1.0000896368345111e-23
-0.4763788689375019	-1.0186529098868894e-23
-0.4763178337812519	-1.0366334158223057e-23
-0.4762567986250019	-1.0539442549372846e-23
-0.4761957634687519	-1.070240946893861e-23
-0.4761347283125019	-1.0857115160161532e-23
-0.4760736931562519	-1.1006027266529921e-23
-0.4760126580000019	-1.1146028534811913e-23
-0.4759516228437519	-1.1275554459182578e-23
-0.4758905876875019	-1.1398108315648202e-23
-0.4758295525312519	-1.1513695769391847e-23
-0.4757685173750019	-1.1618546137502299e-23
-0.4757074822187519	-1.1713893762077619e-23
-0.4756464470625019	-1.1802896175306272e-23
-0.4755854119062519	-1.1882923313561634e-23
-0.4755243767500019	-1.1951632088871274e-23
-0.4754633415937519	-1.201244155584869e-23
-0.4754023064375019	-1.2066281036840489e-23
-0.4753412712812519	-1.2109217175155399e-23
-0.4752802361250019	-1.214173292063485e-23
-0.4752192009687519	-1.2167554959308028e-23
-0.4751581658125019	-1.218468880823181e-23
-0.4750971306562519	-1.2190079334869485e-23
-0.4750360955000019	-1.2186907991837933e-23
-0.4749750603437519	-1.2177028282677066e-23
-0.4749140251875019	-1.2156493207617843e-23
-0.4748529900312519	-1.2124974517951414e-23
-0.4747919548750019	-1.2086642760813935e-23
-0.4747309197187519	-1.2040263167719944e-23
-0.4746698845625019	-1.1982155595930644e-23
-0.4746088494062519	-1.1915089564591837e-23
-0.4745478142500019	-1.1841816421614208e-23
-0.4744867790937519	-1.1758575044501416e-23
-0.4744257439375019	-1.1664182611523318e-23
-0.4743647087812519	-1.1563062241805643e-23
-0.4743036736250019	-1.1454844193084536e-23
-0.4742426384687519	-1.133537024569042e-23
-0.4741816033125019	-1.1206844975374743e-23
-0.4741205681562519	-1.1072837485966868e-23
-0.4740595330000019	-1.0929944599327119e-23
-0.4739984978437519	-1.0776119371650282e-23
-0.4739374626875019	-1.0615861393683794e-23
-0.4738764275312519	-1.0449759713519023e-23
-0.4738153923750019	-1.0273326646232054e-23
-0.4737543572187519	-1.0088024035085625e-23
-0.4736933220625019	-9.898129599152291e-24
-0.4736322869062519	-9.700823372470904e-24
-0.4735712517500019	-9.493227476932083e-24
-0.4735102165937519	-9.279664434761286e-24
-0.4734491814375019	-9.061724877747751e-24
-0.4733881462812519	-8.834822185566324e-24
-0.4733271111250019	-8.59954190433666e-24
-0.4732660759687519	-8.360673134015918e-24
-0.4732050408125019	-8.116162191892001e-24
-0.4731440056562519	-7.862427401679217e-24
-0.4730829705000019	-7.60339288077062e-24
-0.4730219353437519	-7.341587503260684e-24
-0.4729609001875019	-7.072536298450716e-24
-0.4728998650312519	-6.795901685880895e-24
-0.4728388298750019	-6.51678534140017e-24
-0.4727777947187519	-6.234049403059216e-24
-0.4727167595625019	-5.9435415735320956e-24
-0.4726557244062519	-5.648527734559389e-24
-0.4725946892500019	-5.3524014735932676e-24
-0.4725336540937519	-5.051088679014793e-24
-0.4724726189375019	-4.743311907795026e-24
-0.4724115837812519	-4.4341984394999265e-24
-0.4723505486250019	-4.123603311899787e-24
-0.4722895134687519	-3.807011446795696e-24
-0.4722284783125019	-3.486854497017865e-24
-0.4721674431562519	-3.167260952209019e-24
-0.4721064080000019	-2.84479822182134e-24
-0.4720453728437519	-2.517262792862222e-24
-0.4719843376875019	-2.1895018438116656e-24
-0.4719233025312519	-1.8624138928246187e-24
-0.4718622673750019	-1.5314110555480256e-24
-0.4718012322187519	-1.197963594919491e-24
-0.4717401970625019	-8.666659876774048e-25
