Time	Frequency
-0.5000535098750021	1.27159930892277e-23
-0.4999924747187521	1.2462318764084682e-23
-0.4999314395625021	1.2208985272047758e-23
-0.4998704044062521	1.194466008962123e-23
-0.4998093692500021	1.1668382974086275e-23
-0.4997483340937521	1.13919071330044e-23
-0.4996872989375021	1.1113106910639784e-23
-0.4996262637812521	1.0821342669312252e-23
-0.4995652286250021	1.052211703427791e-23
-0.4995041934687521	1.0224670321394005e-23
-0.4994431583125021	9.921279520699036e-24
-0.4993821231562521	9.60541546512441e-24
-0.4993210880000021	9.286880080566571e-24
-0.4992600528437521	8.969672932181933e-24
-0.4991990176875021	8.643443062765096e-24
-0.4991379825312521	8.307566313896553e-24
-0.4990769473750021	7.972714932368422e-24
-0.4990159122187521	7.63689599394532e-24
-0.4989548770625021	7.290639792969799e-24
-0.4988938419062521	6.938941178580605e-24
-0.4988328067500021	6.590071468379052e-24
-0.4987717715937521	6.237266839775162e-24
-0.4987107364375021	5.8747277068877734e-24
-0.4986497012812521	5.511062729278605e-24
-0.4985886661250021	5.1499795825407016e-24
-0.4985276309687521	4.7825166727177634e-24
-0.4984665958125021	4.407965371353985e-24
-0.4984055606562521	4.035661469479437e-24
-0.4983445255000021	3.664169675034548e-24
-0.4982834903437521	3.2852310100721783e-24
-0.4982224551875021	2.9029180988142383e-24
-0.4981614200312521	2.5246369507253058e-24
-0.4981003848750021	2.1449016365941707e-24
-0.4980393497187521	1.7583858329784153e-24
-0.4979783145625021	1.3722724795875921e-24
-0.4979172794062521	9.903337808213544e-25
-0.4978562442500021	6.050516545454954e-25
-0.4977952090937521	2.1513189844453793e-25
-0.4977341739375021	-1.7132057868178013e-25
-0.4976731387812521	-5.546417827464695e-25
-0.4976121036250021	-9.421890009226726e-25
-0.4975510684687521	-1.3313448718310185e-24
-0.4974900333125021	-1.7151247664176242e-24
-0.4974289981562521	-2.0973478733396606e-24
-0.4973679630000021	-2.4834674787109403e-24
-0.4973069278437521	-2.8679863175712104e-24
-0.4972458926875021	-3.2464335439897016e-24
-0.4971848575312521	-3.62479688145814e-24
-0.4971238223750021	-4.005573111252767e-24
-0.4970627872187521	-4.381860394771006e-24
-0.4970017520625021	-4.752414387256074e-24
-0.4969407169062521	-5.123890679616761e-24
-0.4968796817500021	-5.4955121139368944e-24
-0.4968186465937521	-5.860421282649237e-24
-0.4967576114375021	-6.220535275824379e-24
-0.4966965762812521	-6.5818027408880334e-24
-0.4966355411250021	-6.940520097552706e-24
-0.4965745059687521	-7.291174600962443e-24
-0.4965134708125021	-7.638334627441816e-24
-0.4964524356562521	-7.986075140050633e-24
-0.4963914005000021	-8.328422551949543e-24
-0.4963303653437521	-8.662208930641835e-24
-0.4962693301875021	-8.993813697321289e-24
-0.4962082950312521	-9.32458316992756e-24
-0.4961472598750021	-9.647323481790181e-24
-0.4960862247187521	-9.961959910682016e-24
-0.4960251895625021	-1.02754631263912e-23
-0.4959641544062521	-1.0585852096239312e-23
-0.4959031192500021	-1.0886083268893533e-23
-0.4958420840937521	-1.1179541567366133e-23
-0.4957810489375021	-1.147226881936508e-23
-0.4957200137812521	-1.1758913205419694e-23
-0.4956589786250021	-1.2034236355058873e-23
-0.4955979434687521	-1.2304739909644719e-23
-0.4955369083125021	-1.2573839045045302e-23
-0.4954758731562521	-1.2833609425553074e-23
-0.4954148380000021	-1.3082226811871066e-23
-0.4953538028437521	-1.3328031674502704e-23
-0.4952927676875021	-1.3570441669302938e-23
-0.4952317325312521	-1.380069278231609e-23
-0.4951706973750021	-1.402138741051883e-23
-0.4951096622187521	-1.4240594639074182e-23
-0.4950486270625021	-1.4453208488055374e-23
-0.4949875919062521	-1.4652007113120708e-23
-0.4949265567500021	-1.4843934083818716e-23
-0.4948655215937521	-1.503430427760273e-23
-0.4948044864375021	-1.5214288164837375e-23
-0.4947434512812521	-1.5380583226658955e-23
-0.4946824161250021	-1.5542944884654808e-23
-0.4946213809687521	-1.5701878019344716e-23
-0.4945603458125021	-1.584702183353738e-23
-0.4944993106562521	-1.5980537756245353e-23
-0.4944382755000021	-1.6112274452605213e-23
-0.4943772403437521	-1.6237087672060672e-23
-0.4943162051875021	-1.6346150536747738e-23
-0.4942551700312521	-1.6447054515866555e-23
-0.4941941348750021	-1.6546566161262352e-23
-0.4941330997187521	-1.6634888480049514e-23
-0.4940720645625021	-1.6707746279350308e-23
-0.4940110294062521	-1.6776236756704837e-23
-0.4939499942500021	-1.6841471635028302e-23
-0.4938889590937521	-1.689172850082298e-23
-0.4938279239375021	-1.692913936346757e-23
-0.4937668887812521	-1.6964968162924265e-23
-0.4937058536250021	-1.6993763863164426e-23
-0.4936448184687521	-1.7005583916646326e-23
-0.4935837833125021	-1.7008782853631727e-23
-0.4935227481562521	-1.7011030611089158e-23
-0.4934617130000021	-1.7001632349467162e-23
-0.4934006778437521	-1.6975892701992702e-23
-0.4933396426875021	-1.6946006346930314e-23
-0.4932786075312521	-1.6913219281544956e-23
-0.4932175723750021	-1.6864867093657305e-23
-0.4931565372187521	-1.680340039077594e-23
-0.4930955020625021	-1.6740949834972496e-23
-0.4930344669062521	-1.6671585371087795e-23
-0.4929734317500021	-1.6584872362172444e-23
-0.4929123965937521	-1.648990091301596e-23
-0.4928513614375021	-1.6394625806877702e-23
-0.4927903262812521	-1.628769217977596e-23
-0.4927292911250021	-1.6164523581560505e-23
-0.4926682559687521	-1.603799156385769e-23
-0.4926072208125021	-1.590908593840691e-23
-0.4925461856562521	-1.5764748796995594e-23
-0.4924851505000021	-1.5607941358020367e-23
-0.4924241153437521	-1.545104908940724e-23
-0.4923630801875021	-1.528768031979184e-23
-0.4923020450312521	-1.5107506813854674e-23
-0.4922410098750021	-1.4920131916413193e-23
-0.4921799747187521	-1.4733266468882905e-23
-0.4921189395625021	-1.4535285985465865e-23
-0.4920579044062521	-1.4322133983851185e-23
-0.4919968692500021	-1.4106831993661084e-23
-0.4919358340937521	-1.3889854031774935e-23
-0.4918747989375021	-1.3658333170103368e-23
-0.4918137637812521	-1.3415827192423544e-23
-0.4917527286250021	-1.3174392863032238e-23
-0.4916916934687521	-1.2927258135179304e-23
-0.4916306583125021	-1.266469964077363e-23
-0.4915696231562521	-1.2396573753809696e-23
-0.4915085880000021	-1.212996253611215e-23
-0.4914475528437521	-1.1853352825978896e-23
-0.4913865176875021	-1.1563409613250778e-23
-0.4913254825312521	-1.1272829007356976e-23
-0.4912644473750021	-1.0981563944067386e-23
-0.4912034122187521	-1.0677425650341796e-23
-0.4911423770625021	-1.0364346279497996e-23
-0.4910813419062521	-1.0053591233921196e-23
-0.4910203067500021	-9.73839018171991e-24
-0.4909592715937521	-9.409954725810305e-24
-0.4908982364375021	-9.07788120020913e-24
-0.4908372012812521	-8.74846079374403e-24
-0.4907761661250021	-8.41081997377576e-24
-0.4907151309687521	-8.062289438282713e-24
-0.4906540958125021	-7.714752448919361e-24
-0.4905930606562521	-7.367833375057156e-24
-0.4905320255000021	-7.010370259076224e-24
-0.4904709903437521	-6.646349875977275e-24
-0.4904099551875021	-6.286017393532803e-24
-0.4903489200312521	-5.922983979534546e-24
-0.4902878848750021	-5.549461051277716e-24
-0.4902268497187521	-5.174339741180047e-24
-0.4901658145625021	-4.803170516304136e-24
-0.4901047794062521	-4.426139954204635e-24
-0.4900437442500021	-4.041032213727984e-24
-0.4899827090937521	-3.658530137520028e-24
-0.4899216739375021	-3.2782742123284822e-24
-0.4898606387812521	-2.8903669082678863e-24
-0.4897996036250021	-2.498356852670196e-24
-0.4897385684687521	-2.1113843311728684e-24
-0.4896775333125021	-1.7239397425499863e-24
-0.4896164981562521	-1.3291224002361321e-24
-0.4895554630000021	-9.346642610567283e-25
-0.4894944278437521	-5.456110408132609e-25
-0.4894333926875021	-1.5351104273102772e-25
-0.4893723575312521	2.4378214819062553e-25
-0.4893113223750021	6.369704626544732e-25
-0.4892502872187521	1.025968495674663e-24
-0.4891892520625021	1.4193880082140004e-24
-0.4891282169062521	1.814582240979761e-24
-0.4890671817500021	2.2033994353893156e-24
-0.4890061465937521	2.5900732564320863e-24
-0.4889451114375021	2.9809790760858574e-24
-0.4888840762812521	3.369882763356839e-24
-0.4888230411250021	3.751690158422886e-24
-0.4887620059687521	4.133306717169224e-24
-0.4887009708125021	4.5175158571730636e-24
-0.4886399356562521	4.896443780926305e-24
-0.4885789005000021	5.268868317335205e-24
-0.4885178653437521	5.64230989483897e-24
-0.4884568301875021	6.015671196813308e-24
-0.4883957950312521	6.381440589294878e-24
-0.4883347598750021	6.742075191399204e-24
-0.4882737247187521	7.103886650335323e-24
-0.4882126895625021	7.462517705164344e-24
-0.4881516544062521	7.81238461094484e-24
-0.4880906192500021	8.158670478502301e-24
-0.4880295840937521	8.505249080371864e-24
-0.4879685489375021	8.845678811893744e-24
-0.4879075137812521	9.17720102789557e-24
-0.4878464786250021	9.506439358521513e-24
-0.4877854434687521	9.834203837167388e-24
-0.4877244083125021	1.0153311507433842e-23
-0.4876633731562521	1.0464229728946525e-23
-0.4876023380000021	1.0773664601849584e-23
-0.4875413028437521	1.1079213219115102e-23
-0.4874802676875021	1.137429497639038e-23
-0.4874192325312521	1.1662491269689149e-23
-0.4873581973750021	1.1949286699075793e-23
-0.4872971622187521	1.2229424856622016e-23
-0.4872361270625021	1.2498195802297618e-23
-0.4871750919062521	1.2761714509096831e-23
-0.4871140567500021	1.3023019022135123e-23
-0.4870530215937521	1.3274816181376887e-23
-0.4869919864375021	1.351543160093134e-23
-0.4869309512812521	1.3752437445617113e-23
-0.4868699161250021	1.398538971645161e-23
-0.4868088809687521	1.4206312479430675e-23
-0.4867478458125021	1.441737632157485e-23
-0.4866868106562521	1.462599459693751e-23
-0.4866257755000021	1.4827785431208495e-23
-0.4865647403437521	1.5015939608144378e-23
-0.4865037051875021	1.5196458640176155e-23
-0.4864426700312521	1.5374596813275218e-23
-0.4863816348750021	1.5542593843110893e-23
-0.4863205997187521	1.569683352610848e-23
-0.4862595645625021	1.5846043349724294e-23
-0.4861985294062521	1.599143723745273e-23
-0.4861374942500021	1.6123505017670998e-23
-0.4860764590937521	1.6243365085613556e-23
-0.4860154239375021	1.6360359394708945e-23
-0.4859543887812521	1.6470658351626758e-23
-0.4858933536250021	1.6565519097761153e-23
-0.4858323184687521	1.6651118497404983e-23
-0.4857712833125021	1.673464792169621e-23
-0.4857102481562521	1.680767407993511e-23
-0.4856492130000021	1.686501713319802e-23
-0.4855881778437521	1.6916673856067156e-23
-0.4855271426875021	1.6965110627115418e-23
-0.4854661075312521	1.6999317560681736e-23
-0.4854050723750021	1.701977741592174e-23
-0.4853440372187521	1.70375850416298e-23
-0.4852830020625021	1.7049097954917337e-23
-0.4852219669062521	1.7043965270084753e-23
-0.4851609317500021	1.7028813068638367e-23
-0.4850998965937521	1.7012337963052995e-23
-0.4850388614375021	1.698532008998517e-23
-0.4849778262812521	1.6941528083495635e-23
-0.4849167911250021	1.689216845790176e-23
-0.4848557559687521	1.6840434841317404e-23
-0.4847947208125021	1.6774057560920616e-23
-0.4847336856562521	1.6693363252419244e-23
-0.4846726505000021	1.661080562433045e-23
-0.4846116153437521	1.652256781066698e-23
-0.4845505801875021	1.6417211776275678e-23
-0.4844895450312521	1.6302009271913284e-23
-0.4844285098750021	1.6186568759458274e-23
-0.4843674747187521	1.606088698313165e-23
-0.4843064395625021	1.5918282167603977e-23
-0.4842454044062521	1.5770952042989182e-23
-0.4841843692500021	1.5622272412225186e-23
-0.4841233340937521	1.5459133805736866e-23
-0.4840622989375021	1.5282129726370746e-23
-0.4840012637812521	1.5104485627710515e-23
-0.4839402286250021	1.4921956668187367e-23
-0.4838791934687521	1.472269398033411e-23
-0.4838181583125021	1.4514648751839928e-23
-0.4837571231562521	1.4307651677045984e-23
-0.4836960880000021	1.409110193218679e-23
-0.4836350528437521	1.3858468284055244e-23
-0.4835740176875021	1.3622542976664962e-23
-0.4835129825312521	1.338643001018053e-23
-0.4834519473750021	1.3136709674720788e-23
-0.4833909122187521	1.2874483561392512e-23
-0.4833298770625021	1.2613148573657426e-23
-0.4832688419062521	1.234799486073982e-23
-0.4832078067500021	1.2067340813283032e-23
-0.4831467715937521	1.1779639485678282e-23
-0.4830857364375021	1.1494406995529258e-23
-0.4830247012812521	1.1200778464969899e-23
-0.4829636661250021	1.0892811972280845e-23
-0.4829026309687521	1.058342913574035e-23
-0.4828415958125021	1.0275126856261209e-23
-0.4827805606562521	9.954688498639797e-24
-0.4827195255000021	9.623876324276538e-24
-0.4826584903437521	9.295706993351448e-24
-0.4825974551875021	8.965043544099719e-24
-0.4825364200312521	8.620877093295136e-24
-0.4824753848750021	8.271901863277772e-24
-0.4824143497187521	7.926897349567009e-24
-0.4823533145625021	7.575130705400844e-24
-0.4822922794062521	7.211470466656218e-24
-0.4822312442500021	6.848463359932318e-24
-0.4821702090937521	6.487978637473354e-24
-0.4821091739375021	6.117509501830316e-24
-0.4820481387812521	5.73928120049738e-24
-0.4819871036250021	5.365444622275914e-24
-0.4819260684687521	4.9907493233150546e-24
-0.4818650333125021	4.6052050582814826e-24
-0.4818039981562521	4.217326719139441e-24
-0.4817429630000021	3.834958348146176e-24
-0.4816819278437521	3.447937582235803e-24
-0.4816208926875021	3.0519458549335177e-24
-0.4815598575312521	2.658686398409348e-24
-0.4814988223750021	2.2695310741247672e-24
-0.4814377872187521	1.873075418607932e-24
-0.4813767520625021	1.471691290455491e-24
-0.4813157169062521	1.0763820712831154e-24
-0.4812546817500021	6.822163298678737e-25
-0.4811936465937521	2.8028746555525267e-25
-0.4811326114375021	-1.2160267577919297e-25
-0.4810715762812521	-5.16449000343206e-25
-0.4810105411250021	-9.13353028966634e-25
-0.4809495059687521	-1.3161140714606617e-24
-0.4808884708125021	-1.714278600436513e-24
-0.4808274356562521	-2.1065730010724653e-24
-0.4807664005000021	-2.5030877458289382e-24
-0.4807053653437521	-2.90178699038955e-24
-0.4806443301875021	-3.292898391225917e-24
-0.4805832950312521	-3.6805944350847746e-24
-0.4805222598750021	-4.072774213414457e-24
-0.4804612247187521	-4.462771448418955e-24
-0.4804001895625021	-4.844226204188641e-24
-0.4803391544062521	-5.2248480022981995e-24
-0.4802781192500021	-5.6083061889126224e-24
-0.4802170840937521	-5.985654811442236e-24
-0.4801560489375021	-6.35520670026315e-24
-0.4800950137812521	-6.725669747419653e-24
-0.4800339786250021	-7.095973944115797e-24
-0.4799729434687521	-7.457454140848253e-24
-0.4799119083125021	-7.812922281484784e-24
-0.4798508731562521	-8.169663451059563e-24
-0.4797898380000021	-8.522669764305564e-24
-0.4797288028437521	-8.865674097120461e-24
-0.4796677676875021	-9.20468717610606e-24
-0.4796067325312521	-9.543898981413901e-24
-0.4795456973750021	-9.876003972231469e-24
-0.4794846622187521	-1.0198302135177796e-23
-0.4794236270625021	-1.0518183216402138e-23
-0.4793625919062521	-1.083610301961812e-23
-0.4793015567500021	-1.1144319203186971e-23
-0.4792405215937521	-1.1443845479146766e-23
-0.4791794864375021	-1.17416904485873e-23
-0.4791184512812521	-1.2034840720461578e-23
-0.4790574161250021	-1.231670338353225e-23
-0.4789963809687521	-1.2591433466852226e-23
-0.4789353458125021	-1.286427114269808e-23
-0.4788743106562521	-1.3129541531855129e-23
-0.4788132755000021	-1.338299271039033e-23
-0.4787522403437521	-1.363094571502447e-23
-0.4786912051875021	-1.3875892954176648e-23
-0.4786301700312521	-1.411060782241791e-23
-0.4785691348750021	-1.4333939466448223e-23
-0.4785080997187521	-1.4553148593639873e-23
-0.4784470645625021	-1.4767445536128647e-23
-0.4783860294062521	-1.4969391106454414e-23
-0.4783249942500021	-1.516125618509722e-23
-0.4782639590937521	-1.534981616229886e-23
-0.4782029239375021	-1.553090175326998e-23
-0.4781418887812521	-1.5698350086944002e-23
-0.4780808536250021	-1.5857693402891316e-23
-0.4780198184687521	-1.601369998717659e-23
-0.4779587833125021	-1.6159312315810208e-23
-0.4778977481562521	-1.6291155131314232e-23
-0.4778367130000021	-1.641714251447565e-23
-0.4777756778437521	-1.653861529909875e-23
-0.4777146426875021	-1.6646921602420046e-23
-0.4776536075312521	-1.6742704599800262e-23
-0.4775925723750021	-1.6834574449674935e-23
-0.4775315372187521	-1.691953297041539e-23
-0.4774705020625021	-1.6989354023281017e-23
-0.4774094669062521	-1.7049157570030153e-23
-0.4773484317500021	-1.7105993850401946e-23
-0.4772873965937521	-1.7152640817461497e-23
-0.4772263614375021	-1.718366304192341e-23
-0.4771653262812521	-1.7207889900347338e-23
-0.4771042911250021	-1.7228511743967023e-23
-0.4770432559687521	-1.72355334454312e-23
-0.4769822208125021	-1.7228337695422587e-23
-0.4769211856562521	-1.7217366643238877e-23
-0.4768601505000021	-1.7200408851691174e-23
-0.4767991153437521	-1.7167332593043543e-23
-0.4767380801875021	-1.7123210090340703e-23
-0.4766770450312521	-1.707708930393622e-23
-0.4766160098750021	-1.7021306138862016e-23
-0.4765549747187521	-1.6948752946918467e-23
-0.4764939395625021	-1.6869323609516736e-23
-0.4764329044062521	-1.6787615985500262e-23
-0.4763718692500021	-1.6692312503245282e-23
-0.4763108340937521	-1.6581990608925213e-23
-0.4762497989375021	-1.6468729701584855e-23
-0.4761887637812521	-1.635069375085435e-23
-0.4761277286250021	-1.621620240851193e-23
-0.4760666934687521	-1.607059394363723e-23
-0.4760056583125021	-1.592442017232172e-23
-0.4759446231562521	-1.5769398815667275e-23
-0.4758835880000021	-1.5597331845529804e-23
-0.4758225528437521	-1.541918458294114e-23
-0.4757615176875021	-1.5240355928394673e-23
-0.4757004825312521	-1.504837612504624e-23
-0.4756394473750021	-1.4841561854829894e-23
-0.4755784122187521	-1.4633267493583538e-23
-0.4755173770625021	-1.4421604616237656e-23
-0.4754563419062521	-1.41938640301103e-23
-0.4753953067500021	-1.3955893935523913e-23
-0.4753342715937521	-1.3719114463248656e-23
-0.4752732364375021	-1.3474588873325622e-23
-0.4752122012812521	-1.3213687686675398e-23
-0.4751511661250021	-1.2948240153301767e-23
-0.4750901309687521	-1.2683810619182248e-23
-0.4750290958125021	-1.2407188117074065e-23
-0.4749680606562521	-1.2116954556534766e-23
-0.4749070255000021	-1.1827151997470585e-23
-0.4748459903437521	-1.1535466606822951e-23
-0.4747849551875021	-1.1228824271429004e-23
-0.4747239200312521	-1.0913716717043332e-23
-0.4746628848750021	-1.0601745382617643e-23
-0.4746018497187521	-1.0283412543735384e-23
-0.4745408145625021	-9.950255089613358e-24
-0.4744797794062521	-9.614637702200923e-24
-0.4744187442500021	-9.281815042111655e-24
-0.4743577090937521	-8.938319397053168e-24
-0.4742966739375021	-8.583267065311328e-24
-0.4742356387812521	-8.230766912011706e-24
-0.4741746036250021	-7.877992247916111e-24
-0.4741135684687521	-7.512152624324214e-24
-0.4740525333125021	-7.14027310031042e-24
-0.4739914981562521	-6.77348510708865e-24
-0.4739304630000021	-6.401967556785171e-24
-0.4738694278437521	-6.017971476942561e-24
-0.4738083926875021	-5.634007395248447e-24
-0.4737473575312521	-5.25459997946176e-24
-0.4736863223750021	-4.8664751138148645e-24
-0.4736252872187521	-4.469481851406349e-24
-0.4735642520625021	-4.077309002408477e-24
-0.4735032169062521	-3.686611651654115e-24
-0.4734421817500021	-3.285291941663661e-24
-0.4733811465937521	-2.8806649555648884e-24
-0.4733201114375021	-2.483067805328367e-24
-0.4732590762812521	-2.0827686367891574e-24
-0.4731980411250021	-1.672883630694085e-24
-0.4731370059687521	-1.2655071835399717e-24
-0.4730759708125021	-8.644012732772979e-25
-0.4730149356562521	-4.570637677293899e-25
-0.4729539005000021	-4.395643907715138e-26
-0.4728928653437521	3.622209664154228e-25
-0.4728318301875021	7.6512900748919865e-25
-0.4727707950312521	1.1757557601071289e-24
-0.4727097598750021	1.5868187014458648e-24
-0.4726487247187521	1.9890378879073956e-24
-0.4725876895625021	2.391700421050022e-24
-0.4725266544062521	2.800790733734774e-24
-0.4724656192500021	3.2050195010579788e-24
-0.4724045840937521	3.601240693453152e-24
-0.4723435489375021	4.000900438508544e-24
-0.4722825137812521	4.4033200980190196e-24
-0.4722214786250021	4.796974021463628e-24
-0.4721604434687521	5.185279063678841e-24
-0.4720994083125021	5.578085872577905e-24
-0.4720383731562521	5.9688318836997636e-24
-0.4719773380000021	6.3492215945422055e-24
-0.4719163028437521	6.727474824186412e-24
-0.4718552676875021	7.108940616455095e-24
-0.4717942325312521	7.483650545430166e-24
