Time	Frequency
-0.5000438689062463	0.5270256016310948
-0.4999828337499963	0.5297624907408928
-0.4999217985937463	0.53212493795918
-0.4998607634374963	0.534124084666446
-0.4997997282812463	0.5356986910127042
-0.4997386931249963	0.5368877034997864
-0.4996776579687463	0.537713486464922
-0.4996166228124963	0.5381159003208542
-0.4995555876562463	0.5381242158164923
-0.4994945524999963	0.5377702565654957
-0.4994335173437463	0.5369978102797348
-0.4993724821874963	0.5358262220736612
-0.4993114470312463	0.5342943778333347
-0.4992504118749963	0.5323519063943023
-0.4991893767187463	0.5300086526099835
-0.4991283415624963	0.5273086019347611
-0.4990673064062463	0.5242088188876242
-0.4990062712499963	0.5207099819769776
-0.4989452360937463	0.5168588350447134
-0.4988842009374963	0.5126215437518561
-0.4988231657812463	0.5079910090230525
-0.4987621306249963	0.5030141025268303
-0.4987010954687463	0.4976665931156631
-0.4986400603124963	0.4919355287870678
-0.4985790251562463	0.48586587749280585
-0.4985179899999963	0.47944253806971326
-0.4984569548437463	0.47264846212278033
-0.4983959196874963	0.46552599850045356
-0.4983348845312463	0.45806930322847506
-0.4982738493749963	0.4502581710267125
-0.4982128142187463	0.4421298996113949
-0.4981517790624963	0.4336873762185189
-0.4980907439062463	0.42491043118002475
-0.4980297087499963	0.41583093743368
-0.4979686735937463	0.4064584226669824
-0.4979076384374963	0.39677354508756235
-0.4978466032812463	0.3868026322444262
-0.4977855681249963	0.3765613867984673
-0.4977245329687463	0.3660328582746361
-0.4976634978124963	0.3552370557544829
-0.4976024626562463	0.3441940186394928
-0.4975414274999963	0.3328908660389492
-0.4974803923437463	0.3213421437828381
-0.4974193571874963	0.3095704099669504
-0.4973583220312463	0.2975671267839494
-0.4972972868749963	0.2853420785910131
-0.4972362517187463	0.27291920874860237
-0.4971752165624963	0.2602948314469072
-0.4971141814062463	0.2474747569746842
-0.4970531462499963	0.23448311154571572
-0.4969921110937463	0.22132112839784499
-0.4969310759374963	0.20799119379894507
-0.4968700407812463	0.19451634408480412
-0.4968090056249963	0.18090305444981788
-0.4967479704687463	0.1671520152498368
-0.4966869353124963	0.15328429711112243
-0.4966259001562463	0.13931007887226057
-0.4965648649999963	0.1252285158821532
-0.4965038298437463	0.11105929292710658
-0.4964427946874963	0.09681698380512414
-0.4963817595312463	0.08249898001777504
-0.4963207243749963	0.0681220792516885
-0.4962596892187463	0.05370551181263789
-0.4961986540624963	0.039246586937140865
-0.4961376189062463	0.024758283854649867
-0.4960765837499963	0.010262898991111064
-0.4960155485937463	-0.004241285430290937
-0.4959545134374963	-0.018744516992227792
-0.4958934782812463	-0.03322223444037502
-0.4958324431249963	-0.04767521674515421
-0.4957714079687463	-0.06209698528655112
-0.4957103728124963	-0.07646092098005557
-0.4956493376562463	-0.09076647837773702
-0.4955883024999963	-0.10501044321445605
-0.4955272673437463	-0.11916446441950393
-0.4954662321874963	-0.13322693776434144
-0.4954051970312463	-0.1471985703263499
-0.4953441618749963	-0.16104887591676315
-0.4952831267187463	-0.17477415689105616
-0.4952220915624963	-0.18838011102071342
-0.4951610564062463	-0.20183489604191499
-0.4951000212499963	-0.21513102982566606
-0.4950389860937463	-0.2282791763453788
-0.4949779509374963	-0.2412482982693402
-0.4949169157812463	-0.25402718902079946
-0.4948558806249963	-0.2666302629259708
-0.4947948454687463	-0.2790269706393235
-0.4947338103124963	-0.29120230302547906
-0.4946727751562463	-0.30317544717869366
-0.4946117399999963	-0.3149173107493871
-0.4945507048437463	-0.326407555794534
-0.4944896696874963	-0.3376694995509584
-0.4944286345312463	-0.34867750483864357
-0.4943675993749963	-0.35940611479574186
-0.4943065642187463	-0.36988157066061894
-0.4942455290624963	-0.38008187467842686
-0.4941844939062463	-0.3899761315114444
-0.4941234587499963	-0.3995936256772479
-0.4940624235937463	-0.4089177669215114
-0.4940013884374963	-0.4179117464870775
-0.4939403532812463	-0.42660615669006197
-0.4938793181249963	-0.4349907013383229
-0.4938182829687463	-0.4430233422392352
-0.4937572478124963	-0.45073554122476556
-0.4936962126562463	-0.4581242745980553
-0.4936351774999963	-0.46514175020134807
-0.4935741423437463	-0.4718185159201703
-0.4935131071874963	-0.4781604324939909
-0.4934520720312463	-0.484115287206986
-0.4933910368749963	-0.48971106265984454
-0.4933300017187463	-0.49496287334879363
-0.4932689665624963	-0.4998148388972211
-0.4932079314062463	-0.5042906494871042
-0.4931468962499963	-0.5084154522884594
-0.4930858610937463	-0.5121315379275732
-0.4930248259374963	-0.5154565591726349
-0.4929637907812463	-0.5184252564068911
-0.4929027556249963	-0.5209797053277518
-0.4928417204687463	-0.5231303538097891
-0.4927806853124963	-0.5249213786807797
-0.4927196501562463	-0.5262963572305321
-0.4926586149999963	-0.5272569570721332
-0.4925975798437463	-0.5278562874692609
-0.4925365446874963	-0.5280418982024067
-0.4924755095312463	-0.5278052916923923
-0.4924144743749963	-0.5272067298490478
-0.4923534392187463	-0.526200200252701
-0.4922924040624963	-0.5247669827662296
-0.4922313689062463	-0.5229726844066405
-0.4921703337499963	-0.5207795744261692
-0.4921092985937463	-0.5181585149316794
-0.4920482634374963	-0.515178263695289
-0.4919872282812463	-0.5118115508040061
-0.4919261931249963	-0.5080195736841043
-0.4918651579687463	-0.5038714958200685
-0.4918041228124963	-0.4993517775086041
-0.4917430876562463	-0.4944132996341375
-0.4916820524999963	-0.4891233217453233
-0.4916210173437463	-0.4834791546285306
-0.4915599821874963	-0.4774268590607562
-0.4914989470312463	-0.47102863010878243
-0.4914379118749963	-0.4642950117506891
-0.4913768767187463	-0.4571682661108445
-0.4913158415624963	-0.4497035515235141
-0.4912548064062463	-0.4419239169829796
-0.4911937712499963	-0.43376984804512575
-0.4911327360937463	-0.42528729817926575
-0.4910717009374963	-0.41651091393540246
-0.4910106657812463	-0.40738244312605276
-0.4909496306249963	-0.3979376454583223
-0.4908885954687463	-0.3882215231077946
-0.4908275603124963	-0.37817970231410303
-0.4907665251562463	-0.3678358790577767
-0.4907054899999963	-0.3572420956897138
-0.4906444548437463	-0.3463511360108125
-0.4905834196874963	-0.33517664398977803
-0.4905223845312463	-0.32377536438824517
-0.4904613493749963	-0.31210756139909357
-0.4904003142187463	-0.3001766097966543
-0.4903392790624963	-0.2880419678555833
-0.4902782439062463	-0.27567370695653987
-0.4902172087499963	-0.26306609303737993
-0.4901561735937463	-0.2502778842896235
-0.4900951384374963	-0.23728969457105636
-0.4900341032812463	-0.22408936834135512
-0.4899730681249963	-0.2107327444473198
-0.4899120329687463	-0.19721009595829003
-0.4898509978124963	-0.18350476390193313
-0.4897899626562463	-0.1696686158872145
-0.4897289274999963	-0.15570094629561473
-0.4896678923437463	-0.14158153813528404
-0.4896068571874963	-0.12735694682393384
-0.4895458220312463	-0.11303598197842926
-0.4894847868749963	-0.09859741228367502
-0.4894237517187463	-0.08408040345021058
-0.4893627165624963	-0.0695008534691619
-0.4893016814062463	-0.05483859984859816
-0.4892406462499963	-0.04012582080984838
-0.4891796110937463	-0.025384206096327005
-0.4891185759374963	-0.010595947900332827
-0.4890575407812463	0.004213858507336875
-0.4889965056249963	0.0190192602596491
-0.4889354704687463	0.033834593653613076
-0.4888744353124963	0.04864198641119043
-0.4888134001562463	0.06341308643956217
-0.4887523649999963	0.07815724220301137
-0.4886913298437463	0.09286256502420867
-0.4886302946874963	0.10750019378960629
-0.4885692595312463	0.12207453406840778
-0.4885082243749963	0.13657895424270422
-0.4884471892187463	0.15098546619382683
-0.4883861540624963	0.1652929762223489
-0.4883251189062463	0.1794985184483672
-0.4882640837499963	0.19357647791055266
-0.4882030485937463	0.2075213365483653
-0.4881420134374963	0.22133284631393085
-0.4880809782812463	0.2349879669456263
-0.4880199431249963	0.24847675851325904
-0.4879589079687463	0.26180072712061303
-0.4878978728124963	0.27494016865215437
-0.4878368376562463	0.28788187172248536
-0.4877758024999963	0.3006288983416739
-0.4877147673437463	0.31316471417710323
-0.4876537321874963	0.3254722175282072
-0.4875926970312463	0.3375552937679738
-0.4875316618749963	0.3494018698516909
-0.4874706267187463	0.3609921305013183
-0.4874095915624963	0.37232984221738274
-0.4873485564062463	0.38340711163554814
-0.4872875212499963	0.39420181952216615
-0.4872264860937463	0.40471691481570676
-0.4871654509374963	0.41494887975627653
-0.4871044157812463	0.4248742624195206
-0.4870433806249963	0.4344949984846628
-0.4869823454687463	0.443811992501213
-0.4869213103124963	0.4528008873153718
-0.4868602751562463	0.4614619492286977
-0.4867992399999963	0.46980003142317983
-0.4867382048437463	0.4777901761884564
-0.4866771696874963	0.48543130488885516
-0.4866161345312463	0.4927331352127336
-0.4865550993749963	0.49967017729283886
-0.4864940642187463	0.5062385576459518
-0.4864330290624963	0.5124532518589808
-0.4863719939062463	0.5182895430860592
-0.4863109587499963	0.5237396539690602
-0.4862499235937463	0.5288230791328126
-0.4861888884374963	0.5335172809185434
-0.4861278532812463	0.5378110099138952
-0.4860668181249963	0.5417277312270254
-0.4860057829687463	0.5452469188737838
-0.4859447478124963	0.5483532041432317
-0.4858837126562463	0.5510743984538798
-0.4858226774999963	0.553393331020864
-0.4857616423437463	0.5552896488597816
-0.4857006071874963	0.556794621223634
-0.4856395720312463	0.5578957849182014
-0.4855785368749963	0.5585677320124203
-0.4855175017187463	0.5588441246896634
-0.4854564665624963	0.558718020721227
-0.4853954314062463	0.5581589734691919
-0.4853343962499963	0.5572023577386999
-0.4852733610937463	0.5558478747529014
-0.4852123259374963	0.5540598732120484
-0.4851512907812463	0.5518740637111214
-0.4850902556249963	0.549297894079052
-0.4850292204687463	0.5462910205316466
-0.4849681853124963	0.5428881633275165
-0.4849071501562463	0.5391053633439824
-0.4848461149999963	0.5348980946046838
-0.4847850798437463	0.5302984158370819
-0.4847240446874963	0.5253316879913484
-0.4846630095312463	0.5199502932759521
-0.4846019743749963	0.5141821007093992
-0.4845409392187463	0.5080623257770851
-0.4844799040624963	0.5015414690329418
-0.4844188689062463	0.4946411405144271
-0.4843578337499963	0.4874063104054479
-0.4842967985937463	0.4797876778793412
-0.4842357634374963	0.4717993325406431
-0.4841747282812463	0.4634954228530673
-0.4841136931249963	0.4548284792596471
-0.4840526579687463	0.4458035497712515
-0.4839916228124963	0.43648324966991053
-0.4839305876562463	0.42682422268878994
-0.4838695524999963	0.41682126466161223
-0.4838085173437463	0.406544157007497
-0.4837474821874963	0.3959562207218876
-0.4836864470312463	0.3850411611994291
-0.4836254118749963	0.37387331029458265
-0.4835643767187463	0.36242473997699937
-0.4835033415624963	0.3506688560807131
-0.4834423064062463	0.338682762507956
-0.4833812712499963	0.32644877512387616
-0.4833202360937463	0.3139299926506193
-0.4832592009374963	0.30120348822187093
-0.4831981657812463	0.28826341698890307
-0.4831371306249963	0.275064030110945
-0.4830760954687463	0.261680063960396
-0.4830150603124963	0.24811883615061278
-0.4829540251562463	0.23432709115691683
-0.4828929899999963	0.22037355679147907
-0.4828319548437463	0.2062789805701509
-0.4827709196874963	0.1919857889604177
-0.4827098845312463	0.1775546014255664
-0.4826488493749963	0.16301896055499424
-0.4825878142187463	0.14831954647556952
-0.4825267790624963	0.13350669940456786
-0.4824657439062463	0.11862518251036595
-0.4824047087499963	0.10361640649155571
-0.4823436735937463	0.08851955877781971
-0.4822826384374963	0.07338980301474174
-0.4822216032812463	0.05817174606553109
-0.4821605681249963	0.0428914398960513
-0.4820995329687463	0.027612318778050926
-0.4820384978124963	0.012286112183796218
-0.4819774626562463	-0.0030747327811991034
-0.4819164274999963	-0.018403035695461388
-0.4818553923437463	-0.03373734836044679
-0.4817943571874963	-0.049075925080960564
-0.4817333220312463	-0.06435091939643002
-0.4816722868749963	-0.07959180132991388
-0.4816112517187463	-0.09480634034254146
-0.4815502165624963	-0.10992713372506971
-0.4814891814062463	-0.124973144145033
-0.4814281462499963	-0.13996105234508568
-0.4813671110937463	-0.15482764623864043
-0.4813060759374963	-0.16958051919612754
-0.4812450407812463	-0.18424133338004872
-0.4811840056249963	-0.19875320341247396
-0.4811229704687463	-0.21311487428761375
-0.4810619353124963	-0.2273514720649868
-0.4810009001562463	-0.24141245544363552
-0.4809398649999963	-0.25528764389143555
-0.4808788298437463	-0.2690041528155355
-0.4808177946874963	-0.28251973176738737
-0.4807567595312463	-0.2958164982140638
-0.4806957243749963	-0.30892114407194027
-0.4806346892187463	-0.3218006298904233
-0.4805736540624963	-0.3344313175292469
-0.4805126189062463	-0.3468369524369421
-0.4804515837499963	-0.35899304725453474
-0.4803905485937463	-0.37087269923330546
-0.4803295134374963	-0.3824964145491053
-0.4802684782812463	-0.39384789452144503
-0.4802074431249963	-0.404898023572064
-0.4801464079687463	-0.4156623485465402
-0.4800853728124963	-0.42613187656410184
-0.4800243376562463	-0.436277772775771
-0.4799633024999963	-0.4461109280927905
-0.4799022673437463	-0.4556286555710745
-0.4798412321874963	-0.46480310827265203
-0.4797801970312463	-0.4736393027689333
-0.4797191618749963	-0.4821397546943893
-0.4796581267187463	-0.49028033213779565
-0.4795970915624963	-0.49806120935362813
-0.4795360564062463	-0.505487984476967
-0.4794750212499963	-0.5125400463522071
-0.4794139860937463	-0.5192131561479948
-0.4793529509374963	-0.5255153818909601
-0.4792919157812463	-0.5314308523595311
-0.4792308806249963	-0.5369518879665258
-0.4791698454687463	-0.5420875414976363
-0.4791088103124963	-0.5468262389853691
-0.4790477751562463	-0.5511576755302482
-0.4789867399999963	-0.5550919418784576
-0.4789257048437463	-0.5586219946773769
-0.4788646696874963	-0.5617347833657504
-0.4788036345312463	-0.5644405930361371
-0.4787425993749963	-0.5667375792874335
-0.4786815642187463	-0.5686108526429489
-0.4786205290624963	-0.5700699277702416
-0.4785594939062463	-0.5711179047237711
-0.4784984587499963	-0.5717388831023213
-0.4784374235937463	-0.571941214154045
-0.4783763884374963	-0.5717326906695059
-0.4783153532812463	-0.5710968674508832
-0.4782543181249963	-0.5700406279076136
-0.4781932829687463	-0.5685765318198788
-0.4781322478124963	-0.5666881296067817
-0.4780712126562463	-0.5643802878778427
-0.4780101774999963	-0.5616700640379944
-0.4779491423437463	-0.5585414506234077
-0.4778881071874963	-0.5549969969626807
-0.4778270720312463	-0.5510584271187645
-0.4777660368749963	-0.5467106454005781
-0.4777050017187463	-0.5419529937561991
-0.4776439665624963	-0.5368119253886126
-0.4775829314062463	-0.5312744069330643
-0.4775218962499963	-0.5253357566217568
-0.4774608610937463	-0.5190261892658316
-0.4773998259374963	-0.5123354793313244
-0.4773387907812463	-0.5052551495382562
-0.4772777556249963	-0.49781923402708594
-0.4772167204687463	-0.49002085774711995
-0.4771556853124963	-0.4818466834759707
-0.4770946501562463	-0.4733338222971783
-0.4770336149999963	-0.4644800565423022
-0.4769725798437463	-0.45526696771633024
-0.4769115446874963	-0.44573372046434684
-0.4768505095312463	-0.435883876859152
-0.4767894743749963	-0.4256941472152218
-0.4767284392187463	-0.4152045784212972
-0.4766674040624963	-0.4044249775191588
-0.4766063689062463	-0.3933272231741406
-0.4765453337499963	-0.3819515652452629
-0.4764842985937463	-0.3703151516924314
-0.4764232634374963	-0.358384642603633
-0.4763622282812463	-0.3461985273347544
-0.4763011931249963	-0.33378273587388785
-0.4762401579687463	-0.3211002441773453
-0.4761791228124963	-0.30818610790933
-0.4761180876562463	-0.29507496817579604
-0.4760570524999963	-0.2817268723355152
-0.4759960173437463	-0.26817186319507635
-0.4759349821874963	-0.25445326363866183
-0.4758739470312463	-0.24052907114939237
-0.4758129118749963	-0.2264232761794803
-0.4757518767187463	-0.2121893813333357
-0.4756908415624963	-0.19778541947749204
-0.4756298064062463	-0.18322588960490166
-0.4755687712499963	-0.1685718801414836
-0.4755077360937463	-0.15378406395869915
-0.4754467009374963	-0.13886859521972658
-0.4753856657812463	-0.1238937413568806
-0.4753246306249963	-0.10882300532106894
-0.4752635954687463	-0.09365222240843012
-0.4752025603124963	-0.07845695604668645
-0.4751415251562463	-0.06320667490946359
-0.4750804899999963	-0.04788463847572512
-0.4750194548437463	-0.03257030356294482
-0.4749584196874963	-0.017242304188998334
-0.4748973845312463	-0.0018730389893067867
-0.4748363493749963	0.013456389000369693
-0.4747753142187463	0.028757424036226057
-0.4747142790624963	0.04406874113589421
-0.4746532439062463	0.05931010827349938
-0.4745922087499963	0.07448106130029614
-0.4745311735937463	0.0896299592338419
-0.4744701384374963	0.10468038211789324
-0.4744091032812463	0.11961908730614575
-0.4743480681249963	0.13450212750098997
-0.4742870329687463	0.1492593074761809
-0.4742259978124963	0.16386417555774174
-0.4741649626562463	0.17837880231006042
-0.4741039274999963	0.19274282165056966
-0.4740428923437463	0.20691677529381447
-0.4739818571874963	0.22096450721312952
-0.4739208220312463	0.2348369178395575
-0.4738597868749963	0.2484833145861422
-0.4737987517187463	0.26196744291215784
-0.4737377165624963	0.27525368633915953
-0.4736766814062463	0.2882814413486358
-0.4736156462499963	0.30111051047500714
-0.4735546110937463	0.3137193420399357
-0.4734935759374963	0.32604008233504567
-0.4734325407812463	0.3381261278816762
-0.4733715056249963	0.34997048741249265
-0.4733104704687463	0.3615014405473289
-0.4732494353124963	0.3727632251172193
-0.4731884001562463	0.38376174293880444
-0.4731273649999963	0.39442436457332
-0.4730663298437463	0.4047847758804673
-0.4730052946874963	0.4148607315776032
-0.4729442595312463	0.42458267960199947
-0.4728832243749963	0.43397301238702535
-0.4728221892187463	0.44305771296970897
-0.4727611540624963	0.4517719007612075
-0.4727001189062463	0.46012749626124266
-0.4726390837499963	0.4681578231248238
-0.4725780485937463	0.4758051407614317
-0.4725170134374963	0.4830704399125964
-0.4724559782812463	0.48999092255523735
-0.4723949431249963	0.49651793743951367
-0.4723339079687463	0.5026437051226034
-0.4722728728124963	0.5084071073070563
-0.4722118376562463	0.5137689980833464
-0.4721508024999963	0.5187138844517128
-0.4720897673437463	0.5232801886607734
-0.4720287321874963	0.527439218343557
-0.4719676970312463	0.5311698878507283
-0.4719066618749963	0.5345080009735594
-0.4718456267187463	0.537435013374906
-0.4717845915624963	0.539926357263668
-0.4717235564062463	0.5420136209127133
-0.4716625212499963	0.5436875726892871
-0.4716014860937463	0.544922359729762
-0.4715404509374963	0.5457446428130208
-0.4714794157812463	0.5461534402355983
-0.4714183806249963	0.5461232492464514
-0.4713573454687463	0.5456751568943402
-0.4712963103124963	0.5448152768842877
-0.4712352751562463	0.5435201386844303
-0.4711742399999963	0.5418049310806554
-0.4711132048437463	0.5396814970293987
-0.4710521696874963	0.5371300683943272
-0.4709911345312463	0.5341599929373139
-0.4709300993749963	0.5307869025019892
-0.4708690642187463	0.5269959782508236
-0.4708080290624963	0.5227918192517957
-0.4707469939062463	0.518192131826969
-0.4706859587499963	0.5131870672549046
-0.4706249235937463	0.507777468334849
-0.4705638884374963	0.501982428239882
-0.4705028532812463	0.4957973965686219
-0.4704418181249963	0.4892199476201078
-0.4703807829687463	0.48226910240990634
-0.4703197478124963	0.47494556123950454
-0.4702587126562463	0.46724505087747653
-0.4701976774999963	0.45918630625977686
-0.4701366423437463	0.4507747041308312
-0.4700756071874963	0.4420040558396575
-0.4700145720312463	0.43289240379445376
-0.4699535368749963	0.4234502248872258
-0.4698925017187463	0.41366977527693893
-0.4698314665624963	0.40356727858387675
-0.4697704314062463	0.3931585200308335
-0.4697093962499963	0.38243581420512995
-0.4696483610937463	0.3714130915649757
-0.4695873259374963	0.3601098668897727
-0.4695262907812463	0.34851800726027166
