Time	Frequency
-0.5000309804687504	0.38676289458458124
-0.4999699453125004	0.39676214613524763
-0.4999089101562504	0.4064610022688954
-0.4998478750000004	0.4158397915493981
-0.4997868398437504	0.42492006111417485
-0.4997258046875004	0.4336987170756342
-0.4996647695312504	0.4421401961328085
-0.4996037343750004	0.4502433058486553
-0.4995426992187504	0.4580285402583153
-0.4994816640625004	0.46547736771256737
-0.4994206289062504	0.472562723987441
-0.4993595937500004	0.4792983705276702
-0.4992985585937504	0.48569448593704134
-0.4992375234375004	0.49172285366088414
-0.4991764882812504	0.4973708425077294
-0.4991154531250004	0.5026597272914931
-0.4990544179687504	0.507586427302562
-0.4989933828125004	0.5121224053273646
-0.4989323476562504	0.5162703703188947
-0.4988713125000004	0.5200491788470143
-0.4988102773437504	0.5234438413471909
-0.4987492421875004	0.5264343745029806
-0.4986882070312504	0.5290352936443614
-0.4986271718750004	0.53125646774817
-0.4985661367187504	0.5330766517607045
-0.4985051015625004	0.534488719812438
-0.4984440664062504	0.5355119848246261
-0.4983830312500004	0.5361453419734036
-0.4983219960937504	0.5363687901431663
-0.4982609609375004	0.5361878888314107
-0.4981999257812504	0.5356198197313099
-0.4981388906250004	0.5346546561565227
-0.4980778554687504	0.5332795217422599
-0.4980168203125004	0.5315089795648608
-0.4979557851562504	0.5293535221315085
-0.4978947500000004	0.5267992087245195
-0.4978337148437504	0.5238431942746016
-0.4977726796875004	0.5205035805813987
-0.4977116445312504	0.5167831402005542
-0.4976506093750004	0.5126693916577921
-0.4975895742187504	0.5081689217516479
-0.4975285390625004	0.5032985085923298
-0.4974675039062504	0.4980547350887866
-0.4974064687500004	0.4924302459978942
-0.4973454335937504	0.48643873557361256
-0.4972843984375004	0.48009306170269445
-0.4972233632812504	0.47338664118144586
-0.4971623281250004	0.4663190282469942
-0.4971012929687504	0.4589075766190325
-0.4970402578125004	0.45115987005399555
-0.4969792226562504	0.44306907806974205
-0.4969181875000004	0.43464204880577895
-0.4968571523437504	0.42589733753603215
-0.4967961171875004	0.4168379426833371
-0.4967350820312504	0.4074590906257627
-0.4966740468750004	0.39777330354322943
-0.4966130117187504	0.38779770192430557
-0.4965519765625004	0.37753215301760157
-0.4964909414062504	0.36697604904053377
-0.4964299062500004	0.3561464446800769
-0.4963688710937504	0.34505769854046725
-0.4963078359375004	0.33370723193451995
-0.4962468007812504	0.3220990475098872
-0.4961857656250004	0.3102537397436479
-0.4961247304687504	0.29818231253257943
-0.4960636953125004	0.28588084606550185
-0.4960026601562504	0.2733587242785251
-0.4959416250000004	0.26063869909807325
-0.4958805898437504	0.2477270644247951
-0.4958195546875004	0.23461966556604819
-0.4957585195312504	0.22133266927738987
-0.4956974843750004	0.20788922897272571
-0.4956364492187504	0.19428935466573716
-0.4955754140625004	0.18053155141126384
-0.4955143789062504	0.16663944327877164
-0.4954533437500004	0.15263188871943056
-0.4953923085937504	0.13850302442193954
-0.4953312734375004	0.12425910583061753
-0.4952702382812504	0.10992911808349984
-0.4952092031250004	0.0955228656907681
-0.4951481679687504	0.08103170047277992
-0.4950871328125004	0.06647297119902855
-0.4950260976562504	0.05187632783168862
-0.4949650625000004	0.03724025020998011
-0.4949040273437504	0.02255944797508996
-0.4948429921875004	0.007862747507835513
-0.4947819570312504	-0.006827114247916649
-0.4947209218750004	-0.021521390599522548
-0.4946598867187504	-0.03621498983605712
-0.4945988515625004	-0.05087207403248097
-0.4945378164062504	-0.06548280892215097
-0.4944767812500004	-0.08006160956605796
-0.4944157460937504	-0.0945888119445874
-0.4943547109375004	-0.10902989117334404
-0.4942936757812504	-0.12339012673212044
-0.4942326406250004	-0.13767849560841058
-0.4941716054687504	-0.15186175960826728
-0.4941105703125004	-0.1659157533748074
-0.4940495351562504	-0.17985752224513893
-0.4939885000000004	-0.1936821053137526
-0.4939274648437504	-0.20734861029253743
-0.4938664296875004	-0.2208501549726163
-0.4938053945312504	-0.23420695159776017
-0.4937443593750004	-0.24739653515282253
-0.4936833242187504	-0.2603820784857079
-0.4936222890625004	-0.27317462681466204
-0.4935612539062504	-0.28578526110817754
-0.4935002187500004	-0.298176933093482
-0.4934391835937504	-0.31032770986757463
-0.4933781484375004	-0.3222600229676575
-0.4933171132812504	-0.33396792166335126
-0.4932560781250004	-0.34540982976493617
-0.4931950429687504	-0.3565841842192878
-0.4931340078125004	-0.36751355425079324
-0.4930729726562504	-0.37817286097536995
-0.4930119375000004	-0.3885274475789259
-0.4929509023437504	-0.39859440750875597
-0.4928898671875004	-0.40838566886438377
-0.4928288320312504	-0.41786288752634576
-0.4927677968750004	-0.42700819677295543
-0.4927067617187504	-0.4358488019715731
-0.4926457265625004	-0.44437851581028737
-0.4925846914062504	-0.4525565216963054
-0.4925236562500004	-0.4603863394394182
-0.4924626210937504	-0.4678930139645375
-0.4924015859375004	-0.47505141841880333
-0.4923405507812504	-0.48183128620616145
-0.4922795156250004	-0.48825460398406434
-0.4922184804687504	-0.49433253044491904
-0.4921574453125004	-0.5000278941949639
-0.4920964101562504	-0.5053302367518786
-0.4920353750000004	-0.5102698805428011
-0.4919743398437504	-0.5148384858701744
-0.4919133046875004	-0.5189994736896103
-0.4918522695312504	-0.5227639087302877
-0.4917912343750004	-0.5261571357567837
-0.4917301992187504	-0.5291536900528321
-0.4916691640625004	-0.5317300540030387
-0.4916081289062504	-0.5339130559987023
-0.4915470937500004	-0.5357128727371284
-0.4914860585937504	-0.5370956212100847
-0.4914250234375004	-0.5380581215379703
-0.4913639882812504	-0.5386321163979846
-0.4913029531250004	-0.5388089391122796
-0.4912419179687504	-0.5385584042454349
-0.4911808828125004	-0.5378975545441524
-0.4911198476562504	-0.5368509837563133
-0.4910588125000004	-0.5353951205308001
-0.4909977773437504	-0.5335142496190632
-0.4909367421875004	-0.5312382323671869
-0.4908757070312504	-0.5285762407387024
-0.4908146718750004	-0.5254999203001758
-0.4907536367187504	-0.5220129767651281
-0.4906926015625004	-0.5181465357898818
-0.4906315664062504	-0.5138930222511964
-0.4905705312500004	-0.509230649683892
-0.4905094960937504	-0.5041802238116011
-0.4904484609375004	-0.4987642528401482
-0.4903874257812504	-0.4929638980611338
-0.4903263906250004	-0.4867715257208615
-0.4902653554687504	-0.48021709058155315
-0.4902043203125004	-0.47330936656048206
-0.4901432851562504	-0.46602735205013934
-0.4900822500000004	-0.45837974703044637
-0.4900212148437504	-0.4503963873487977
-0.4899601796875004	-0.44207300951269135
-0.4898991445312504	-0.4333950874949456
-0.4898381093750004	-0.42438425782976463
-0.4897770742187504	-0.41506221084969697
-0.4897160390625004	-0.40541688809679405
-0.4896550039062504	-0.3954465022306168
-0.4895939687500004	-0.38517891447256364
-0.4895329335937504	-0.37462425282404344
-0.4894718984375004	-0.363769693777345
-0.4894108632812504	-0.35262638378966776
-0.4893498281250004	-0.34122135251896973
-0.4892887929687504	-0.3295547194424991
-0.4892277578125004	-0.3176194758444862
-0.4891667226562504	-0.305436642655756
-0.4891056875000004	-0.29302661119559664
-0.4890446523437504	-0.2803835511756682
-0.4889836171875004	-0.2675098055958213
-0.4889225820312504	-0.25443132420982706
-0.4888615468750004	-0.24116043068720236
-0.4888005117187504	-0.22769052565680006
-0.4887394765625004	-0.2140328962115755
-0.4886784414062504	-0.20021265249557668
-0.4886174062500004	-0.1862351804705798
-0.4885563710937504	-0.17209810452222368
-0.4884953359375004	-0.15781981551756766
-0.4884343007812504	-0.14342089239512035
-0.4883732656250004	-0.12890152367483723
-0.4883122304687504	-0.11426547570406011
-0.4882511953125004	-0.09953616985334938
-0.4881901601562504	-0.08472859607679419
-0.4881291250000004	-0.06984006121161426
-0.4880680898437504	-0.05488042473636328
-0.4880070546875004	-0.039874428521525326
-0.4879460195312504	-0.02483184950261303
-0.4878849843750004	-0.009751304807656931
-0.4878239492187504	0.00535200146562629
-0.4877629140625004	0.02045535650981661
-0.4877018789062504	0.035553999585317984
-0.4876408437500004	0.050647080292599636
-0.4875798085937504	0.0657146024050587
-0.4875187734375004	0.08073616484462141
-0.4874577382812504	0.09571100338883791
-0.4873967031250004	0.11063520254382261
-0.4873356679687504	0.12548531571220709
-0.4872746328125004	0.14024537506367352
-0.4872135976562504	0.15491883443388446
-0.4871525625000004	0.16949662905304522
-0.4870915273437504	0.18395141431724102
-0.4870304921875004	0.1982737562719698
-0.4869694570312504	0.21246990636193935
-0.4869084218750004	0.22652394344940494
-0.4868473867187504	0.24040922117961636
-0.4867863515625004	0.2541249568615286
-0.4867253164062504	0.26767483152576294
-0.4866642812500004	0.2810344692469376
-0.4866032460937504	0.2941829286849419
-0.4865422109375004	0.30712852501571747
-0.4864811757812504	0.31986811483626915
-0.4864201406250004	0.3323708524443405
-0.4863591054687504	0.34462623133207476
-0.4862980703125004	0.3566477520469875
-0.4862370351562504	0.3684208782086949
-0.4861760000000004	0.37991426387000915
-0.4861149648437504	0.39113145060797544
-0.4860539296875004	0.4020841162781595
-0.4859928945312504	0.41274552347976284
-0.4859318593750004	0.42309167513222423
-0.4858708242187504	0.433138116480761
-0.4858097890625004	0.4428869660483443
-0.4857487539062504	0.4523040855992153
-0.4856877187500004	0.4613802546711423
-0.4856266835937504	0.47013662514263105
-0.4855656484375004	0.47856003180863227
-0.4855046132812504	0.48661692603385875
-0.4854435781250004	0.4943161451797753
-0.4853825429687504	0.501675426258686
-0.4853215078125004	0.5086664513265162
-0.4852604726562504	0.5152662224743773
-0.4851994375000004	0.5214983861038335
-0.4851384023437504	0.5273676043631289
-0.4850773671875004	0.5328368734625499
-0.4850163320312504	0.5379020325709933
-0.4849552968750004	0.542592425495835
-0.4848942617187504	0.5468942880208519
-0.4848332265625004	0.5507733502449692
-0.4847721914062504	0.554246125789364
-0.4847111562500004	0.557335285606581
-0.4846501210937504	0.5600108383294882
-0.4845890859375004	0.5622532359759879
-0.4845280507812504	0.5640938026219032
-0.4844670156250004	0.5655385166279912
-0.4844059804687504	0.5665502289776729
-0.4843449453125004	0.5671313193908865
-0.4842839101562504	0.5673165615419631
-0.4842228750000004	0.5670916535281306
-0.4841618398437504	0.5664251421772095
-0.4841008046875004	0.5653408942239849
-0.4840397695312504	0.563864062902145
-0.4839787343750004	0.5619646157583482
-0.4839176992187504	0.559628659489004
-0.4838566640625004	0.5568934748997552
-0.4837956289062504	0.5537652905164056
-0.4837345937500004	0.5502091307697149
-0.4836735585937504	0.5462344556624277
-0.4836125234375004	0.5418791879575652
-0.4835514882812504	0.5371287418119738
-0.4834904531250004	0.531956947932666
-0.4834294179687504	0.5263943798449022
-0.4833683828125004	0.5204662153405879
-0.4833073476562504	0.5141433134199219
-0.4832463125000004	0.5074194562120127
-0.4831852773437504	0.5003362885784146
-0.4831242421875004	0.4928986199955891
-0.4830632070312504	0.48507537534690187
-0.4830021718750004	0.47688350818545044
-0.4829411367187504	0.46836180055301174
-0.4828801015625004	0.4594956628205817
-0.4828190664062504	0.4502656888235577
-0.4827580312500004	0.4407071058661067
-0.4826969960937504	0.430843573566069
-0.4826359609375004	0.42064898236672704
-0.4825749257812504	0.4101249533952881
-0.4825138906250004	0.39931439383977957
-0.4824528554687504	0.3882202621202901
-0.4823918203125004	0.3768172720083804
-0.4823307851562504	0.3651288369713449
-0.4822697500000004	0.35319233165415753
-0.4822087148437504	0.3409936663785006
-0.4821476796875004	0.3285204421269096
-0.4820866445312504	0.31581019043641406
-0.4820256093750004	0.30288483119361265
-0.4819645742187504	0.28972320522273015
-0.4819035390625004	0.27633235522314104
-0.4818425039062504	0.2627526653740029
-0.4817814687500004	0.24898744324632202
-0.4817204335937504	0.2350195414127307
-0.4816593984375004	0.2208745164841172
-0.4815983632812504	0.2065850400971201
-0.4815373281250004	0.19214017381350226
-0.4814762929687504	0.17753525203514858
-0.4814152578125004	0.16280684703955428
-0.4813542226562504	0.14797389572469657
-0.4812931875000004	0.13302039478492067
-0.4812321523437504	0.11795733451717204
-0.4811711171875004	0.102821757764884
-0.4811100820312504	0.08761793185198266
-0.4810490468750004	0.07233485378959806
-0.4809880117187504	0.056996934138360704
-0.4809269765625004	0.04163313969086621
-0.4808659414062504	0.026237705686270978
-0.4808049062500004	0.010810566497448774
-0.4807438710937504	-0.004616846592681728
-0.4806828359375004	-0.020027786046275014
-0.4806218007812504	-0.03543158905933773
-0.4805607656250004	-0.050815556965476794
-0.4804997304687504	-0.0661478729359999
-0.4804386953125004	-0.0814238593333982
-0.4803776601562504	-0.09665015354620003
-0.4803166250000004	-0.11180394426169896
-0.4802555898437504	-0.12685923593698967
-0.4801945546875004	-0.1418193513036357
-0.4801335195312504	-0.15668315634389646
-0.4800724843750004	-0.17142300387360318
-0.4800114492187504	-0.18602279302819244
-0.4799504140625004	-0.20048849769960841
-0.4798893789062504	-0.21480932272189385
-0.4798283437500004	-0.2289582512696809
-0.4797673085937504	-0.24292876071599473
-0.4797062734375004	-0.2567248805362872
-0.4796452382812504	-0.2703287251329297
-0.4795842031250004	-0.28371786362355383
-0.4795231679687504	-0.29689246637398575
-0.4794621328125004	-0.3098521609514433
-0.4794010976562504	-0.3225746847172122
-0.4793400625000004	-0.3350436209748872
-0.4792790273437504	-0.34726354093995415
-0.4792179921875004	-0.359229245576764
-0.4791569570312504	-0.37091715713703
-0.4790959218750004	-0.3823172327024947
-0.4790348867187504	-0.39343525786288464
-0.4789738515625004	-0.4042613330178559
-0.4789128164062504	-0.4147735091009193
-0.4788517812500004	-0.4249680489640894
-0.4787907460937504	-0.4348501172648583
-0.4787297109375004	-0.4444052701421218
-0.4786686757812504	-0.4536145502305803
-0.4786076406250004	-0.46248083579399324
-0.4785466054687504	-0.4710075969604277
-0.4784855703125004	-0.47917564115980577
-0.4784245351562504	-0.4869708944361571
-0.4783635000000004	-0.49440287480215556
-0.4783024648437504	-0.5014706964416612
-0.4782414296875004	-0.5081514497499385
-0.4781803945312504	-0.5144392599923036
-0.4781193593750004	-0.5203481253520987
-0.4780583242187504	-0.5258697269689562
-0.4779972890625004	-0.5309811393634497
-0.4779362539062504	-0.5356874666116616
-0.4778752187500004	-0.5400024715166493
-0.4778141835937504	-0.5439086885234246
-0.4777531484375004	-0.5473886091000397
-0.4776921132812504	-0.5504585145076669
-0.4776310781250004	-0.5531263024439469
-0.4775700429687504	-0.5553672073185276
-0.4775090078125004	-0.5571750747946962
-0.4774479726562504	-0.5585736401194097
-0.4773869375000004	-0.5595593278014581
-0.4773259023437504	-0.5601057605454024
-0.4772648671875004	-0.5602225104033459
-0.4772038320312504	-0.5599333812782933
-0.4771427968750004	-0.5592212877786183
-0.4770817617187504	-0.5580668642183116
-0.4770207265625004	-0.5564946242045032
-0.4769596914062504	-0.5545194771126147
-0.4768986562500004	-0.552114499322782
-0.4768376210937504	-0.5492757609278894
-0.4767765859375004	-0.546036441435435
-0.4767155507812504	-0.5423955494618982
-0.4766545156250004	-0.5383248133640728
-0.4765934804687504	-0.5338403449834022
-0.4765324453125004	-0.5289736048820131
-0.4764714101562504	-0.5237061897250344
-0.4764103750000004	-0.5180198886864644
-0.4763493398437504	-0.5119487065636864
-0.4762883046875004	-0.5055112666417237
-0.4762272695312504	-0.49867761365152863
-0.4761662343750004	-0.4914487466965077
-0.4761051992187504	-0.4838669354002942
-0.4760441640625004	-0.4759314401984641
-0.4759831289062504	-0.4676131124453798
-0.4759220937500004	-0.45893547259023265
-0.4758610585937504	-0.4499354196219085
-0.4758000234375004	-0.440593019667468
-0.4757389882812504	-0.4308928959803234
-0.4756779531250004	-0.4208767037387334
-0.4756169179687504	-0.41056439249259763
-0.4755558828125004	-0.39992502991564516
-0.4754948476562504	-0.38896599038797947
-0.4754338125000004	-0.37773527151619035
-0.4753727773437504	-0.36623051070465373
-0.4753117421875004	-0.35442407805924275
-0.4752507070312504	-0.3423464979767026
-0.4751896718750004	-0.33003642915339
-0.4751286367187504	-0.31747305502792655
-0.4750676015625004	-0.30464627326474414
-0.4750065664062504	-0.29160227792695853
-0.4749455312500004	-0.2783592905848903
-0.4748844960937504	-0.26488801070133416
-0.4748234609375004	-0.2512027076574466
-0.4747624257812504	-0.2373526263012037
-0.4747013906250004	-0.2233324053589332
-0.4746403554687504	-0.20911860910819918
-0.4745793203125004	-0.1947486111327234
-0.4745182851562504	-0.18025934658238096
-0.4744572500000004	-0.1656274456286859
-0.4743962148437504	-0.15084881388886368
-0.4743351796875004	-0.1359739286602405
-0.4742741445312504	-0.12101797307652004
-0.4742131093750004	-0.10595234954895881
-0.4741520742187504	-0.09079628949750897
-0.4740910390625004	-0.07559840931738963
-0.4740300039062504	-0.060351792584761976
-0.4739689687500004	-0.04503775478996883
-0.4739079335937504	-0.029696144100895765
-0.4738468984375004	-0.014360042234031261
-0.4737858632812504	0.0009936051117848909
-0.4737248281250004	0.01636371549557536
-0.4736637929687504	0.03170072494137619
-0.4736027578125004	0.04699339488444084
-0.4735417226562504	0.06226663498316751
-0.4734806875000004	0.07749720270450373
-0.4734196523437504	0.092641259888811
-0.4733586171875004	0.10770787896189668
-0.4732975820312504	0.12271028528820654
-0.4732365468750004	0.1376095368475675
-0.4731755117187504	0.1523784170436063
-0.4731144765625004	0.1670368483809034
-0.4730534414062504	0.1815793035949526
-0.4729924062500004	0.19596206279521786
-0.4729313710937504	0.21017791601086333
-0.4728703359375004	0.22424657842788104
-0.4728093007812504	0.23814486562599055
-0.4727482656250004	0.2518359927560813
-0.4726872304687504	0.26532843025720904
-0.4726261953125004	0.2786310006051228
-0.4725651601562504	0.29170939893052034
-0.4725041250000004	0.30454216138948303
-0.4724430898437504	0.31714613117839424
-0.4723820546875004	0.32951457701244885
-0.4723210195312504	0.341610935311035
-0.4722599843750004	0.35343077577842263
-0.4721989492187504	0.36498952635134885
-0.4721379140625004	0.3762662813555545
-0.4720768789062504	0.38723190215823133
-0.4720158437500004	0.3978950217618222
-0.4719548085937504	0.40826223216284396
-0.4718937734375004	0.41830494260690376
-0.4718327382812504	0.42800672457798017
-0.4717717031250004	0.4373821076856022
-0.4717106679687504	0.4464257699527379
-0.4716496328125004	0.4551085839377459
-0.4715885976562504	0.46342779419591573
-0.4715275625000004	0.4713971839763926
-0.4714665273437504	0.4790013756949391
-0.4714054921875004	0.48621739918678203
-0.4713444570312504	0.49305275970806917
-0.4712834218750004	0.49951464671815304
-0.4712223867187504	0.5055818159913893
-0.4711613515625004	0.511241630705764
-0.4711003164062504	0.5165072789487629
-0.4710392812500004	0.5213777627263851
-0.4709782460937504	0.5258314028688006
-0.4709172109375004	0.5298658316414456
-0.4708561757812504	0.5334945264122861
-0.4707951406250004	0.5367092675526669
-0.4707341054687504	0.5394924954844716
-0.4706730703125004	0.5418507198261483
-0.4706120351562504	0.5437946242811729
-0.4705510000000004	0.5453109687577326
-0.4704899648437504	0.5463884612329126
-0.4704289296875004	0.5470396890906911
-0.4703678945312504	0.5472710264339706
-0.4703068593750004	0.5470672841701371
-0.4702458242187504	0.5464244648321445
-0.4701847890625004	0.5453585266438562
-0.4701237539062504	0.543871060042576
-0.4700627187500004	0.5419471471598236
-0.4700016835937504	0.5395903460789635
-0.4699406484375004	0.536817961852382
-0.4698796132812504	0.5336264714724382
-0.4698185781250004	0.5300033540184648
-0.4697575429687504	0.5259601480307355
-0.4696965078125004	0.5215132846572978
-0.4696354726562504	0.5166536756129674
-0.4695744375000004	0.5113735491352733
-0.4695134023437504	0.505692475670527
