Time	Frequency
-0.5000286093749935	-0.5410654962041038
-0.4999675742187435	-0.5346179554312372
-0.4999065390624935	-0.5277414455081623
-0.4998455039062435	-0.5204290131279323
-0.4997844687499935	-0.512701621956494
-0.4997234335937435	-0.5045562592101779
-0.4996623984374935	-0.4959983825181506
-0.4996013632812435	-0.48704581737185587
-0.4995403281249935	-0.47769125575228644
-0.4994792929687435	-0.46795405398837614
-0.4994182578124935	-0.4578399432944032
-0.4993572226562435	-0.4473487716419363
-0.4992961874999935	-0.43650395527559793
-0.4992351523437435	-0.42530108376593456
-0.4991741171874935	-0.4137545146601863
-0.4991130820312435	-0.4018796703367022
-0.4990520468749935	-0.38967271520735897
-0.4989910117187435	-0.37715840069681145
-0.4989299765624935	-0.36433909745184034
-0.4988689414062435	-0.3512223156613045
-0.4988079062499935	-0.3378312575949364
-0.4987468710937435	-0.3241618751596145
-0.4986858359374935	-0.31023572473420175
-0.4986248007812435	-0.2960646624641295
-0.4985637656249935	-0.28165038406427634
-0.4985027304687435	-0.26701953471660556
-0.4984416953124935	-0.25217176888600906
-0.4983806601562435	-0.2371225162918423
-0.4983196249999935	-0.2218922478398847
-0.4982585898437435	-0.2064793953950214
-0.4981975546874935	-0.1909103879051075
-0.4981365195312435	-0.17519233082105945
-0.4980754843749935	-0.15933327266762495
-0.4980144492187435	-0.14335916799004825
-0.4979534140624935	-0.12726877951716384
-0.4978923789062435	-0.11108420876546299
-0.4978313437499935	-0.09482104060299082
-0.4977703085937435	-0.07848154124932627
-0.4977092734374935	-0.06209395744583755
-0.4976482382812435	-0.04566120917667015
-0.4975872031249935	-0.029198024923718386
-0.4975261679687435	-0.012727158472193417
-0.4974651328124935	0.00375221922626455
-0.4974040976562435	0.02021413896242168
-0.4973430624999935	0.036648209277627075
-0.4972820273437435	0.05304694743249758
-0.4972209921874935	0.06938415499195821
-0.4971599570312435	0.08565972682876538
-0.4970989218749935	0.10185287025029448
-0.4970378867187435	0.1179467297169241
-0.4969768515624935	0.13393979914562756
-0.4969158164062435	0.14980436946375195
-0.4968547812499935	0.1655364207065222
-0.4967937460937435	0.18112388406683996
-0.4967327109374935	0.19654366864157674
-0.4966716757812435	0.21179630731285692
-0.4966106406249935	0.22685831032406503
-0.4965496054687435	0.24171983671212952
-0.4964885703124935	0.2563759684131119
-0.4964275351562435	0.27080105390467935
-0.4963664999999935	0.28499500667068406
-0.4963054648437435	0.29894083482192235
-0.4962444296874935	0.31262242083059555
-0.4961833945312435	0.32604049897309456
-0.4961223593749935	0.3391708687364612
-0.4960613242187435	0.3520099679533585
-0.4960002890624935	0.3645486336736196
-0.4959392539062435	0.37676598700174524
-0.4958782187499935	0.3886652657724769
-0.4958171835937435	0.4002273978647969
-0.4957561484374935	0.4114437439632022
-0.4956951132812435	0.4223124883276456
-0.4956340781249935	0.4328116394480545
-0.4955730429687435	0.44294377609712254
-0.4955120078124935	0.4526965632530706
-0.4954509726562435	0.46205637036660707
-0.4953899374999935	0.47102728887241474
-0.4953289023437435	0.47958973069502764
-0.4952678671874935	0.4877429701538389
-0.4952068320312435	0.49548254289370414
-0.4951457968749935	0.5027916302682123
-0.4950847617187435	0.5096769853649197
-0.4950237265624935	0.5161241481149663
-0.4949626914062435	0.5221281355533355
-0.4949016562499935	0.5276922039267847
-0.4948406210937435	0.5327989315446747
-0.4947795859374935	0.537454626145812
-0.4947185507812435	0.5416522882882739
-0.4946575156249935	0.5453826593687345
-0.4945964804687435	0.5486544576603557
-0.4945354453124935	0.5514529592415814
-0.4944744101562435	0.5537819302288743
-0.4944133749999935	0.5556424846649342
-0.4943523398437435	0.5570223524152745
-0.4942913046874935	0.5579333311181269
-0.4942302695312435	0.5583662624803656
-0.4941692343749935	0.5583204424738734
-0.4941081992187435	0.5578049495987628
-0.4940471640624935	0.5568072749157479
-0.4939861289062435	0.5553385885771165
-0.4939250937499935	0.5533977159472597
-0.4938640585937435	0.5509797031963154
-0.4938030234374935	0.5480991041974265
-0.4937419882812435	0.5447465370022436
-0.4936809531249935	0.5409299262940632
-0.4936199179687435	0.5366565717927078
-0.4935588828124935	0.5319191468276286
-0.4934978476562435	0.5267344585845983
-0.4934368124999935	0.5210987398906187
-0.4933757773437435	0.5150157724290657
-0.4933147421874935	0.5085006253383121
-0.4932537070312435	0.5015453940179799
-0.4931926718749935	0.49416603992297486
-0.4931316367187435	0.4863672339665586
-0.4930706015624935	0.4781479803423138
-0.4930095664062435	0.4695282900973012
-0.4929485312499935	0.46050378717055096
-0.4928874960937435	0.4510867479079869
-0.4928264609374935	0.44129002766922715
-0.4927654257812435	0.43110975556015474
-0.4927043906249935	0.4205678653708918
-0.4926433554687435	0.40966615371840276
-0.4925823203124935	0.39841157813826894
-0.4925212851562435	0.3868241417438523
-0.4924602499999935	0.3749000118787957
-0.4923992148437435	0.362659390718079
-0.4923381796874935	0.35011185471599987
-0.4922771445312435	0.3372593633089194
-0.4922161093749935	0.3241268125779427
-0.4921550742187435	0.3107131605282123
-0.4920940390624935	0.29703354294588635
-0.4920330039062435	0.2831063982659655
-0.4919719687499935	0.26893024284537287
-0.4919109335937435	0.25453034417267245
-0.4918498984374935	0.2399123662218321
-0.4917888632812435	0.22508552510278973
-0.4917278281249935	0.210074667487068
-0.4916667929687435	0.1948775149633681
-0.4916057578124935	0.17951628909688988
-0.4915447226562435	0.16400509695421805
-0.4914836874999935	0.14834684655537636
-0.4914226523437435	0.13256998056743716
-0.4913616171874935	0.11667614901261858
-0.4913005820312435	0.10068121907877199
-0.4912395468749935	0.08460724698309167
-0.4911785117187435	0.0684529433176583
-0.4911174765624935	0.05224558219711497
-0.4910564414062435	0.03599397462368391
-0.4909954062499935	0.01970639071497459
-0.4909343710937435	0.0034107388667838183
-0.4908733359374935	-0.012893882945633019
-0.4908123007812435	-0.02918570788701933
-0.4907512656249935	-0.04544796669960453
-0.4906902304687435	-0.06167889414301321
-0.4906291953124935	-0.07784902291856328
-0.4905681601562435	-0.09395517801863099
-0.4905071249999935	-0.10998353763285991
-0.4904460898437435	-0.12590985186351153
-0.4903850546874935	-0.14173560687792153
-0.4903240195312435	-0.15743481813571678
-0.4902629843749935	-0.17299756498824906
-0.4902019492187435	-0.18841813301286858
-0.4901409140624935	-0.2036681743749194
-0.4900798789062435	-0.21874872051315192
-0.4900188437499935	-0.23364095307590066
-0.4899578085937435	-0.24832716999780557
-0.4898967734374935	-0.26280781192566205
-0.4898357382812435	-0.27705513453136105
-0.4897747031249935	-0.2910660653088715
-0.4897136679687435	-0.30483065062123543
-0.4896526328124935	-0.31832516614309037
-0.4895915976562435	-0.3315532182677684
-0.4895305624999935	-0.34449217905435947
-0.4894695273437435	-0.35713212410162753
-0.4894084921874935	-0.36947150479922036
-0.4893474570312435	-0.3814842434635054
-0.4892864218749935	-0.3931730014501109
-0.4892253867187435	-0.40452396078392605
-0.4891643515624935	-0.41552043510998804
-0.4891033164062435	-0.42616658816484093
-0.4890422812499935	-0.4364388540124334
-0.4889812460937435	-0.4463352885239195
-0.4889202109374935	-0.45585118148250725
-0.4888591757812435	-0.46496573381319
-0.4887981406249935	-0.4736860062820436
-0.4887371054687435	-0.4819949772494226
-0.4886760703124935	-0.4898839016844577
-0.4886150351562435	-0.49735618826577965
-0.4885539999999935	-0.5043911385446549
-0.4884929648437435	-0.5109940213474714
-0.4884319296874935	-0.5171564856422615
-0.4883708945312435	-0.5228650566355993
-0.4883098593749935	-0.528128670711831
-0.4882488242187435	-0.5329296374771861
-0.4881877890624935	-0.537268781347582
-0.4881267539062435	-0.5411474769422112
-0.4880657187499935	-0.5445493374194845
-0.4880046835937435	-0.5474849898406154
-0.4879436484374935	-0.549944063224178
-0.4878826132812435	-0.5519218822948115
-0.4878215781249935	-0.5534274885644909
-0.4877605429687435	-0.5544452738897977
-0.4876995078124935	-0.554984021875961
-0.4876384726562435	-0.5550424340004525
-0.4875774374999935	-0.5546113664286023
-0.4875164023437435	-0.5537046317142429
-0.4874553671874935	-0.552311243872767
-0.4873943320312435	-0.5504356305536218
-0.4873332968749935	-0.5480853845131385
-0.4872722617187435	-0.5452494916894282
-0.4872112265624935	-0.5419427934006101
-0.4871501914062435	-0.5381618738266775
-0.4870891562499935	-0.5339062425345928
-0.4870281210937435	-0.5291902857571008
-0.4869670859374935	-0.524004728413786
-0.4869060507812435	-0.5183623452455758
-0.4868450156249935	-0.5122680331901429
-0.4867839804687435	-0.5057176363819185
-0.4867229453124935	-0.4987297044340057
-0.4866619101562435	-0.4912995769492283
-0.4866008749999935	-0.48343590343321974
-0.4865398398437435	-0.4751516997524685
-0.4864788046874935	-0.4664413019017629
-0.4864177695312435	-0.4573239162717872
-0.4863567343749935	-0.44780182721291134
-0.4862956992187435	-0.4378791696348015
-0.4862346640624935	-0.42757544270560727
-0.4861736289062435	-0.41688612398656577
-0.4861125937499935	-0.4058279850986541
-0.4860515585937435	-0.39441166555512575
-0.4859905234374935	-0.3826371838047501
-0.4859294882812435	-0.3705272035106964
-0.4858684531249935	-0.3580821548127174
-0.4858074179687435	-0.34531451379989675
-0.4857463828124935	-0.33224187072079137
-0.4856853476562435	-0.31886258764695596
-0.4856243124999935	-0.3051998791873711
-0.4855632773437435	-0.2912603998948944
-0.4855022421874935	-0.27705126325257656
-0.4854412070312435	-0.26259619988943494
-0.4853801718749935	-0.24789438486414178
-0.4853191367187435	-0.23296563981370713
-0.4852581015624935	-0.21782477975432943
-0.4851970664062435	-0.20247445953312773
-0.4851360312499935	-0.18694087545852497
-0.4850749960937435	-0.17122770683321925
-0.4850139609374935	-0.15534881769911063
-0.4849529257812435	-0.1393255237304786
-0.4848918906249935	-0.1231592395699709
-0.4848308554687435	-0.10687524697482133
-0.4847698203124935	-0.09048287377609578
-0.4847087851562435	-0.07399053783135373
-0.4846477499999935	-0.057424513347597586
-0.4845867148437435	-0.040786252493176224
-0.4845256796874935	-0.02409692349758711
-0.4844646445312435	-0.007373249931087617
-0.4844036093749935	0.009381491759129983
-0.4843425742187435	0.02613935436282857
-0.4842815390624935	0.04289523976843051
-0.4842205039062435	0.05963445461599298
-0.4841594687499935	0.07633378300770428
-0.4840984335937435	0.09299285313403435
-0.4840373984374935	0.10958601350994737
-0.4839763632812435	0.1261019490975996
-0.4839153281249935	0.142533033640458
-0.4838542929687435	0.15885244181396663
-0.4837932578124935	0.17505919363990008
-0.4837322226562435	0.19113311628517055
-0.4836711874999935	0.2070565156341134
-0.4836101523437435	0.22282715018152383
-0.4835491171874935	0.23841745732766423
-0.4834880820312435	0.25382370844446783
-0.4834270468749935	0.2690335825384257
-0.4833660117187435	0.28402321445525436
-0.4833049765624935	0.298793804550571
-0.4832439414062435	0.3133214167695433
-0.4831829062499935	0.3275963065118693
-0.4831218710937435	0.3416140536043929
-0.4830608359374935	0.35534771145940847
-0.4829998007812435	0.36879892412302095
-0.4829387656249935	0.3819508369441253
-0.4828777304687435	0.3947863813362148
-0.4828166953124935	0.40730811067810513
-0.4827556601562435	0.41949055037698557
-0.4826946249999935	0.43133118310901747
-0.4826335898437435	0.44282207136820523
-0.4825725546874935	0.45394095339706814
-0.4825115195312435	0.46469387779372634
-0.4824504843749935	0.4750608286061598
-0.4823894492187435	0.48503296086673
-0.4823284140624935	0.49461163057558793
-0.4822673789062435	0.5037729454221501
-0.4822063437499935	0.5125217137390149
-0.4821453085937435	0.5208465801196661
-0.4820842734374935	0.5287324528504296
-0.4820232382812435	0.5361874753198409
-0.4819622031249935	0.5431905993553153
-0.4819011679687435	0.5497419446939269
-0.4818401328124935	0.5558404064102157
-0.4817790976562435	0.561466801898094
-0.4817180624999935	0.5666316304342157
-0.4816570273437435	0.5713209781578967
-0.4815959921874935	0.5755287512342694
-0.4815349570312435	0.5792629172229593
-0.4814739218749935	0.5825040455863999
-0.4814128867187435	0.5852607862443137
-0.4813518515624935	0.5875291826807056
-0.4812908164062435	0.5892973305068656
-0.4812297812499935	0.590579050771594
-0.4811687460937435	0.591359390258411
-0.4811077109374935	0.5916417784438689
-0.4810466757812435	0.5914326751228114
-0.4809856406249935	0.5907172609618753
-0.4809246054687435	0.5895106503880326
-0.4808635703124935	0.5878062607905102
-0.4808025351562435	0.5856012644889068
-0.4807414999999935	0.5829103878758367
-0.4806804648437435	0.5797200572223201
-0.4806194296874935	0.5760425952113898
-0.4805583945312435	0.5718818150672694
-0.4804973593749935	0.5672298605449269
-0.4804363242187435	0.5621058388454192
-0.4803752890624935	0.5565017353481003
-0.4803142539062435	0.5504243247383356
-0.4802532187499935	0.5438872963191363
-0.4801921835937435	0.5368810045334189
-0.4801311484374935	0.5294245867175866
-0.4800701132812435	0.5215188867723329
-0.4800090781249935	0.513164441355768
-0.4799480429687435	0.5043818893099089
-0.4798870078124935	0.4951642908683513
-0.4798259726562435	0.4855269882770937
-0.4797649374999935	0.4754802865282563
-0.4797039023437435	0.46502063294199114
-0.4796428671874935	0.4541718353139552
-0.4795818320312435	0.4429328645312739
-0.4795207968749935	0.43131321450083987
-0.4794597617187435	0.41933196457209254
-0.4793987265624935	0.40698470556293326
-0.4793376914062435	0.3942937637172281
-0.4792766562499935	0.3812662151788095
-0.4792156210937435	0.3679060934704173
-0.4791545859374935	0.3542382671217905
-0.4790935507812435	0.34026088073806177
-0.4790325156249935	0.32599197393839396
-0.4789714804687435	0.311447458070332
-0.4789104453124935	0.2966269998520418
-0.4788494101562435	0.28155710284321694
-0.4787883749999935	0.26624217679149226
-0.4787273398437435	0.25069412155589665
-0.4786663046874935	0.23493617935255445
-0.4786052695312435	0.21896729233523113
-0.4785442343749935	0.2028112454016626
-0.4784831992187435	0.18648023853242732
-0.4784221640624935	0.16998039257322375
-0.4783611289062435	0.15333870653669376
-0.4783000937499935	0.13655756277746178
-0.4782390585937435	0.11965577635451238
-0.4781780234374935	0.10265209403136838
-0.4781169882812435	0.08554907112185639
-0.4780559531249935	0.06837434262575662
-0.4779949179687435	0.05113497985220329
-0.4779338828124935	0.033843606929826124
-0.4778728476562435	0.016525129585008274
-0.4778118124999935	-0.0008188821434034203
-0.4777507773437435	-0.018164033249502505
-0.4776897421874935	-0.03549705750819348
-0.4776287070312435	-0.05281134048858177
-0.4775676718749935	-0.07007886936031003
-0.4775066367187435	-0.08729636478008139
-0.4774456015624935	-0.10444526298848213
-0.4773845664062435	-0.12150541667380849
-0.4773235312499935	-0.1384745373933916
-0.4772624960937435	-0.1553259097205703
-0.4772014609374935	-0.17205156227381624
-0.4771404257812435	-0.18863948034981462
-0.4770793906249935	-0.2050654788621066
-0.4770183554687435	-0.221328892231107
-0.4769573203124935	-0.23740643707380646
-0.4768962851562435	-0.2532848884626605
-0.4768352499999935	-0.2689591269322193
-0.4767742148437435	-0.28440256090577976
-0.4767131796874935	-0.29961334847807003
-0.4766521445312435	-0.3145752208783833
-0.4765911093749935	-0.32926916778133924
-0.4765300742187435	-0.3436950269624503
-0.4764690390624935	-0.3578280573027029
-0.4764080039062435	-0.3716621765006792
-0.4763469687499935	-0.3851890132262201
-0.4762859335937435	-0.39838613668289413
-0.4762248984374935	-0.4112550557491028
-0.4761638632812435	-0.4237762195563883
-0.4761028281249935	-0.43593913711852916
-0.4760417929687435	-0.4477420580036476
-0.4759807578124935	-0.45916115391030565
-0.4759197226562435	-0.4701978888727802
-0.4758586874999935	-0.48084009514342907
-0.4757976523437435	-0.49107178775594607
-0.4757366171874935	-0.5008972035986804
-0.4756755820312435	-0.510295290669825
-0.4756145468749935	-0.5192637093784402
-0.4755535117187435	-0.5277988889790751
-0.4754924765624935	-0.5358815197195519
-0.4754314414062435	-0.5435183764138511
-0.4753704062499935	-0.5506944712359092
-0.4753093710937435	-0.5574023315798998
-0.4752483359374935	-0.5636465640707875
-0.4751873007812435	-0.5694077806517249
-0.4751262656249935	-0.5746916269720451
-0.4750652304687435	-0.5794916841780811
-0.4750041953124935	-0.5837959108849151
-0.4749431601562435	-0.5876143480766771
-0.4748821249999935	-0.5909308981011825
-0.4748210898437435	-0.5937478691638631
-0.4747600546874935	-0.5960682065819759
-0.4746990195312435	-0.5978766490440348
-0.4746379843749935	-0.5991858604448165
-0.4745769492187435	-0.5999868015760429
-0.4745159140624935	-0.600276279123009
-0.4744548789062435	-0.6000657355361517
-0.4743938437499935	-0.599340194641951
-0.4743328085937435	-0.5981108955833642
-0.4742717734374935	-0.5963783421656113
-0.4742107382812435	-0.5941341608946068
-0.4741497031249935	-0.5913955139333631
-0.4740886679687435	-0.5881518906827559
-0.4740276328124935	-0.5844097747641652
-0.4739665976562435	-0.5801797517259701
-0.4739055624999935	-0.5754506145350556
-0.4738445273437435	-0.5702409816039427
-0.4737834921874935	-0.5645486164577518
-0.4737224570312435	-0.5583738565054569
-0.4736614218749935	-0.5517356247593509
-0.4736003867187435	-0.544623812613436
-0.4735393515624935	-0.5370540196446865
-0.4734783164062435	-0.5290343791018275
-0.4734172812499935	-0.5205599872820914
-0.4733562460937435	-0.5116543059270037
-0.4732952109374935	-0.5023129760848246
-0.4732341757812435	-0.49254552677931074
-0.4731731406249935	-0.48236986703482154
-0.4731121054687435	-0.47177886341616965
-0.4730510703124935	-0.460795674589326
-0.4729900351562435	-0.4494251539871154
-0.4729289999999935	-0.43767032400294154
-0.4728679648437435	-0.42555615681662556
-0.4728069296874935	-0.41307739525232157
-0.4727458945312435	-0.4002525348791557
-0.4726848593749935	-0.38709678445783874
-0.4726238242187435	-0.37360818934281487
-0.4725627890624935	-0.3598145047288156
-0.4725017539062435	-0.3457168361266336
-0.4724407187499935	-0.3313266124523587
-0.4723796835937435	-0.31666816806753273
-0.4723186484374935	-0.3017376963849598
-0.4722576132812435	-0.28656034211644427
-0.4721965781249935	-0.2711471535489412
-0.4721355429687435	-0.25550271694497967
-0.4720745078124935	-0.23965577273075608
-0.4720134726562435	-0.2236056068509768
-0.4719524374999935	-0.20737209767704498
-0.4718914023437435	-0.19097556425182935
-0.4718303671874935	-0.17441525318248277
-0.4717693320312435	-0.15772038785751227
-0.4717082968749935	-0.1408974230152805
-0.4716472617187435	-0.12395843461715672
-0.4715862265624935	-0.10693062418443096
-0.4715251914062435	-0.08981270534040123
-0.4714641562499935	-0.0726302851938445
-0.4714031210937435	-0.05539818282672945
-0.4713420859374935	-0.03812072924846394
-0.4712810507812435	-0.02082817817486584
-0.4712200156249935	-0.0035232356402474696
-0.4711589804687435	0.013775601545353532
-0.4710979453124935	0.031045941187439866
-0.4710369101562435	0.04828734593890709
-0.4709758749999935	0.06547069021496982
-0.4709148398437435	0.082587530263651
-0.4708538046874935	0.09962804641537659
-0.4707927695312435	0.11656425367270266
-0.4707317343749935	0.1333956292809886
-0.4706706992187435	0.1500986688553074
-0.4706096640624935	0.16665775632002117
-0.4705486289062435	0.18306965671823092
-0.4704875937499935	0.19930521132935555
-0.4704265585937435	0.2153612133333302
-0.4703655234374935	0.2312219928753777
-0.4703044882812435	0.24686530579954433
-0.4702434531249935	0.26229200392834395
-0.4701824179687435	0.27747600887495627
-0.4701213828124935	0.29240857546592525
-0.4700603476562435	0.307082391111841
-0.4699993124999935	0.32147140631747834
-0.4699382773437435	0.33557701920203376
-0.4698772421874935	0.34938020379547063
-0.4698162070312435	0.36286579284773035
-0.4697551718749935	0.3760330493544522
-0.4696941367187435	0.38885667831662596
-0.4696331015624935	0.4013348281276947
-0.4695720664062435	0.41345655256360403
