Time	Frequency
-0.5000287930624978	-8.129783722410369e-24
-0.4999677579062478	-7.93147288875384e-24
-0.4999067227499978	-7.726028660097575e-24
-0.4998456875937478	-7.514403112728113e-24
-0.4997846524374978	-7.297586010252459e-24
-0.4997236172812478	-7.074444929007033e-24
-0.4996625821249978	-6.845126088448612e-24
-0.4996015469687478	-6.611106163988733e-24
-0.4995405118124978	-6.3717926478393016e-24
-0.4994794766562478	-6.126539897998314e-24
-0.4994184414999978	-5.876791207117316e-24
-0.4993574063437478	-5.622798331458721e-24
-0.4992963711874978	-5.363491755657267e-24
-0.4992353360312478	-5.0997813842305236e-24
-0.4991743008749978	-4.832673543870127e-24
-0.4991132657187478	-4.561167450212725e-24
-0.4990522305624978	-4.285410426059826e-24
-0.4989911954062478	-4.0068492152200246e-24
-0.4989301602499978	-3.7250035262674035e-24
-0.4988691250937478	-3.439289344903428e-24
-0.4988080899374978	-3.1511027561460403e-24
-0.4987470547812478	-2.860737132924195e-24
-0.4986860196249978	-2.567206929586523e-24
-0.4986249844687478	-2.2714049284616675e-24
-0.4985639493124978	-1.974342810233303e-24
-0.4985029141562478	-1.6751040969737456e-24
-0.4984418789999978	-1.3738347563787616e-24
-0.4983808438437478	-1.0719596625100457e-24
-0.4983198086874978	-7.690857199481557e-25
-0.4982587735312478	-4.646387920362443e-25
-0.4981977383749978	-1.599469616714062e-25
-0.4981367032187478	1.4462261294245133e-25
-0.4980756680624978	4.4999281884197495e-25
-0.4980146329062478	7.553424068126426e-25
-0.4979535977499978	1.0596403468911628e-24
-0.4978925625937478	1.3637380914570607e-24
-0.4978315274374978	1.6675448004786435e-24
-0.4977704922812478	1.9696371433373248e-24
-0.4977094571249978	2.2703372739955557e-24
-0.4976484219687478	2.570268223021537e-24
-0.4975873868124978	2.8681413864006283e-24
-0.4975263516562478	3.163515159102492e-24
-0.4974653164999978	3.457345944947067e-24
-0.4974042813437478	3.748901038975208e-24
-0.4973432461874978	4.0370660968243005e-24
-0.4972822110312478	4.322648008371202e-24
-0.4972211758749978	4.605682046137926e-24
-0.4971601407187478	4.884767200043725e-24
-0.4970991055624978	5.1601685663930644e-24
-0.4970380704062478	5.4325786035552674e-24
-0.4969770352499978	5.700737907539545e-24
-0.4969160000937478	5.964139270787077e-24
-0.4968549649374978	6.223800823272151e-24
-0.4967939297812478	6.479088165899624e-24
-0.4967328946249978	6.72885574494258e-24
-0.4966718594687478	6.973921004833916e-24
-0.4966108243124978	7.21441488449217e-24
-0.4965497891562478	7.44892980360719e-24
-0.4964887539999978	7.677705101418629e-24
-0.4964277188437478	7.901532932750012e-24
-0.4963666836874978	8.119213153258157e-24
-0.4963056485312478	8.33022031931188e-24
-0.4962446133749978	8.535648014284137e-24
-0.4961835782187478	8.734925361758609e-24
-0.4961225430624978	8.92686566447265e-24
-0.4960615079062478	9.11235698905766e-24
-0.4960004727499978	9.291664177876654e-24
-0.4959394375937478	9.463347827815951e-24
-0.4958784024374978	9.627646248296014e-24
-0.4958173672812478	9.785505925353902e-24
-0.4957563321249978	9.935762619926927e-24
-0.4956952969687478	1.0077848514119604e-23
-0.4956342618124978	1.0212978794852007e-23
-0.4955732266562478	1.034068555510563e-23
-0.4955121914999978	1.0459741681952727e-23
-0.4954511563437478	1.0571100952587608e-23
-0.4953901211874978	1.0675166342907007e-23
-0.4953290860312478	1.0770488561231605e-23
-0.4952680508749978	1.0857328334935679e-23
-0.4952070157187478	1.093679143592683e-23
-0.4951459805624978	1.1007750600667193e-23
-0.4950849454062478	1.1069608948745245e-23
-0.4950239102499978	1.1123716373623448e-23
-0.4949628750937478	1.1169702121572994e-23
-0.4949018399374978	1.1206306283567825e-23
-0.4948408047812478	1.123458190636404e-23
-0.4947797696249978	1.1255071917328967e-23
-0.4947187344687478	1.1266306756639074e-23
-0.4946576993124978	1.1268589706662589e-23
-0.4945966641562478	1.126318043449796e-23
-0.4945356289999978	1.1248975575063151e-23
-0.4944745938437478	1.1225387950343183e-23
-0.4944135586874978	1.1193915121118714e-23
-0.4943525235312478	1.1154255268685765e-23
-0.4942914883749978	1.110513225185223e-23
-0.4942304532187478	1.104771426521855e-23
-0.4941694180624978	1.0982655840225415e-23
-0.4941083829062478	1.0908472305452231e-23
-0.4940473477499978	1.0825542810225572e-23
-0.4939863125937478	1.0735270561802027e-23
-0.4939252774374978	1.0636557353384761e-23
-0.4938642422812478	1.0528840975690672e-23
-0.4938032071249978	1.0413768096367917e-23
-0.4937421719687478	1.0291091474350148e-23
-0.4936811368124978	1.0159525786783139e-23
-0.4936201016562478	1.0020350500254087e-23
-0.4935590664999978	9.874322969309649e-24
-0.4934980313437478	9.719960212906772e-24
-0.4934369961874978	9.55769999264595e-24
-0.4933759610312478	9.389063150791326e-24
-0.4933149258749978	9.212990832110883e-24
-0.4932538907187478	9.028940632628813e-24
-0.4931928555624978	8.838653542461048e-24
-0.4931318204062478	8.641959114474351e-24
-0.4930707852499978	8.437592864300953e-24
-0.4930097500937478	8.226891391067267e-24
-0.4929487149374978	8.010693771190685e-24
-0.4928876797812478	7.787566759965308e-24
-0.4928266446249978	7.557989481486826e-24
-0.4927656094687478	7.323534579938961e-24
-0.4927045743124978	7.083202441139556e-24
-0.4926435391562478	6.836502092530492e-24
-0.4925825039999978	6.585209740776315e-24
-0.4925214688437478	6.3292097967347484e-24
-0.4924604336874978	6.0673046075848765e-24
-0.4923993985312478	5.800860074952556e-24
-0.4923383633749978	5.5307444620918145e-24
-0.4922773282187478	5.255585535183337e-24
-0.4922162930624978	4.9758968301585725e-24
-0.4921552579062478	4.693274110725242e-24
-0.4920942227499978	4.406785495081936e-24
-0.4920331875937478	4.11598511419228e-24
-0.4919721524374978	3.822644072839618e-24
-0.4919111172812478	3.526693802450263e-24
-0.4918500821249978	3.226997771107706e-24
-0.4917890469687478	2.924904847505432e-24
-0.4917280118124978	2.6213109279636825e-24
-0.4916669766562478	2.314932673043777e-24
-0.4916059414999978	2.0062731238006094e-24
-0.4915449063437478	1.696910075049214e-24
-0.4914838711874978	1.3860041301450882e-24
-0.4914228360312478	1.0731282331348686e-24
-0.4913618008749978	7.599802733022776e-25
-0.4913007657187478	4.465465588771122e-25
-0.4912397305624978	1.3178166772318872e-25
-0.4911786954062478	-1.830159133069605e-25
-0.4911176602499978	-4.969717123975925e-25
-0.4910566250937478	-8.112779199415945e-25
-0.4909955899374978	-1.1254406883528094e-24
-0.4909345547812478	-1.4379636736308588e-24
-0.4908735196249978	-1.7496351920630646e-24
-0.4908124844687478	-2.0608331578306378e-24
-0.4907514493124978	-2.3699126690661937e-24
-0.4906904141562478	-2.6768622554657845e-24
-0.4906293789999978	-2.982703114932372e-24
-0.4905683438437478	-3.2862314183306948e-24
-0.4905073086874978	-3.586559586775556e-24
-0.4904462735312478	-3.884793083682986e-24
-0.4903852383749978	-4.1805268648131976e-24
-0.4903242032187478	-4.472331360580426e-24
-0.4902631680624978	-4.760899041079369e-24
-0.4902021329062478	-5.046632479031184e-24
-0.4901410977499978	-5.328014548739857e-24
-0.4900800625937478	-5.604998122582819e-24
-0.4900190274374978	-5.8785450836637755e-24
-0.4899579922812478	-6.14755422226858e-24
-0.4898969571249978	-6.411201673742889e-24
-0.4898359219687478	-6.670551159312541e-24
-0.4897748868124978	-6.925245499909286e-24
-0.4897138516562478	-7.173919909552196e-24
-0.4896528164999978	-7.417233937227668e-24
-0.4895917813437478	-7.65563621512237e-24
-0.4895307461874978	-7.887716282748389e-24
-0.4894697110312478	-8.11341455160696e-24
-0.4894086758749978	-8.333706828287246e-24
-0.4893476407187478	-8.547600939906065e-24
-0.4892866055624978	-8.754274325173402e-24
-0.4892255704062478	-8.954776529522872e-24
-0.4891645352499978	-9.148877485649685e-24
-0.4891035000937478	-9.335275617828666e-24
-0.4890424649374978	-9.514600269419947e-24
-0.4889814297812478	-9.687386672313591e-24
-0.4889203946249978	-9.852312098109438e-24
-0.4888593594687478	-1.0009292639726572e-23
-0.4887983243124978	-1.0159375588599886e-23
-0.4887372891562478	-1.0301694844158566e-23
-0.4886762539999978	-1.0435413027074115e-23
-0.4886152188437478	-1.0561610560963275e-23
-0.4885541836874978	-1.0680208536819497e-23
-0.4884931485312478	-1.0789925947603862e-23
-0.4884321133749978	-1.0891375480692639e-23
-0.4883710782187478	-1.0985234566860554e-23
-0.4883100430624978	-1.107026404355385e-23
-0.4882490079062478	-1.1146350867855463e-23
-0.4881879727499978	-1.1214640758497453e-23
-0.4881269375937478	-1.1274395783962514e-23
-0.4880659024374978	-1.1324772427787598e-23
-0.4880048672812478	-1.136689989546681e-23
-0.4879438321249978	-1.1400831758253622e-23
-0.4878827969687478	-1.1425314322849044e-23
-0.4878217618124978	-1.1440990210685135e-23
-0.4877607266562478	-1.1448676762577774e-23
-0.4876996914999978	-1.1447192084744315e-23
-0.4876386563437478	-1.1436417621449795e-23
-0.4875776211874978	-1.1417621261231914e-23
-0.4875165860312478	-1.1390166646147849e-23
-0.4874555508749978	-1.1353196854289565e-23
-0.4873945157187478	-1.1307934169039282e-23
-0.4873334805624978	-1.1254572543046855e-23
-0.4872724454062478	-1.1191849331321e-23
-0.4872114102499978	-1.1120447026621458e-23
-0.4871503750937478	-1.1041347378199624e-23
-0.4870893399374978	-1.0953401179091518e-23
-0.4870283047812478	-1.0856481394527396e-23
-0.4869672696249978	-1.0752011333502509e-23
-0.4869062344687478	-1.0639444881698023e-23
-0.4868451993124978	-1.0517884145581943e-23
-0.4867841641562478	-1.0388657185248431e-23
-0.4867231289999978	-1.0252106099540636e-23
-0.4866620938437478	-1.010694289455252e-23
-0.4866010586874978	-9.953889418330701e-24
-0.4865400235312478	-9.794099396175158e-24
-0.4864789883749978	-9.62644520802818e-24
-0.4864179532187478	-9.45077871282358e-24
-0.4863569180624978	-9.268676397565347e-24
-0.4862958829062478	-9.079675649234818e-24
-0.4862348477499978	-8.88283477305747e-24
-0.4861738125937478	-8.679589687879286e-24
-0.4861127774374978	-8.470409469026803e-24
-0.4860517422812478	-8.253966116750161e-24
-0.4859907071249978	-8.031034055474026e-24
-0.4859296719687478	-7.802920493999273e-24
-0.4858686368124978	-7.568493279144735e-24
-0.4858076016562478	-7.327601803731458e-24
-0.4857465664999978	-7.081961951768761e-24
-0.4856855313437478	-6.831150554292098e-24
-0.4856244961874978	-6.574194104563804e-24
-0.4855634610312478	-6.31264072114298e-24
-0.4855024258749978	-6.04704956304474e-24
-0.4854413907187478	-5.776051106370116e-24
-0.4853803555624978	-5.500475173755519e-24
-0.4853193204062478	-5.221743039407082e-24
-0.4852582852499978	-4.938689996449466e-24
-0.4851972500937478	-4.651173144747551e-24
-0.4851362149374978	-4.361046535556743e-24
-0.4850751797812478	-4.067898263099178e-24
-0.4850141446249978	-3.770713076349148e-24
-0.4849531094687478	-3.4711418106899536e-24
-0.4848920743124978	-3.1697924427431988e-24
-0.4848310391562478	-2.8652324976213738e-24
-0.4847700039999978	-2.5583460847793423e-24
-0.4847089688437478	-2.2506577795731826e-24
-0.4846479336874978	-1.9409805705902197e-24
-0.4845868985312478	-1.629151445357956e-24
-0.4845258633749978	-1.3170957299894252e-24
-0.4844648282187478	-1.0044241062003163e-24
-0.4844037930624978	-6.900772483957784e-25
-0.4843427579062478	-3.7573530531163736e-25
-0.4842817227499978	-6.207716346057069e-26
-0.4842206875937478	2.5233262448213213e-25
-0.4841596524374978	5.666383039923151e-25
-0.4840986172812478	8.793104997754584e-25
-0.4840375821249978	1.1915233032763661e-24
-0.4839765469687478	1.50342764292829e-24
-0.4839155118124978	1.813093449857894e-24
-0.4838544766562478	2.1209111821214156e-24
-0.4837934414999978	2.427940172681176e-24
-0.4837324063437478	2.732521829279273e-24
-0.4836713711874978	3.0339950461196717e-24
-0.4836103360312478	3.333781735488242e-24
-0.4835493008749978	3.631041033248944e-24
-0.4834882657187478	3.924267862935285e-24
-0.4834272305624978	4.2146099165463025e-24
-0.4833661954062478	4.502243375302929e-24
-0.4833051602499978	4.7853264191676144e-24
-0.4832441250937478	5.064241702126148e-24
-0.4831830899374978	5.340009881475846e-24
-0.4831220547812478	5.61103863673818e-24
-0.4830610196249978	5.876709752588434e-24
-0.4829999844687478	6.138424510632195e-24
-0.4829389493124978	6.395400010941809e-24
-0.4828779141562478	6.646197959114034e-24
-0.4828168789999978	6.891948683614476e-24
-0.4827558438437478	7.132862187621705e-24
-0.4826948086874978	7.367179017690517e-24
-0.4826337735312478	7.595272877375418e-24
-0.4825727383749978	7.81817711800134e-24
-0.4825117032187478	8.034424821294797e-24
-0.4824506680624978	8.243434603359856e-24
-0.4823896329062478	8.446560339469716e-24
-0.4823285977499978	8.643110255836662e-24
-0.4822675625937478	8.831755682238669e-24
-0.4822065274374978	9.013598909447199e-24
-0.4821454922812478	9.188888855850514e-24
-0.4820844571249978	9.355996818802315e-24
-0.4820234219687478	9.515306225809152e-24
-0.4819623868124978	9.66785762932201e-24
-0.4819013516562478	9.812314017277709e-24
-0.4818403164999978	9.948138242019348e-24
-0.4817792813437478	1.0076671102637027e-23
-0.4817182461874978	1.0197348799246197e-23
-0.4816572110312478	1.0308933296250583e-23
-0.4815961758749978	1.0412484628617618e-23
-0.4815351407187478	1.050833852903238e-23
-0.4814741055624978	1.059502643688501e-23
-0.4814130704062478	1.0672917512677942e-23
-0.4813520352499978	1.0743058005202101e-23
-0.4812910000937478	1.080428005549531e-23
-0.4812299649374978	1.0856111683752139e-23
-0.4811689297812478	1.0899863518795753e-23
-0.4811078946249978	1.0935093978437686e-23
-0.4810468594687478	1.09606845902738e-23
-0.4809858243124978	1.097767804819123e-23
-0.4809247891562478	1.098649022516832e-23
-0.4808637539999978	1.0985794600653488e-23
-0.4808027188437478	1.0975961117209445e-23
-0.4807416836874978	1.0958079032779827e-23
-0.4806806485312478	1.0931137296159297e-23
-0.4806196133749978	1.0894699755807876e-23
-0.4805585782187478	1.0850087073188049e-23
-0.4804975430624978	1.0797003638249436e-23
-0.4804365079062478	1.0734400915474193e-23
-0.4803754727499978	1.0663311801323941e-23
-0.4803144375937478	1.0584279041597092e-23
-0.4802534024374978	1.0496087923728716e-23
-0.4801923672812478	1.0399095972887481e-23
-0.4801313321249978	1.0294476902735695e-23
-0.4800702969687478	1.0181350721946895e-23
-0.4800092618124978	1.0059284197988591e-23
-0.4799482266562478	9.929654912617255e-24
-0.4798871914999978	9.792317571827569e-24
-0.4798261563437478	9.646243188550082e-24
-0.4797651211874978	9.492473031411442e-24
-0.4797040860312478	9.331701599025951e-24
-0.4796430508749978	9.16278128948661e-24
-0.4795820157187478	8.986043835467557e-24
-0.4795209805624978	8.802781728636687e-24
-0.4794599454062478	8.61223793459711e-24
-0.4793989102499978	8.413955877724057e-24
-0.4793378750937478	8.209362564599906e-24
-0.4792768399374978	7.998446488042479e-24
-0.4792158047812478	7.780201400005483e-24
-0.4791547696249978	7.555694324629521e-24
-0.4790937344687478	7.325737579876915e-24
-0.4790326993124978	7.089219615065982e-24
-0.4789716641562478	6.846472525029087e-24
-0.4789106289999978	6.598903027880918e-24
-0.4788495938437478	6.3458198261504365e-24
-0.4787885586874978	6.086736392690409e-24
-0.4787275235312478	5.823170637462121e-24
-0.4786664883749978	5.555222517832003e-24
-0.4786054532187478	5.281844857660562e-24
-0.4785444180624978	5.004133692892649e-24
-0.4784833829062478	4.723040828111034e-24
-0.4784223477499978	4.437451093158232e-24
-0.4783613125937478	4.147670928685838e-24
-0.4783002774374978	3.855232443381595e-24
-0.4782392422812478	3.559485399395188e-24
-0.4781782071249978	3.259886187479842e-24
-0.4781171719687478	2.9580499323990375e-24
-0.4780561368124978	2.654165322827238e-24
-0.4779951016562478	2.3470990824375746e-24
-0.4779340664999978	2.0379793437329792e-24
-0.4778730313437478	1.7279083950611312e-24
-0.4778119961874978	1.4157208447330848e-24
-0.4777509610312478	1.101661753352867e-24
-0.4776899258749978	7.874065268418958e-25
-0.4776288907187478	4.723322262069518e-25
-0.4775678555624978	1.5578763401505298e-25
-0.4775068204062478	-1.605308003858795e-25
-0.4774457852499978	-4.763515123158704e-25
-0.4773847500937478	-7.929109190685137e-25
-0.4773237149374978	-1.1090578925057973e-24
-0.4772626797812478	-1.4235703588168575e-24
-0.4772016446249978	-1.7376969554552264e-24
-0.4771406094687478	-2.0512558589950657e-24
-0.4770795743124978	-2.3624563558967612e-24
-0.4770185391562478	-2.6719265818219814e-24
-0.4769575039999978	-2.980410914997063e-24
-0.4768964688437478	-3.2861592885635543e-24
-0.4768354336874978	-3.588871317461004e-24
-0.4767743985312478	-3.8898630242302205e-24
-0.4767133633749978	-4.187974930068047e-24
-0.4766523282187478	-4.481963730612921e-24
-0.4765912930624978	-4.773157042732401e-24
-0.4765302579062478	-5.061362363178543e-24
-0.4764692227499978	-5.34471772266688e-24
-0.4764081875937478	-5.6239582192392415e-24
-0.4763471524374978	-5.8999345608021386e-24
-0.4762861172812478	-6.170807852014766e-24
-0.4762250821249978	-6.436268817124857e-24
-0.4761640469687478	-6.697768182199723e-24
-0.4761030118124978	-6.954148770489855e-24
-0.4760419766562478	-7.204116556752647e-24
-0.4759809414999978	-7.449098536633534e-24
-0.4759199063437478	-7.688992768694759e-24
-0.4758588711874978	-7.921917264614663e-24
-0.4757978360312478	-8.148628876518539e-24
-0.4757368008749978	-8.370042606283012e-24
-0.4756757657187478	-8.584334206915316e-24
-0.4756147305624978	-8.791240616979467e-24
-0.4755536954062478	-8.992315736593765e-24
-0.4754926602499978	-9.186440000638523e-24
-0.4754316250937478	-9.372317082090274e-24
-0.4753705899374978	-9.551434393865182e-24
-0.4753095547812478	-9.723760231774661e-24
-0.4752485196249978	-9.887450149288109e-24
-0.4751874844687478	-1.00433175225388e-23
-0.4751264493124978	-1.0192354645356714e-23
-0.4750654141562478	-1.0332800060988028e-23
-0.4750043789999978	-1.0464425383301018e-23
-0.4749433438437478	-1.0588818535755364e-23
-0.4748823086874978	-1.0704941194821137e-23
-0.4748212735312478	-1.0811584293950205e-23
-0.4747602383749978	-1.0910274536015538e-23
-0.4746992032187478	-1.1001041916394236e-23
-0.4746381680624978	-1.108213536862954e-23
-0.4745771329062478	-1.1154401768299678e-23
-0.4745160977499978	-1.1218875146526952e-23
-0.4744550625937478	-1.127391297755507e-23
-0.4743940274374978	-1.1319351682706516e-23
-0.4743329922812478	-1.1356797284146542e-23
-0.4742719571249978	-1.138532073596858e-23
-0.4742109219687478	-1.1403808771112863e-23
-0.4741498868124978	-1.1413792977647641e-23
-0.4740888516562478	-1.1415385321553025e-23
-0.4740278164999978	-1.1406963796615878e-23
-0.4739667813437478	-1.13893935344655e-23
-0.4739057461874978	-1.1363755237635897e-23
-0.4738447110312478	-1.132855681814989e-23
-0.4737836758749978	-1.1283684616455965e-23
-0.4737226407187478	-1.1230741457720554e-23
-0.4736616055624978	-1.1168935762942961e-23
-0.4736005704062478	-1.1097263442322218e-23
-0.4735395352499978	-1.1017233740628184e-23
-0.4734785000937478	-1.0929048960769372e-23
-0.4734174649374978	-1.0831252956472216e-23
-0.4733564297812478	-1.0724712782483047e-23
-0.4732953946249978	-1.0610521091624511e-23
-0.4732343594687478	-1.0487349971269221e-23
-0.4731733243124978	-1.035515245964232e-23
-0.4731122891562478	-1.0215520286706564e-23
-0.4730512539999978	-1.0067794831103524e-23
-0.4729902188437478	-9.91107476436099e-24
-0.4729291836874978	-9.746846220753442e-24
-0.4728681485312478	-9.575408712550169e-24
-0.4728071133749978	-9.395448602635448e-24
-0.4727460782187478	-9.207812773277482e-24
-0.4726850430624978	-9.01362914257082e-24
-0.4726240079062478	-8.811744759532614e-24
-0.4725629727499978	-8.602147420984187e-24
-0.4725019375937478	-8.386397485092583e-24
-0.4724409024374978	-8.163979709307433e-24
-0.4723798672812478	-7.934093070519286e-24
-0.4723188321249978	-7.698169260690749e-24
-0.4722577969687478	-7.456592774164775e-24
-0.4721967618124978	-7.208205921551644e-24
-0.4721357266562478	-6.953834019929638e-24
-0.4720746914999978	-6.694624004572399e-24
-0.4720136563437478	-6.429560897846625e-24
-0.4719526211874978	-6.1586356594897186e-24
-0.4718915860312478	-5.883402076135388e-24
-0.4718305508749978	-5.603488859122152e-24
-0.4717695157187478	-5.318147037080325e-24
-0.4717084805624978	-5.028774663155505e-24
-0.4716474454062478	-4.735852126576654e-24
