Time	Frequency
-0.5000230148124984	1.8138678756482356e-23
-0.49996197965624845	1.823903519008877e-23
-0.49990094449999845	1.833110982376735e-23
-0.49983990934374845	1.8414331582820606e-23
-0.49977887418749845	1.8488908225445007e-23
-0.49971783903124845	1.855490529300274e-23
-0.49965680387499845	1.8611871900715843e-23
-0.49959576871874845	1.8660362291355258e-23
-0.49953473356249845	1.8699798947748115e-23
-0.49947369840624845	1.8730499738486876e-23
-0.49941266324999845	1.8752431696426398e-23
-0.49935162809374845	1.8765276621240605e-23
-0.49929059293749845	1.8769545301170822e-23
-0.49922955778124845	1.8764676421138872e-23
-0.49916852262499845	1.8751078569132162e-23
-0.49910748746874845	1.872862805160098e-23
-0.49904645231249845	1.8697144586929957e-23
-0.49898541715624845	1.865707879334565e-23
-0.49892438199999845	1.8607911281535396e-23
-0.49886334684374845	1.855011864996965e-23
-0.49880231168749845	1.8483496943635677e-23
-0.49874127653124845	1.8408007305963475e-23
-0.49868024137499845	1.8324026227798503e-23
-0.49861920621874845	1.8231095232818797e-23
-0.49855817106249845	1.8129737803756076e-23
-0.49849713590624845	1.8019688220557306e-23
-0.49843610074999845	1.79010427975026e-23
-0.49837506559374845	1.7774090099604376e-23
-0.49831403043749845	1.76384538327026e-23
-0.49825299528124845	1.7494683002176897e-23
-0.49819196012499845	1.734246816413261e-23
-0.49813092496874845	1.7182032694228088e-23
-0.49806988981249845	1.701356764407461e-23
-0.49800885465624845	1.6836798199943908e-23
-0.49794781949999845	1.66522811854381e-23
-0.49788678434374845	1.645967264198312e-23
-0.49782574918749845	1.6259306829006628e-23
-0.49776471403124845	1.605128847883101e-23
-0.49770367887499845	1.583545651149966e-23
-0.49764264371874845	1.561234354972134e-23
-0.49758160856249845	1.5381595803624078e-23
-0.49752057340624845	1.5143648525220163e-23
-0.49745953824999845	1.4898520467957086e-23
-0.49739850309374845	1.4646166658470403e-23
-0.49733746793749845	1.4387067613689136e-23
-0.49727643278124845	1.4120894272502426e-23
-0.49721539762499845	1.3848173507041447e-23
-0.49715436246874845	1.3568822711113356e-23
-0.49709332731249845	1.328291844205716e-23
-0.49703229215624845	1.2990892369731501e-23
-0.49697125699999845	1.2692451858336526e-23
-0.49691022184374845	1.2388173898588676e-23
-0.49684918668749845	1.2077892652137965e-23
-0.49678815153124845	1.1761826138250392e-23
-0.49672711637499845	1.1440333259437842e-23
-0.49666608121874845	1.1113161829395706e-23
-0.49660504606249845	1.0780928022940374e-23
-0.49654401090624845	1.0443407656366146e-23
-0.49648297574999845	1.0100936524181155e-23
-0.49642194059374845	9.753776847918126e-24
-0.49636090543749845	9.401759511946233e-24
-0.49629987028124845	9.045522172453211e-24
-0.49623883512499845	8.68478016101792e-24
-0.49617779996874845	8.319978602499097e-24
-0.49611676481249845	7.951282154484602e-24
-0.49605572965624845	7.578621245314332e-24
-0.49599469449999845	7.202617721384206e-24
-0.49593365934374845	6.822943205127043e-24
-0.49587262418749845	6.440159327174801e-24
-0.49581158903124845	6.054327682410631e-24
-0.49575055387499845	5.66547850663838e-24
-0.49568951871874845	5.27418958208218e-24
-0.49562848356249845	4.880119343084484e-24
-0.49556744840624845	4.483936345202077e-24
-0.49550641324999845	4.085575372967102e-24
-0.49544537809374845	3.6851719583873086e-24
-0.49538434293749845	3.2832669698359378e-24
-0.49532330778124845	2.879532388924222e-24
-0.49526227262499845	2.474697657969393e-24
-0.49520123746874845	2.068573609585517e-24
-0.49514020231249845	1.6614238963121544e-24
-0.49507916715624845	1.2537182962348425e-24
-0.49501813199999845	8.45146433900477e-25
-0.49495709684374845	4.364878494436519e-25
-0.49489606168749845	2.7471012674666104e-26
-0.49483502653124845	-3.8151282313419006e-25
-0.49477399137499845	-7.901210389815294e-25
-0.49471295621874845	-1.198617669049526e-24
-0.49465192106249845	-1.6061871640845243e-24
-0.49459088590624845	-2.01319833108421e-24
-0.49452985074999845	-2.41912499677112e-24
-0.49446881559374845	-2.8237316466125453e-24
-0.49440778043749845	-3.227221736904077e-24
-0.49434674528124845	-3.628787404148244e-24
-0.49428571012499845	-4.028878192843168e-24
-0.49422467496874845	-4.426856107388913e-24
-0.49416363981249845	-4.822612868891946e-24
-0.49410260465624845	-5.216248510055018e-24
-0.49404156949999845	-5.606976122178859e-24
-0.49398053434374845	-5.995316037401596e-24
-0.49391949918749845	-6.380535370389032e-24
-0.49385846403124845	-6.762656554350104e-24
-0.49379742887499845	-7.141680634129159e-24
-0.49373639371874845	-7.516875812819334e-24
-0.49367535856249845	-7.888779778052699e-24
-0.49361432340624845	-8.256582201227691e-24
-0.49355328824999845	-8.62045357075807e-24
-0.49349225309374845	-8.980273692813272e-24
-0.49343121793749845	-9.335394392370487e-24
-0.49337018278124845	-9.68636662322395e-24
-0.49330914762499845	-1.0032311910093849e-23
-0.49324811246874845	-1.0373522328767388e-23
-0.49318707731249845	-1.0709768860541276e-23
-0.49312604215624845	-1.1040521040178255e-23
-0.49306500699999845	-1.1366308085652109e-23
-0.49300397184374845	-1.1686203346299487e-23
-0.49294293668749845	-1.2000610519459961e-23
-0.49288190153124845	-1.2309203624488774e-23
-0.49282086637499845	-1.2611574597508793e-23
-0.49275983121874845	-1.2908199078784664e-23
-0.49269879606249845	-1.3198159443087842e-23
-0.49263776090624845	-1.3481951980787546e-23
-0.49257672574999845	-1.3759141566063172e-23
-0.49251569059374845	-1.4029456556304245e-23
-0.49245465543749845	-1.4293295824405092e-23
-0.49239362028124845	-1.4549785216816472e-23
-0.49233258512499845	-1.4799500009784977e-23
-0.49227154996874845	-1.504190241306286e-23
-0.49221051481249845	-1.5276865448503973e-23
-0.49214947965624845	-1.5504701469662445e-23
-0.49208844449999845	-1.5724595888132816e-23
-0.49202740934374845	-1.5937171815820904e-23
-0.49196637418749845	-1.614181826670558e-23
-0.49190533903124845	-1.63385505752665e-23
-0.49184430387499845	-1.6527583197158024e-23
-0.49178326871874845	-1.670819264734982e-23
-0.49172223356249845	-1.6881016858300628e-23
-0.49166119840624845	-1.7045395691136597e-23
-0.49160016324999845	-1.7201482145554526e-23
-0.49153912809374845	-1.7349380654424905e-23
-0.49147809293749845	-1.7488481300864776e-23
-0.49141705778124845	-1.7619414109888277e-23
-0.49135602262499845	-1.7741494889964457e-23
-0.49129498746874845	-1.7855001499356538e-23
-0.49123395231249845	-1.7959930101204655e-23
-0.49117291715624845	-1.8055800604259137e-23
-0.49111188199999845	-1.8143209344684928e-23
-0.49105084684374845	-1.822147451351853e-23
-0.49098981168749845	-1.8290979077935025e-23
-0.49092877653124845	-1.8351616806593464e-23
-0.49086774137499845	-1.8403053502891032e-23
-0.49080670621874845	-1.8445828959949222e-23
-0.49074567106249845	-1.8479287082002826e-23
-0.49068463590624845	-1.8503898903153488e-23
-0.49062360074999845	-1.8519465409513424e-23
-0.49056256559374845	-1.8525800310791688e-23
-0.49050153043749845	-1.8523371411728055e-23
-0.49044049528124845	-1.8511573469350854e-23
-0.49037946012499845	-1.8490942505716205e-23
-0.49031842496874845	-1.8461202616526198e-23
-0.49025738981249845	-1.8422312704987424e-23
-0.49019635465624845	-1.8374655806591108e-23
-0.49013531949999845	-1.831770245850266e-23
-0.49007428434374845	-1.8252027520631868e-23
-0.49001324918749845	-1.8177294963846666e-23
-0.48995221403124845	-1.8093604337521718e-23
-0.48989117887499845	-1.8001246829029475e-23
-0.48983014371874845	-1.7899787288745872e-23
-0.48976910856249845	-1.778981221381061e-23
-0.48970807340624845	-1.7670948462560064e-23
-0.48964703824999845	-1.754342688774485e-23
-0.48958600309374845	-1.740743769382527e-23
-0.48952496793749845	-1.7262659598726958e-23
-0.48946393278124845	-1.7109672438156756e-23
-0.48940289762499845	-1.6948080108652868e-23
-0.48934186246874845	-1.6778227134713385e-23
-0.48928082731249845	-1.6600209320705548e-23
-0.48921979215624845	-1.641383045985533e-23
-0.48915875699999845	-1.6219638042479243e-23
-0.48909772184374845	-1.6017238684717564e-23
-0.48903668668749845	-1.5807076022938913e-23
-0.48897565153124845	-1.5589151020656302e-23
-0.48891461637499845	-1.5363396386112765e-23
-0.48885358121874845	-1.513031042956382e-23
-0.48879254606249845	-1.4889524701101488e-23
-0.48873151090624845	-1.464156199377134e-23
-0.48867047574999845	-1.4386340300479443e-23
-0.48860944059374845	-1.412392221668612e-23
-0.48854840543749845	-1.3854734468344146e-23
-0.48848737028124845	-1.357845528347157e-23
-0.48842633512499845	-1.3295667329972043e-23
-0.48836529996874845	-1.300621543588041e-23
-0.48830426481249845	-1.2710289581370095e-23
-0.48824322965624845	-1.2408235129612961e-23
-0.48818219449999845	-1.209980029597826e-23
-0.48812115934374845	-1.1785597320403074e-23
-0.48806012418749845	-1.1465404842474897e-23
-0.48799908903124845	-1.1139538451015202e-23
-0.48793805387499845	-1.08082575323443e-23
-0.48787701871874845	-1.0471398563402625e-23
-0.48781598356249845	-1.0129571439187273e-23
-0.48775494840624845	-9.782507110323571e-24
-0.48769391324999845	-9.430651602829675e-24
-0.48763287809374845	-9.07415939401903e-24
-0.48757184293749845	-8.712952315639224e-24
-0.48751080778124845	-8.347633109128614e-24
-0.48744977262499845	-7.97791032942808e-24
-0.48738873746874845	-7.60432636132373e-24
-0.48732770231249845	-7.226937332893672e-24
-0.48726666715624845	-6.845776565091804e-24
-0.48720563199999845	-6.4614024718456486e-24
-0.48714459684374845	-6.073517031448063e-24
-0.48708356168749845	-5.682741984451782e-24
-0.48702252653124845	-5.289035285535332e-24
-0.48696149137499845	-4.892560636293904e-24
-0.48690045621874845	-4.4938023827554174e-24
-0.48683942106249845	-4.092475084116908e-24
-0.48677838590624845	-3.689272839019662e-24
-0.48671735074999845	-3.2840460912430726e-24
-0.48665631559374845	-2.877086706007352e-24
-0.48659528043749845	-2.4687980800395704e-24
-0.48653424528124845	-2.058927157511999e-24
-0.48647321012499845	-1.6482166722657902e-24
-0.48641217496874845	-1.2364184945860661e-24
-0.48635113981249845	-8.239443927409239e-25
-0.48629010465624845	-4.111044384554305e-25
-0.48622906949999845	2.296494668518364e-27
-0.48616803434374845	4.155034492362349e-25
-0.48610699918749845	8.288396968409781e-25
-0.48604596403124845	1.2417656267971324e-24
-0.48598492887499845	1.6541041630959472e-24
-0.48592389371874845	2.0659829141051097e-24
-0.48586285856249845	2.4766343425416557e-24
-0.48580182340624845	2.886434969626773e-24
-0.48574078824999845	3.2947542764085234e-24
-0.48567975309374845	3.7015503824062055e-24
-0.48561871793749845	4.106831280691941e-24
-0.48555768278124845	4.509872735224236e-24
-0.48549664762499845	4.9111230011722615e-24
-0.48543561246874845	5.309837447812691e-24
-0.48537457731249845	5.706085999726403e-24
-0.48531354215624845	6.0997773153558726e-24
-0.48525250699999845	6.4902689612308265e-24
-0.48519147184374845	6.878024186707508e-24
-0.48513043668749845	7.262206351902478e-24
-0.48506940153124845	7.643033995854521e-24
-0.48500836637499845	8.020295223576216e-24
-0.48494733121874845	8.393423152451433e-24
-0.48488629606249845	8.762894744673465e-24
-0.48482526090624845	9.127820280956978e-24
-0.48476422574999845	9.488524918390323e-24
-0.48470319059374845	9.844681056528126e-24
-0.48464215543749845	1.019584708198927e-23
-0.48458112028124845	1.0542458288851269e-23
-0.48452008512499845	1.0883600696082043e-23
-0.48445904996874845	1.1219728142575314e-23
-0.48439801481249845	1.1550377009815828e-23
-0.48433697965624845	1.187523044390996e-23
-0.48427594449999845	1.2194683142549624e-23
-0.48421490934374845	1.2507817482331056e-23
-0.48415387418749845	1.2815179798710516e-23
-0.48409283903124845	1.3116204467185142e-23
-0.48403180387499845	1.341071829940818e-23
-0.48397076871874845	1.3699036461780786e-23
-0.48390973356249845	1.398026969294748e-23
-0.48384869840624845	1.4255040113000408e-23
-0.48378766324999845	1.4522690034792147e-23
-0.48372662809374845	1.4783185889249452e-23
-0.48366559293749845	1.503675447933127e-23
-0.48360455778124845	1.5282578593064175e-23
-0.48354352262499845	1.5521320580138428e-23
-0.48348248746874845	1.5752246331645873e-23
-0.48342145231249845	1.5975463951952684e-23
-0.48336041715624845	1.6191094046946646e-23
-0.48329938199999845	1.6398421888001415e-23
-0.48323834684374845	1.6598124866263838e-23
-0.48317731168749845	1.678941482230702e-23
-0.48311627653124845	1.6972541690549332e-23
-0.48305524137499845	1.714751456701916e-23
-0.48299420621874845	1.7313731133932785e-23
-0.48293317106249845	1.747185473164067e-23
-0.48287213590624845	1.7621078947954898e-23
-0.48281110074999845	1.7761780575741865e-23
-0.48275006559374845	1.7893860645170924e-23
-0.48268903043749845	1.8016848931648338e-23
-0.48262799528124845	1.8131363270334265e-23
-0.48256696012499845	1.8236610982196728e-23
-0.48250592496874845	1.8333074317352474e-23
-0.48244488981249845	1.8420545666786962e-23
-0.48238385465624845	1.849870490940316e-23
-0.48232281949999845	1.8568109648847691e-23
-0.48226178434374845	1.8628004705041715e-23
-0.48220074918749845	1.8678950683214442e-23
-0.48213971403124845	1.8720648059373765e-23
-0.48207867887499845	1.875293170888411e-23
-0.48201764371874845	1.877627688394474e-23
-0.48195660856249845	1.8789993353866772e-23
-0.48189557340624845	1.87946970176034e-23
-0.48183453824999845	1.8790014235966342e-23
-0.48177350309374845	1.877593358645844e-23
-0.48171246793749845	1.8752833441371744e-23
-0.48165143278124845	1.8720112872509747e-23
-0.48159039762499845	1.8678417989512596e-23
-0.48152936246874845	1.8627318366952944e-23
-0.48146832731249845	1.8566950314955537e-23
-0.48140729215624845	1.849758990199072e-23
-0.48134625699999845	1.8418742349025714e-23
-0.48128522184374845	1.8331060040566362e-23
-0.48122418668749845	1.8234080230830872e-23
-0.48116315153124845	1.8128070360638205e-23
-0.48110211637499845	1.801320269774571e-23
-0.48104108121874845	1.7889106975844503e-23
-0.48098004606249845	1.7756415229254217e-23
-0.48091901090624845	1.7614654708462348e-23
-0.48085797574999845	1.7464209333401473e-23
-0.48079694059374845	1.7305151742199724e-23
-0.48073590543749845	1.7137243766958512e-23
-0.48067487028124845	1.6961075146749598e-23
-0.48061383512499845	1.6776191250811625e-23
-0.48055279996874845	1.6583066006745438e-23
-0.48049176481249845	1.6381675638782527e-23
-0.48043072965624845	1.6171931267964304e-23
-0.48036969449999845	1.5954361133181962e-23
-0.48030865934374845	1.5728541242837316e-23
-0.48024762418749845	1.5495019926415714e-23
-0.48018658903124845	1.525369168238603e-23
-0.48012555387499845	1.5004604613372944e-23
-0.48006451871874845	1.474821097412815e-23
-0.48000348356249845	1.4484151683981957e-23
-0.47994244840624845	1.421302316100644e-23
-0.47988141324999845	1.3934644739119672e-23
-0.47982037809374845	1.364919999362732e-23
-0.47975934293749845	1.3357052650485072e-23
-0.47969830778124845	1.30579237032019e-23
-0.47963727262499845	1.2752438656848547e-23
-0.47957623746874845	1.2440360863331263e-23
-0.47951520231249845	1.2121999350752422e-23
-0.47945416715624845	1.1797621908833447e-23
-0.47939313199999845	1.1467035585213641e-23
-0.47933209684374845	1.1130867616637272e-23
-0.47927106168749845	1.0788859976770813e-23
-0.47921002653124845	1.0441433403082544e-23
-0.47914899137499845	1.0088746582089954e-23
-0.47908795621874845	9.730715706817072e-24
-0.47902692106249845	9.367942830244376e-24
-0.47896588590624845	9.000155121090647e-24
-0.47890485074999845	8.62787078191829e-24
-0.47884381559374845	8.25114598993086e-24
-0.47878278043749845	7.870026956457231e-24
-0.47872174528124845	7.485063959581381e-24
-0.47866071012499845	7.095972855281517e-24
-0.47859967496874845	6.703359410850539e-24
-0.47853863981249845	6.307187674655557e-24
-0.47847760465624845	5.907625369320111e-24
-0.47841656949999845	5.5051556042229366e-24
-0.47835553434374845	5.099513237663597e-24
-0.47829449918749845	4.691364816104545e-24
-0.47823346403124845	4.280589516742553e-24
-0.47817242887499845	3.867467754509421e-24
-0.47811139371874845	3.452394395991554e-24
-0.47805035856249845	3.035168076419856e-24
-0.47798932340624845	2.6164829926884418e-24
-0.47792828824999845	2.196126961488353e-24
-0.47786725309374845	1.7745134741717733e-24
-0.47780621793749845	1.3519282294613234e-24
-0.47774518278124845	9.28232367779211e-25
-0.47768414762499845	5.041387973257249e-25
-0.47762311246874845	7.936089657404651e-26
-0.47756207731249845	-3.455734910116995e-25
-0.47750104215624845	-7.704870585574823e-25
-0.47744000699999845	-1.1954338157128923e-24
-0.47737897184374845	-1.6197232810563194e-24
-0.47731793668749845	-2.0436945699738153e-24
-0.47725690153124845	-2.4667097545741262e-24
-0.47719586637499845	-2.8887255194040978e-24
-0.47713483121874845	-3.3097008871416765e-24
-0.47707379606249845	-3.728973615717671e-24
-0.47701276090624845	-4.146906469106357e-24
-0.47695172574999845	-4.5627818067198374e-24
-0.47689069059374845	-4.976692810081267e-24
-0.47682965543749845	-5.3884812287041635e-24
-0.47676862028124845	-5.797559249139241e-24
-0.47670758512499845	-6.204301199660874e-24
-0.47664654996874845	-6.607909605887329e-24
-0.47658551481249845	-7.008602824029066e-24
-0.47652447965624845	-7.406100225459836e-24
-0.47646344449999845	-7.799918344858395e-24
-0.47640240934374845	-8.190425929313157e-24
-0.47634137418749845	-8.576771680337655e-24
-0.47628033903124845	-8.95928843104962e-24
-0.47621930387499845	-9.337562423889371e-24
-0.47615826871874845	-9.711237453299463e-24
-0.47609723356249845	-1.0080656814434103e-23
-0.47603619840624845	-1.0444939987415877e-23
-0.47597516324999845	-1.0804530661397797e-23
-0.47591412809374845	-1.1158890342052503e-23
-0.47585309293749845	-1.1507786689399057e-23
-0.47579205778124845	-1.185150597846007e-23
-0.47573102262499845	-1.2189185019445181e-23
-0.47566998746874845	-1.2521362721429956e-23
-0.47560895231249845	-1.2847385934372262e-23
-0.47554791715624845	-1.3167166620067388e-23
-0.47548688199999845	-1.348090319634331e-23
-0.47542584684374845	-1.3787771511833546e-23
-0.47536481168749845	-1.4088381539454e-23
-0.47530377653124845	-1.4381978758862525e-23
-0.47524274137499845	-1.4668639347447293e-23
-0.47518170621874845	-1.4948465463897624e-23
-0.47512067106249845	-1.5220686564626826e-23
-0.47505963590624845	-1.5485959619465553e-23
-0.47499860074999845	-1.5743457562999325e-23
-0.47493756559374845	-1.599339969984417e-23
-0.47487653043749845	-1.6235781148167342e-23
-0.47481549528124845	-1.6469932204637133e-23
-0.47475446012499845	-1.6696525510424153e-23
-0.47469342496874845	-1.691468188410401e-23
-0.47463238981249845	-1.7124757822123027e-23
-0.47457135465624845	-1.732663702205872e-23
-0.47451031949999845	-1.7519767656046003e-23
-0.47444928434374845	-1.77048026849738e-23
-0.47438824918749845	-1.7880849894843077e-23
-0.47432721403124845	-1.804839320646322e-23
-0.47426617887499845	-1.820719908686389e-23
-0.47420514371874845	-1.835685423720675e-23
-0.47414410856249845	-1.8497969050033024e-23
-0.47408307340624845	-1.8629664319855812e-23
-0.47402203824999845	-1.875252597975936e-23
-0.47396100309374845	-1.8866215947244216e-23
-0.47389996793749845	-1.8970476828041202e-23
-0.47383893278124845	-1.9065849853452613e-23
-0.47377789762499845	-1.9151494916044206e-23
-0.47371686246874845	-1.922807456075943e-23
-0.47365582731249845	-1.9295163826128032e-23
-0.47359479215624845	-1.9352663493569937e-23
-0.47353375699999845	-1.9401026388349814e-23
-0.47347272184374845	-1.9439489144453197e-23
-0.47341168668749845	-1.946876140921829e-23
-0.47335065153124845	-1.9488344252800276e-23
-0.47328961637499845	-1.949829575486965e-23
-0.47322858121874845	-1.949896669317033e-23
-0.47316754606249845	-1.9489694721480996e-23
-0.47310651090624845	-1.9471211366911606e-23
-0.47304547574999845	-1.9442968434131887e-23
-0.47298444059374845	-1.940517099671944e-23
-0.47292340543749845	-1.9358060230260353e-23
-0.47286237028124845	-1.9301095338342628e-23
-0.47280133512499845	-1.9235001328889245e-23
-0.47274029996874845	-1.9159206010115432e-23
-0.47267926481249845	-1.907404645093472e-23
-0.47261822965624845	-1.897965332931108e-23
-0.47255719449999845	-1.887562711720873e-23
-0.47249615934374845	-1.8762660803126877e-23
-0.47243512418749845	-1.8640179223451103e-23
