Time	Frequency
-0.5000155939062552	0.3143519656757991
-0.49995455875000516	0.30191199075199837
-0.49989352359375516	0.28922504619404527
-0.49983248843750516	0.27630083244152315
-0.49977145328125516	0.2631491595834875
-0.49971041812500516	0.24978022642558864
-0.49964938296875516	0.23620445266098133
-0.49958834781250516	0.222432016808238
-0.49952731265625516	0.2084732475053812
-0.49946627750000516	0.19433910701992216
-0.49940524234375516	0.18004048942789172
-0.49934420718750516	0.1655880700650779
-0.49928317203125516	0.1509933547672542
-0.49922213687500516	0.1362680947796719
-0.49916110171875516	0.12142308252077649
-0.49910006656250516	0.10646922757371442
-0.49903903140625516	0.09141843917715438
-0.49897799625000516	0.07628265385663613
-0.49891696109375516	0.06107337518008035
-0.49885592593750516	0.045802140221446824
-0.49879489078125516	0.030480877044242988
-0.49873385562500516	0.015121807654625046
-0.49867282046875516	-0.0002631412311062365
-0.49861178531250516	-0.015662475443642455
-0.49855075015625516	-0.031064565544878457
-0.49848971500000516	-0.046457278288863264
-0.49842867984375516	-0.061828380587706656
-0.49836764468750516	-0.07716590924251336
-0.49830660953125516	-0.09245799566451554
-0.49824557437500516	-0.10769288758101044
-0.49818453921875516	-0.12285875003496424
-0.49812350406250516	-0.13794358321880662
-0.49806246890625516	-0.15293581283275084
-0.49800143375000516	-0.1678240677480779
-0.49794039859375516	-0.18259653496309783
-0.49787936343750516	-0.19724141973301898
-0.49781832828125516	-0.21174743750465863
-0.49775729312500516	-0.2261034810084355
-0.49769625796875516	-0.24029826866130288
-0.49763522281250516	-0.25432045948983095
-0.49757418765625516	-0.26815903871912217
-0.49751315250000516	-0.28180342958212584
-0.49745211734375516	-0.29524322361714644
-0.49739108218750516	-0.3084678834810978
-0.49733004703125516	-0.3214666765976017
-0.49726901187500516	-0.33422920148944013
-0.49720797671875516	-0.3467457020406287
-0.49714694156250516	-0.35900639048992405
-0.49708590640625516	-0.3710015003756676
-0.49702487125000516	-0.38272181949550615
-0.49696383609375516	-0.3941582649340278
-0.49690280093750516	-0.4053016644807511
-0.49684176578125516	-0.4161429551318525
-0.49678073062500516	-0.4266734647224586
-0.49671969546875516	-0.4368851584352136
-0.49665866031250516	-0.44677019093514875
-0.49659762515625516	-0.45632055956527656
-0.49653659000000516	-0.46552846835188794
-0.49647555484375516	-0.4743866400157691
-0.49641451968750516	-0.48288826136423635
-0.49635348453125516	-0.4910265923247692
-0.49629244937500516	-0.49879485239169596
-0.49623141421875516	-0.5061867245247667
-0.49617037906250516	-0.5131965341921689
-0.49610934390625516	-0.5198188566599101
-0.49604830875000516	-0.526048230687418
-0.49598727359375516	-0.5318794121855553
-0.49592623843750516	-0.5373076643777847
-0.49586520328125516	-0.5423286499495045
-0.49580416812500516	-0.5469383686896281
-0.49574313296875516	-0.5511330791006256
-0.49568209781250516	-0.5549092337723599
-0.49562106265625516	-0.5582636758189548
-0.49556002750000516	-0.5611936017391717
-0.49549899234375516	-0.5636964425793891
-0.49543795718750516	-0.5657700865099975
-0.49537692203125516	-0.5674128243756887
-0.49531588687500516	-0.5686231261746093
-0.49525485171875516	-0.5693997814927428
-0.49519381656250516	-0.5697419746420193
-0.49513278140625516	-0.5696492103314303
-0.49507174625000516	-0.5691213487388043
-0.49501071109375516	-0.5681586005340319
-0.49494967593750516	-0.566761494832647
-0.49488864078125516	-0.564930936140012
-0.49482760562500516	-0.5626681428466717
-0.49476657046875516	-0.559974586235646
-0.49470553531250516	-0.5568520741220051
-0.49464450015625516	-0.5533028205184674
-0.49458346500000516	-0.5493294686642785
-0.49452242984375516	-0.5449349445609026
-0.49446139468750516	-0.5401223803502672
-0.49440035953125516	-0.5348952698238867
-0.49433932437500516	-0.5292574653043474
-0.49427828921875516	-0.5232131233416318
-0.49421725406250516	-0.5167667667697748
-0.49415621890625516	-0.5099231800619871
-0.49409518375000516	-0.5026874280626928
-0.49403414859375516	-0.4950649799111199
-0.49397311343750516	-0.48706160864584963
-0.49391207828125516	-0.47868336882836315
-0.49385104312500516	-0.46993644034575516
-0.49379000796875516	-0.4608272288452968
-0.49372897281250516	-0.45136286059139313
-0.49366793765625516	-0.441550760399979
-0.49360690250000516	-0.4313981019074334
-0.49354586734375516	-0.42091237180826774
-0.49348483218750516	-0.4101017551416571
-0.49342379703125516	-0.3989746689088469
-0.49336276187500516	-0.3875394074697903
-0.49330172671875516	-0.3758044592727206
-0.49324069156250516	-0.36377886865391396
-0.49317965640625516	-0.35147207207456227
-0.49311862125000516	-0.33889356630723333
-0.49305758609375516	-0.3260526826861923
-0.49299655093750516	-0.3129590071554423
-0.49293551578125516	-0.29962282016546116
-0.49287448062500516	-0.2860545330417732
-0.49281344546875516	-0.27226446167226453
-0.49275241031250516	-0.2582631166879576
-0.49269137515625516	-0.24406118615548886
-0.49263034000000516	-0.22966954149705932
-0.49256930484375516	-0.2150992276676051
-0.49250826968750516	-0.2003615837171537
-0.49244723453125516	-0.18546814265560996
-0.49238619937500516	-0.17043023948889643
-0.49232516421875516	-0.15525927008865698
-0.49226412906250516	-0.13996678217474912
-0.49220309390625516	-0.12456446215755664
-0.49214205875000516	-0.10906462675760122
-0.49208102359375516	-0.09347960276416714
-0.49201998843750516	-0.07782098522003919
-0.49195895328125516	-0.06210038339911655
-0.49189791812500516	-0.04633015574351196
-0.49183688296875516	-0.030522869687559902
-0.49177584781250516	-0.0146906337495698
-0.49171481265625516	0.0011543549033820382
-0.49165377750000516	0.016999863205935044
-0.49159274234375516	0.03283398954182178
-0.49153170718750516	0.048644258908947
-0.49147067203125516	0.06441791564544234
-0.49140963687500516	0.08014300241743454
-0.49134860171875516	0.09580788531457238
-0.49128756656250516	0.11140036389773361
-0.49122653140625516	0.1269077909381681
-0.49116549625000516	0.14231795703466868
-0.49110446109375516	0.15761931263771942
-0.49104342593750516	0.17280033047290225
-0.49098239078125516	0.18784918301564235
-0.49092135562500516	0.20275400254100423
-0.49086032046875516	0.21750299843818371
-0.49079928531250516	0.23208450997402558
-0.49073825015625516	0.2464874399449903
-0.49067721500000516	0.2607010377963189
-0.49061617984375516	0.2747142553731194
-0.49055514468750516	0.28851582550180827
-0.49049410953125516	0.3020947475347375
-0.49043307437500516	0.31544070079248876
-0.49037203921875516	0.3285437132229346
-0.49031100406250516	0.34139345363876505
-0.49024996890625516	0.35397950830026625
-0.49018893375000516	0.3662921497178838
-0.49012789859375516	0.3783222103770261
-0.49006686343750516	0.3900602557759337
-0.49000582828125516	0.40149668009868456
-0.48994479312500516	0.4126226306506532
-0.48988375796875516	0.4234298711134779
-0.48982272281250516	0.4339100431481329
-0.48976168765625516	0.44405478639867413
-0.48970065250000516	0.45385601226013633
-0.48963961734375516	0.46330592378919566
-0.48957858218750516	0.4723972698110373
-0.48951754703125516	0.48112326385256116
-0.48945651187500516	0.489477151977018
-0.48939547671875516	0.49745226873386267
-0.48933444156250516	0.5050422519875467
-0.48927340640625516	0.5122410946350708
-0.48921237125000516	0.519043296749322
-0.48915133609375516	0.5254436352086533
-0.48909030093750516	0.5314370048705942
-0.48902926578125516	0.5370188164430497
-0.48896823062500516	0.5421848534225994
-0.48890719546875516	0.5469309346889077
-0.48884616031250516	0.5512531746333661
-0.48878512515625516	0.5551482305065685
-0.48872409000000516	0.5586132232164163
-0.48866305484375516	0.5616454852916699
-0.48860201968750516	0.5642425532915065
-0.48854098453125516	0.5664024019988467
-0.48847994937500516	0.5681233913716915
-0.48841891421875516	0.5694041611365407
-0.48835787906250516	0.5702436951047923
-0.48829684390625516	0.5706413417547996
-0.48823580875000516	0.5705968067735859
-0.48817477359375516	0.5701101226233924
-0.48811373843750516	0.569181678806906
-0.48805270328125516	0.5678122262254314
-0.48799166812500516	0.5660028434652187
-0.48793063296875516	0.5637550383104748
-0.48786959781250516	0.561070632086215
-0.48780856265625516	0.5579515953764335
-0.48774752750000516	0.554400262737197
-0.48768649234375516	0.5504194801953509
-0.48762545718750516	0.5460125298777919
-0.48756442203125516	0.541182996147336
-0.48750338687500516	0.5359346285756427
-0.48744235171875516	0.5302714454694292
-0.48738131656250516	0.5241978707014897
-0.48732028140625516	0.5177186997360711
-0.48725924625000516	0.5108390821829952
-0.48719821109375516	0.503564451659224
-0.48713717593750516	0.49590053199984496
-0.48707614078125516	0.4878534336690338
-0.48701510562500516	0.4794295379481609
-0.48695407046875516	0.47063538212574657
-0.48689303531250516	0.4614778211429962
-0.48683200015625516	0.45196415063781453
-0.48677096500000516	0.4421019250958303
-0.48670992984375516	0.43189882072532315
-0.48664889468750516	0.42136289255083625
-0.48658785953125516	0.4105027739153025
-0.48652682437500516	0.39932710035514213
-0.48646578921875516	0.38784415448658033
-0.48640475406250516	0.37606272629616444
-0.48634371890625516	0.36399251989152803
-0.48628268375000516	0.3516435202991934
-0.48622164859375516	0.3390255539913964
-0.48616061343750516	0.3261482174539859
-0.48609957828125516	0.3130213792537891
-0.48603854312500516	0.29965553665055206
-0.48597750796875516	0.28606130534650215
-0.48591647281250516	0.27224939853687347
-0.48585543765625516	0.2582310140274665
-0.48579440250000516	0.2440173959360608
-0.48573336734375516	0.22961946721159393
-0.48567233218750516	0.2150484596775246
-0.48561129703125516	0.20031618724281702
-0.48555026187500516	0.18543432176347543
-0.48548922671875516	0.17041427699598125
-0.48542819156250516	0.15526797897458008
-0.48536715640625516	0.14000777400230605
-0.48530612125000516	0.12464577275296265
-0.48524508609375516	0.10919405972639565
-0.48518405093750516	0.09366488631250147
-0.48512301578125516	0.07807052012302398
-0.48506198062500516	0.06242318329526617
-0.48500094546875516	0.046735084239171255
-0.48493991031250516	0.031018874111559354
-0.48487887515625516	0.015287422550649635
-0.48481784000000516	-0.00044680499050433445
-0.48475680484375516	-0.01617165249671745
-0.48469576968750516	-0.03187497911650199
-0.48463473453125516	-0.04754410734888796
-0.48457369937500516	-0.06316613089880714
-0.48451266421875516	-0.07872874630927384
-0.48445162906250516	-0.09421984954878339
-0.48439059390625516	-0.10962720292187489
-0.48432955875000516	-0.12493858493634764
-0.48426852359375516	-0.14014165395118908
-0.48420748843750516	-0.15522410021832192
-0.48414645328125516	-0.17017402470618756
-0.48408541812500516	-0.18497977098694646
-0.48402438296875516	-0.19962960310151642
-0.48396334781250516	-0.2141118030862514
-0.48390231265625516	-0.22841472082273456
-0.48384127750000516	-0.24252686219443326
-0.48378024234375516	-0.2564370334081868
-0.48371920718750516	-0.2701342776622579
-0.48365817203125516	-0.2836076952596402
-0.48359713687500516	-0.2968464906292854
-0.48353610171875516	-0.30984024862231513
-0.48347506656250516	-0.3225784788282468
-0.48341403140625516	-0.3350506777619712
-0.48335299625000516	-0.3472472002576893
-0.48329196109375516	-0.3591585955925364
-0.48323092593750516	-0.3707750735266195
-0.48316989078125516	-0.3820873026078239
-0.48310885562500516	-0.39308631956057616
-0.48304782046875516	-0.403763221699995
-0.48298678531250516	-0.41410946611376637
-0.48292575015625516	-0.42411680733648716
-0.48286471500000516	-0.4337773182637495
-0.48280367984375516	-0.443083447896491
-0.48274264468750516	-0.4520277021345377
-0.48268160953125516	-0.4606025895090858
-0.48262057437500516	-0.46880103128480394
-0.48255953921875516	-0.4766166445554163
-0.48249850406250516	-0.4840434657186412
-0.48243746890625516	-0.4910756162117719
-0.48237643375000516	-0.4977073044868182
-0.48231539859375516	-0.5039329299691717
-0.48225436343750516	-0.5097473442533779
-0.48219332828125516	-0.5151460556309507
-0.48213229312500516	-0.5201249371048481
-0.48207125796875516	-0.524679917009183
-0.48201022281250516	-0.5288071610346882
-0.48194918765625516	-0.532503297861928
-0.48188815250000516	-0.5357653397372938
-0.48182711734375516	-0.5385906304507747
-0.48176608218750516	-0.5409769065900359
-0.48170504703125516	-0.5429222162342544
-0.48164401187500516	-0.5444249062954433
-0.48158297671875516	-0.5454837219446645
-0.48152194156250516	-0.5460977678217146
-0.48146090640625516	-0.5462664921593737
-0.48139987125000516	-0.5459896999923467
-0.48133883609375516	-0.5452675485077222
-0.48127780093750516	-0.5441005698468196
-0.48121676578125516	-0.5424896487449995
-0.48115573062500516	-0.5404359800749154
-0.48109469546875516	-0.5379411155110477
-0.48103366031250516	-0.5350070857500926
-0.48097262515625516	-0.5316362160858165
-0.48091159000000516	-0.5278309739202635
-0.48085055484375516	-0.5235943149428761
-0.48078951968750516	-0.5189297674401694
-0.48072848453125516	-0.51384108409541
-0.48066744937500516	-0.5083321056392228
-0.48060641421875516	-0.5024070497774074
-0.48054537906250516	-0.49607070900017847
-0.48048434390625516	-0.48932818987003074
-0.48042330875000516	-0.48218487876378774
-0.48036227359375516	-0.47464646918358117
-0.48030123843750516	-0.4667187629513459
-0.48024020328125516	-0.4584079742238928
-0.48017916812500516	-0.44972092979821093
-0.48011813296875516	-0.4406646015549206
-0.48005709781250516	-0.4312460168156169
-0.47999606265625516	-0.42147267885117495
-0.47993502750000516	-0.4113525887753635
-0.47987399234375516	-0.40089380565216515
-0.47981295718750516	-0.3901043124002793
-0.47975192203125516	-0.3789926187665768
-0.47969088687500516	-0.36756803828882983
-0.47962985171875516	-0.3558400072601007
-0.47956881656250516	-0.3438176822431022
-0.47950778140625516	-0.3315102912127515
-0.47944674625000516	-0.3189275487515232
-0.47938571109375516	-0.30607961578175813
-0.47932467593750516	-0.2929769860544546
-0.47926364078125516	-0.279630502553893
-0.47920260562500516	-0.2660509107673411
-0.47914157046875516	-0.2522487581893078
-0.47908053531250516	-0.23823476857605666
-0.47901950015625516	-0.2240200806028745
-0.47895846500000516	-0.20961643511067002
-0.47889742984375516	-0.19503567980882341
-0.47883639468750516	-0.1802895417671057
-0.47877535953125516	-0.16538987427721644
-0.47871432437500516	-0.15034837829368503
-0.47865328921875516	-0.1351768966226791
-0.47859225406250516	-0.11988775444675358
-0.47853121890625516	-0.10449344633593102
-0.47847018375000516	-0.08900657069027276
-0.47840914859375516	-0.07343951312452392
-0.47834811343750516	-0.057804525954655114
-0.47828707828125516	-0.04211429117174327
-0.47822604312500516	-0.026381553080964487
-0.47816500796875516	-0.010618982325114193
-0.47810397281250516	0.005160477431128169
-0.47804293765625516	0.020944083790095134
-0.47798190250000516	0.036719604489657644
-0.47792086734375516	0.05247448699572812
-0.47785983218750516	0.06819545236715673
-0.47779879703125516	0.08386927340436835
-0.47773776187500516	0.09948343053057397
-0.47767672671875516	0.11502589314386372
-0.47761569156250516	0.13048429771260656
-0.47755465640625516	0.14584580984813755
-0.47749362125000516	0.16109768623301574
-0.47743258609375516	0.17622742848981127
-0.47737155093750516	0.19122288414541233
-0.47731051578125516	0.20607209833082865
-0.47724948062500516	0.22076297926318342
-0.47718844546875516	0.2352835146665537
-0.47712741031250516	0.24962194357687245
-0.47706637515625516	0.2637665831241791
-0.47700534000000516	0.2777057334240564
-0.47694430484375516	0.29142796895051476
-0.47688326968750516	0.3049222160217895
-0.47682223453125516	0.318177564985323
-0.47676119937500516	0.3311833878035052
-0.47670016421875516	0.3439289457736095
-0.47663912906250516	0.3564033494290017
-0.47657809390625516	0.3685964325581953
-0.47651705875000516	0.38049845310090286
-0.47645602359375516	0.39209954449421386
-0.47639498843750516	0.4033903176983582
-0.47633395328125516	0.4143616658162609
-0.47627291812500516	0.42500431666618144
-0.47621188296875516	0.43530932682748646
-0.47615084781250516	0.4452681521498474
-0.47608981265625516	0.45487259909783334
-0.47602877750000516	0.4641148552942817
-0.47596774234375516	0.4729872658077855
-0.47590670718750516	0.4814824501854948
-0.47584567203125516	0.4895933391237662
-0.47578463687500516	0.49731309443322863
-0.47572360171875516	0.5046352052000654
-0.47566256656250516	0.511553483458593
-0.47560153140625516	0.5180620994442665
-0.47554049625000516	0.5241556550851396
-0.47547946109375516	0.5298290711145177
-0.47541842593750516	0.5350774534114114
-0.47535739078125516	0.5398961935258053
-0.47529635562500516	0.5442811142672342
-0.47523532046875516	0.548228490296829
-0.47517428531250516	0.5517349448694939
-0.47511325015625516	0.5547972893889799
-0.47505221500000516	0.5574126928688371
-0.47499117984375516	0.5595788438261183
-0.47493014468750516	0.5612937503473364
-0.47486910953125516	0.5625557061176434
-0.47480807437500516	0.5633633888358507
-0.47474703921875516	0.5637158519009555
-0.47468600406250516	0.5636125064684131
-0.47462496890625516	0.563053119486621
-0.47456393375000516	0.5620378736476029
-0.47450289859375516	0.5605673351897078
-0.47444186343750516	0.5586423641386088
-0.47438082828125516	0.556264193699338
-0.47431979312500516	0.5534344375453243
-0.47425875796875516	0.5501550499713631
-0.47419772281250516	0.5464283607754813
-0.47413668765625516	0.5422570807363036
-0.47407565250000516	0.5376443503673595
-0.47401461734375516	0.5325935729646726
-0.47395358218750516	0.5271084076914175
-0.47389254703125516	0.5211930966714304
-0.47383151187500516	0.5148521968476542
-0.47377047671875516	0.5080902923371433
-0.47370944156250516	0.5009124776401747
-0.47364840640625516	0.4933244096640138
-0.47358737125000516	0.4853318844087318
-0.47352633609375516	0.4769411136164793
-0.47346530093750516	0.468158770748625
-0.47340426578125516	0.458991455584184
-0.47334323062500516	0.4494459769889351
-0.47328219546875516	0.43952988989243835
-0.47322116031250516	0.4292511388026631
-0.47316012515625516	0.4186176569406455
-0.47309909000000516	0.4076376034434829
-0.47303805484375516	0.3963196418904694
-0.47297701968750516	0.3846728485475983
-0.47291598453125516	0.3727062623692492
-0.47285494937500516	0.3604290463799417
-0.47279391421875516	0.3478509759754639
-0.47273287906250516	0.3349818565139902
-0.47267184390625516	0.32183160528817334
-0.47261080875000516	0.30841099475171063
-0.47254977359375516	0.2947309175120671
-0.47248873843750516	0.2808017814679332
-0.47242770328125516	0.2666343626281257
-0.47236666812500516	0.2522401230068413
-0.47230563296875516	0.23763038804219452
-0.47224459781250516	0.2228164581412901
-0.47218356265625516	0.20781025564800054
-0.47212252750000516	0.1926240405160463
-0.47206149234375516	0.17726995208394553
-0.47200045718750516	0.16175992695817865
-0.47193942203125516	0.14610599680391803
-0.47187838687500516	0.13032045927935848
-0.47181735171875516	0.11441606233302638
-0.47175631656250516	0.09840598992517993
-0.47169528140625516	0.08230300944338129
-0.47163424625000516	0.06611957546702452
-0.47157321109375516	0.04986846616983284
-0.47151217593750516	0.03356241695627215
-0.47145114078125516	0.017214624229882357
-0.47139010562500516	0.0008390046014749951
-0.47132907046875516	-0.015551462326700601
-0.47126803531250516	-0.03194463949811407
-0.47120700015625516	-0.048327564840533056
-0.47114596500000516	-0.06468653479688065
-0.47108492984375516	-0.08100801496801759
-0.47102389468750516	-0.09727914962373531
-0.47096285953125516	-0.1134872437933021
-0.47090182437500516	-0.129619142929683
-0.47084078921875516	-0.14566184620546446
-0.47077975406250516	-0.1616026424629098
-0.47071871890625516	-0.17742860425434276
-0.47065768375000516	-0.1931268950502541
-0.47059664859375516	-0.20868503943204889
-0.47053561343750516	-0.22409055315120593
-0.47047457828125516	-0.23933087511666862
-0.47041354312500516	-0.25439364787375374
-0.47035250796875516	-0.26926680523158036
-0.47029147281250516	-0.28393844801144785
