Time	Frequency
-0.5000499948437493	-0.11524575221716085
-0.49998895968749935	-0.1257049000174391
-0.49992792453124935	-0.13610503411631703
-0.49986688937499935	-0.14637385296306718
-0.49980585421874935	-0.15661986692144955
-0.49974481906249935	-0.16680207570013555
-0.49968378390624935	-0.17683466651599394
-0.49962274874999935	-0.18681939431560546
-0.49956171359374935	-0.19673484090760845
-0.49950067843749935	-0.20648483694805939
-0.49943964328124935	-0.21616117274942592
-0.49937860812499935	-0.2257623677042978
-0.49931757296874935	-0.23518559061194771
-0.49925653781249935	-0.2445094909684642
-0.49919550265624935	-0.25375093087779227
-0.49913446749999935	-0.2628038307037114
-0.49907343234374935	-0.2717317277078627
-0.49901239718749935	-0.2805684117083849
-0.49895136203124935	-0.28920895426080934
-0.49889032687499935	-0.2977006308318422
-0.49882929171874935	-0.30609057056230443
-0.49876825656249935	-0.31427786947642955
-0.49870722140624935	-0.3222943433282177
-0.49864618624999935	-0.3301980596708985
-0.49858515109374935	-0.33789348349850995
-0.49852411593749935	-0.34539706013408555
-0.49846308078124935	-0.3527766180738908
-0.49840204562499935	-0.3599445594904779
-0.49834101046874935	-0.36690139229613306
-0.49827997531249935	-0.373721344675887
-0.49821894015624935	-0.380327269288654
-0.49815790499999935	-0.3867055739602351
-0.49809686984374935	-0.39293363119454017
-0.49803583468749935	-0.39894525982348805
-0.49797479953124935	-0.404715178754333
-0.49791376437499935	-0.4103226906739353
-0.49785272921874935	-0.41571245475497337
-0.49779169406249935	-0.42084729637323576
-0.49773065890624935	-0.4258062929947436
-0.49766962374999935	-0.43054707406852283
-0.49760858859374935	-0.43502334705094325
-0.49754755343749935	-0.43931139105615985
-0.49748651828124935	-0.44338071469706697
-0.49742548312499935	-0.4471775668405934
-0.49736444796874935	-0.4507741971273947
-0.49730341281249935	-0.45415158673934186
-0.49724237765624935	-0.4572506743541134
-0.49718134249999935	-0.46013909197525066
-0.49712030734374935	-0.46280825748817267
-0.49705927218749935	-0.4651950637413379
-0.49699823703124935	-0.4673619727382241
-0.49693720187499935	-0.469309824943987
-0.49687616671874935	-0.4709724765616095
-0.49681513156249935	-0.47240703224991376
-0.49675409640624935	-0.47362353560119386
-0.49669306124999935	-0.4745542034928584
-0.49663202609374935	-0.47525015010107663
-0.49657099093749935	-0.4757290910496052
-0.49650995578124935	-0.47592248186884123
-0.49644892062499935	-0.4758761373284884
-0.49638788546874935	-0.47561488380413847
-0.49632685031249935	-0.4750696560017875
-0.49626581515624935	-0.47428100074795876
-0.49620477999999935	-0.47328035362574794
-0.49614374484374935	-0.47199846601649825
-0.49608270968749935	-0.47047078345388754
-0.49602167453124935	-0.4687350668192077
-0.49596063937499935	-0.46672210181223606
-0.49589960421874935	-0.46446219932413985
-0.49583856906249935	-0.4619991514009516
-0.49577753390624935	-0.4592639908553974
-0.49571649874999935	-0.456282018814672
-0.49565546359374935	-0.4531029294881639
-0.49559442843749935	-0.4496578696146127
-0.49553339328124935	-0.4459671250587533
-0.49547235812499935	-0.44208675097060046
-0.49541132296874935	-0.4379479131053625
-0.49535028781249935	-0.4335651050959449
-0.49528925265624935	-0.42900104209145457
-0.49522821749999935	-0.4241874603884691
-0.49516718234374935	-0.41913258635754025
-0.49510614718749935	-0.4139059224249761
-0.49504511203124935	-0.40844015263656236
-0.49498407687499935	-0.40273654223811345
-0.49492304171874935	-0.39687145390437245
-0.49486200656249935	-0.39077879173213653
-0.49480097140624935	-0.3844520769832766
-0.49473993624999935	-0.3779756449573216
-0.49467890109374935	-0.37128573632822237
-0.49461786593749935	-0.3643656249210761
-0.49455683078124935	-0.357306708846479
-0.49449579562499935	-0.35005005977598597
-0.49443476046874935	-0.3425689528426064
-0.49437372531249935	-0.3349609038043544
-0.49431269015624935	-0.32717222341807195
-0.49425165499999935	-0.3191649315141748
-0.49419061984374935	-0.3110419412475588
-0.49412958468749935	-0.3027571613516951
-0.49406854953124935	-0.2942616767978626
-0.49400751437499935	-0.2856624272159487
-0.49394647921874935	-0.2769208856274999
-0.49388544406249935	-0.26797578570533287
-0.49382440890624935	-0.258938453298813
-0.49376337374999935	-0.24978190892483007
-0.49370233859374935	-0.2404315328613641
-0.49364130343749935	-0.23099871998007576
-0.49358026828124935	-0.22146921570017974
-0.49351923312499935	-0.21175636007798643
-0.49345819796874935	-0.20197044791541968
-0.49339716281249935	-0.19211257794774037
-0.49333612765624935	-0.182085026768533
-0.49327509249999935	-0.1719934680765369
-0.49321405734374935	-0.16185413376036267
-0.49315302218749935	-0.15155833444230388
-0.49309198703124935	-0.14120532367612473
-0.49303095187499935	-0.13083020800363868
-0.49296991671874935	-0.12031678371382666
-0.49290888156249935	-0.10975369547392269
-0.49284784640624935	-0.09919262420357619
-0.49278681124999935	-0.08851077254882715
-0.49272577609374935	-0.07778444401441584
-0.49266474093749935	-0.06708482862165997
-0.49260370578124935	-0.056287151087867034
-0.49254267062499935	-0.04545061101178352
-0.49248163546874935	-0.03466226293991974
-0.49242060031249935	-0.023798972465660605
-0.49235956515624935	-0.012902733219293477
-0.49229852999999935	-0.0020756332473956625
-0.49223749484374935	0.008800957039859296
-0.49217645968749935	0.019704248444739232
-0.49211542453124935	0.030519406671225217
-0.49205438937499935	0.04135774478471758
-0.49199335421874935	0.05221706938286673
-0.49193231906249935	0.06297113761800208
-0.49187128390624935	0.07371892586120338
-0.49181024874999935	0.08448009441655868
-0.49174921359374935	0.09512283816754506
-0.49168817843749935	0.10573078902561789
-0.49162714328124935	0.11634283704040892
-0.49156610812499935	0.12682437179961065
-0.49150507296874935	0.13724154236935682
-0.49144403781249935	0.14765197240140818
-0.49138300265624935	0.15792302514293452
-0.49132196749999935	0.16810192063332496
-0.49126093234374935	0.17826181221368928
-0.49119989718749935	0.18827374803375366
-0.49113886203124935	0.19816451831086376
-0.49107782687499935	0.20802256054876772
-0.49101679171874935	0.2177289684217496
-0.49095575656249935	0.22728862668327834
-0.49089472140624935	0.23679784297807535
-0.49083368624999935	0.24614988365402535
-0.49077265109374935	0.2553317911507939
-0.49071161593749935	0.26444693380800355
-0.49065058078124935	0.27340147873240694
-0.49058954562499935	0.2821629363967605
-0.49052851046874935	0.2908389173371147
-0.49046747531249935	0.2993525347202012
-0.49040644015624935	0.3076530715830999
-0.49034540499999935	0.315847744015343
-0.49028436984374935	0.32387862158869035
-0.49022333468749935	0.3316798876774721
-0.49016229953124935	0.33935424388738084
-0.49010126437499935	0.34686279784723406
-0.49004022921874935	0.3541280755163348
-0.48997919406249935	0.36124525726124396
-0.48991815890624935	0.3681940453789165
-0.48985712374999935	0.37488897872228594
-0.48979608859374935	0.3814156388421012
-0.48973505343749935	0.3877708298006901
-0.48967401828124935	0.39386346569688935
-0.48961298312499935	0.39976793392114285
-0.48955194796874935	0.4054974776164782
-0.48949091281249935	0.4109586572727183
-0.48942987765624935	0.41621344791318726
-0.48936884249999935	0.4212894346741636
-0.48930780734374935	0.42609277090448794
-0.48924677218749935	0.4306721555951187
-0.48918573703124935	0.43506848180000435
-0.48912470187499935	0.4391908024726794
-0.48906366671874935	0.44307401819095965
-0.48900263156249935	0.4467690800903602
-0.48894159640624935	0.45018947440699775
-0.48888056124999935	0.453357208548349
-0.48881952609374935	0.4563321534708882
-0.48875849093749935	0.4590340835264605
-0.48869745578124935	0.4614718033854383
-0.48863642062499935	0.4637112779895514
-0.48857538546874935	0.4656803331070196
-0.48851435031249935	0.4673762780504861
-0.48845331515624935	0.4688690673742721
-0.48839227999999935	0.47009483652997897
-0.48833124484374935	0.4710405952810243
-0.48827020968749935	0.47177880441415976
-0.48820917453124935	0.47225423997536065
-0.48814813937499935	0.4724449093203233
-0.48808710421874935	0.47242444709143644
-0.48802606906249935	0.4721462194091129
-0.48796503390624935	0.471580358048694
-0.48790399874999935	0.47080057887628
-0.48784296359374935	0.4697688654406182
-0.48778192843749935	0.4684487189584299
-0.48772089328124935	0.46691286052228187
-0.48765985812499935	0.46513132618137193
-0.48759882296874935	0.46306222930065216
-0.48753778781249935	0.4607771290349573
-0.48747675265624935	0.4582535208571243
-0.48741571749999935	0.45544460825182526
-0.48735468234374935	0.4524205011764353
-0.48729364718749935	0.4491657732290329
-0.48723261203124935	0.44562934803296556
-0.48717157687499935	0.44188001954990386
-0.48711054171874935	0.43790919353060404
-0.48704950656249935	0.4336614592358408
-0.48698847140624935	0.4292039157473339
-0.48692743624999935	0.4245348526110751
-0.48686640109374935	0.4195950901854
-0.48680536593749935	0.4144500236457263
-0.48674433078124935	0.4091045132410818
-0.48668329562499935	0.4034954533862423
-0.48662226046874935	0.3976865319606536
-0.48656122531249935	0.39168929481489334
-0.48650019015624935	0.3854366123221427
-0.48643915499999935	0.37899070940934415
-0.48637811984374935	0.3723702683543063
-0.48631708468749935	0.36550329268528536
-0.48625604953124935	0.358449869611387
-0.48619501437499935	0.35123698209578325
-0.48613397921874935	0.34378790597683095
-0.48607294406249935	0.33615956667771496
-0.48601190890624935	0.32838803389137083
-0.48595087374999935	0.32039220289763065
-0.48588983859374935	0.3122247867667154
-0.48582880343749935	0.30393125512526104
-0.48576776828124935	0.29542595712483627
-0.48570673312499935	0.28675660854566193
-0.48564569796874935	0.2779799127234776
-0.48558466281249935	0.26900655404282636
-0.48552362765624935	0.25987657857984287
-0.48546259249999935	0.25065732527848944
-0.48540155734374935	0.24125758260713465
-0.48534052218749935	0.23170962692315045
-0.48527948703124935	0.22209184713881586
-0.48521845187499935	0.21231121549787707
-0.48515741671874935	0.2023897000159132
-0.48509638156249935	0.19241756391744208
-0.48503534640624935	0.18230271701635092
-0.48497431124999935	0.1720551820905147
-0.48491327609374935	0.1617759311640141
-0.48485224093749935	0.1513750936662838
-0.48479120578124935	0.14084962184363242
-0.48473017062499935	0.1303111605121678
-0.48466913546874935	0.11967418925205282
-0.48460810031249935	0.1089206363525684
-0.48454706515624935	0.0981720846726397
-0.48448602999999935	0.08735077372758765
-0.48442499484374935	0.07642146547263795
-0.48436395968749935	0.06551250391953296
-0.48430292453124935	0.05455726269176811
-0.48424188937499935	0.04350444774696538
-0.48418085421874935	0.03248712313497393
-0.48411981906249935	0.021450678782050203
-0.48405878390624935	0.01032696120173938
-0.48399774874999935	-0.0007473503498025173
-0.48393671359374935	-0.011811240820022995
-0.48387567843749935	-0.022950786500931627
-0.48381464328124935	-0.03403111611878613
-0.48375360812499935	-0.045072377649409814
-0.48369257296874935	-0.05617426274045702
-0.48363153781249935	-0.06720643804526782
-0.48357050265624935	-0.07817035301432451
-0.48350946749999935	-0.08917968173451975
-0.48344843234374935	-0.10011314766483995
-0.48338739718749935	-0.11095068671317067
-0.48332636203124935	-0.12181453691729055
-0.48326532687499935	-0.1325952703482557
-0.48320429171874935	-0.14325300377018135
-0.48314325656249935	-0.15391799350513877
-0.48308222140624935	-0.1644960671726592
-0.48302118624999935	-0.17492540532214831
-0.48296015109374935	-0.1853388883950279
-0.48289911593749935	-0.1956619417753638
-0.48283808078124935	-0.20581420983234539
-0.48277704562499935	-0.21592631258226153
-0.48271601046874935	-0.22594389762527997
-0.48265497531249935	-0.23577065144435122
-0.48259394015624935	-0.2455319517224397
-0.48253290499999935	-0.2551954914666595
-0.48247186984374935	-0.26465130980933504
-0.48241083468749935	-0.27401490097391923
-0.48234979953124935	-0.2832763081313884
-0.48228876437499935	-0.29231581383406313
-0.48222772921874935	-0.30123629059044826
-0.48216669406249935	-0.3100499894313726
-0.48210565890624935	-0.31863109615413143
-0.48204462374999935	-0.3270662534085541
-0.48198358859374935	-0.3353877234863567
-0.48192255343749935	-0.34346822918165876
-0.48186151828124935	-0.35137779303966166
-0.48180048312499935	-0.3591670114805633
-0.48173944796874935	-0.3667091620218668
-0.48167841281249935	-0.37405452422513064
-0.48161737765624935	-0.3812707028118042
-0.48155634249999935	-0.3882375614152052
-0.48149530734374935	-0.3949851790254853
-0.48143427218749935	-0.4015935228438394
-0.48137323703124935	-0.40795098872771884
-0.48131220187499935	-0.41406791058834824
-0.48125116671874935	-0.42003454862731654
-0.48119013156249935	-0.4257512531091988
-0.48112909640624935	-0.4312089844485954
-0.48106806124999935	-0.43650410471690604
-0.48100702609374935	-0.4415513502219836
-0.48094599093749935	-0.446324242317001
-0.48088495578124935	-0.4509215430839734
-0.48082392062499935	-0.45527356201932895
-0.48076288546874935	-0.4593385738862574
-0.48070185031249935	-0.4632148816950336
-0.48064081515624935	-0.46684925234293073
-0.48057977999999935	-0.4701870963035057
-0.48051874484374935	-0.473323356780717
-0.48045770968749935	-0.4762211281788174
-0.48039667453124935	-0.4788153844169277
-0.48033563937499935	-0.4811956335364137
-0.48027460421874935	-0.4833413169159026
-0.48021356906249935	-0.48517946809818124
-0.48015253390624935	-0.4867918019200451
-0.48009149874999935	-0.4881731988045964
-0.48003046359374935	-0.4892457210513992
-0.47996942843749935	-0.490082134260866
-0.47990839328124935	-0.4906913153968169
-0.47984735812499935	-0.49099240024072244
-0.47978632296874935	-0.49104822356666344
-0.47972528781249935	-0.49088051342945777
-0.47966425265624935	-0.49040793244178044
-0.47960321749999935	-0.48968280334435677
-0.47954218234374935	-0.48873766677491426
-0.47948114718749935	-0.48749247222262065
-0.47942011203124935	-0.48598939817879644
-0.47935907687499935	-0.4842701935998051
-0.47929804171874935	-0.48225724573033746
-0.47923700656249935	-0.4799829274808923
-0.47917597140624935	-0.47749682096876855
-0.47911493624999935	-0.47472480777690046
-0.47905390109374935	-0.4716897034533267
-0.47899286593749935	-0.4684472930803192
-0.47893183078124935	-0.46492808803421004
-0.47887079562499935	-0.46114638364290766
-0.47880976046874935	-0.4571626005534937
-0.47874872531249935	-0.45291189389035286
-0.47868769015624935	-0.4484009290924247
-0.47862665499999935	-0.4436940892389332
-0.47856561984374935	-0.43873116708124366
-0.47850458468749935	-0.43351181779409775
-0.47844354953124935	-0.42810375875756973
-0.47838251437499935	-0.4224512473114841
-0.47832147921874935	-0.41654768638948475
-0.47826044406249935	-0.4104640031896176
-0.47819940890624935	-0.40414844769354996
-0.47813837374999935	-0.3975878844695742
-0.47807733859374935	-0.3908564322831985
-0.47801630343749935	-0.38390717702641014
-0.47795526828124935	-0.37672080973371413
-0.47789423312499935	-0.3693737766588991
-0.47783319796874935	-0.36182339130551233
-0.47777216281249935	-0.3540443343035424
-0.47771112765624935	-0.3461158175390273
-0.47765009249999935	-0.33799973941824263
-0.47758905734374935	-0.3296648931198463
-0.47752802218749935	-0.3211932513792072
-0.47746698703124935	-0.31255040054932065
-0.47740595187499935	-0.30369795923653087
-0.47734491671874935	-0.2947217863188639
-0.47728388156249935	-0.2855933144438871
-0.47722284640624935	-0.2762662907690356
-0.47716181124999935	-0.2668289154762381
-0.47710077609374935	-0.2572582834588743
-0.47703974093749935	-0.2474996995940464
-0.47697870578124935	-0.23764453428943355
-0.47691767062499935	-0.22767784833966664
-0.47685663546874935	-0.21753532430240863
-0.47679560031249935	-0.20730917724541958
-0.47673456515624935	-0.19699350900281612
-0.47667352999999935	-0.1865151035379023
-0.47661249484374935	-0.17596631590208855
-0.47655145968749935	-0.16535104865090589
-0.47649042453124935	-0.15458680071564831
-0.47642938937499935	-0.1437650188592809
-0.47636835421874935	-0.13290109641566344
-0.47630731906249935	-0.12190322635555031
-0.47624628390624935	-0.1108598370597869
-0.47618524874999935	-0.09979895503716298
-0.47612421359374935	-0.08861993898770759
-0.47606317843749935	-0.07740664095559342
-0.47600214328124935	-0.06620177842851832
-0.47594110812499935	-0.054896845767640846
-0.47588007296874935	-0.04356768949428643
-0.47581903781249935	-0.03227157259663645
-0.47575800265624935	-0.020893929065063932
-0.47569696749999935	-0.009501969070516111
-0.47563593234374935	0.0018303505772430005
-0.47557489718749935	0.013222970863574327
-0.47551386203124935	0.024623062923049114
-0.47545282687499935	0.035940131437121714
-0.47539179171874935	0.04729391686127943
-0.47533075656249935	0.058646767032770705
-0.47526972140624935	0.06989368168454851
-0.47520868624999935	0.08115289710628527
-0.47514765109374935	0.09240359377420045
-0.47508661593749935	0.10352672893118814
-0.47502558078124935	0.11463675488504638
-0.47496454562499935	0.12573231119356926
-0.47490351046874935	0.13668069456225004
-0.47484247531249935	0.1475868504895749
-0.47478144015624935	0.15847058373689402
-0.47472040499999935	0.1691909558267414
-0.47465936984374935	0.1798414086132187
-0.47459833468749935	0.1904620443952682
-0.47453729953124935	0.2009046664922414
-0.47447626437499935	0.21124742384768164
-0.47441522921874935	0.22155172926927827
-0.47435419406249935	0.2316665892899562
-0.47429315890624935	0.24165129006401195
-0.47423212374999935	0.2515877678052551
-0.47417108859374935	0.2613275719471489
-0.47411005343749935	0.27090791196226643
-0.47404901828124935	0.2804272745510582
-0.47398798312499935	0.28974433615210843
-0.47392694796874935	0.29887435684311037
-0.47386591281249935	0.3079294893539549
-0.47380487765624935	0.3167786696385722
-0.47374384249999935	0.32541449249270227
-0.47368280734374935	0.3339601025421414
-0.47362177218749935	0.3422992427644896
-0.47356073703124935	0.3504013598144555
-0.47349970187499935	0.3583949200786451
-0.47343866671874935	0.366181594350734
-0.47337763156249935	0.37371080557133834
-0.47331659640624935	0.38111327850701304
-0.47325556124999935	0.388309813664862
-0.47319452609374935	0.395230571561795
-0.47313349093749935	0.40200495883632664
-0.47307245578124935	0.4085755599113126
-0.47301142062499935	0.414855814969161
-0.47295038546874935	0.4209688322840022
-0.47288935031249935	0.42687953921324306
-0.47282831515624935	0.43248881235531783
-0.47276727999999935	0.4379106360294082
-0.47270624484374935	0.4431322904910317
-0.47264520968749935	0.448044846082657
-0.47258417453124935	0.45274905737485543
-0.47252313937499935	0.45725396830419507
-0.47246210421874935	0.4614456250197896
-0.47240106906249935	0.46540956377149756
-0.47234003390624935	0.4691747717912928
-0.47227899874999935	0.4726256172657723
-0.47221796359374935	0.4758304421393654
-0.47215692843749935	0.4788360452680844
-0.47209589328124935	0.4815290375905667
-0.47203485812499935	0.48395956412815067
-0.47197382296874935	0.48618939404801725
-0.47191278781249935	0.4881109746951686
-0.47185175265624935	0.48975619851287966
-0.47179071749999935	0.4911983635439031
-0.47172968234374935	0.4923382849803851
-0.47166864718749935	0.49319047817572165
-0.47160761203124935	0.4938369714047263
-0.47154657687499935	0.49418892525255337
-0.47148554171874935	0.49424430062311625
-0.47142450656249935	0.4940910175537595
-0.47136347140624935	0.49365244268045455
-0.47130243624999935	0.49291126401413415
-0.47124140109374935	0.49195811885006535
-0.47118036593749935	0.49072976225273224
-0.47111933078124935	0.4891958549759267
-0.47105829562499935	0.48744720459901847
-0.47099726046874935	0.4854340159936704
-0.47093622531249935	0.4831147356709079
-0.47087519015624935	0.48057842121184413
-0.47081415499999935	0.47778908415100124
-0.47075311984374935	0.47469597911779043
-0.47069208468749935	0.4713841758510953
-0.47063104953124935	0.46783084165070365
-0.47057001437499935	0.4639785383400297
-0.47050897921874935	0.45990739790162116
-0.47044794406249935	0.4556065604767362
