Time	Frequency
-0.500030516625003	-0.49678098899478657
-0.499969481468753	-0.49511908324427023
-0.499908446312503	-0.4931280227197965
-0.499847411156253	-0.49089995777394996
-0.499786376000003	-0.48836482551071203
-0.499725340843753	-0.48544411157943923
-0.499664305687503	-0.48222492136324574
-0.499603270531253	-0.4787756527152233
-0.499542235375003	-0.47500153077012547
-0.499481200218753	-0.47085436285543264
-0.499420165062503	-0.4664422987002814
-0.499359129906253	-0.46180060785160415
-0.499298094750003	-0.4568205959090166
-0.499237059593753	-0.4514917812681172
-0.499176024437503	-0.4459315934194262
-0.499114989281253	-0.44013752810359474
-0.499053954125003	-0.43399990900056623
-0.498992918968753	-0.4275475785050688
-0.498931883812503	-0.42089341105964073
-0.498870848656253	-0.41399809554877476
-0.498809813500003	-0.4067642941480722
-0.498748778343753	-0.3992568960195625
-0.498687743187503	-0.39157194603839546
-0.498626708031253	-0.3836385328710967
-0.498565672875003	-0.3753831409340253
-0.498504637718753	-0.36689962472168225
-0.498443602562503	-0.3582562549694891
-0.498382567406253	-0.3493591517595706
-0.498321532250003	-0.34016806706571157
-0.498260497093753	-0.33079519708926497
-0.498199461937503	-0.3212735523478488
-0.498138426781253	-0.3114989161027828
-0.498077391625003	-0.30146944512230106
-0.498016356468753	-0.2913017765903695
-0.497955321312503	-0.28099098511404763
-0.497894286156253	-0.2704357905574822
-0.497833251000003	-0.2596723548566137
-0.497772215843753	-0.24880942951147508
-0.497711180687503	-0.23780719157740687
-0.497650145531253	-0.2265791268224687
-0.497589110375003	-0.21519404239681017
-0.497528075218753	-0.20374096743907633
-0.497467040062503	-0.19215238228525577
-0.497406004906253	-0.1803673383644165
-0.497344969750003	-0.16847815705595592
-0.497283934593753	-0.15654516054153084
-0.497222899437503	-0.14448300860301375
-0.497161864281253	-0.13226249924281722
-0.497100829125003	-0.11998938424678313
-0.497039793968753	-0.10769166495339158
-0.496978758812503	-0.09527672339565679
-0.496917723656253	-0.08274845195642619
-0.496856688500003	-0.07021415306203688
-0.496795653343753	-0.05766940289618457
-0.496734618187503	-0.045026086033010546
-0.496673583031253	-0.03231978916982038
-0.496612547875003	-0.01964875378198832
-0.496551512718753	-0.006979489007329315
-0.496490477562503	0.005762346640875987
-0.496429442406253	0.018515267894289224
-0.496368407250003	0.031198832745446284
-0.496307372093753	0.043868851752227954
-0.496246336937503	0.05657848782280009
-0.496185301781253	0.06924742854330607
-0.496124266625003	0.08181887786771566
-0.496063231468753	0.09436368524950439
-0.496002196312503	0.10690957093527485
-0.495941161156253	0.11936548737939733
-0.495880126000003	0.1317013679282262
-0.495819090843753	0.1439948122423267
-0.495758055687503	0.1562471968336999
-0.495697020531253	0.1683652427940863
-0.495635985375003	0.18034478580875352
-0.495574950218753	0.1922617824843636
-0.495513915062503	0.20409278112357002
-0.495452879906253	0.2157505710397698
-0.495391844750003	0.2272555158927148
-0.495330809593753	0.23867475853259026
-0.495269774437503	0.24996252398461782
-0.495208739281253	0.2610438360171869
-0.495147704125003	0.27195960214430664
-0.495086668968753	0.28276282464401675
-0.495025633812503	0.2933905583434066
-0.494964598656253	0.30378478083136307
-0.494903563500003	0.3140019192574236
-0.494842528343753	0.32407753029195596
-0.494781493187503	0.3339363895461626
-0.494720458031253	0.3435396132537787
-0.494659422875003	0.3529541448968573
-0.494598387718753	0.3621969162758772
-0.494537352562503	0.37118619764269134
-0.494476317406253	0.3799031727317999
-0.494415282250003	0.38841926460694554
-0.494354247093753	0.3967317318931501
-0.494293211937503	0.40475832291869535
-0.494232176781253	0.4125017910775153
-0.494171141625003	0.420032997944135
-0.494110106468753	0.427328590107671
-0.494049071312503	0.4343099509349866
-0.493988036156253	0.44100123831069926
-0.493927001000003	0.447468997380365
-0.493865965843753	0.45367054188769346
-0.493804930687503	0.4595351684805851
-0.493743895531253	0.46510710466687777
-0.493682860375003	0.4704438879740869
-0.493621825218753	0.47548483578727896
-0.493560790062503	0.4801723519543881
-0.493499754906253	0.4845689431168556
-0.493438719750003	0.48871766428952035
-0.493377684593753	0.4925426230121209
-0.493316649437503	0.4960048977130788
-0.493255614281253	0.49918187476150816
-0.493194579125003	0.5020970963126963
-0.493133543968753	0.5046634811935874
-0.493072508812503	0.5068652615239108
-0.493011473656253	0.5087898908101874
-0.492950438500003	0.5104373519057154
-0.492889403343753	0.5117153320484602
-0.492828368187503	0.5126349909226082
-0.492767333031253	0.5132868916270661
-0.492706297875003	0.5136443725869941
-0.492645262718753	0.5136177118634213
-0.492584227562503	0.513247022573075
-0.492523192406253	0.5126174722714739
-0.492462157250003	0.511675094453498
-0.492401122093753	0.5103418860262949
-0.492340086937503	0.5086860472346746
-0.492279051781253	0.5067778964540719
-0.492218016625003	0.5045387320629027
-0.492156981468753	0.5019115950015476
-0.492095946312503	0.49898850046723836
-0.492034911156253	0.49581609586124264
-0.491973876000003	0.49229677078116657
-0.491912840843753	0.48840266823026024
-0.491851805687503	0.48424221421336117
-0.491790770531253	0.47983128129454017
-0.491729735375003	0.4750623834919969
-0.491668700218753	0.4699425438111782
-0.491607665062503	0.4645859480982619
-0.491546629906253	0.45897349131868126
-0.491485594750003	0.45299958553253017
-0.491424559593753	0.4467084059799505
-0.491363524437503	0.440207355465934
-0.491302489281253	0.4334420931783135
-0.491241454125003	0.42632176443476605
-0.491180418968753	0.41892563984390185
-0.491119383812503	0.41134170709007434
-0.491058348656253	0.40348478359546047
-0.490997313500003	0.3952902291287426
-0.490936278343753	0.38686534878510165
-0.490875243187503	0.3782684517580974
-0.490814208031253	0.3693931039802102
-0.490753172875003	0.36021013077599706
-0.490692137718753	0.350843076253162
-0.490631102562503	0.34131224751485756
-0.490570067406253	0.3315028809774307
-0.490509032250003	0.32142717510822244
-0.490447997093753	0.3112112734345297
-0.490386961937503	0.3008351298751058
-0.490325926781253	0.29018965801877744
-0.490264891625003	0.27932706320767764
-0.490203856468753	0.268361646809408
-0.490142821312503	0.2572367135380674
-0.490081786156253	0.24586256658616476
-0.490020751000003	0.234325995789367
-0.489959715843753	0.22271738546136588
-0.489898680687503	0.2109502641719407
-0.489837645531253	0.19896446975042445
-0.489776610375003	0.1868723238875544
-0.489715575218753	0.17473081663752485
-0.489654540062503	0.16243468692039384
-0.489593504906253	0.14996201288646593
-0.489532469750003	0.13743798340413832
-0.489471434593753	0.12487953505029575
-0.489410399437503	0.11217627077920593
-0.489349364281253	0.09934707780039972
-0.489288329125003	0.08651523763013383
-0.489227293968753	0.07365857142998926
-0.489166258812503	0.0606763729506283
-0.489105223656253	0.04762529878779393
-0.489044188500003	0.034612913790790775
-0.488983153343753	0.02158220762896677
-0.488922118187503	0.008453832746199189
-0.488861083031253	-0.0046847508635041646
-0.488800047875003	-0.017751936331622746
-0.488739012718753	-0.030829816868709326
-0.488677977562503	-0.04396740680894956
-0.488616942406253	-0.05705783177272282
-0.488555907250003	-0.07005301838971044
-0.488494872093753	-0.08304900211390011
-0.488433836937503	-0.09605954807490673
-0.488372801781253	-0.10896956888796652
-0.488311766625003	-0.12176685310962489
-0.488250731468753	-0.13454977881663294
-0.488189696312503	-0.14729688077020606
-0.488128661156253	-0.15989725578551625
-0.488067626000003	-0.1723729305778945
-0.488006590843753	-0.18481237728010888
-0.487945555687503	-0.1971627033670045
-0.487884520531253	-0.20932876966084474
-0.487823485375003	-0.2213610823464451
-0.487762450218753	-0.23332847371555857
-0.487701415062503	-0.24515390590143335
-0.487640379906253	-0.25676564745869507
-0.487579344750003	-0.2682350268126266
-0.487518309593753	-0.27960592408400226
-0.487457274437503	-0.29078570713554597
-0.487396239281253	-0.30172997180471084
-0.487335204125003	-0.3125213556200279
-0.487274168968753	-0.3231756979159105
-0.487213133812503	-0.33359485608833683
-0.487152098656253	-0.3437645342684674
-0.487091063500003	-0.3537692573857909
-0.487030028343753	-0.3635959122956238
-0.486968993187503	-0.37314960299031913
-0.486907958031253	-0.38244423903518093
-0.486846922875003	-0.39155847172498676
-0.486785887718753	-0.40045437630215713
-0.486724852562503	-0.40904740137146617
-0.486663817406253	-0.41737511960021517
-0.486602782250003	-0.4255037333794574
-0.486541747093753	-0.433375388917443
-0.486480711937503	-0.4409223651368921
-0.486419676781253	-0.4482008237394595
-0.486358641625003	-0.4552589693284526
-0.486297606468753	-0.46202409463895344
-0.486236571312503	-0.4684492257762174
-0.486175536156253	-0.4746041804008141
-0.486114501000003	-0.4805170770536992
-0.486053465843753	-0.4861061217495246
-0.485992430687503	-0.49134659416804655
-0.485931395531253	-0.4963154806742277
-0.485870360375003	-0.5010194199956136
-0.485809325218753	-0.505373918225123
-0.485748290062503	-0.5093774926373309
-0.485687254906253	-0.5131087739282166
-0.485626219750003	-0.5165530800380668
-0.485565184593753	-0.5196285012325615
-0.485504149437503	-0.5223558045344702
-0.485443114281253	-0.5248099150369883
-0.485382079125003	-0.5269561278088404
-0.485321043968753	-0.5287203911673464
-0.485260008812503	-0.5301445559403247
-0.485198973656253	-0.5312949921457836
-0.485137938500003	-0.5321183100373084
-0.485076903343753	-0.5325529549752324
-0.485015868187503	-0.5326601161026985
-0.484954833031253	-0.532493025034969
-0.484893797875003	-0.531981891809838
-0.484832762718753	-0.5310823412489711
-0.484771727562503	-0.5298720483737722
-0.484710692406253	-0.5283863707242951
-0.484649657250003	-0.5265427200169525
-0.484588622093753	-0.5243186171133069
-0.484527586937503	-0.5218037766376779
-0.484466551781253	-0.519011104464913
-0.484405516625003	-0.5158504961658131
-0.484344481468753	-0.5123255168030326
-0.484283446312503	-0.5085318620870639
-0.484222411156253	-0.5044565384503353
-0.484161376000003	-0.5000086018470881
-0.484100340843753	-0.49522026074488146
-0.484039305687503	-0.49018574018776573
-0.483978270531253	-0.4848644251773775
-0.483917235375003	-0.47917285699271545
-0.483856200218753	-0.47317229394296845
-0.483795165062503	-0.4669463023154638
-0.483734129906253	-0.46042764129807445
-0.483673094750003	-0.45354994030750334
-0.483612059593753	-0.44640107127319784
-0.483551024437503	-0.43904425551530657
-0.483489989281253	-0.43138953767655036
-0.483428954125003	-0.42339658806225766
-0.483367918968753	-0.41517399250168757
-0.483306883812503	-0.4067566669011843
-0.483245848656253	-0.39803959939791733
-0.483184813500003	-0.3890154817953974
-0.483123778343753	-0.3798044075031775
-0.483062743187503	-0.37040674837509546
-0.483001708031253	-0.360712850467306
-0.482940672875003	-0.35075305426745534
-0.482879637718753	-0.3406470329759832
-0.482818602562503	-0.3303581444788737
-0.482757567406253	-0.3197850276242447
-0.482696532250003	-0.30899557697781427
-0.482635497093753	-0.2980955969147603
-0.482574461937503	-0.28701360914315904
-0.482513426781253	-0.27566961428574777
-0.482452391625003	-0.2641646527353861
-0.482391356468753	-0.2525783282864404
-0.482330321312503	-0.24081081154636935
-0.482269286156253	-0.22881408393441147
-0.482208251000003	-0.21671323707376408
-0.482147215843753	-0.20455264050055086
-0.482086180687503	-0.19221573342545795
-0.482025145531253	-0.17969405720947002
-0.481964110375003	-0.1671228199314047
-0.481903075218753	-0.15450470919292977
-0.481842040062503	-0.14172122190780012
-0.481781004906253	-0.12880749773108197
-0.481719969750003	-0.11589369393604836
-0.481658934593753	-0.1029400307097209
-0.481597899437503	-0.08984114777561773
-0.481536864281253	-0.07667280205718063
-0.481475829125003	-0.0635450993317011
-0.481414793968753	-0.050381589203141286
-0.481353758812503	-0.037103480580485494
-0.481292723656253	-0.02381890769554014
-0.481231688500003	-0.010606874256234963
-0.481170653343753	0.002635957873520007
-0.481109618187503	0.0159532633383737
-0.481048583031253	0.02921605261091985
-0.480987547875003	0.04238388095081395
-0.480926512718753	0.05557374745193489
-0.480865477562503	0.06878787385706572
-0.480804442406253	0.0818916717150087
-0.480743407250003	0.09488796611496697
-0.480682372093753	0.10789152007067604
-0.480621336937503	0.12086152481512842
-0.480560301781253	0.13367310421675874
-0.480499266625003	0.14637036631688977
-0.480438231468753	0.15905227857076665
-0.480377196312503	0.1716410906041859
-0.480316161156253	0.18403411866547945
-0.480255126000003	0.19630758600497192
-0.480194090843753	0.20853303834243545
-0.480133055687503	0.22060683482679821
-0.480072020531253	0.2324593378771692
-0.480010985375003	0.24418763542172567
-0.479949950218753	0.2558273034053863
-0.479888915062503	0.2672602915882173
-0.479827879906253	0.27845549816983395
-0.479766844750003	0.2895189658495804
-0.479705809593753	0.30044807602519114
-0.479644774437503	0.3111233615073589
-0.479583739281253	0.32155238895423743
-0.479522704125003	0.3318370826990098
-0.479461668968753	0.341938416124888
-0.479400633812503	0.3517478368768378
-0.479339598656253	0.36130784055343984
-0.479278563500003	0.3707052284626147
-0.479217528343753	0.37987093421057627
-0.479156493187503	0.38871754588656676
-0.479095458031253	0.3973143686216256
-0.479034422875003	0.4057240453342882
-0.478973387718753	0.41385646610896104
-0.478912352562503	0.4216528696933563
-0.478851317406253	0.4292000749164504
-0.478790282250003	0.4365313124301307
-0.478729247093753	0.4435455262937327
-0.478668211937503	0.4502158266192903
-0.478607176781253	0.456636131293697
-0.478546141625003	0.46280891617882347
-0.478485106468753	0.468632467037763
-0.478424071312503	0.47411172762633474
-0.478363036156253	0.47933805049751127
-0.478302001000003	0.4842848292700615
-0.478240965843753	0.4888588659686146
-0.478179930687503	0.49309369061546227
-0.478118895531253	0.49706981359949237
-0.478057860375003	0.5007362667309373
-0.477996825218753	0.5040156408320964
-0.477935790062503	0.5069645033471887
-0.477874754906253	0.5096464156957367
-0.477813719750003	0.5119922201297269
-0.477752684593753	0.5139454147546747
-0.477691649437503	0.5155791115059996
-0.477630614281253	0.5169358654004956
-0.477569579125003	0.5179349857084399
-0.477508543968753	0.5185439819184299
-0.477447508812503	0.5188459842734664
-0.477386473656253	0.5188604799568024
-0.477325438500003	0.5185016926190752
-0.477264403343753	0.5177622298367114
-0.477203368187503	0.5167288101139235
-0.477142333031253	0.515397643626459
-0.477081297875003	0.5136842360511651
-0.477020262718753	0.5116057890431582
-0.476959227562503	0.5092465519287201
-0.476898192406253	0.5065806107919418
-0.476837157250003	0.5035304070307784
-0.476776122093753	0.5001359182731151
-0.476715086937503	0.496473581565127
-0.476654051781253	0.4924976534995556
-0.476593016625003	0.4881425040824591
-0.476531981468753	0.4834683636045486
-0.476470946312503	0.47853907244160226
-0.476409911156253	0.4732916672805104
-0.476348876000003	0.4676770941189245
-0.476287840843753	0.4617729350447137
-0.476226805687503	0.45562579613332943
-0.476165770531253	0.44915852014629065
-0.476104735375003	0.44234306396152956
-0.476043700218753	0.43527103021465835
-0.475982665062503	0.42796755908092415
-0.475921629906253	0.42034526894883234
-0.475860594750003	0.41240089186994616
-0.475799559593753	0.40423473377843694
-0.475738524437503	0.3958470783089471
-0.475677489281253	0.38714698992104024
-0.475616454125003	0.37815865611101523
-0.475555418968753	0.3689832989454655
-0.475494383812503	0.35959417063297033
-0.475433348656253	0.3499047765223567
-0.475372313500003	0.3399684527011957
-0.475311278343753	0.3298791799087834
-0.475250243187503	0.31958204044695787
-0.475189208031253	0.3090033487797598
-0.475128172875003	0.2982249860240614
-0.475067137718753	0.28732461811079135
-0.475006102562503	0.2762217560516944
-0.474945067406253	0.26486481008122154
-0.474884032250003	0.25335970177053724
-0.474822997093753	0.24175870868937946
-0.474761961937503	0.22996162595742162
-0.474700926781253	0.2179468554516006
-0.474639891625003	0.20583656116539908
-0.474578856468753	0.19365065736956033
-0.474517821312503	0.181278798580513
-0.474456786156253	0.16873560051814293
-0.474395751000003	0.15614841573652238
-0.474334715843753	0.14349915159742244
-0.474273680687503	0.13067876993493846
-0.474212645531253	0.11774160351622544
-0.474151610375003	0.10480814889950339
-0.474090575218753	0.09182184739166903
-0.474029540062503	0.07868762451177329
-0.473968504906253	0.06549651165516944
-0.473907469750003	0.05234866573656538
-0.473846434593753	0.03915454912381753
-0.473785399437503	0.025846149164295954
-0.473724364281253	0.012543494005786485
-0.473663329125003	-0.000685966182101185
-0.473602293968753	-0.013955618239958393
-0.473541258812503	-0.027295230237103525
-0.473480223656253	-0.040566475534322056
-0.473419188500003	-0.053744254935450445
-0.473358153343753	-0.06695363477624022
-0.473297118187503	-0.08017994028767932
-0.473236083031253	-0.09328096435021815
-0.473175047875003	-0.10627665590189368
-0.473114012718753	-0.11928756710290177
-0.473052977562503	-0.1322547243408727
-0.472991942406253	-0.14504920672376678
-0.472930907250003	-0.15773371225020638
-0.472869872093753	-0.17040819325973233
-0.472808836937503	-0.18297479427144234
-0.472747801781253	-0.19533241863947687
-0.472686766625003	-0.20757834760625557
-0.472625731468753	-0.21977933275559977
-0.472564696312503	-0.23180910017142956
-0.472503661156253	-0.24360483833652768
-0.472442626000003	-0.2552865444866027
-0.472381590843753	-0.2668803943735324
-0.472320555687503	-0.2782454770367905
-0.472259520531253	-0.2893623589467218
-0.472198485375003	-0.3003580957314823
-0.472137450218753	-0.3112149528639534
-0.472076415062503	-0.3217946779017448
-0.472015379906253	-0.332123042582717
-0.471954344750003	-0.3423173008061363
-0.471893309593753	-0.3523166942117004
-0.471832274437503	-0.36200064441714686
-0.471771239281253	-0.3714359885682305
-0.471710204125003	-0.38071722360174653
-0.471649168968753	-0.38974868578691335
-0.471588133812503	-0.3984397743666145
-0.471527098656253	-0.4068871510290513
-0.471466063500003	-0.4151513774195394
-0.471405028343753	-0.4231147318645503
-0.471343993187503	-0.4307255128940476
-0.471282958031253	-0.43809729167160755
-0.471221922875003	-0.44525102832599744
-0.471160887718753	-0.45206049473399845
-0.471099852562503	-0.4585158863722919
-0.471038817406253	-0.4647333907815068
-0.470977782250003	-0.47069369475263306
-0.470916747093753	-0.4762764316500631
-0.470855711937503	-0.48151233721425785
-0.470794676781253	-0.486507035721419
-0.470733641625003	-0.4912048874493117
-0.470672606468753	-0.49550344001863855
-0.470611571312503	-0.4994674231032585
-0.470550536156253	-0.503180841574697
-0.470489501000003	-0.5065605225408386
-0.470428465843753	-0.5095319039040143
-0.470367430687503	-0.5121837766743729
-0.470306395531253	-0.5145705432379388
-0.470245360375003	-0.5165920069719561
-0.470184325218753	-0.518207088739781
-0.470123290062503	-0.5195178462475393
-0.470062254906253	-0.5205458175385045
-0.470001219750003	-0.5211849213419414
-0.469940184593753	-0.5214290092553492
-0.469879149437503	-0.5213822918008506
-0.469818114281253	-0.5210337033044563
-0.469757079125003	-0.5202819690005814
-0.469696043968753	-0.5191539119528092
-0.469635008812503	-0.5177459038791002
-0.469573973656253	-0.5160179020719381
-0.469512938500003	-0.5138827115448884
-0.469451903343753	-0.5113951285057006
-0.469390868187503	-0.5086353987026151
-0.469329833031253	-0.5055405036638516
-0.469268797875003	-0.5020441114048133
-0.469207762718753	-0.49822220813610346
-0.469146727562503	-0.4941338084865348
-0.469085692406253	-0.48970031957267496
-0.469024657250003	-0.48487998171111213
-0.468963622093753	-0.47976214534831524
-0.468902586937503	-0.47438173934406885
-0.468841551781253	-0.46865228807800285
