Time	Frequency
-0.5000257491250011	0.4571057499947229
-0.4999647139687511	0.4540650592544204
-0.4999036788125011	0.450770159381373
-0.4998426436562511	0.44722282092186966
-0.4997816085000011	0.44342629774256165
-0.4997205733437511	0.4393803007627592
-0.4996595381875011	0.43508977027229845
-0.4995985030312511	0.4305541426198241
-0.4995374678750011	0.4257780997886484
-0.4994764327187511	0.4207635694233989
-0.4994153975625011	0.41551209829864794
-0.4993543624062511	0.41002890371706924
-0.4992933272500011	0.4043137707241046
-0.4992322920937511	0.3983736199449629
-0.4991712569375011	0.3922084204143573
-0.4991102217812511	0.3858228408595485
-0.4990491866250011	0.3792209193633893
-0.4989881514687511	0.37240403698900965
-0.4989271163125011	0.3653799954622291
-0.4988660811562511	0.3581475436946541
-0.4988050460000011	0.35071497107303706
-0.4987440108437511	0.34308365992566536
-0.4986829756875011	0.33525795925601687
-0.4986219405312511	0.3272450621801145
-0.4985609053750011	0.31904430341297824
-0.4984998702187511	0.3106661536416185
-0.4984388350625011	0.302109264764496
-0.4983777999062511	0.29338208880017813
-0.4983167647500011	0.28448885703743787
-0.4982557295937511	0.27543211337433277
-0.4981946944375011	0.26622248237220125
-0.4981336592812511	0.2568571842762924
-0.4980726241250011	0.24734824109232076
-0.4980115889687511	0.23769612989876335
-0.4979505538125011	0.22790840454865743
-0.4978895186562511	0.21799236269355823
-0.4978284835000011	0.20794722321897086
-0.4977674483437511	0.19778685209894317
-0.4977064131875011	0.18750813504234734
-0.4976453780312511	0.177123728774674
-0.4975843428750011	0.16663689540515375
-0.4975233077187511	0.15605126052125715
-0.4974622725625011	0.14537816728034647
-0.4974012374062511	0.1346148552426627
-0.4973402022500011	0.12377667382561636
-0.4972791670937511	0.1128625621592071
-0.4972181319375011	0.10188252326539246
-0.4971570967812511	0.09084271652224465
-0.4970960616250011	0.07974394113884528
-0.4970350264687511	0.06860102192745701
-0.4969739913125011	0.057410999433585394
-0.4969129561562511	0.04618788704793111
-0.4968519210000011	0.03493278454411218
-0.4967908858437511	0.02365247135686361
-0.4967298506875011	0.012357647508356976
-0.4966688155312511	0.0010472488226409605
-0.4966077803750011	-0.010264304561828693
-0.4965467452187511	-0.02157874446253863
-0.4964857100625011	-0.03288393650625001
-0.4964246749062511	-0.04417539607689544
-0.4963636397500011	-0.05544927552903792
-0.4963026045937511	-0.06669313441244926
-0.4962415694375011	-0.07790905488250423
-0.4961805342812511	-0.08908319129563098
-0.4961194991250011	-0.10021475409523815
-0.4960584639687511	-0.11129489274035706
-0.4959974288125011	-0.12231634538305285
-0.4959363936562511	-0.13327737711112672
-0.4958753585000011	-0.1441653917296612
-0.4958143233437511	-0.1549818878378732
-0.4957532881875011	-0.16571442829685443
-0.4956922530312511	-0.17635999599304708
-0.4956312178750011	-0.18691310718162432
-0.4955701827187511	-0.19736498292486807
-0.4955091475625011	-0.20771500697892673
-0.4954481124062511	-0.2179504863279916
-0.4953870772500011	-0.228071637515098
-0.4953260420937511	-0.2380693938549672
-0.4952650069375011	-0.24793924290586344
-0.4952039717812511	-0.2576773999647185
-0.4951429366250011	-0.26727384377995994
-0.4950819014687511	-0.27672900329027383
-0.4950208663125011	-0.2860319403939433
-0.4949598311562511	-0.29518145410506835
-0.4948987960000011	-0.30417092822299113
-0.4948377608437511	-0.31299420817242407
-0.4947767256875011	-0.3216496673349554
-0.4947156905312511	-0.3301276017959565
-0.4946546553750011	-0.3384283890678092
-0.4945936202187511	-0.34654330967409586
-0.4945325850625011	-0.35446961179050634
-0.4944715499062511	-0.3622031299954686
-0.4944105147500011	-0.3697369814808466
-0.4943494795937511	-0.3770710176667716
-0.4942884444375011	-0.38419694140340666
-0.4942274092812511	-0.3911142782297917
-0.4941663741250011	-0.3978166486190308
-0.4941053389687511	-0.4043003457877306
-0.4940443038125011	-0.41056337946081456
-0.4939832686562511	-0.4165996573874374
-0.4939222335000011	-0.4224092639135989
-0.4938611983437511	-0.4279848340946605
-0.4938001631875011	-0.43332582738625575
-0.4937391280312511	-0.4384287797250955
-0.4936780928750011	-0.4432896428265479
-0.4936170577187511	-0.44790765633090945
-0.4935560225625011	-0.45227708003290024
-0.4934949874062511	-0.45639866968683374
-0.4934339522500011	-0.46026769010803437
-0.4933729170937511	-0.46388286275727303
-0.4933118819375011	-0.46724231820542383
-0.4932508467812511	-0.470342567628246
-0.4931898116250011	-0.47318434648738333
-0.4931287764687511	-0.4757630605937708
-0.4930677413125011	-0.47807940482715083
-0.4930067061562511	-0.4801307047882695
-0.4929456710000011	-0.4819159664353893
-0.4928846358437511	-0.48343506290230753
-0.4928236006875011	-0.4846848664511298
-0.4927625655312511	-0.48566703408234224
-0.4927015303750011	-0.4863787956659671
-0.4926404952187511	-0.48682108343454633
-0.4925794600625011	-0.4869929528219193
-0.4925184249062511	-0.4868937062869053
-0.4924573897500011	-0.48652468331912824
-0.4923963545937511	-0.4858839282478656
-0.4923353194375011	-0.4849738283814676
-0.4922742842812511	-0.4837929067831229
-0.4922132491250011	-0.48234269691336695
-0.4921522139687511	-0.4806239827738391
-0.4920911788125011	-0.4786366136502806
-0.4920301436562511	-0.47638330482551855
-0.4919691085000011	-0.4738629625050373
-0.4919080733437511	-0.47107874871930105
-0.4918470381875011	-0.4680307406364184
-0.4917860030312511	-0.46472114539722814
-0.4917249678750011	-0.4611522112442006
-0.4916639327187511	-0.4573241700262778
-0.4916028975625011	-0.4532412076780252
-0.4915418624062511	-0.44890338233825233
-0.4914808272500011	-0.444314468000528
-0.4914197920937511	-0.439475752279801
-0.4913587569375011	-0.43439023173355235
-0.4912977217812511	-0.42906177652299105
-0.4912366866250011	-0.4234908973116169
-0.4911756514687511	-0.41768297135594146
-0.4911146163125011	-0.4116388727039142
-0.4910535811562511	-0.4053635814087036
-0.4909925460000011	-0.3988599330867278
-0.4909315108437511	-0.39213083901879214
-0.4908704756875011	-0.3851814618585854
-0.4908094405312511	-0.37801249928116737
-0.4907484053750011	-0.3706313411791757
-0.4906873702187511	-0.3630398287435462
-0.4906263350625011	-0.35524318431255575
-0.4905652999062511	-0.34724548688702883
-0.4905042647500011	-0.3390491148419609
-0.4904432295937511	-0.3306618610740856
-0.4903821944375011	-0.32208477160036547
-0.4903211592812511	-0.3133259472287875
-0.4902601241250011	-0.3043877401787756
-0.4901990889687511	-0.2952755486464277
-0.4901380538125011	-0.28599581014635506
-0.4900770186562511	-0.27654991429924314
-0.4900159835000011	-0.26694817820557487
-0.4899549483437511	-0.25719119630709675
-0.4898939131875011	-0.2472874221347619
-0.4898328780312511	-0.237240641560028
-0.4897718428750011	-0.2270554043590962
-0.4897108077187511	-0.21674179722218287
-0.4896497725625011	-0.20629920597992304
-0.4895887374062511	-0.19573939701177093
-0.4895277022500011	-0.1850628803551816
-0.4894666670937511	-0.17427825081754666
-0.4894056319375011	-0.1633931988375264
-0.4893445967812511	-0.15240852418862832
-0.4892835616250011	-0.14133696779584956
-0.4892225264687511	-0.13017746488314974
-0.4891614913125011	-0.11894252202509067
-0.4891004561562511	-0.10763418212860033
-0.4890394210000011	-0.09625882966254691
-0.4889783858437511	-0.08482775656105475
-0.4889173506875011	-0.07333873623510655
-0.4888563155312511	-0.06180740373331903
-0.4887952803750011	-0.05023235187996601
-0.4887342452187511	-0.03862417484525591
-0.4886732100625011	-0.026989223277276708
-0.4886121749062511	-0.015330068137236415
-0.4885511397500011	-0.00366101975434308
-0.4884901045937511	0.008021350626447436
-0.4884290694375011	0.019701707532402652
-0.4883680342812511	0.031379488455158096
-0.4883069991250011	0.04304676012596826
-0.4882459639687511	0.05469347915953138
-0.4881849288125011	0.06632088770285743
-0.4881238936562511	0.07791252359890793
-0.4880628585000011	0.0894712074190923
-0.4880018233437511	0.10098460533394274
-0.4879407881875011	0.11244820372323354
-0.4878797530312511	0.12385784710175202
-0.4878187178750011	0.1352011803283229
-0.4877576827187511	0.1464802739817786
-0.4876966475625011	0.15767995051730416
-0.4876356124062511	0.16880122665281835
-0.4875745772500011	0.17983448431336926
-0.4875135420937511	0.1907723318457354
-0.4874525069375011	0.20161357586985065
-0.4873914717812511	0.21234494320117778
-0.4873304366250011	0.2229687194966123
-0.4872694014687511	0.2334716612105184
-0.4872083663125011	0.24385195244334051
-0.4871473311562511	0.2541038609814618
-0.4870862960000011	0.2642182767658183
-0.4870252608437511	0.27419509067447034
-0.4869642256875011	0.28402145038111115
-0.4869031905312511	0.29369948171060456
-0.4868421553750011	0.3032188280334843
-0.4867811202187511	0.3125748272937676
-0.4867200850625011	0.3217644252427095
-0.4866590499062511	0.3307780647413776
-0.4865980147500011	0.33961742475789863
-0.4865369795937511	0.34827072635439427
-0.4864759444375011	0.35673739547346434
-0.4864149092812511	0.36501080184647255
-0.4863538741250011	0.37308588690597094
-0.4862928389687511	0.3809616323400302
-0.4862318038125011	0.3886277937144783
-0.4861707686562511	0.39608580196381343
-0.4861097335000011	0.4033267955269597
-0.4860486983437511	0.4103496398179569
-0.4859876631875011	0.41715023018595865
-0.4859266280312511	0.42372192983713874
-0.4858655928750011	0.43006567179616567
-0.4858045577187511	0.43617254367641184
-0.4857435225625011	0.44204352810683206
-0.4856824874062511	0.4476725438244521
-0.4856214522500011	0.4530571055637486
-0.4855604170937511	0.45819590166917307
-0.4854993819375011	0.4630823222898693
-0.4854383467812511	0.4677179281786071
-0.4853773116250011	0.4720959502897922
-0.4853162764687511	0.47621665807727726
-0.4852552413125011	0.4800768039759279
-0.4851942061562511	0.4836733273641834
-0.4851331710000011	0.48700643044097247
-0.4850721358437511	0.4900707946750358
-0.4850111006875011	0.49286847864962713
-0.4849500655312511	0.4953946553932673
-0.4848890303750011	0.4976492894628024
-0.4848279952187511	0.4996314296130358
-0.4847669600625011	0.5013380911630098
-0.4847059249062511	0.5027710906334301
-0.4846448897500011	0.5039262874546206
-0.4845838545937511	0.5048057693150619
-0.4845228194375011	0.5054073022162738
-0.4844617842812511	0.5057306999672234
-0.4844007491250011	0.5057768422487261
-0.4843397139687511	0.5055433887708387
-0.4842786788125011	0.5050331849911153
-0.4842176436562511	0.5042438184372867
-0.4841566085000011	0.503177456169159
-0.4840955733437511	0.5018339913723888
-0.4840345381875011	0.5002134786734234
-0.4839735030312511	0.498318442316718
-0.4839124678750011	0.4961474362356688
-0.4838514327187511	0.4937040295713913
-0.4837903975625011	0.4909878552829145
-0.4837293624062511	0.48800108930998276
-0.4836683272500011	0.48474536776267513
-0.4836072920937511	0.4812215113125147
-0.4835462569375011	0.47743309844590054
-0.4834852217812511	0.47338006572488045
-0.4834241866250011	0.46906680226398995
-0.4833631514687511	0.4644941000995125
-0.4833021163125011	0.45966474314638467
-0.4832410811562511	0.4545821228188615
-0.4831800460000011	0.44924754751135776
-0.4831190108437511	0.44366595841700524
-0.4830579756875011	0.43783823316921777
-0.4829969405312511	0.4317691078271686
-0.4829359053750011	0.42546118731318416
-0.4828748702187511	0.41891808407523173
-0.4828138350625011	0.4121444103077608
-0.4827527999062511	0.40514168322383004
-0.4826917647500011	0.3979158951159362
-0.4826307295937511	0.3904693002302673
-0.4825696944375011	0.382807487747649
-0.4825086592812511	0.3749340839617436
-0.4824476241250011	0.3668529396362013
-0.4823865889687511	0.3585701026376386
-0.4823255538125011	0.35008761506982544
-0.4822645186562511	0.3414129078143879
-0.4822034835000011	0.33254869853856994
-0.4821424483437511	0.32350068553765143
-0.4820814131875011	0.3142742694391736
-0.4820203780312511	0.30487357002320564
-0.4819593428750011	0.29530611359954945
-0.4818983077187511	0.2855737886147134
-0.4818372725625011	0.27568467790168166
-0.4817762374062511	0.2656427275433728
-0.4817152022500011	0.2554543803169023
-0.4816541670937511	0.24512608394505436
-0.4815931319375011	0.23466074942262322
-0.4815320967812511	0.2240680462267432
-0.4814710616250011	0.21335019596975022
-0.4814100264687511	0.2025160925529397
-0.4813489913125011	0.19157032253446285
-0.4812879561562511	0.18051842209916372
-0.4812269210000011	0.1693691990171025
-0.4811658858437511	0.15812433969501197
-0.4811048506875011	0.14679569096894204
-0.4810438155312511	0.13538497776186692
-0.4809827803750011	0.12390060440594201
-0.4809217452187511	0.1123496973424444
-0.4808607100625011	0.10073598740291272
-0.4807996749062511	0.0890708568772152
-0.4807386397500011	0.07735391818346071
-0.4806776045937511	0.06559828579746318
-0.4806165694375011	0.05380697115023561
-0.4805555342812511	0.04198660450837562
-0.4804944991250011	0.0301471487198477
-0.4804334639687511	0.018289060310426233
-0.4803724288125011	0.006426822005256769
-0.4803113936562511	-0.005440492621665184
-0.4802503585000011	-0.01730091955964798
-0.4801893233437511	-0.02914932433769283
-0.4801282881875011	-0.04098202905179976
-0.4800672530312511	-0.05278537167188414
-0.4800062178750011	-0.0645620702236379
-0.4799451827187511	-0.07629610116277127
-0.4798841475625011	-0.08798734950817275
-0.4798231124062511	-0.09962734131072604
-0.4797620772500011	-0.11120700936223313
-0.4797010420937511	-0.12272661936199851
-0.4796400069375011	-0.13417001505304538
-0.4795789717812511	-0.14554046164782336
-0.4795179366250011	-0.15682370793706604
-0.4794569014687511	-0.1680172802397285
-0.4793958663125011	-0.17911671380477587
-0.4793348311562511	-0.19010882168343599
-0.4792737960000011	-0.20099702179664997
-0.4792127608437511	-0.21176542917128405
-0.4791517256875011	-0.22241571798305834
-0.4790906905312511	-0.23293779456547922
-0.4790296553750011	-0.24332519706302008
-0.4789686202187511	-0.25357682736738796
-0.4789075850625011	-0.26367857853821486
-0.4788465499062511	-0.2736342407378079
-0.4787855147500011	-0.28343035304321235
-0.4787244795937511	-0.2930664767880704
-0.4786634444375011	-0.3025361357315303
-0.4786024092812511	-0.31183018385014905
-0.4785413741250011	-0.3209499961631246
-0.4784803389687511	-0.32988216094311057
-0.4784193038125011	-0.33862985327547673
-0.4783582686562511	-0.3471826465413529
-0.4782972335000011	-0.35553756105749923
-0.4782361983437511	-0.36369171389976007
-0.4781751631875011	-0.3716349346625348
-0.4781141280312511	-0.37936988495197954
-0.4780530928750011	-0.3868849259840054
-0.4779920577187511	-0.3941818503842815
-0.4779310225625011	-0.40125348995488885
-0.4778699874062511	-0.40809507962970726
-0.4778089522500011	-0.4147068877665031
-0.4777479170937511	-0.4210787291675539
-0.4776868819375011	-0.4272135083033213
-0.4776258467812511	-0.4331021265998427
-0.4775648116250011	-0.43874489197864686
-0.4775037764687511	-0.4441382500107784
-0.4774427413125011	-0.44927617176580026
-0.4773817061562511	-0.45416078889011424
-0.4773206710000011	-0.45878332575748776
-0.4772596358437511	-0.46314644839385927
-0.4771986006875011	-0.46724400850213843
-0.4771375655312511	-0.4710749110563103
-0.4770765303750011	-0.4746386414975573
-0.4770154952187511	-0.477929066957558
-0.4769544600625011	-0.48094937783099534
-0.4768934249062511	-0.48369278141887356
-0.4768323897500011	-0.4861614862793874
-0.4767713545937511	-0.4883525539530193
-0.4767103194375011	-0.490263715969728
-0.4766492842812511	-0.4918968380128386
-0.4765882491250011	-0.4932467732702699
-0.4765272139687511	-0.49431701075486634
-0.4764661788125011	-0.4951034299474569
-0.4764051436562511	-0.4956074447941666
-0.4763441085000011	-0.49582879979447025
-0.4762830733437511	-0.4957654025295191
-0.4762220381875011	-0.4954205325683774
-0.4761610030312511	-0.49479050006295616
-0.4760999678750011	-0.49387900522677625
-0.4760389327187511	-0.4926844038424768
-0.4759778975625011	-0.4912077490575037
-0.4759168624062511	-0.4894510794620778
-0.4758558272500011	-0.4874128804910204
-0.4757947920937511	-0.48509749991158085
-0.4757337569375011	-0.4825029974533787
-0.4756727217812511	-0.4796329705328206
-0.4756116866250011	-0.47648826134770883
-0.4755506514687511	-0.4730700076925051
-0.4754896163125011	-0.46938199631023275
-0.4754285811562511	-0.46542369573959114
-0.4753675460000011	-0.4612000792162078
-0.4753065108437511	-0.4567111044887298
-0.4752454756875011	-0.45196031331980274
-0.4751844405312511	-0.4469507164816003
-0.4751234053750011	-0.4416840692554565
-0.4750623702187511	-0.43616550599542425
-0.4750013350625011	-0.4303952334095127
-0.4749402999062511	-0.42437840133898597
-0.4748792647500011	-0.4181176914511412
-0.4748182295937511	-0.4116170904588872
-0.4747571944375011	-0.40488049618505
-0.4746961592812511	-0.3979099723134588
-0.4746351241250011	-0.39071172276570837
-0.4745740889687511	-0.3832881127559262
-0.4745130538125011	-0.37564508275390146
-0.4744520186562511	-0.36778553597679564
-0.4743909835000011	-0.3597134812120297
-0.4743299483437511	-0.3514352390511211
-0.4742689131875011	-0.3429538076450241
-0.4742078780312511	-0.3342757354159977
-0.4741468428750011	-0.32540419110353447
-0.4740858077187511	-0.3163455656739565
-0.4740247725625011	-0.3071042258229506
-0.4739637374062511	-0.2976848617034012
-0.4739027022500011	-0.2880950163560294
-0.4738416670937511	-0.2783377372483738
-0.4737806319375011	-0.2684200970397972
-0.4737195967812511	-0.25834640989421526
-0.4736585616250011	-0.24812383493179185
-0.4735975264687511	-0.2377579126428217
-0.4735364913125011	-0.22725319197556834
-0.4734754561562511	-0.2166178867157103
-0.4734144210000011	-0.20585538598575
-0.4733533858437511	-0.19497449162616187
-0.4732923506875011	-0.18397980424113602
-0.4732313155312511	-0.17287761489507536
-0.4731702803750011	-0.1616754336015181
-0.4731092452187511	-0.1503778881165489
-0.4730482100625011	-0.13899388949254954
-0.4729871749062511	-0.1275265695076541
-0.4729261397500011	-0.11598532491164089
-0.4728651045937511	-0.10437613938100322
-0.4728040694375011	-0.09270492128449682
-0.4727430342812511	-0.08097978482152414
-0.4726819991250011	-0.06920446220132598
-0.4726209639687511	-0.057389508527519374
-0.4725599288125011	-0.045537943457497634
-0.4724988936562511	-0.033659624837493116
-0.4724378585000011	-0.021761094033953692
-0.4723768233437511	-0.009846516202703761
-0.4723157881875011	0.0020733678792678864
-0.4722547530312511	0.013996664229449177
-0.4721937178750011	0.025911299260696456
-0.4721326827187511	0.03781389132521935
-0.4720716475625011	0.04969697945469363
-0.4720106124062511	0.061551831000298006
-0.4719495772500011	0.07337559279636773
-0.4718885420937511	0.08515508681624849
-0.4718275069375011	0.09689099484056117
-0.4717664717812511	0.10857129790146729
-0.4717054366250011	0.12019086364637215
-0.4716444014687511	0.13174487794737652
-0.4715833663125011	0.14322139382917087
-0.4715223311562511	0.15462156726558546
-0.4714612960000011	0.1659303981953254
-0.4714002608437511	0.17714803836867668
-0.4713392256875011	0.1882650965258629
-0.4712781905312511	0.19927401045605847
-0.4712171553750011	0.21017347600047595
-0.4711561202187511	0.22094809749386127
-0.4710950850625011	0.2316022376159679
-0.4710340499062511	0.24212175682789755
-0.4709730147500011	0.25250424356175616
-0.4709119795937511	0.2627442086321732
-0.4708509444375011	0.2728307574431799
-0.4707899092812511	0.2827669978721998
-0.4707288741250011	0.2925362214099298
-0.4706678389687511	0.30214214554700214
-0.4706068038125011	0.3115739873907037
-0.4705457686562511	0.320826855623647
-0.4704847335000011	0.3298998967852409
-0.4704236983437511	0.33877840004113446
-0.4703626631875011	0.3474679646723482
-0.4703016280312511	0.3559548175819174
-0.4702405928750011	0.3642397163674929
-0.4701795577187511	0.3723159951009498
-0.4701185225625011	0.3801757608612896
-0.4700574874062511	0.3878219391766368
-0.4699964522500011	0.3952404045253259
-0.4699354170937511	0.4024358971740695
-0.4698743819375011	0.4093976439330354
-0.4698133467812511	0.41612434455894215
-0.4697523116250011	0.42261395023973536
-0.4696912764687511	0.4288564407253543
