Time	Frequency
-0.5000047676250006	5.654952575869128e-24
-0.49994373246875057	5.915266502498855e-24
-0.49988269731250057	6.171094019692771e-24
-0.49982166215625057	6.422153112863554e-24
-0.49976062700000057	6.668562800093308e-24
-0.49969959184375057	6.909786913476565e-24
-0.49963855668750057	7.145809129969277e-24
-0.49957752153125057	7.37657044211602e-24
-0.49951648637500057	7.60154807409148e-24
-0.49945545121875057	7.820904331567651e-24
-0.49939441606250057	8.03435657758165e-24
-0.49933338090625057	8.24156536000292e-24
-0.49927234575000057	8.442724274890079e-24
-0.49921131059375057	8.637361952969274e-24
-0.49915027543750057	8.825397364751379e-24
-0.49908924028125057	9.006907254425253e-24
-0.49902820512500057	9.181371251807158e-24
-0.49896716996875057	9.348944118345866e-24
-0.49890613481250057	9.509493560110418e-24
-0.49884509965625057	9.662612629497201e-24
-0.49878406450000057	9.808554110310999e-24
-0.49872302934375057	9.946961097031115e-24
-0.49866199418750057	1.0077677580610706e-23
-0.49860095903125057	1.0200924190714978e-23
-0.49853992387500057	1.031622192868176e-23
-0.49847888871875057	1.0423666489856342e-23
-0.49841785356250057	1.052329245167973e-23
-0.49835681840625057	1.0614666214065585e-23
-0.49829578325000057	1.0698076721293126e-23
-0.49823474809375057	1.0773327660190066e-23
-0.49817371293750057	1.0840172144654516e-23
-0.49811267778125057	1.0898928070277441e-23
-0.49805164262500057	1.094922290327403e-23
-0.49799060746875057	1.0991086860794827e-23
-0.49792957231250057	1.1024714976834603e-23
-0.49786853715625057	1.1049691448427055e-23
-0.49780750200000057	1.1066284233722103e-23
-0.49774646684375057	1.1074465810972426e-23
-0.49768543168750057	1.1073948271592615e-23
-0.49762439653125057	1.10651182413918e-23
-0.49756336137500057	1.1047729935641549e-23
-0.49750232621875057	1.1021739437603905e-23
-0.49744129106250057	1.0987482088872682e-23
-0.49738025590625057	1.0944601117115963e-23
-0.49731922075000057	1.0893320212389566e-23
-0.49725818559375057	1.083378311534284e-23
-0.49719715043750057	1.0765691381109037e-23
-0.49713611528125057	1.0689455426650856e-23
-0.49707508012500057	1.0604969799494422e-23
-0.49701404496875057	1.0512143242421955e-23
-0.49695300981250057	1.0411420046968142e-23
-0.49689197465625057	1.0302511229956132e-23
-0.49683093950000057	1.0185605317738367e-23
-0.49676990434375057	1.0061006904427684e-23
-0.49670886918750057	9.928392851057243e-24
-0.49664783403125057	9.788203365786767e-24
-0.49658679887500057	9.640503978469997e-24
-0.49652576371875057	9.485109203529161e-24
-0.49646472856250057	9.322562637313211e-24
-0.49640369340625057	9.152694571598857e-24
-0.49634265825000057	8.975605881251572e-24
-0.49628162309375057	8.791766202917285e-24
-0.49622058793750057	8.600862015140146e-24
-0.49615955278125057	8.4032948535662e-24
-0.49609851762500057	8.199326706437774e-24
-0.49603748246875057	7.988703129938416e-24
-0.49597644731250057	7.772023266665791e-24
-0.49591541215625057	7.549249042269603e-24
-0.49585437700000057	7.32035519760627e-24
-0.49579334184375057	7.085992295747827e-24
-0.49573230668750057	6.845898647841201e-24
-0.49567127153125057	6.600350113261034e-24
-0.49561023637500057	6.349836036098472e-24
-0.49554920121875057	6.0940456265556176e-24
-0.49548816606250057	5.833547057586237e-24
-0.49542713090625057	5.568526338397257e-24
-0.49536609575000057	5.298806157975071e-24
-0.49530506059375057	5.025112183657761e-24
-0.49524402543750057	4.74732948292481e-24
-0.49518299028125057	4.465587460094295e-24
-0.49512195512500057	4.180555408590067e-24
-0.49506091996875057	3.89189306871371e-24
-0.49499988481250057	3.600072679662273e-24
-0.49493884965625057	3.305546834149576e-24
-0.49487781450000057	3.0079877876500225e-24
-0.49481677934375057	2.7081315897989703e-24
-0.49475574418750057	2.4060847536586318e-24
-0.49469470903125057	2.101723207150105e-24
-0.49463367387500057	1.795859679997583e-24
-0.49457263871875057	1.4882906065896153e-24
-0.49451160356250057	1.1792530763478614e-24
-0.49445056840625057	8.694345467187895e-25
-0.49438953325000057	5.584637842386479e-25
-0.49432849809375057	2.469175332114956e-25
-0.49426746293750057	-6.48225285729011e-26
-0.49420642778125057	-3.7704220444068506e-25
-0.49414539262500057	-6.889232133816975e-25
-0.49408435746875057	-1.000472495308832e-24
-0.49402332231250057	-1.3117358103406418e-24
-0.49396228715625057	-1.6218748252857552e-24
-0.49390125200000057	-1.931165661744194e-24
-0.49384021684375057	-2.2392694724601344e-24
-0.49377918168750057	-2.54554863745443e-24
-0.49371814653125057	-2.8504065446569864e-24
-0.49365711137500057	-3.153200784986862e-24
-0.49359607621875057	-3.453624596007836e-24
-0.49353504106250057	-3.751928411908516e-24
-0.49347400590625057	-4.047303985235695e-24
-0.49341297075000057	-4.339824405477813e-24
-0.49335193559375057	-4.629452645940948e-24
-0.49329090043750057	-4.9154283322659195e-24
-0.49322986528125057	-5.19805236036891e-24
-0.49316883012500057	-5.4769400674787486e-24
-0.49310779496875057	-5.751598239522753e-24
-0.49304675981250057	-6.022359092867221e-24
-0.49298572465625057	-6.288554686938158e-24
-0.49292468950000057	-6.5500438167535765e-24
-0.49286365434375057	-6.8070044296436e-24
-0.49280261918750057	-7.058691093973124e-24
-0.49274158403125057	-7.30525362454266e-24
-0.49268054887500057	-7.546567682187362e-24
-0.49261951371875057	-7.782035072346965e-24
-0.49255847856250057	-8.011957090070248e-24
-0.49249744340625057	-8.235907267742964e-24
-0.49243640825000057	-8.453580125896618e-24
-0.49237537309375057	-8.665231239146869e-24
-0.49231433793750057	-8.870256181434128e-24
-0.49225330278125057	-9.068663286156458e-24
-0.49219226762500057	-9.260503752722533e-24
-0.49213123246875057	-9.445202962237223e-24
-0.49207019731250057	-9.62298729572463e-24
-0.49200916215625057	-9.79362989530115e-24
-0.49194812700000057	-9.95676078499597e-24
-0.49188709184375057	-1.011265538272796e-23
-0.49182605668750057	-1.0260873794561328e-23
-0.49176502153125057	-1.0401339974688956e-23
-0.49170398637500057	-1.0534208986956682e-23
-0.49164295121875057	-1.0658984496378421e-23
-0.49158191606250057	-1.0775832490019344e-23
-0.49152088090625057	-1.0884674807598347e-23
-0.49145984575000057	-1.0985152958403956e-23
-0.49139881059375057	-1.1077553868052227e-23
-0.49133777543750057	-1.1161569943712255e-23
-0.49127674028125057	-1.1237088828662913e-23
-0.49121570512500057	-1.1304342844195833e-23
-0.49115466996875057	-1.1362920039571661e-23
-0.49109363481250057	-1.1412975947457824e-23
-0.49103259965625057	-1.1454551704958125e-23
-0.49097156450000057	-1.1487292446976653e-23
-0.49091052934375057	-1.15115229836137e-23
-0.49084949418750057	-1.152705906107322e-23
-0.49078845903125057	-1.153375556162997e-23
-0.49072742387500057	-1.153194961322828e-23
-0.49066638871875057	-1.1521301247338405e-23
-0.49060535356250057	-1.1501930350193379e-23
-0.49054431840625057	-1.1474029310476384e-23
-0.49048328325000057	-1.1437253917956339e-23
-0.49042224809375057	-1.139194568389666e-23
-0.49036121293750057	-1.1338069664820885e-23
-0.49030017778125057	-1.1275434368838768e-23
-0.49023914262500057	-1.1204469301379027e-23
-0.49017810746875057	-1.1124937391173436e-23
-0.49011707231250057	-1.1036897528785422e-23
-0.49005603715625057	-1.0940699697014046e-23
-0.48999500200000057	-1.0836032071520001e-23
-0.48993396684375057	-1.0723212663381064e-23
-0.48987293168750057	-1.0602378248042783e-23
-0.48981189653125057	-1.0473293096608242e-23
-0.48975086137500057	-1.0336442631661935e-23
-0.48968982621875057	-1.0191740864189527e-23
-0.48962879106250057	-1.0039169808008095e-23
-0.48956775590625057	-9.879201339138013e-24
-0.48950672075000057	-9.7115846742141e-24
-0.48944568559375057	-9.536578794617507e-24
-0.48938465043750057	-9.354513279638819e-24
-0.48932361528125057	-9.165142155203946e-24
-0.48926258012500057	-8.968935522350305e-24
-0.48920154496875057	-8.76597426438584e-24
-0.48914050981250057	-8.556165319672129e-24
-0.48907947465625057	-8.340056287600989e-24
-0.48901843950000057	-8.117531533195032e-24
-0.48895740434375057	-7.888775606294171e-24
-0.48889636918750057	-7.654237973281953e-24
-0.48883533403125057	-7.413687774401913e-24
-0.48877429887500057	-7.167554292380468e-24
-0.48871326371875057	-6.916092569463373e-24
-0.48865222856250057	-6.659180093186194e-24
-0.48859119340625057	-6.3973975795104484e-24
-0.48853015825000057	-6.130735977565559e-24
-0.48846912309375057	-5.859271353962854e-24
-0.48840808793750057	-5.583564860111426e-24
-0.48834705278125057	-5.303476635427169e-24
-0.48828601762500057	-5.019374472858686e-24
-0.48822498246875057	-4.7316242451641646e-24
-0.48816394731250057	-4.440071147633787e-24
-0.48810291215625057	-4.1452987945366456e-24
-0.48804187700000057	-3.847410222283188e-24
-0.48798084184375057	-3.546419355214202e-24
-0.48791980668750057	-3.2429906536446468e-24
-0.48785877153125057	-2.937002682237704e-24
-0.48779773637500057	-2.6287173090932113e-24
-0.48773670121875057	-2.3186704274876195e-24
-0.48767566606250057	-2.00666749577366e-24
-0.48761463090625057	-1.6932482044670193e-24
-0.48755359575000057	-1.3786811089600454e-24
-0.48749256059375057	-1.0628569727896453e-24
-0.48743152543750057	-7.464718887292279e-25
-0.48737049028125057	-4.29502730511575e-25
-0.48730945512500057	-1.1207569481630403e-25
-0.48724841996875057	2.0513837010168614e-25
-0.48718738481250057	5.223342069728582e-25
-0.48712634965625057	8.390777601153993e-25
-0.48706531450000057	1.1549505828206775e-24
-0.48700427934375057	1.4701943654188016e-24
-0.48694324418750057	1.784097637884857e-24
-0.48688220903125057	2.0965089551827504e-24
-0.48682117387500057	2.407513963932511e-24
-0.48676013871875057	2.7163744546497986e-24
-0.48669910356250057	3.0232306243744765e-24
-0.48663806840625057	3.32782517499882e-24
-0.48657703325000057	3.629544768768513e-24
-0.48651599809375057	3.92870181318852e-24
-0.48645496293750057	4.224718357603486e-24
-0.48639392778125057	4.5172685098826424e-24
-0.48633289262500057	4.8066171040682745e-24
-0.48627185746875057	5.091988785355295e-24
-0.48621082231250057	5.373405708331178e-24
-0.48614978715625057	5.650879095553215e-24
-0.48608875200000057	5.9236420994234635e-24
-0.48602771684375057	6.192001319871338e-24
-0.48596668168750057	6.455609726863435e-24
-0.48590564653125057	6.71391514152154e-24
-0.48584461137500057	6.96733610404014e-24
-0.48578357621875057	7.215216308695816e-24
-0.48572254106250057	7.457345508903594e-24
-0.48566150590625057	7.69400958254291e-24
-0.48560047075000057	7.924417948655183e-24
-0.48553943559375057	8.148739026894665e-24
-0.48547840043750057	8.366938272407825e-24
-0.48541736528125057	8.578302623372041e-24
-0.48535633012500057	8.783268819741585e-24
-0.48529529496875057	8.981433041478008e-24
-0.48523425981250057	9.172349368322685e-24
-0.48517322465625057	9.35648907352968e-24
-0.48511218950000057	9.533179356598473e-24
-0.48505115434375057	9.702383117589926e-24
-0.48499011918750057	9.86438146136209e-24
-0.48492908403125057	1.0018392404477246e-23
-0.48486804887500057	1.0164728630488996e-23
-0.48480701371875057	1.030335080745132e-23
-0.48474597856250057	1.0433639976214821e-23
-0.48468494340625057	1.0556106524344594e-23
-0.48462390825000057	1.0670350986907076e-23
-0.48456287309375057	1.077607528570421e-23
-0.48450183793750057	1.0873760433035078e-23
-0.48444080278125057	1.0962789398959099e-23
-0.48437976762500057	1.1043261627674332e-23
-0.48431873246875057	1.1115422842376536e-23
-0.48425769731250057	1.1178639116160284e-23
-0.48419666215625057	1.1233320160175906e-23
-0.48413562700000057	1.1279381114265807e-23
-0.48407459184375057	1.1316390903026134e-23
-0.48401355668750057	1.1344876632198727e-23
-0.48395252153125057	1.1364464792205168e-23
-0.48389148637500057	1.1375065516159236e-23
-0.48383045121875057	1.1377103953657365e-23
-0.48376941606250057	1.1370074699356723e-23
-0.48370838090625057	1.1354228852885976e-23
-0.48364734575000057	1.1329734159012461e-23
-0.48358631059375057	1.129616495407235e-23
-0.48352527543750057	1.1253986441942825e-23
-0.48346424028125057	1.1203070162415088e-23
-0.48340320512500057	1.1143240332800787e-23
-0.48334216996875057	1.1074984072977542e-23
-0.48328113481250057	1.0997975480830392e-23
-0.48322009965625057	1.0912352130498776e-23
-0.48315906450000057	1.0818434133860921e-23
-0.48309802934375057	1.071587700229428e-23
-0.48303699418750057	1.0605075121898544e-23
-0.48297595903125057	1.0486088324951093e-23
-0.48291492387500057	1.0358734754483333e-23
-0.48285388871875057	1.0223512100220824e-23
-0.48279285356250057	1.008025593063128e-23
-0.48273181840625057	9.929046600116034e-24
-0.48267078325000057	9.770289382276194e-24
-0.48260974809375057	9.603743128185413e-24
-0.48254871293750057	9.429765308787444e-24
-0.48248767778125057	9.248542451888832e-24
-0.48242664262500057	9.059914792915142e-24
-0.48236560746875057	8.864383825483635e-24
-0.48230457231250057	8.661896664318624e-24
-0.48224353715625057	8.452527073869181e-24
-0.48218250200000057	8.236772066089028e-24
-0.48212146684375057	8.014442142846294e-24
-0.48206043168750057	7.785862702676077e-24
-0.48199939653125057	7.551345657762972e-24
-0.48193836137500057	7.310722441899724e-24
-0.48187732621875057	7.064522372239973e-24
-0.48181629106250057	6.812832625403017e-24
-0.48175525590625057	6.5556610450324344e-24
-0.48169422075000057	6.2935636567000005e-24
-0.48163318559375057	6.0264277603122575e-24
-0.48157215043750057	5.7545360642321006e-24
-0.48151111528125057	5.4783376319001354e-24
-0.48145008012500057	5.197651689562195e-24
-0.48138904496875057	4.9129804199882984e-24
-0.48132800981250057	4.6245455762033636e-24
-0.48126697465625057	4.332286982771343e-24
-0.48120593950000057	4.036833991736486e-24
-0.48114490434375057	3.7381753922432826e-24
-0.48108386918750057	3.4364714381183685e-24
-0.48102283403125057	3.1322824735031875e-24
-0.48096179887500057	2.8254525580587944e-24
-0.48090076371875057	2.5164202619973886e-24
-0.48083972856250057	2.2055780542492983e-24
-0.48077869340625057	1.8927960372557e-24
-0.48071765825000057	1.578668058113267e-24
-0.48065662309375057	1.2633111975065759e-24
-0.48059558793750057	9.46783140925575e-25
-0.48053455278125057	6.297229405716725e-25
-0.48047351762500057	3.1204898442007206e-25
-0.48041248246875057	-5.9297598915397225e-27
-0.48035144731250057	-3.2371887013975627e-25
-0.48029041215625057	-6.414621089658347e-25
-0.48022937700000057	-9.58625784894223e-25
-0.48016834184375057	-1.2749618547625894e-24
-0.48010730668750057	-1.590502115902095e-24
-0.48004627153125057	-1.9046131125443014e-24
-0.47998523637500057	-2.2173016649583242e-24
-0.47992420121875057	-2.528367776727802e-24
-0.47986316606250057	-2.8372363637316668e-24
-0.47980213090625057	-3.144060617263346e-24
-0.47974109575000057	-3.4484070818622145e-24
-0.47968006059375057	-3.7499182246444415e-24
-0.47961902543750057	-4.048703006151177e-24
-0.47955799028125057	-4.344156295954675e-24
-0.47949695512500057	-4.6362064216331634e-24
-0.47943591996875057	-4.924783626015346e-24
-0.47937488481250057	-5.209277056724793e-24
-0.47931384965625057	-5.4898298808010316e-24
-0.47925281450000057	-5.766102580432948e-24
-0.47919177934375057	-6.037652494553565e-24
-0.47913074418750057	-6.3047028534765724e-24
-0.47906970903125057	-6.566691246199155e-24
-0.47900867387500057	-6.823438135809037e-24
-0.47894763871875057	-7.075044026128713e-24
-0.47888660356250057	-7.320871490906437e-24
-0.47882556840625057	-7.561026032622646e-24
-0.47876453325000057	-7.795346746823e-24
-0.47870349809375057	-8.023292926713006e-24
-0.47864246293750057	-8.245146928065927e-24
-0.47858142778125057	-8.460475382567868e-24
-0.47852039262500057	-8.66899001896994e-24
-0.47845935746875057	-8.870938431003673e-24
-0.47839832231250057	-9.065696913364663e-24
-0.47833728715625057	-9.253316940241595e-24
-0.47827625200000057	-9.433856416796534e-24
-0.47821521684375057	-9.606681978682085e-24
-0.47815418168750057	-9.772108067188399e-24
-0.47809314653125057	-9.929895238677846e-24
-0.47803211137500057	-1.007959682387111e-23
-0.47797107621875057	-1.0221616102550414e-23
-0.47791004106250057	-1.0355450234923718e-23
-0.47784900590625057	-1.0481005527149743e-23
-0.47778797075000057	-1.0598568571701557e-23
-0.47772693559375057	-1.0707488681735451e-23
-0.47766590043750057	-1.0808029133863404e-23
-0.47760486528125057	-1.0900209256485512e-23
-0.47754383012500057	-1.0983457144176192e-23
-0.47748279496875057	-1.1058267052454649e-23
-0.47742175981250057	-1.1124323062992386e-23
-0.47736072465625057	-1.118134037427056e-23
-0.47729968950000057	-1.1229844160581492e-23
-0.47723865434375057	-1.1269256548895474e-23
-0.47717761918750057	-1.1299678960797194e-23
-0.47711658403125057	-1.1321448295152172e-23
-0.47705554887500057	-1.1333918492434811e-23
-0.47699451371875057	-1.1337544508164967e-23
-0.47693347856250057	-1.1332328435735165e-23
-0.47687244340625057	-1.1317789096752622e-23
-0.47681140825000057	-1.1294569064728323e-23
-0.47675037309375057	-1.1262319250047403e-23
-0.47668933793750057	-1.1220913780001258e-23
-0.47662830278125057	-1.1170950830367121e-23
-0.47656726762500057	-1.1111848129461853e-23
-0.47650623246875057	-1.1043897244255388e-23
-0.47644519731250057	-1.0967445930845972e-23
-0.47638416215625057	-1.0881905626604723e-23
-0.47632312700000057	-1.078789781901803e-23
-0.47626209184375057	-1.0685402051040453e-23
-0.47620105668750057	-1.0574058491382383e-23
-0.47614002153125057	-1.0454619649382612e-23
-0.47607898637500057	-1.0326727916961842e-23
-0.47601795121875057	-1.0190410528510198e-23
-0.47595691606250057	-1.0046313600743093e-23
-0.47589588090625057	-9.893902255800673e-24
-0.47583484575000057	-9.733596655194392e-24
-0.47577381059375057	-9.565749871903133e-24
-0.47571277543750057	-9.389906817192035e-24
-0.47565174028125057	-9.206761711517088e-24
-0.47559070512500057	-9.016280222720062e-24
-0.47552966996875057	-8.818273695525358e-24
-0.47546863481250057	-8.613506530434604e-24
-0.47540759965625057	-8.40167358020219e-24
-0.47534656450000057	-8.182967255987953e-24
-0.47528552934375057	-7.957971183203338e-24
-0.47522449418750057	-7.726278113421425e-24
-0.47516345903125057	-7.488420120262914e-24
-0.47510242387500057	-7.24467612568018e-24
-0.47504138871875057	-6.99478197872902e-24
-0.47498035356250057	-6.739448159416033e-24
-0.47491931840625057	-6.4786292956084076e-24
-0.47485828325000057	-6.2123526142421395e-24
-0.47479724809375057	-5.9412863614678056e-24
-0.47473621293750057	-5.665195205828836e-24
-0.47467517778125057	-5.384451590341377e-24
-0.47461414262500057	-5.09950802495698e-24
-0.47455310746875057	-4.8101233255008465e-24
-0.47449207231250057	-4.516898284654912e-24
-0.47443103715625057	-4.2199978526011385e-24
-0.47437000200000057	-3.919392209573679e-24
-0.47430896684375057	-3.6157496142121874e-24
-0.47424793168750057	-3.308987363701663e-24
-0.47418689653125057	-2.999347259395233e-24
-0.47412586137500057	-2.687360726295137e-24
-0.47406482621875057	-2.3728762725311935e-24
-0.47400379106250057	-2.0564069483008888e-24
-0.47394275590625057	-1.738235210360658e-24
-0.47388172075000057	-1.4183055674549112e-24
-0.47382068559375057	-1.09724455973692e-24
-0.47375965043750057	-7.750906015421058e-25
-0.47369861528125057	-4.5202894185196425e-25
-0.47363758012500057	-1.2861724454481407e-25
-0.47357654496875057	1.9524601231973262e-25
-0.47351550981250057	5.191175076492234e-25
-0.47345447465625057	8.426490496510487e-25
-0.47339343950000057	1.1659057146602401e-24
-0.47333240434375057	1.4882765063705084e-24
-0.47327136918750057	1.8096682049480932e-24
-0.47321033403125057	2.129967138715622e-24
-0.47314929887500057	2.4485694755111647e-24
-0.47308826371875057	2.7655700804893557e-24
-0.47302722856250057	3.0806030575923563e-24
-0.47296619340625057	3.39322219350481e-24
-0.47290515825000057	3.70355808590703e-24
-0.47284412309375057	4.011047907301528e-24
-0.47278308793750057	4.315504413001667e-24
-0.47272205278125057	4.616929492012788e-24
-0.47266101762500057	4.914693649376431e-24
-0.47259998246875057	5.2088522180127265e-24
-0.47253894731250057	5.499173897859858e-24
-0.47247791215625057	5.785128428283488e-24
-0.47241687700000057	6.066893398633479e-24
-0.47235584184375057	6.344001484066115e-24
-0.47229480668750057	6.616147945838555e-24
