Time	Frequency
-0.5000123970312487	-0.46466621743363684
-0.49995136187499867	-0.46412032429897154
-0.49989032671874867	-0.46334689259528994
-0.49982929156249867	-0.4623462362649501
-0.49976825640624867	-0.461118711108722
-0.49970722124999867	-0.45966478869287936
-0.49964618609374867	-0.4579851783676174
-0.49958515093749867	-0.45608068364899074
-0.49952411578124867	-0.4539520910373484
-0.49946308062499867	-0.4516003087710139
-0.49940204546874867	-0.4490264386031481
-0.49934101031249867	-0.44623172593014787
-0.49927997515624867	-0.44321752377689627
-0.49921893999999867	-0.4399851988649057
-0.49915790484374867	-0.4365361292478927
-0.49909686968749867	-0.43287192805949587
-0.49903583453124867	-0.428994452572213
-0.49897479937499867	-0.42490557888317587
-0.49891376421874867	-0.42060717772671635
-0.49885272906249867	-0.4161012317646081
-0.49879169390624867	-0.4113899215472623
-0.49873065874999867	-0.4064755379223599
-0.49866962359374867	-0.40136038425306203
-0.49860858843749867	-0.3960469173994108
-0.49854755328124867	-0.390537671557913
-0.49848651812499867	-0.38483517763640035
-0.49842548296874867	-0.3789423427189256
-0.49836444781249867	-0.3728622279442793
-0.49830341265624867	-0.36659751720029227
-0.49824237749999867	-0.36015095211064396
-0.49818134234374867	-0.35352570361157315
-0.49812030718749867	-0.3467252439266176
-0.49805927203124867	-0.3397530945282323
-0.49799823687499867	-0.33261240982414697
-0.49793720171874867	-0.3253063236784073
-0.49787616656249867	-0.31783857667804655
-0.49781513140624867	-0.310213010420935
-0.49775409624999867	-0.30243300088547564
-0.49769306109374867	-0.29450219713955933
-0.49763202593749867	-0.28642498352001045
-0.49757099078124867	-0.27820547313019434
-0.49750995562499867	-0.2698470857596268
-0.49744892046874867	-0.26135370740184305
-0.49738788531249867	-0.252729894028923
-0.49732685015624867	-0.2439798214393799
-0.49726581499999867	-0.23510763959678585
-0.49720477984374867	-0.2261179140112639
-0.49714374468749867	-0.2170149901866537
-0.49708270953124867	-0.20780303454431462
-0.49702167437499867	-0.19848659063914856
-0.49696063921874867	-0.18907064786105998
-0.49689960406249867	-0.1795597286311742
-0.49683856890624867	-0.16995788411593601
-0.49677753374999867	-0.16026988968621123
-0.49671649859374867	-0.1505010228636896
-0.49665546343749867	-0.14065634125327095
-0.49659442828124867	-0.13074039570598767
-0.49653339312499867	-0.12075752441767182
-0.49647235796874867	-0.11071273488834328
-0.49641132281249867	-0.10061130192768358
-0.49635028765624867	-0.09045811354707861
-0.49628925249999867	-0.08025810881877138
-0.49622821734374867	-0.07001648851151673
-0.49616718218749867	-0.0597383669123182
-0.49610614703124867	-0.049428588051945006
-0.49604511187499867	-0.03909202764332311
-0.49598407671874867	-0.028733791206370277
-0.49592304156249867	-0.018359107145538685
-0.49586200640624867	-0.007973318941909039
-0.49580097124999867	0.0024183583556045478
-0.49573993609374867	0.01281103647806651
-0.49567890093749867	0.02319975642163712
-0.49561786578124867	0.03357925578003329
-0.49555683062499867	0.04394423684856953
-0.49549579546874867	0.05428974911589999
-0.49543476031249867	0.06461095030301381
-0.49537372515624867	0.07490246217095474
-0.49531268999999867	0.08515874905962793
-0.49525165484374867	0.09537481871782254
-0.49519061968749867	0.1055461435966256
-0.49512958453124867	0.11566805057473996
-0.49506854937499867	0.1257350912633749
-0.49500751421874867	0.13574153381823043
-0.49494647906249867	0.14568261641320215
-0.49488544390624867	0.1555541937178673
-0.49482440874999867	0.1653512923320597
-0.49476337359374867	0.17506861311876218
-0.49470233843749867	0.1847014539734724
-0.49464130328124867	0.19424503079662614
-0.49458026812499867	0.20369437764378134
-0.49451923296874867	0.21304483308979877
-0.49445819781249867	0.22229203097258385
-0.49439716265624867	0.2314315764725417
-0.49433612749999867	0.24045874024100714
-0.49427509234374867	0.24936869211515475
-0.49421405718749867	0.25815689373319184
-0.49415302203124867	0.2668192398625333
-0.49409198687499867	0.27535164642804943
-0.49403095171874867	0.2837497487595841
-0.49396991656249867	0.29200914515625964
-0.49390888140624867	0.3001256477018124
-0.49384784624999867	0.3080954190789589
-0.49378681109374867	0.31591461960677225
-0.49372577593749867	0.3235791478276889
-0.49366474078124867	0.33108492873832723
-0.49360370562499867	0.33842827061494696
-0.49354267046874867	0.34560579536503844
-0.49348163531249867	0.35261394171534965
-0.49342060015624867	0.35944906677612
-0.49335956499999867	0.3661076286936704
-0.49329852984374867	0.3725861825711677
-0.49323749468749867	0.3788816352634082
-0.49317645953124867	0.3849908627368326
-0.49311542437499867	0.39091068944760593
-0.49305438921874867	0.39663832633366713
-0.49299335406249867	0.4021709007505765
-0.49293231890624867	0.40750534985053677
-0.49287128374999867	0.41263893341201247
-0.49281024859374867	0.41756920979059603
-0.49274921343749867	0.42229379867881334
-0.49268817828124867	0.4268103039825833
-0.49262714312499867	0.4311163764233329
-0.49256610796874867	0.43520979061479664
-0.49250507281249867	0.4390883723539768
-0.49244403765624867	0.4427501256481768
-0.49238300249999867	0.44619335892376477
-0.49232196734374867	0.44941643022084576
-0.49226093218749867	0.4524175512291342
-0.49219989703124867	0.45519501648915656
-0.49213886187499867	0.4577474507519436
-0.49207782671874867	0.4600736447950751
-0.49201679156249867	0.46217242547942067
-0.49195575640624867	0.4640426668645145
-0.49189472124999867	0.4656833143291215
-0.49183368609374867	0.4670935012557346
-0.49177265093749867	0.4682725187624798
-0.49171161578124867	0.46921974395643556
-0.49165058062499867	0.46993465797420964
-0.49158954546874867	0.47041684408974854
-0.49152851031249867	0.4706659882458519
-0.49146747515624867	0.4706819143372162
-0.49140643999999867	0.47046460071821344
-0.49134540484374867	0.4700141254496034
-0.49128436968749867	0.46933062126939773
-0.49122333453124867	0.4684143403641331
-0.49116229937499867	0.4672657237581395
-0.49110126421874867	0.46588532004105687
-0.49104022906249867	0.4642737754680478
-0.49097919390624867	0.4624319020476949
-0.49091815874999867	0.4603605189882272
-0.49085712359374867	0.4580604555497503
-0.49079608843749867	0.4555328471270907
-0.49073505328124867	0.4527791005708912
-0.49067401812499867	0.44980056943185937
-0.49061298296874867	0.4465985349906596
-0.49055194781249867	0.443174500080162
-0.49049091265624867	0.4395302524688645
-0.49042987749999867	0.4356675669234586
-0.49036884234374867	0.43158814593292294
-0.49030780718749867	0.4272940439903229
-0.49024677203124867	0.42278763726305696
-0.49018573687499867	0.41807109743597415
-0.49012470171874867	0.41314648039143104
-0.49006366656249867	0.40801607580398136
-0.49000263140624867	0.40268249393405847
-0.48994159624999867	0.39714860675244956
-0.48988056109374867	0.3914173105984751
-0.48981952593749867	0.385491295246191
-0.48975849078124867	0.37937305547581157
-0.48969745562499867	0.3730655050159238
-0.48963642046874867	0.3665722574173771
-0.48957538531249867	0.35989680452902817
-0.48951435015624867	0.35304213049478755
-0.48945331499999867	0.34601127331770776
-0.48939227984374867	0.3388077919706504
-0.48933124468749867	0.3314356559734026
-0.48927020953124867	0.3238985216450955
-0.48920917437499867	0.3161996909817298
-0.48914813921874867	0.3083430815751463
-0.48908710406249867	0.3003329755635437
-0.48902606890624867	0.2921732106369692
-0.48896503374999867	0.2838676366548575
-0.48890399859374867	0.27542043366409236
-0.48884296343749867	0.2668357626805827
-0.48878192828124867	0.25811797718829843
-0.48872089312499867	0.24927171074310542
-0.48865985796874867	0.2403011786814058
-0.48859882281249867	0.23121054978989197
-0.48853778765624867	0.22200454238572484
-0.48847675249999867	0.21268779041521366
-0.48841571734374867	0.20326496692712315
-0.48835468218749867	0.193740946072498
-0.48829364703124867	0.18412025978321334
-0.48823261187499867	0.17440756692093173
-0.48817157671874867	0.16460796107968242
-0.48811054156249867	0.1547263640725276
-0.48804950640624867	0.14476756574847716
-0.48798847124999867	0.13473667181410737
-0.48792743609374867	0.12463885611748746
-0.48786640093749867	0.11447886463544713
-0.48780536578124867	0.10426151623832533
-0.48774433062499867	0.09399242735615658
-0.48768329546874867	0.08367714148417747
-0.48762226031249867	0.07332035501435377
-0.48756122515624867	0.06292691754524972
-0.48750018999999867	0.05250225738215453
-0.48743915484374867	0.04205168163903445
-0.48737811968749867	0.03158051661529703
-0.48731708453124867	0.021094258792129936
-0.48725604937499867	0.01059801574871457
-0.48719501421874867	9.67302441627261e-05
-0.48713397906249867	-0.010404198440244256
-0.48707294390624867	-0.02089925215505725
-0.48701190874999867	-0.031383271932056596
-0.48695087359374867	-0.041851037603503644
-0.48688983843749867	-0.052297214495820386
-0.48682880328124867	-0.06271655348502844
-0.48676776812499867	-0.07310362334558608
-0.48670673296874867	-0.08345329996135528
-0.48664569781249867	-0.09376060326104543
-0.48658466265624867	-0.10402013822845606
-0.48652362749999867	-0.11422664847088215
-0.48646259234374867	-0.12437511229886926
-0.48640155718749867	-0.13446050825884923
-0.48634052203124867	-0.14447751698450756
-0.48627948687499867	-0.15442075310648237
-0.48621845171874867	-0.1642854677663629
-0.48615741656249867	-0.17406707367726892
-0.48609638140624867	-0.1837606268397319
-0.48603534624999867	-0.1933609655769234
-0.48597431109374867	-0.20286293607294262
-0.48591327593749867	-0.21226158649253984
-0.48585224078124867	-0.22155229050476208
-0.48579120562499867	-0.23073084809031005
-0.48573017046874867	-0.2397927523523564
-0.48566913531249867	-0.24873296088615174
-0.48560810015624867	-0.2575467954481316
-0.48554706499999867	-0.2662297380769841
-0.48548602984374867	-0.2747772128529828
-0.48542499468749867	-0.2831851198302563
-0.48536395953124867	-0.2914495848024152
-0.48530292437499867	-0.299566443510224
-0.48524188921874867	-0.3075311817446498
-0.48518085406249867	-0.3153393877212974
-0.48511981890624867	-0.3229872885637567
-0.48505878374999867	-0.33047119440628175
-0.48499774859374867	-0.33778702723648757
-0.48493671343749867	-0.34493122836501827
-0.48487567828124867	-0.3519006006527735
-0.48481464312499867	-0.358691188537545
-0.48475360796874867	-0.36529903011402715
-0.48469257281249867	-0.37172105893574764
-0.48463153765624867	-0.3779541349682421
-0.48457050249999867	-0.38399481524519236
-0.48450946734374867	-0.3898402702405713
-0.48444843218749867	-0.39548769784452503
-0.48438739703124867	-0.4009337620180929
-0.48432636187499867	-0.406175466622707
-0.48426532671874867	-0.4112103303085261
-0.48420429156249867	-0.41603594304328545
-0.48414325640624867	-0.42064980100968236
-0.48408222124999867	-0.4250492948898029
-0.48402118609374867	-0.42923210903349485
-0.48396015093749867	-0.433196262237211
-0.48389911578124867	-0.436939634330421
-0.48383808062499867	-0.440460133156124
-0.48377704546874867	-0.4437560010283883
-0.48371601031249867	-0.4468255404081904
-0.48365497515624867	-0.449667093881351
-0.48359393999999867	-0.4522792134651247
-0.48353290484374867	-0.45466050391306856
-0.48347186968749867	-0.4568095926968563
-0.48341083453124867	-0.45872529405857304
-0.48334979937499867	-0.46040665018506727
-0.48328876421874867	-0.4618528227301522
-0.48322772906249867	-0.46306298571033894
-0.48316669390624867	-0.46403636989777336
-0.48310565874999867	-0.46477238709398144
-0.48304462359374867	-0.46527063588350276
-0.48298358843749867	-0.46553082607649865
-0.48292255328124867	-0.46555276125173983
-0.48286151812499867	-0.46533633272846925
-0.48280048296874867	-0.4648815441038367
-0.48273944781249867	-0.46418857680564307
-0.48267841265624867	-0.46325775402442737
-0.48261737749999867	-0.4620894428965039
-0.48255634234374867	-0.4606841115575596
-0.48249530718749867	-0.4590424551160759
-0.48243427203124867	-0.4571652705269618
-0.48237323687499867	-0.4550533593797625
-0.48231220171874867	-0.4527077097660619
-0.48225116656249867	-0.4501295081301063
-0.48219013140624867	-0.44732001575208064
-0.48212909624999867	-0.44428057566751533
-0.48206806109374867	-0.4410125756740606
-0.48200702593749867	-0.437517511133411
-0.48194599078124867	-0.4337971819850138
-0.48188495562499867	-0.42985355075256504
-0.48182392046874867	-0.4256885532207274
-0.48176288531249867	-0.4213041534159179
-0.48170185015624867	-0.4167023359029713
-0.48164081499999867	-0.4118853627893818
-0.48157977984374867	-0.4068558182128448
-0.48151874468749867	-0.40161619197390086
-0.48145770953124867	-0.3961690075765919
-0.48139667437499867	-0.3905169756575314
-0.48133563921874867	-0.38466291556053805
-0.48127460406249867	-0.37860974693296884
-0.48121356890624867	-0.3723602987023544
-0.48115253374999867	-0.36591765437057777
-0.48109149859374867	-0.35928538020128203
-0.48103046343749867	-0.3524668434749919
-0.48096942828124867	-0.3454650812864431
-0.48090839312499867	-0.3382834843562464
-0.48084735796874867	-0.3309258690841339
-0.48078632281249867	-0.32339604607947875
-0.48072528765624867	-0.31569781584442463
-0.48066425249999867	-0.30783484208053846
-0.48060321734374867	-0.29981082324078095
-0.48054218218749867	-0.29163004541950915
-0.48048114703124867	-0.2832969149919728
-0.48042011187499867	-0.27481548417022506
-0.48035907671874867	-0.266189698658629
-0.48029804156249867	-0.2574237128619417
-0.48023700640624867	-0.24852226012342005
-0.48017597124999867	-0.2394903390436868
-0.48011493609374867	-0.23033236828343268
-0.48005390093749867	-0.2210523118648504
-0.47999286578124867	-0.21165462936558913
-0.47993183062499867	-0.20214448165948457
-0.47987079546874867	-0.1925270856789487
-0.47980976031249867	-0.182807312375044
-0.47974872515624867	-0.1729898210772986
-0.47968768999999867	-0.16307939080773173
-0.47962665484374867	-0.15308094273469933
-0.47956561968749867	-0.14299954470018017
-0.47950458453124867	-0.13284057251675982
-0.47944354937499867	-0.12260923532474077
-0.47938251421874867	-0.11231058938310924
-0.47932147906249867	-0.1019500612411533
-0.47926044390624867	-0.09153265942304331
-0.47919940874999867	-0.08106318534405985
-0.47913837359374867	-0.07054750936401803
-0.47907733843749867	-0.059991533230605014
-0.47901630328124867	-0.0494000606358227
-0.47895526812499867	-0.03877792497090867
-0.47889423296874867	-0.028130782491622534
-0.47883319781249867	-0.017464443626983656
-0.47877216265624867	-0.006784495264098662
-0.47871112749999867	0.0039037083540675263
-0.47865009234374867	0.014595020579185885
-0.47858905718749867	0.025284123315519293
-0.47852802203124867	0.035965517765175994
-0.47846698687499867	0.04663372781460569
-0.47840595171874867	0.057283073658266175
-0.47834491656249867	0.06790788529756875
-0.47828388140624867	0.07850305627441097
-0.47822284624999867	0.08906345121876573
-0.47816181109374867	0.09958344468110326
-0.47810077593749867	0.11005752413295476
-0.47803974078124867	0.12048040733024257
-0.47797870562499867	0.13084686250388744
-0.47791767046874867	0.14115167321360195
-0.47785663531249867	0.15138937445004289
-0.47779560015624867	0.16155447645291704
-0.47773456499999867	0.1716419708139477
-0.47767352984374867	0.18164691132477742
-0.47761249468749867	0.1915640149695845
-0.47755145953124867	0.20138816395237813
-0.47749042437499867	0.21111444953149866
-0.47742938921874867	0.22073768909475897
-0.47736835406249867	0.23025278527646278
-0.47730731890624867	0.23965500878006224
-0.47724628374999867	0.24893963770117655
-0.47718524859374867	0.2581019475338705
-0.47712421343749867	0.26713704408192107
-0.47706317828124867	0.27604008498841526
-0.47700214312499867	0.2848067303928115
-0.47694110796874867	0.29343248334104927
-0.47688007281249867	0.3019127046868454
-0.47681903765624867	0.31024322555642947
-0.47675800249999867	0.31841973020761033
-0.47669696734374867	0.3264376365749166
-0.47663593218749867	0.3342928653264063
-0.47657489703124867	0.34198165004878234
-0.47651386187499867	0.3495000106011964
-0.47645282671874867	0.35684388187772925
-0.47639179156249867	0.3640093442360127
-0.47633075640624867	0.3709926565614454
-0.47626972124999867	0.37779031675794866
-0.47620868609374867	0.38439889688244006
-0.47614765093749867	0.39081476689998185
-0.47608661578124867	0.3970344002288575
-0.47602558062499867	0.4030547753424242
-0.47596454546874867	0.4088729792412677
-0.47590351031249867	0.41448575007100824
-0.47584247515624867	0.4198898674595027
-0.47578143999999867	0.42508254280562163
-0.47572040484374867	0.4300612461951106
-0.47565936968749867	0.43482341892716025
-0.47559833453124867	0.4393664954125969
-0.47553729937499867	0.44368804849375026
-0.47547626421874867	0.44778562520424986
-0.47541522906249867	0.45165695323463884
-0.47535419390624867	0.4553002063082256
-0.47529315874999867	0.4587135507766266
-0.47523212359374867	0.46189495823781446
-0.47517108843749867	0.46484260093191465
-0.47511005328124867	0.4675550202177116
-0.47504901812499867	0.4700308256781994
-0.47498798296874867	0.47226852809423175
-0.47492694781249867	0.47426681818312144
-0.47486591265624867	0.4760246672023459
-0.47480487749999867	0.47754112021149037
-0.47474384234374867	0.478815279053046
-0.47468280718749867	0.4798463864011745
-0.47462177203124867	0.4806338037728427
-0.47456073687499867	0.4811770237899984
-0.47449970171874867	0.4814756798826603
-0.47443866656249867	0.48152951735546
-0.47437763140624867	0.48133840524462257
-0.47431659624999867	0.48090235372275464
-0.47425556109374867	0.4802214912681124
-0.47419452593749867	0.47929607175214206
-0.47413349078124867	0.47812648817150516
-0.47407245562499867	0.4767132011624051
-0.47401142046874867	0.4750567785945669
-0.47395038531249867	0.4731580074150125
-0.47388935015624867	0.47101782178285495
-0.47382831499999867	0.4686372355016147
-0.47376727984374867	0.466017360821298
-0.47370624468749867	0.4631593652433396
-0.47364520953124867	0.4600645379757053
-0.47358417437499867	0.45673445809973195
-0.47352313921874867	0.45317087038804627
-0.47346210406249867	0.4493754193896652
-0.47340106890624867	0.445349802865318
-0.47334003374999867	0.44109606942229923
-0.47327899859374867	0.4366163952208333
-0.47321796343749867	0.43191290498137447
-0.47315692828124867	0.42698797658695387
-0.47309589312499867	0.421844072254181
-0.47303485796874867	0.41648353600628973
-0.47297382281249867	0.41090906778844766
-0.47291278765624867	0.4051236026016938
-0.47285175249999867	0.3991299462784301
-0.47279071734374867	0.3929310517947073
-0.47272968218749867	0.38653001159051664
-0.47266864703124867	0.37992999527834975
-0.47260761187499867	0.3731343679090027
-0.47254657671874867	0.3661465054185047
-0.47248554156249867	0.35896985828657424
-0.47242450640624867	0.3516080560049926
-0.47236347124999867	0.3440647870887761
-0.47230243609374867	0.33634390559362215
-0.47224140093749867	0.32844931804539856
-0.47218036578124867	0.320384882530485
-0.47211933062499867	0.3121546379772715
-0.47205829546874867	0.30376274436547834
-0.47199726031249867	0.29521347114670216
-0.47193622515624867	0.28651117586042163
-0.47187518999999867	0.27766021106293204
-0.47181415484374867	0.2686651337533054
-0.47175311968749867	0.25953049870243117
-0.47169208453124867	0.25026082650386205
-0.47163104937499867	0.24086081849637786
-0.47157001421874867	0.23133508073112383
-0.47150897906249867	0.22168845232771686
-0.47144794390624867	0.21192616206593778
-0.47138690874999867	0.20205323813781145
-0.47132587359374867	0.19207456909658385
-0.47126483843749867	0.18199504189526494
-0.47120380328124867	0.17181954967446864
-0.47114276812499867	0.16155327529650798
-0.47108173296874867	0.15120175567727318
-0.47102069781249867	0.14077063387874697
-0.47095966265624867	0.13026516222354706
-0.47089862749999867	0.1196902936687341
-0.47083759234374867	0.10905114094566672
-0.47077655718749867	0.09835314484880395
-0.47071552203124867	0.08760210056621208
-0.47065448687499867	0.07680369993814253
-0.47059345171874867	0.06596352467933182
-0.47053241656249867	0.055087077644913246
-0.47047138140624867	0.044179377257033726
-0.47041034624999867	0.03324578761749777
-0.47034931109374867	0.022292513425991298
