Time	Frequency
-0.5000171653437491	0.3446195939993859
-0.49995613018749907	0.3372380192182835
-0.49989509503124907	0.3296788458163048
-0.49983405987499907	0.32195754055602543
-0.49977302471874907	0.31407309541733225
-0.49971198956249907	0.3060233538012074
-0.49965095440624907	0.2978205648449834
-0.49958991924999907	0.2894679267824734
-0.49952888409374907	0.28096452368333963
-0.49946784893749907	0.27231831484282987
-0.49940681378124907	0.26353512072125845
-0.49934577862499907	0.2546163845540799
-0.49928474346874907	0.24556674057202524
-0.49922370831249907	0.23639340135860917
-0.49916267315624907	0.22709904890273722
-0.49910163799999907	0.21768574110524916
-0.49904060284374907	0.20816361330484645
-0.49897956768749907	0.19853724321876168
-0.49891853253124907	0.18880475025192084
-0.49885749737499907	0.1789774127940925
-0.49879646221874907	0.1690620061025793
-0.49873542706249907	0.15905339494245552
-0.49867439190624907	0.14896456955003107
-0.49861335674999907	0.13880614087263674
-0.49855232159374907	0.1285690307914394
-0.49849128643749907	0.11826515801338676
-0.49843025128124907	0.1079091977661631
-0.49836921612499907	0.09749009747164017
-0.49830818096874907	0.08701847566829929
-0.49824714581249907	0.07651204828986202
-0.49818611065624907	0.065958033678064
-0.49812507549999907	0.055366403910773125
-0.49806404034374907	0.04475851035678414
-0.49800300518749907	0.03411923409688647
-0.49794197003124907	0.02345609843025529
-0.49788093487499907	0.012794353704616143
-0.49781989971874907	0.0021180841054924807
-0.49775886456249907	-0.008567893027626831
-0.49769782940624907	-0.019234790839346837
-0.49763679424999907	-0.029898392077565065
-0.49757575909374907	-0.04055670292377485
-0.49751472393749907	-0.051179257270978634
-0.49745368878124907	-0.06178268296836099
-0.49739265362499907	-0.07236607674322866
-0.49733161846874907	-0.08289478139586803
-0.49727058331249907	-0.09338692216139574
-0.49720954815624907	-0.10384630814483532
-0.49714851299999907	-0.11423471622615387
-0.49708747784374907	-0.12456839610760097
-0.49702644268749907	-0.13485453560187854
-0.49696540753124907	-0.145053136293468
-0.49690437237499907	-0.15518028001897535
-0.49684333721874907	-0.16524699555349576
-0.49678230206249907	-0.1752101075349305
-0.49672126690624907	-0.18508363093852878
-0.49666023174999907	-0.19488314068170365
-0.49659919659374907	-0.20456412356082507
-0.49653816143749907	-0.21413885547236916
-0.49647712628124907	-0.22362702315957408
-0.49641609112499907	-0.2329815276074695
-0.49635505596874907	-0.24221184414120392
-0.49629402081249907	-0.25134349858266647
-0.49623298565624907	-0.26032902224973326
-0.49617195049999907	-0.26917368097670064
-0.49611091534374907	-0.2779065662691005
-0.49604988018749907	-0.2864804027646636
-0.49598884503124907	-0.2948975863763271
-0.49592780987499907	-0.30319152389128456
-0.49586677471874907	-0.31131489689896835
-0.49580573956249907	-0.31926554287058967
-0.49574470440624907	-0.3270808327054997
-0.49568366924999907	-0.3347154719940217
-0.49562263409374907	-0.34216362174436543
-0.49556159893749907	-0.3494650104709719
-0.49550056378124907	-0.3565749705828806
-0.49543952862499907	-0.3634844288313007
-0.49537849346874907	-0.3702374756551014
-0.49531745831249907	-0.37679086687494895
-0.49525642315624907	-0.3831300435101587
-0.49519538799999907	-0.3893023222702885
-0.49513435284374907	-0.3952679564288946
-0.49507331768749907	-0.40100769587892693
-0.49501228253124907	-0.4065707478151561
-0.49495124737499907	-0.411920698748209
-0.49489021221874907	-0.4170338103702696
-0.49482917706249907	-0.4219609387628489
-0.49476814190624907	-0.426669891352012
-0.49470710674999907	-0.4311328585737966
-0.49464607159374907	-0.4354014988654445
-0.49458503643749907	-0.43944755677096303
-0.49452400128124907	-0.44323884334859437
-0.49446296612499907	-0.44682777488306785
-0.49440193096874907	-0.45019156986035047
-0.49434089581249907	-0.45329407322973275
-0.49427986065624907	-0.4561868319045851
-0.49421882549999907	-0.4588522168486158
-0.49415779034374907	-0.46125084555536366
-0.49409675518749907	-0.46343333306496265
-0.49403572003124907	-0.46538747812845
-0.49397468487499907	-0.46707082014353646
-0.49391364971874907	-0.46853225962127826
-0.49385261456249907	-0.46976555133040776
-0.49379157940624907	-0.47072592914197275
-0.49373054424999907	-0.47145932551882463
-0.49366950909374907	-0.4719651169829281
-0.49360847393749907	-0.4721973589502608
-0.49354743878124907	-0.472198829365864
-0.49348640362499907	-0.47197431388547695
-0.49342536846874907	-0.47147716217527175
-0.49336433331249907	-0.4707463580124882
-0.49330329815624907	-0.4697918681901656
-0.49324226299999907	-0.4685671442309383
-0.49318122784374907	-0.4671069741073139
-0.49312019268749907	-0.4654262903172303
-0.49305915753124907	-0.4634794947967744
-0.49299812237499907	-0.46129647543407815
-0.49293708721874907	-0.45889637928063065
-0.49287605206249907	-0.4562358710226299
-0.49281501690624907	-0.45334016413943823
-0.49275398174999907	-0.45023148693013026
-0.49269294659374907	-0.4468690664356735
-0.49263191143749907	-0.4432736930291397
-0.49257087628124907	-0.43947014522283834
-0.49250984112499907	-0.43542062910020535
-0.49244880596874907	-0.4311418329941525
-0.49238777081249907	-0.4266609449491219
-0.49232673565624907	-0.42194338786177027
-0.49226570049999907	-0.4170008471466115
-0.49220466534374907	-0.4118619946337628
-0.49214363018749907	-0.4064971050250715
-0.49208259503124907	-0.4009139379224298
-0.49202155987499907	-0.3951411204252671
-0.49196052471874907	-0.38915337039713666
-0.49189948956249907	-0.38295534684871185
-0.49183845440624907	-0.3765751207393295
-0.49177741924999907	-0.36999153018246816
-0.49171638409374907	-0.3632065776615272
-0.49165534893749907	-0.35624797497002236
-0.49159431378124907	-0.3490991850058522
-0.49153327862499907	-0.34175927449987187
-0.49147224346874907	-0.33425428355822356
-0.49141120831249907	-0.32657273011472454
-0.49135017315624907	-0.3187119385422168
-0.49128913799999907	-0.3106952669604624
-0.49122810284374907	-0.3025154395243756
-0.49116706768749907	-0.29416934459774585
-0.49110603253124907	-0.2856785572793939
-0.49104499737499907	-0.2770397239805637
-0.49098396221874907	-0.26824815574048194
-0.49092292706249907	-0.25932156611927976
-0.49086189190624907	-0.2502609263468583
-0.49080085674999907	-0.24106337657511673
-0.49073982159374907	-0.23174408584144088
-0.49067878643749907	-0.222306640261263
-0.49061775128124907	-0.2127472574961091
-0.49055671612499907	-0.20307608636370542
-0.49049568096874907	-0.19330131063693987
-0.49043464581249907	-0.18342372330460543
-0.49037361065624907	-0.17344925953737886
-0.49031257549999907	-0.1633859322450382
-0.49025154034374907	-0.1532356974132808
-0.49019050518749907	-0.14300135671376665
-0.49012947003124907	-0.1326939424200109
-0.49006843487499907	-0.122318703984952
-0.49000739971874907	-0.11187428923161571
-0.48994636456249907	-0.10137166143265001
-0.48988532940624907	-0.09081883015203908
-0.48982429424999907	-0.08021241755743079
-0.48976325909374907	-0.06956419004459104
-0.48970222393749907	-0.05888383128019464
-0.48964118878124907	-0.048163911728843094
-0.48958015362499907	-0.037417421653613364
-0.48951911846874907	-0.026659542817668646
-0.48945808331249907	-0.01587918861172547
-0.48939704815624907	-0.00508591000555907
-0.48933601299999907	0.005701285567609343
-0.48927497784374907	0.016493633705381736
-0.48921394268749907	0.027282619429108552
-0.48915290753124907	0.038046749223011406
-0.48909187237499907	0.04880012648388357
-0.48903083721874907	0.05953612981270232
-0.48896980206249907	0.07022819296382571
-0.48890876690624907	0.08089113786462629
-0.48884773174999907	0.09152209598642531
-0.48878669659374907	0.1020915581969362
-0.48872566143749907	0.11261473517952406
-0.48866462628124907	0.12309201881072748
-0.48860359112499907	0.13349035341659193
-0.48854255596874907	0.14382402980272999
-0.48848152081249907	0.15409659100172524
-0.48842048565624907	0.16427346583644983
-0.48835945049999907	0.17437003771091228
-0.48829841534374907	0.18439209974054405
-0.48823738018749907	0.19430029836088397
-0.48817634503124907	0.204109880539291
-0.48811530987499907	0.21383230087234487
-0.48805427471874907	0.2234261140532698
-0.48799323956249907	0.23290432067810635
-0.48793220440624907	0.24228195757083065
-0.48787116924999907	0.2515156871478111
-0.48781013409374907	0.2606167285590102
-0.48774909893749907	0.26960436661625387
-0.48768806378124907	0.27843398454211715
-0.48762702862499907	0.2871153251346815
-0.48756599346874907	0.2956720962740088
-0.48750495831249907	0.3040570282587226
-0.48744392315624907	0.3122763340834149
-0.48738288799999907	0.32035962772615123
-0.48732185284374907	0.32826001644437897
-0.48726081768749907	0.3359794853535226
-0.48719978253124907	0.34355148700658533
-0.48713874737499907	0.350929667305555
-0.48707771221874907	0.35811247365536425
-0.48701667706249907	0.3651370963180066
-0.48695564190624907	0.37195766996474827
-0.48689460674999907	0.37856915656995593
-0.48683357159374907	0.38501300927644433
-0.48677253643749907	0.3912442306591068
-0.48671150128124907	0.39725294070854567
-0.48665046612499907	0.40308427765444993
-0.48658943096874907	0.40869585088776406
-0.48652839581249907	0.4140735440801886
-0.48646736065624907	0.41926514482269694
-0.48640632549999907	0.42423026246389134
-0.48634529034374907	0.42895021551035256
-0.48628425518749907	0.4334761020724643
-0.48622322003124907	0.4377710552912044
-0.48616218487499907	0.44181139118247376
-0.48610114971874907	0.44565007670626183
-0.48604011456249907	0.4492539502815025
-0.48597907940624907	0.45259446351487287
-0.48591804424999907	0.45572629143079896
-0.48585700909374907	0.45862129988535577
-0.48579597393749907	0.4612464653609036
-0.48573493878124907	0.46365665225245195
-0.48567390362499907	0.46582837390149856
-0.48561286846874907	0.46772454930351626
-0.48555183331249907	0.4694004245066876
-0.48549079815624907	0.4708380530985379
-0.48542976299999907	0.47199618913073266
-0.48536872784374907	0.47292910612500266
-0.48530769268749907	0.4736247583819222
-0.48524665753124907	0.47403865986788296
-0.48518562237499907	0.4742235038336322
-0.48512458721874907	0.4741731350137179
-0.48506355206249907	0.4738402040642003
-0.48500251690624907	0.473275096532137
-0.48494148174999907	0.472477928098417
-0.48488044659374907	0.4713993252130355
-0.48481941143749907	0.4700862875165647
-0.48475837628124907	0.46854485841766247
-0.48469734112499907	0.46672477910396143
-0.48463630596874907	0.4646693717300386
-0.48457527081249907	0.46239017041983865
-0.48451423565624907	0.4598365348555664
-0.48445320049999907	0.45704754683247006
-0.48439216534374907	0.45404010524975613
-0.48433113018749907	0.4507642050874984
-0.48427009503124907	0.447254254568554
-0.48420905987499907	0.44353197218277346
-0.48414802471874907	0.4395485753133826
-0.48408698956249907	0.4353332456624194
-0.48402595440624907	0.4309122309830189
-0.48396491924999907	0.42623945554161824
-0.48390388409374907	0.42133857341514086
-0.48384284893749907	0.4162387499330166
-0.48378181378124907	0.41089736737732213
-0.48372077862499907	0.40533346427974526
-0.48365974346874907	0.3995783432223176
-0.48359870831249907	0.3935925203721626
-0.48353767315624907	0.3873905762926107
-0.48347663799999907	0.38100637504542534
-0.48341560284374907	0.3744044692130535
-0.48335456768749907	0.3675938409555222
-0.48329353253124907	0.3606091494949793
-0.48323249737499907	0.3534205073490836
-0.48317146221874907	0.34603275525849075
-0.48311042706249907	0.33848009783608585
-0.48304939190624907	0.3307380726282021
-0.48298835674999907	0.32280822329300407
-0.48292732159374907	0.3147229494673173
-0.48286628643749907	0.30646218916912665
-0.48280525128124907	0.2980258207923509
-0.48274421612499907	0.28944581813266124
-0.48268318096874907	0.2807059957835775
-0.48262214581249907	0.2718028394538217
-0.48256111065624907	0.26276707391766807
-0.48250007549999907	0.25358836559132536
-0.48243904034374907	0.2442607495864126
-0.48237800518749907	0.23481113077356902
-0.48231697003124907	0.2252345681319494
-0.48225593487499907	0.21552594445043052
-0.48219489971874907	0.20570885703937483
-0.48213386456249907	0.19578070589342514
-0.48207282940624907	0.18573545230789515
-0.48201179424999907	0.17559406856975496
-0.48195075909374907	0.16535904912994884
-0.48188972393749907	0.15502553903619387
-0.48182868878124907	0.14461018204527423
-0.48176765362499907	0.13411770400460818
-0.48170661846874907	0.12354345326308931
-0.48164558331249907	0.11290021664535015
-0.48158454815624907	0.1021972889995846
-0.48152351299999907	0.0914330565571556
-0.48146247784374907	0.0806149445622079
-0.48140144268749907	0.06975280365996937
-0.48134040753124907	0.058847756685200626
-0.48127937237499907	0.04790396112710095
-0.48121833721874907	0.036933228609684066
-0.48115730206249907	0.02593991716149074
-0.48109626690624907	0.014923274706100557
-0.48103523174999907	0.003894803275373451
-0.48097419659374907	-0.007136934432174648
-0.48091316143749907	-0.018174597350991004
-0.48085212628124907	-0.029206815367733
-0.48079109112499907	-0.04022336278439089
-0.48073005596874907	-0.05123065937249323
-0.48066902081249907	-0.06221689877865793
-0.48060798565624907	-0.07316723633603223
-0.48054695049999907	-0.08409098690093915
-0.48048591534374907	-0.09497827954325827
-0.48042488018749907	-0.10581023401467247
-0.48036384503124907	-0.11659846406238016
-0.48030280987499907	-0.12733567877747598
-0.48024177471874907	-0.13799892760242938
-0.48018073956249907	-0.14860112680348403
-0.48011970440624907	-0.1591373030897155
-0.48005866924999907	-0.16958054542299747
-0.47999763409374907	-0.17994554502467802
-0.47993659893749907	-0.1902310026337141
-0.47987556378124907	-0.2004055764264584
-0.47981452862499907	-0.21048378089629824
-0.47975349346874907	-0.22046889841120387
-0.47969245831249907	-0.23032707661380983
-0.47963142315624907	-0.24007163198299106
-0.47957038799999907	-0.24970881252584473
-0.47950935284374907	-0.2592025495936717
-0.47944831768749907	-0.26856619090273254
-0.47938728253124907	-0.27780974203961145
-0.47932624737499907	-0.28689450971215813
-0.47926521221874907	-0.29583318584658563
-0.47920417706249907	-0.3046395134780917
-0.47914314190624907	-0.31327167318507854
-0.47908210674999907	-0.32174124243903934
-0.47902107159374907	-0.3300673734408262
-0.47896003643749907	-0.33820644146366113
-0.47889900128124907	-0.3461675054428055
-0.47883796612499907	-0.3539739663056398
-0.47877693096874907	-0.361580610963297
-0.47871589581249907	-0.3689940961176493
-0.47865486065624907	-0.3762429738197898
-0.47859382549999907	-0.3832811587164615
-0.47853279034374907	-0.3901116593466016
-0.47847175518749907	-0.39676778416556957
-0.47841072003124907	-0.4032036388124925
-0.47834968487499907	-0.4094184942803801
-0.47828864971874907	-0.41544998862093546
-0.47822761456249907	-0.4212525030517103
-0.47816657940624907	-0.4268210668082974
-0.47810554424999907	-0.43219791285921755
-0.47804450909374907	-0.4373391534054237
-0.47798347393749907	-0.44223533509805857
-0.47792243878124907	-0.4469319453794505
-0.47786140362499907	-0.45138665153536467
-0.47780036846874907	-0.4555856741833482
-0.47773933331249907	-0.4595783814470991
-0.47767829815624907	-0.463325125528448
-0.47761726299999907	-0.4668073053535358
-0.47755622784374907	-0.47007686661641884
-0.47749519268749907	-0.4730968249929145
-0.47743415753124907	-0.4758440479568612
-0.47737312237499907	-0.4783736828374087
-0.47731208721874907	-0.48065246026065245
-0.47725105206249907	-0.48265178195837966
-0.47719001690624907	-0.4844285510926553
-0.47712898174999907	-0.4859541315848702
-0.47706794659374907	-0.4871951441894249
-0.47700691143749907	-0.4882096599398171
-0.47694587628124907	-0.4889741627582172
-0.47688484112499907	-0.48945057757424965
-0.47682380596874907	-0.48969716917415046
-0.47676277081249907	-0.4896960063726759
-0.47670173565624907	-0.4894048432125438
-0.47664070049999907	-0.4888814536311647
-0.47657966534374907	-0.4881137630500791
-0.47651863018749907	-0.487055694514894
-0.47645759503124907	-0.4857638587433651
-0.47639655987499907	-0.48423248280414943
-0.47633552471874907	-0.4824121344181835
-0.47627448956249907	-0.480357216635126
-0.47621345440624907	-0.47806832430548407
-0.47615241924999907	-0.4754934136655827
-0.47609138409374907	-0.4726841147695065
-0.47603034893749907	-0.4696477634895875
-0.47596931378124907	-0.46633042992396634
-0.47590827862499907	-0.4627796228131877
-0.47584724346874907	-0.45900892211532257
-0.47578620831249907	-0.45496383653951145
-0.47572517315624907	-0.45068758230936823
-0.47566413799999907	-0.4461995225131257
-0.47560310284374907	-0.44144546608381896
-0.47554206768749907	-0.4364638199884975
-0.47548103253124907	-0.4312788265304123
-0.47541999737499907	-0.4258372137261934
-0.47535896221874907	-0.42017279747620573
-0.47529792706249907	-0.4143149922762808
-0.47523689190624907	-0.4082118155502168
-0.47517585674999907	-0.40189086461826967
-0.47511482159374907	-0.39538611152877545
-0.47505378643749907	-0.38864923342436913
-0.47499275128124907	-0.3817020817883757
-0.47493171612499907	-0.3745813374063747
-0.47487068096874907	-0.36724228415155485
-0.47480964581249907	-0.359701173061516
-0.47474861065624907	-0.3519966462980797
-0.47468757549999907	-0.3440886364355734
-0.47462654034374907	-0.3359891259420709
-0.47456550518749907	-0.32773821112202645
-0.47450447003124907	-0.31929953746177087
-0.47444343487499907	-0.31067948108339816
-0.47438239971874907	-0.3019190645053635
-0.47432136456249907	-0.29298794290177044
-0.47426032940624907	-0.28388822220510274
-0.47419929424999907	-0.2746604412472816
-0.47413825909374907	-0.2652799286748459
-0.47407722393749907	-0.25574437133101013
-0.47401618878124907	-0.2460917954438023
-0.47395515362499907	-0.23630364919751912
-0.47389411846874907	-0.2263765514327686
-0.47383308331249907	-0.216346394947974
-0.47377204815624907	-0.20619818676451057
-0.47371101299999907	-0.19592605048321507
-0.47364997784374907	-0.1855647111087504
-0.47358894268749907	-0.17510459535913886
-0.47352790753124907	-0.16453669873850188
-0.47346687237499907	-0.15389203601750986
-0.47340583721874907	-0.14316759190026196
-0.47334480206249907	-0.13235502351273737
-0.47328376690624907	-0.12148050634346691
-0.47322273174999907	-0.11054323982679284
-0.47316169659374907	-0.09953499219887249
-0.47310066143749907	-0.08847952312216296
-0.47303962628124907	-0.07738085409883892
-0.47297859112499907	-0.06623161692120974
-0.47291755596874907	-0.055050156567094326
-0.47285652081249907	-0.04384254200191409
-0.47279548565624907	-0.03260328813732572
-0.47273445049999907	-0.021347353329645383
-0.47267341534374907	-0.010083963030025464
-0.47261238018749907	0.0011904803777302573
-0.47255134503124907	0.012466179456710807
-0.47249030987499907	0.023731850926881466
-0.47242927471874907	0.03498796891947412
-0.47236823956249907	0.046229695110025185
-0.47230720440624907	0.05744490358881446
-0.47224616924999907	0.06863015709254719
-0.47218513409374907	0.0797841750505145
-0.47212409893749907	0.09089429155796705
-0.47206306378124907	0.10195388459825244
-0.47200202862499907	0.1129662935119706
-0.47194099346874907	0.12391953699902965
-0.47187995831249907	0.1348025879390467
-0.47181892315624907	0.14562099235003756
-0.47175788799999907	0.1563637098587675
-0.47169685284374907	0.16701684635820982
-0.47163581768749907	0.1775894214012423
-0.47157478253124907	0.18807171302853118
-0.47151374737499907	0.19844462778649363
-0.47145271221874907	0.2087193765001605
-0.47139167706249907	0.2188899369820653
-0.47133064190624907	0.2289335175912792
-0.47126960674999907	0.23886242624334653
-0.47120857159374907	0.24867304196476056
-0.47114753643749907	0.2583382149028448
-0.47108650128124907	0.2678721520096403
-0.47102546612499907	0.27727577798930897
-0.47096443096874907	0.2865173135359508
-0.47090339581249907	0.29561038766496117
-0.47084236065624907	0.30456109858896363
-0.47078132549999907	0.31333515619863817
-0.47072029034374907	0.3219443238230958
-0.47065925518749907	0.3303981549436558
-0.47059822003124907	0.33866112304054574
-0.47053718487499907	0.34674504270921314
-0.47047614971874907	0.3546627008225734
