Time	Frequency
-0.5000324246875039	0.013274801732603038
-0.49997138953125386	0.024627773656895332
-0.49991035437500386	0.035966618892714214
-0.49984931921875386	0.04728463339468854
-0.49978828406250386	0.058575517764377416
-0.49972724890625386	0.06983378051305175
-0.49966621375000386	0.08105231477451869
-0.49960517859375386	0.09222510553994716
-0.49954414343750386	0.10334562842465904
-0.49948310828125386	0.11440790183072434
-0.49942207312500386	0.1254054831603528
-0.49936103796875386	0.13633243290536842
-0.49930000281250386	0.1471830036910288
-0.49923896765625386	0.15795002458817167
-0.49917793250000386	0.1686283615874984
-0.49911689734375386	0.17921139197733488
-0.49905586218750386	0.1896935103550603
-0.49899482703125386	0.20006882577340826
-0.49893379187500386	0.2103317252444327
-0.49887275671875386	0.22047569628526748
-0.49881172156250386	0.23049529289331108
-0.49875068640625386	0.24038541441086123
-0.49868965125000386	0.2501398379825438
-0.49862861609375386	0.2597537078306774
-0.49856758093750386	0.26922051297163596
-0.49850654578125386	0.27853581508802255
-0.49844551062500386	0.28769397523481965
-0.49838447546875386	0.29668997831002697
-0.49832344031250386	0.3055185454770148
-0.49826240515625386	0.3141751707744521
-0.49820137000000386	0.32265451196627465
-0.49814033484375386	0.33095128678297486
-0.49807929968750386	0.3390617404972232
-0.49801826453125386	0.34698059284783883
-0.49795722937500386	0.3547037386006692
-0.49789619421875386	0.36222605715448525
-0.49783515906250386	0.36954432823716726
-0.49777412390625386	0.37665393388789886
-0.49771308875000386	0.3835505862687291
-0.49765205359375386	0.39023021368327643
-0.49759101843750386	0.3966894517167194
-0.49752998328125386	0.40292466873758803
-0.49746894812500386	0.4089316181501631
-0.49740791296875386	0.4147074074172295
-0.49734687781250386	0.42024836520520553
-0.49728584265625386	0.4255517323891298
-0.49722480750000386	0.4306142869126023
-0.49716377234375386	0.43543304150239664
-0.49710273718750386	0.4400049121862156
-0.49704170203125386	0.44432756817558045
-0.49698066687500386	0.448398462248828
-0.49691963171875386	0.4522152280056266
-0.49685859656250386	0.4557754198023566
-0.49679756140625386	0.45907736443204
-0.49673652625000386	0.4621187515092928
-0.49667549109375386	0.4648980142572289
-0.49661445593750386	0.46741309835319317
-0.49655342078125386	0.4696628829221344
-0.49649238562500386	0.4716458819871026
-0.49643135046875386	0.4733606044066627
-0.49637031531250386	0.47480679112294605
-0.49630928015625386	0.47598235465717864
-0.49624824500000386	0.4768878967252733
-0.49618720984375386	0.4775212894158109
-0.49612617468750386	0.47788350666711904
-0.49606513953125386	0.47797300570341394
-0.49600410437500386	0.4777905080356979
-0.49594306921875386	0.47733578773793095
-0.49588203406250386	0.47660843641934336
-0.49582099890625386	0.47561005844792625
-0.49575996375000386	0.4743391968352319
-0.49569892859375386	0.4727987801550036
-0.49563789343750386	0.4709869311103115
-0.49557685828125386	0.46890714318799825
-0.49551582312500386	0.46655845136685026
-0.49545478796875386	0.4639432138146805
-0.49539375281250386	0.4610626954392625
-0.49533271765625386	0.4579175747941706
-0.49527168250000386	0.4545110598777003
-0.49521064734375386	0.4508425203859375
-0.49514961218750386	0.4469171127343576
-0.49508857703125386	0.4427336478840805
-0.49502754187500386	0.4382972153768989
-0.49496650671875386	0.43360810897953517
-0.49490547156250386	0.4286699047239473
-0.49484443640625386	0.4234853985786049
-0.49478340125000386	0.41805628097877195
-0.49472236609375386	0.4123872722893255
-0.49466133093750386	0.40647911520602537
-0.49460029578125386	0.40033794413928386
-0.49453926062500386	0.3939638843823436
-0.49447822546875386	0.3873633409393557
-0.49441719031250386	0.3805381920801372
-0.49435615515625386	0.37349262037331865
-0.49429512000000386	0.366230747982246
-0.49423408484375386	0.3587554393952999
-0.49417304968750386	0.3510727886453597
-0.49411201453125386	0.3431850372058554
-0.49405097937500386	0.33509857455850556
-0.49398994421875386	0.32681538247282144
-0.49392890906250386	0.3183419848866503
-0.49386787390625386	0.3096821746502176
-0.49380683875000386	0.30084148133907174
-0.49374580359375386	0.2918244092778751
-0.49368476843750386	0.2826348968587882
-0.49362373328125386	0.2732794495950226
-0.49356269812500386	0.2637622041557934
-0.49350166296875386	0.25409058571946097
-0.49344062781250386	0.244267386450115
-0.49337959265625386	0.23429931014909136
-0.49331855750000386	0.22419136374681325
-0.49325752234375386	0.21394936319445274
-0.49319648718750386	0.2035791636319398
-0.49313545203125386	0.19308646174616115
-0.49307441687500386	0.18247796449962947
-0.49301338171875386	0.1717580469838
-0.49295234656250386	0.1609337462409142
-0.49289131140625386	0.15000989098663223
-0.49283027625000386	0.13899406147530127
-0.49276924109375386	0.12789172074636446
-0.49270820593750386	0.11670902954980439
-0.49264717078125386	0.10545247882626209
-0.49258613562500386	0.09412809623929158
-0.49252510046875386	0.08274274450404581
-0.49246406531250386	0.07130198382243434
-0.49240303015625386	0.05981284800525233
-0.49234199500000386	0.04828108222412576
-0.49228095984375386	0.036714139870131515
-0.49221992468750386	0.025118121881211285
-0.49215888953125386	0.013499238301358312
-0.49209785437500386	0.0018637409777102216
-0.49203681921875386	-0.009781003777449
-0.49197578406250386	-0.021427827228081085
-0.49191474890625386	-0.03307217647384005
-0.49185371375000386	-0.0447068648793519
-0.49179267859375386	-0.056324752600164826
-0.49173164343750386	-0.06791917300634383
-0.49167060828125386	-0.07948394690014414
-0.49160957312500386	-0.09101245656170244
-0.49154853796875386	-0.10249828047200588
-0.49148750281250386	-0.11393515362824717
-0.49142646765625386	-0.1253164212600328
-0.49136543250000386	-0.13663611191387764
-0.49130439734375386	-0.14788688389281923
-0.49124336218750386	-0.15906231713694816
-0.49118232703125386	-0.17015690710421771
-0.49112129187500386	-0.18116490575854366
-0.49106025671875386	-0.19207903923829175
-0.49099922156250386	-0.20289243989014213
-0.49093818640625386	-0.21360019959039211
-0.49087715125000386	-0.22419639861307178
-0.49081611609375386	-0.23467492777190968
-0.49075508093750386	-0.2450289492993011
-0.49069404578125386	-0.2552529955795432
-0.49063301062500386	-0.2653409298240678
-0.49057197546875386	-0.275287800159505
-0.49051094031250386	-0.2850884901218722
-0.49044990515625386	-0.2947359547848724
-0.49038887000000386	-0.30422495808062533
-0.49032783484375386	-0.31355004692761185
-0.49026679968750386	-0.32270701957283376
-0.49020576453125386	-0.33168973519222644
-0.49014472937500386	-0.34049300430694823
-0.49008369421875386	-0.34911185532438244
-0.49002265906250386	-0.35754175608946287
-0.48996162390625386	-0.36577763242391637
-0.48990058875000386	-0.3738143390033096
-0.48983955359375386	-0.3816479801619278
-0.48977851843750386	-0.3892733851645371
-0.48971748328125386	-0.3966870789262776
-0.48965644812500386	-0.4038837337272022
-0.48959541296875386	-0.4108597176234671
-0.48953437781250386	-0.417610933813449
-0.48947334265625386	-0.424133765709226
-0.48941230750000386	-0.43042412315685935
-0.48935127234375386	-0.4364782111262095
-0.48929023718750386	-0.44229280748072847
-0.48922920203125386	-0.44786419751749856
-0.48916816687500386	-0.4531900074554086
-0.48910713171875386	-0.4582660099502156
-0.48904609656250386	-0.46308989599883976
-0.48898506140625386	-0.46765834021405883
-0.48892402625000386	-0.4719691281392095
-0.48886299109375386	-0.47601967730297445
-0.48880195593750386	-0.4798076015785487
-0.48874092078125386	-0.48333036204473073
-0.48867988562500386	-0.48658568496734006
-0.48861885046875386	-0.48957232548843593
-0.48855781531250386	-0.49228791017951595
-0.48849678015625386	-0.4947310312090002
-0.48843574500000386	-0.49689999306593285
-0.48837470984375386	-0.4987937836961784
-0.48831367468750386	-0.5004109314033621
-0.48825263953125386	-0.5017504418881754
-0.48819160437500386	-0.5028113865067608
-0.48813056921875386	-0.5035931985392479
-0.48806953406250386	-0.5040951763848983
-0.48800849890625386	-0.5043171065714287
-0.48794746375000386	-0.5042583758633333
-0.48788642859375386	-0.5039192988649579
-0.48782539343750386	-0.5032996150297118
-0.48776435828125386	-0.5023998496591147
-0.48770332312500386	-0.5012200066156328
-0.48764228796875386	-0.4997608023931448
-0.48758125281250386	-0.4980233256465959
-0.48752021765625386	-0.49600748071174666
-0.48745918250000386	-0.49371552230170546
-0.48739814734375386	-0.49114725699700723
-0.48733711218750386	-0.4883055076641557
-0.48727607703125386	-0.4851900856836054
-0.48721504187500386	-0.4818039956491238
-0.48715400671875386	-0.47814838636694795
-0.48709297156250386	-0.47422518859901325
-0.48703193640625386	-0.4700371967703952
-0.48697090125000386	-0.46558515982916754
-0.48690986609375386	-0.46087345679572567
-0.48684883093750386	-0.4559020760933386
-0.48678779578125386	-0.45067664381932426
-0.48672676062500386	-0.4451975145056043
-0.48666572546875386	-0.4394694862619225
-0.48660469031250386	-0.4334945679639289
-0.48654365515625386	-0.4272758111099346
-0.48648262000000386	-0.4208177499509132
-0.48642158484375386	-0.41412221433889834
-0.48636054968750386	-0.4071955524795386
-0.48629951453125386	-0.4000383209250272
-0.48623847937500386	-0.3926578205794123
-0.48617744421875386	-0.3850548210890583
-0.48611640906250386	-0.3772355437262282
-0.48605537390625386	-0.36920384444133664
-0.48599433875000386	-0.3609635969633486
-0.48593330359375386	-0.35252081990612955
-0.48587226843750386	-0.3438783334937632
-0.48581123328125386	-0.33504318881159617
-0.48575019812500386	-0.32601687131930196
-0.48568916296875386	-0.3168078669074117
-0.48562812781250386	-0.3074189022368915
-0.48556709265625386	-0.29785672747458536
-0.48550605750000386	-0.28812615967518357
-0.48544502234375386	-0.27823192337247843
-0.48538398718750386	-0.2681807916902733
-0.48532295203125386	-0.25797636637733995
-0.48526191687500386	-0.247626969525123
-0.48520088171875386	-0.2371359752448065
-0.48513984656250386	-0.22651103184203955
-0.48507881140625386	-0.21575682240839533
-0.48501777625000386	-0.20488054922461332
-0.48495674109375386	-0.1938868912815923
-0.48489570593750386	-0.18278192914915445
-0.48483467078125386	-0.17157359010857626
-0.48477363562500386	-0.16026688422662386
-0.48471260046875386	-0.14886945228121395
-0.48465156531250386	-0.13738511142812312
-0.48459053015625386	-0.12582246216052476
-0.48452949500000386	-0.1141870002665918
-0.48446845984375386	-0.10248569039197915
-0.48440742468750386	-0.09072510447195291
-0.48434638953125386	-0.0789118636627118
-0.48428535437500386	-0.06705266868045358
-0.48422431921875386	-0.055153052920834444
-0.48416328406250386	-0.04322155159201301
-0.48410224890625386	-0.03126341926858552
-0.48404121375000386	-0.01928609228505079
-0.48398017859375386	-0.007295536574119801
-0.48391914343750386	0.004700310167673385
-0.48385810828125386	0.01669511887596626
-0.48379707312500386	0.028682846769615394
-0.48373603796875386	0.040655823273401226
-0.48367500281250386	0.052607933868432294
-0.48361396765625386	0.06453224019815056
-0.48355293250000386	0.07642255906053592
-0.48349189734375386	0.08827090972649909
-0.48343086218750386	0.10007127134317854
-0.48336982703125386	0.11181691921005979
-0.48330879187500386	0.12350147858285308
-0.48324775671875386	0.13511836763610913
-0.48318672156250386	0.14666103467242603
-0.48312568640625386	0.1581231852856651
-0.48306465125000386	0.16949694526324063
-0.48300361609375386	0.1807767071244719
-0.48294258093750386	0.1919565614939451
-0.48288154578125386	0.20303040182854845
-0.48282051062500386	0.21399123770123016
-0.48275947546875386	0.22483278349317137
-0.48269844031250386	0.23554929910887315
-0.48263740515625386	0.24613446068821987
-0.48257637000000386	0.2565824672655261
-0.48251533484375386	0.26688683244245515
-0.48245429968750386	0.277042404195489
-0.48239326453125386	0.2870437130251791
-0.48233222937500386	0.29688453956674593
-0.48227119421875386	0.30655874802066857
-0.48221015906250386	0.3160614495868288
-0.48214912390625386	0.32538761397437266
-0.48208808875000386	0.3345310099920023
-0.48202705359375386	0.34348695284153014
-0.48196601843750386	0.3522505284525539
-0.48190498328125386	0.3608171497057889
-0.48184394812500386	0.369180854541292
-0.48178291296875386	0.3773371745217222
-0.48172187781250386	0.38528173043364045
-0.48166084265625386	0.39300968927830865
-0.48159980750000386	0.40051737567556756
-0.48153877234375386	0.40779979327365734
-0.48147773718750386	0.41485325246622634
-0.48141670203125386	0.42167301527662543
-0.48135566687500386	0.42825580287193393
-0.48129463171875386	0.43459761020699134
-0.48123359656250386	0.4406950691320609
-0.48117256140625386	0.4465445340215282
-0.48111152625000386	0.45214235669090147
-0.48105049109375386	0.45748573696178496
-0.48098945593750386	0.462571228202571
-0.48092842078125386	0.46739671956920814
-0.48086738562500386	0.4719583664983417
-0.48080635046875386	0.47625429982625045
-0.48074531531250386	0.48028154954355157
-0.48068428015625386	0.48403827114450276
-0.48062324500000386	0.4875220197021602
-0.48056220984375386	0.490730747612989
-0.48050117468750386	0.493662830152222
-0.48044013953125386	0.49631618838735725
-0.48037910437500386	0.4986898879288443
-0.48031806921875386	0.5007817494494923
-0.48025703406250386	0.5025913794183847
-0.48019599890625386	0.504117003718406
-0.48013496375000386	0.5053582535909396
-0.48007392859375386	0.5063140313503913
-0.48001289343750386	0.5069839679003251
-0.47995185828125386	0.5073676214681253
-0.47989082312500386	0.5074646453310094
-0.47982978796875386	0.507275201891257
-0.47976875281250386	0.5067988910418586
-0.47970771765625386	0.5060364784036903
-0.47964668250000386	0.5049879984198702
-0.47958564734375386	0.5036543397802394
-0.47952461218750386	0.5020359768500893
-0.47946357703125386	0.5001339403864555
-0.47940254187500386	0.4979491809519995
-0.47934150671875386	0.49548293189240766
-0.47928047156250386	0.49273654912834347
-0.47921943640625386	0.48971183116053185
-0.47915840125000386	0.4864101923312381
-0.47909736609375386	0.4828338076143496
-0.47903633093750386	0.4789842142256408
-0.47897529578125386	0.47486382729767757
-0.47891426062500386	0.4704748534431197
-0.47885322546875386	0.4658203139389973
-0.47879219031250386	0.460902469457006
-0.47873115515625386	0.4557235541269049
-0.47867012000000386	0.45028763240925995
-0.47860908484375386	0.44459646068658865
-0.47854804968750386	0.43865488590010915
-0.47848701453125386	0.4324647551050601
-0.47842597937500386	0.42603091389508296
-0.47836494421875386	0.4193554274788388
-0.47830390906250386	0.412443137678925
-0.47824287390625386	0.4052986001664169
-0.47818183875000386	0.39792467588879643
-0.47812080359375386	0.39032667233745516
-0.47805976843750386	0.3825066527676285
-0.47799873328125386	0.37447242395693753
-0.47793769812500386	0.3662257865843347
-0.47787666296875386	0.3577734918061359
-0.47781562781250386	0.349118411721133
-0.47775459265625386	0.34026659336085513
-0.47769355750000386	0.33122374658179815
-0.47763252234375386	0.32199361466946014
-0.47757148718750386	0.31258320003039863
-0.47751045203125386	0.3029948093717421
-0.47744941687500386	0.29323784162677535
-0.47738838171875386	0.28331462358323556
-0.47732734656250386	0.2732334620463315
-0.47726631140625386	0.2629981096237962
-0.47720527625000386	0.2526150953037705
-0.47714424109375386	0.24209143284738704
-0.47708320593750386	0.2314312309703291
-0.47702217078125386	0.22064253127629757
-0.47696113562500386	0.20972871564710976
-0.47690010046875386	0.19869982752987425
-0.47683906531250386	0.18755943573494016
-0.47677803015625386	0.1763158531098028
-0.47671699500000386	0.1649734653696731
-0.47665595984375386	0.15353922186335953
-0.47659492468750386	0.14202128179018272
-0.47653388953125386	0.1304248407986237
-0.47647285437500386	0.11875829318940696
-0.47641181921875386	0.10702536504152224
-0.47635078406250386	0.0952353410411499
-0.47628974890625386	0.08339360161532411
-0.47622871375000386	0.07150847478933356
-0.47616767859375386	0.05958517594139638
-0.47610664343750386	0.047631039894168774
-0.47604560828125386	0.03565392951329038
-0.47598457312500386	0.02365983725008656
-0.47592353796875386	0.011656692837761046
-0.47586250281250386	-0.00035099233263498705
-0.47580146765625386	-0.012353839552515063
-0.47574043250000386	-0.02434648318297599
-0.47567939734375386	-0.03632059024430082
-0.47561836218750386	-0.04826942309029662
-0.47555732703125386	-0.06018680507204454
-0.47549629187500386	-0.07206613090933679
-0.47543525671875386	-0.08390040912359531
-0.47537422156250386	-0.09568126301909778
-0.47531318640625386	-0.10740386226646596
-0.47525215125000386	-0.1190600292112393
-0.47519111609375386	-0.13064378181464184
-0.47513008093750386	-0.14214788097116582
-0.47506904578125386	-0.15356639890093218
-0.47500801062500386	-0.16489223794949026
-0.47494697546875386	-0.17611830723925592
-0.47488594031250386	-0.18723908471195547
-0.47482490515625386	-0.19824751797326873
-0.47476387000000386	-0.20913757107198896
-0.47470283484375386	-0.21990226550607134
-0.47464179968750386	-0.23053638863449072
-0.47458076453125386	-0.24103270817366024
-0.47451972937500386	-0.2513854440410697
-0.47445869421875386	-0.2615890916042779
-0.47439765906250386	-0.2716372616642889
-0.47433662390625386	-0.28152408142022695
-0.47427558875000386	-0.29124358178758847
-0.47421455359375386	-0.3007907625912105
-0.47415351843750386	-0.3101594230390513
-0.47409248328125386	-0.3193444458351753
-0.47403144812500386	-0.32834029917598134
-0.47397041296875386	-0.33714188455538635
-0.47390937781250386	-0.3457440485306155
-0.47384834265625386	-0.35414153507082197
-0.47378730750000386	-0.36232960387476754
-0.47372627234375386	-0.37030306693213827
-0.47366523718750386	-0.3780579635466362
-0.47360420203125386	-0.38558946863118815
-0.47354316687500386	-0.3928930417313237
-0.47348213171875386	-0.3999643751728543
-0.47342109656250386	-0.4067993955788009
-0.47336006140625386	-0.413394033059187
-0.47329902625000386	-0.4197442175889949
-0.47323799109375386	-0.42584662585769856
-0.47317695593750386	-0.43169729004523316
-0.47311592078125386	-0.43729336343608644
-0.47305488562500386	-0.4426307525198348
-0.47299385046875386	-0.4477066286189916
-0.47293281531250386	-0.45251799997248277
-0.47287178015625386	-0.4570617964362733
-0.47281074500000386	-0.46133574194529936
-0.47274970984375386	-0.46533689697658986
-0.47268867468750386	-0.4690634119897017
-0.47262763953125386	-0.4725121524616314
-0.47256660437500386	-0.4756817790771646
-0.47250556921875386	-0.4785700056986771
-0.47244453406250386	-0.4811754355118622
-0.47238349890625386	-0.48349621719285824
-0.47232246375000386	-0.4855308805607675
-0.47226142859375386	-0.48727842386218184
-0.47220039343750386	-0.4887373435611164
-0.47213935828125386	-0.48990734814699344
-0.47207832312500386	-0.4907868486083163
-0.47201728796875386	-0.49137622206899495
-0.47195625281250386	-0.4916742209034092
-0.47189521765625386	-0.4916810659900389
-0.47183418250000386	-0.491396360417072
-0.47177314734375386	-0.49082045160550425
-0.47171211218750386	-0.48995362614664867
-0.47165107703125386	-0.48879594983255475
-0.47159004187500386	-0.4873485206743211
-0.47152900671875386	-0.4856114986432682
-0.47146797156250386	-0.48358659917743785
-0.47140693640625386	-0.4812740364920078
-0.47134590125000386	-0.4786757728797397
-0.47128486609375386	-0.47579283618486146
-0.47122383093750386	-0.4726271535300828
-0.47116279578125386	-0.4691802239651732
-0.47110176062500386	-0.46545396900032726
-0.47104072546875386	-0.46145073558266625
-0.47097969031250386	-0.4571724352399228
-0.47091865515625386	-0.45262190048959033
-0.47085762000000386	-0.4478012278991458
-0.47079658484375386	-0.4427135700492579
-0.47073554968750386	-0.4373614851681019
-0.47067451453125386	-0.4317482655638532
-0.47061347937500386	-0.4258769952037328
-0.47055244421875386	-0.41975103540906855
-0.47049140906250386	-0.41337393331947725
-0.47043037390625386	-0.40674933984670286
-0.47036933875000386	-0.3998806098772792
