Time	Frequency
-0.5000233505937501	-0.017871071462585594
-0.49996231543750014	-0.032086123327577584
-0.49990128028125014	-0.04627538568454301
-0.49984024512500014	-0.060428688983855026
-0.49977920996875014	-0.0745356422007904
-0.49971817481250014	-0.08858644120971479
-0.49965713965625014	-0.10257160115737644
-0.49959610450000014	-0.116480868696216
-0.49953506934375014	-0.1303041153558887
-0.49947403418750014	-0.14403211346200395
-0.49941299903125014	-0.1576553075757641
-0.49935196387500014	-0.17116354981323095
-0.49929092871875014	-0.18454711265344095
-0.49922989356250014	-0.19779693535125453
-0.49916885840625014	-0.2109038600763668
-0.49910782325000014	-0.22385817949907186
-0.49904678809375014	-0.23665053270086317
-0.49898575293750014	-0.24927220775976244
-0.49892471778125014	-0.2617143110538037
-0.49886368262500014	-0.2739677881829595
-0.49880264746875014	-0.2860239537754215
-0.49874161231250014	-0.29787437842625514
-0.49868057715625014	-0.30951074010006474
-0.49861954200000014	-0.32092472911910364
-0.49855850684375014	-0.33210788984514805
-0.49849747168750014	-0.3430522519603525
-0.49843643653125014	-0.3537504378815197
-0.49837540137500014	-0.3641949667732948
-0.49831436621875014	-0.3743782805012
-0.49825333106250014	-0.3842927493747992
-0.49819229590625014	-0.3939311048724121
-0.49813126075000014	-0.4032870548045871
-0.49807022559375014	-0.41235425717069124
-0.49800919043750014	-0.4211257751067811
-0.49794815528125014	-0.4295950554604118
-0.49788712012500014	-0.4377562118125227
-0.49782608496875014	-0.445603681198684
-0.49776504981250014	-0.4531318427263614
-0.49770401465625014	-0.46033504329728653
-0.49764297950000014	-0.46720823996814387
-0.49758194434375014	-0.47374675072455263
-0.49752090918750014	-0.47994573717806627
-0.49745987403125014	-0.4858005698061314
-0.49739883887500014	-0.4913070391091785
-0.49733780371875014	-0.4964612790296004
-0.49727676856250014	-0.5012597453136878
-0.49721573340625014	-0.5056990235562671
-0.49715469825000014	-0.5097757590643491
-0.49709366309375014	-0.5134868763718062
-0.49703262793750014	-0.5168297298273109
-0.49697159278125014	-0.5198020266988814
-0.49691055762500014	-0.522401635568595
-0.49684952246875014	-0.5246265784917664
-0.49678848731250014	-0.5264751987493884
-0.49672745215625014	-0.527946156388635
-0.49666641700000014	-0.5290383700939213
-0.49660538184375014	-0.5297510029039882
-0.49654434668750014	-0.5300834786820181
-0.49648331153125014	-0.5300355335200837
-0.49642227637500014	-0.529607166948122
-0.49636124121875014	-0.5287986241537013
-0.49630020606250014	-0.5276103905897188
-0.49623917090625014	-0.5260432646513857
-0.49617813575000014	-0.524098417652991
-0.49611710059375014	-0.5217771719269254
-0.49605606543750014	-0.5190809747467914
-0.49599503028125014	-0.5160116496639903
-0.49593399512500014	-0.5125714905503755
-0.49587295996875014	-0.5087630676180306
-0.49581192481250014	-0.5045889310444934
-0.49575088965625014	-0.5000518080053891
-0.49568985450000014	-0.49515500905592436
-0.49562881934375014	-0.48990207712536266
-0.49556778418750014	-0.484296468317192
-0.49550674903125014	-0.478342166539122
-0.49544571387500014	-0.47204374672438637
-0.49538467871875014	-0.4654056144194018
-0.49532364356250014	-0.4584321202448454
-0.49526260840625014	-0.4511281691874256
-0.49520157325000014	-0.443499099882939
-0.49514053809375014	-0.4355503695159333
-0.49507950293750014	-0.4272876276942697
-0.49501846778125014	-0.41871671819644707
-0.49495743262500014	-0.40984358718358765
-0.49489639746875014	-0.40067446737673584
-0.49483536231250014	-0.3912161087172485
-0.49477432715625014	-0.38147545285033874
-0.49471329200000014	-0.37145913621527815
-0.49465225684375014	-0.3611739634106878
-0.49459122168750014	-0.3506275691169911
-0.49453018653125014	-0.3398276830346182
-0.49446915137500014	-0.32878160913226023
-0.49440811621875014	-0.31749732601682157
-0.49434708106250014	-0.30598327043629364
-0.49428604590625014	-0.2942472824369435
-0.49422501075000014	-0.28229750625656685
-0.49416397559375014	-0.27014271052873895
-0.49410294043750014	-0.25779166241763074
-0.49404190528125014	-0.24525335262107384
-0.49398087012500014	-0.23253674688286602
-0.49391983496875014	-0.21965049995179664
-0.49385879981250014	-0.20660359013723165
-0.49379776465625014	-0.19340572712326357
-0.49373672950000014	-0.180066802040486
-0.49367569434375014	-0.16659619100251952
-0.49361465918750014	-0.15300327966552826
-0.49355362403125014	-0.13929787503738245
-0.49349258887500014	-0.12548956252548635
-0.49343155371875014	-0.11158812163397935
-0.49337051856250014	-0.09760400115452247
-0.49330948340625014	-0.08354737640755235
-0.49324844825000014	-0.06942804895078027
-0.49318741309375014	-0.05525615932087283
-0.49312637793750014	-0.04104193623147628
-0.49306534278125014	-0.02679533845174942
-0.49300430762500014	-0.012526516532114451
-0.49294327246875014	0.001753950435406618
-0.49288223731250014	0.016035594077630402
-0.49282120215625014	0.030308241094670747
-0.49276016700000014	0.04456168114412989
-0.49269913184375014	0.058785820508149234
-0.49263809668750014	0.07297071482412791
-0.49257706153125014	0.08710588598436671
-0.49251602637500014	0.1011806531699923
-0.49245499121875014	0.1151851678415061
-0.49239395606250014	0.12910953947003612
-0.49233292090625014	0.14294324327796268
-0.49227188575000014	0.15667661161756766
-0.49221085059375014	0.17030034251327383
-0.49214981543750014	0.18380405580858117
-0.49208878028125014	0.1971773893524729
-0.49202774512500014	0.21041096184062752
-0.49196670996875014	0.22349575447954656
-0.49190567481250014	0.23642224990090846
-0.49184463965625014	0.24918046830157917
-0.49178360450000014	0.2617612023995224
-0.49172256934375014	0.27415608060181473
-0.49166153418750014	0.2863559559289519
-0.49160049903125014	0.29835115322200234
-0.49153946387500014	0.3101331287836156
-0.49147842871875014	0.321694009802609
-0.49141739356250014	0.33302530045175577
-0.49135635840625014	0.3441182751900612
-0.49129532325000014	0.354964906112896
-0.49123428809375014	0.36555754923885875
-0.49117325293750014	0.375888423303788
-0.49111221778125014	0.38594989520710116
-0.49105118262500014	0.39573455597078855
-0.49099014746875014	0.4052352076598267
-0.49092911231250014	0.4144450928716428
-0.49086807715625014	0.4233575975741554
-0.49080704200000014	0.4319659609151601
-0.49074600684375014	0.4402636411035109
-0.49068497168750014	0.4482446457565403
-0.49062393653125014	0.45590332991841614
-0.49056290137500014	0.4632340323153107
-0.49050186621875014	0.4702311531411111
-0.49044083106250014	0.47688951219140585
-0.49037979590625014	0.4832043165745042
-0.49031876075000014	0.48917077592356
-0.49025772559375014	0.4947842698384348
-0.49019669043750014	0.5000407869341129
-0.49013565528125014	0.5049365931558333
-0.49007462012500014	0.5094678583669586
-0.49001358496875014	0.5136309525863565
-0.48995254981250014	0.5174227599367573
-0.48989151465625014	0.5208405477377802
-0.48983047950000014	0.5238816959914718
-0.48976944434375014	0.526543746306465
-0.48970840918750014	0.5288246202698501
-0.48964737403125014	0.5307225698592083
-0.48958633887500014	0.532236026430709
-0.48952530371875014	0.5333636971563592
-0.48946426856250014	0.5341046040814948
-0.48940323340625014	0.5344580202777216
-0.48934219825000014	0.5344235647838355
-0.48928116309375014	0.5340011196885663
-0.48922012793750014	0.5331907233916485
-0.48915909278125014	0.5319927563147355
-0.48909805762500014	0.5304079821064394
-0.48903702246875014	0.5284374461920578
-0.48897598731250014	0.5260823469123791
-0.48891495215625014	0.5233440300829922
-0.48885391700000014	0.5202242808511196
-0.48879288184375014	0.516725298438643
-0.48873184668750014	0.5128495183908549
-0.48867081153125014	0.5085996041092257
-0.48860977637500014	0.5039782942683259
-0.48854874121875014	0.4989885707595628
-0.48848770606250014	0.4936339551037256
-0.48842667090625014	0.4879182994171007
-0.48836563575000014	0.4818455303013416
-0.48830460059375014	0.4754196922655927
-0.48824356543750014	0.46864523501946437
-0.48818253028125014	0.46152707313764096
-0.48812149512500014	0.4540702153011221
-0.48806045996875014	0.44627968602193985
-0.48799942481250014	0.43816075220462597
-0.48793838965625014	0.4297191947181572
-0.48787735450000014	0.4209612639762672
-0.48781631934375014	0.41189304386948694
-0.48775528418750014	0.4025205985887123
-0.48769424903125014	0.39285066276175373
-0.48763321387500014	0.3828902965240419
-0.48757217871875014	0.3726463870909301
-0.48751114356250014	0.36212588055504247
-0.48745010840625014	0.35133632792510006
-0.48738907325000014	0.3402858171290149
-0.48732803809375014	0.3289820317696401
-0.48726700293750014	0.3174324266898029
-0.48720596778125014	0.3056454955993724
-0.48714493262500014	0.2936300690580727
-0.48708389746875014	0.28139426810091894
-0.48702286231250014	0.2689466963748114
-0.48696182715625014	0.2562965502326432
-0.48690079200000014	0.24345259074317346
-0.48683975684375014	0.23042375923291217
-0.48677872168750014	0.2172196510511052
-0.48671768653125014	0.2038498697235013
-0.48665665137500014	0.19032380751026967
-0.48659561621875014	0.176651033881738
-0.48653458106250014	0.16284117403661147
-0.48647354590625014	0.1489041000449301
-0.48641251075000014	0.13485024409967977
-0.48635147559375014	0.12068944235090073
-0.48629044043750014	0.10643135068010473
-0.48622940528125014	0.09208668262800483
-0.48616837012500014	0.07766593569442055
-0.48610733496875014	0.06317900324482849
-0.48604629981250014	0.0486362093241284
-0.48598526465625014	0.03404825275511097
-0.48592422950000014	0.01942583784813482
-0.48586319434375014	0.004779215739612708
-0.48580215918750014	-0.009881551556431875
-0.48574112403125014	-0.024545609798656567
-0.48568008887500014	-0.03920208044224738
-0.48561905371875014	-0.05384051999829524
-0.48555801856250014	-0.06845027451220882
-0.48549698340625014	-0.08302102131592665
-0.48543594825000014	-0.09754260080502965
-0.48537491309375014	-0.11200449263287839
-0.48531387793750014	-0.12639601868263306
-0.48525284278125014	-0.14070637895956126
-0.48519180762500014	-0.1549253643139208
-0.48513077246875014	-0.1690433035336817
-0.48506973731250014	-0.18304995135306681
-0.48500870215625014	-0.1969347086927972
-0.48494766700000014	-0.2106874470529518
-0.48488663184375014	-0.22429863840901515
-0.48482559668750014	-0.2377586201430831
-0.48476456153125014	-0.25105721383916263
-0.48470352637500014	-0.2641846523757656
-0.48464249121875014	-0.27713163985102307
-0.48458145606250014	-0.2898887566841886
-0.48452042090625014	-0.3024468038442355
-0.48445938575000014	-0.3147968399698469
-0.48439835059375014	-0.3269297481404574
-0.48433731543750014	-0.3388364293570492
-0.48427628028125014	-0.3505083089331468
-0.48421524512500014	-0.3619370717139704
-0.48415420996875014	-0.3731143505914776
-0.48409317481250014	-0.3840321010488845
-0.48403213965625014	-0.39468239981726094
-0.48397110450000014	-0.4050572223890799
-0.48391006934375014	-0.4151489208634831
-0.48384903418750014	-0.4249502472963436
-0.48378799903125014	-0.4344540445321576
-0.48372696387500014	-0.4436533634415467
-0.48366592871875014	-0.4525417286943506
-0.48360489356250014	-0.4611126496012277
-0.48354385840625014	-0.4693592280978438
-0.48348282325000014	-0.47727525146181493
-0.48342178809375014	-0.484855582680687
-0.48336075293750014	-0.4920948528558604
-0.48329971778125014	-0.49898719118769497
-0.48323868262500014	-0.5055273015517022
-0.48317764746875014	-0.5117106888796957
-0.48311661231250014	-0.517532928060974
-0.48305557715625014	-0.5229894195380062
-0.48299454200000014	-0.5280759362138896
-0.48293350684375014	-0.5327889623610357
-0.48287247168750014	-0.5371251078101048
-0.48281143653125014	-0.5410808538582799
-0.48275040137500014	-0.5446531394802842
-0.48268936621875014	-0.5478394039898914
-0.48262833106250014	-0.5506372299490487
-0.48256729590625014	-0.5530443983584901
-0.48250626075000014	-0.5550590572056848
-0.48244522559375014	-0.5566796341348094
-0.48238419043750014	-0.557904791219913
-0.48232315528125014	-0.5587335350801717
-0.48226212012500014	-0.5591651569170513
-0.48220108496875014	-0.5591991500995077
-0.48214004981250014	-0.5588353251606336
-0.48207901465625014	-0.5580738666606677
-0.48201797950000014	-0.5569152132954758
-0.48195694434375014	-0.5553600476354911
-0.48189590918750014	-0.5534093637105616
-0.48183487403125014	-0.5510644315536096
-0.48177383887500014	-0.5483267772601857
-0.48171280371875014	-0.5451982275529776
-0.48165176856250014	-0.5416809583419547
-0.48159073340625014	-0.5377774235793424
-0.48152969825000014	-0.5334902769735166
-0.48146866309375014	-0.528822491854346
-0.48140762793750014	-0.5237773086566647
-0.48134659278125014	-0.518358182046143
-0.48128555762500014	-0.5125690294361863
-0.48122452246875014	-0.5064139577845271
-0.48116348731250014	-0.49989703397402624
-0.48110245215625014	-0.4930228730439458
-0.48104141700000014	-0.4857966213240174
-0.48098038184375014	-0.47822336037900515
-0.48091934668750014	-0.470308277591156
-0.48085831153125014	-0.4620569778753235
-0.48079727637500014	-0.4534753467230439
-0.48073624121875014	-0.4445695557012746
-0.48067520606250014	-0.43534593357688744
-0.48061417090625014	-0.42581085125019474
-0.48055313575000014	-0.41597121050789276
-0.48049210059375014	-0.4058343231663533
-0.48043106543750014	-0.395407295580325
-0.48037003028125014	-0.38469733415063206
-0.48030899512500014	-0.3737121446239846
-0.48024795996875014	-0.36245975905274513
-0.48018692481250014	-0.35094821388459463
-0.48012588965625014	-0.3391855972152241
-0.48006485450000014	-0.32718045923558914
-0.48000381934375014	-0.3149415550202311
-0.47994278418750014	-0.30247746964957234
-0.47988174903125014	-0.2897970524390186
-0.47982071387500014	-0.2769096331498305
-0.47975967871875014	-0.26382460301525357
-0.47969864356250014	-0.25055120310489165
-0.47963760840625014	-0.23709886343815492
-0.47957657325000014	-0.2234773402980958
-0.47951553809375014	-0.20969634460865333
-0.47945450293750014	-0.19576579674954536
-0.47939346778125014	-0.18169615275228718
-0.47933243262500014	-0.16749766139446284
-0.47927139746875014	-0.15318006539945483
-0.47921036231250014	-0.1387535081075496
-0.47914932715625014	-0.12422880530803329
-0.47908829200000014	-0.10961652525433023
-0.47902725684375014	-0.09492691267466413
-0.47896622168750014	-0.08017064927524145
-0.47890518653125014	-0.06535863291344672
-0.47884415137500014	-0.05050158568735289
-0.47878311621875014	-0.035610239354404244
-0.47872208106250014	-0.020695303436327042
-0.47866104590625014	-0.005767400483086355
-0.47860001075000014	0.009162764792675169
-0.47853897559375014	0.024084111429089988
-0.47847794043750014	0.03898558255734101
-0.47841690528125014	0.053856596144601816
-0.47835587012500014	0.06868639786973357
-0.47829483496875014	0.08346419662131098
-0.47823379981250014	0.09817940545152919
-0.47817276465625014	0.11282115283709976
-0.47811172950000014	0.12737882152051344
-0.47805069434375014	0.14184205711563533
-0.47798965918750014	0.15620004673413626
-0.47792862403125014	0.17044224966443086
-0.47786758887500014	0.18455878168676967
-0.47780655371875014	0.19853928777580354
-0.47774551856250014	0.2123731412944607
-0.47768448340625014	0.226050468542544
-0.47762344825000014	0.23956158451089182
-0.47756241309375014	0.25289642851849015
-0.47750137793750014	0.2660451820445841
-0.47744034278125014	0.278998540904445
-0.47737930762500014	0.2917470636184384
-0.47731827246875014	0.30428107148063416
-0.47725723731250014	0.31659135353732937
-0.47719620215625014	0.328669338059617
-0.47713516700000014	0.340506404699646
-0.47707413184375014	0.35209357601390395
-0.47701309668750014	0.36342219027933625
-0.47695206153125014	0.3744840621811284
-0.47689102637500014	0.3852711758014217
-0.47682999121875014	0.3957756673163298
-0.47676895606250014	0.4059898882324673
-0.47670792090625014	0.41590643797166804
-0.47664688575000014	0.42551791688830315
-0.47658585059375014	0.4348171309596929
-0.47652481543750014	0.443797387746897
-0.47646378028125014	0.4524521752327092
-0.47640274512500014	0.4607750921945646
-0.47634170996875014	0.46876003491388274
-0.47628067481250014	0.4764011543641997
-0.47621963965625014	0.4836927460750557
-0.47615860450000014	0.4906293971082696
-0.47609756934375014	0.4972061368305271
-0.47603653418750014	0.5034181935964525
-0.47597549903125014	0.509260880827267
-0.47591446387500014	0.5147298519946978
-0.47585342871875014	0.5198210773301911
-0.47579239356250014	0.5245307182276583
-0.47573135840625014	0.5288553356424164
-0.47567032325000014	0.5327918455627156
-0.47560928809375014	0.5363372902566164
-0.47554825293750014	0.5394889437821085
-0.47548721778125014	0.5422444494757822
-0.47542618262500014	0.5446017781838199
-0.47536514746875014	0.546559155835637
-0.47530411231250014	0.5481150864856537
-0.47524307715625014	0.5492683883536108
-0.47518204200000014	0.550018190173846
-0.47512100684375014	0.5503638862282648
-0.47505997168750014	0.5503051376074357
-0.47499893653125014	0.5498419698457351
-0.47493790137500014	0.5489746883072811
-0.47487686621875014	0.5477038281626158
-0.47481583106250014	0.5460302699796268
-0.47475479590625014	0.5439552154351948
-0.47469376075000014	0.5414801461430653
-0.47463272559375014	0.538606841532212
-0.47457169043750014	0.5353373731174174
-0.47451065528125014	0.5316740484789227
-0.47444962012500014	0.5276194260185431
-0.47438858496875014	0.5231764349834467
-0.47432754981250014	0.5183483606430875
-0.47426651465625014	0.5131387728677063
-0.47420547950000014	0.5075514823728329
-0.47414444434375014	0.5015904498663261
-0.47408340918750014	0.4952598376889068
-0.47402237403125014	0.48856422501976626
-0.47396133887500014	0.48150870777636534
-0.47390030371875014	0.4740986304216272
-0.47383926856250014	0.466339144614655
-0.47377823340625014	0.4582355958652507
-0.47371719825000014	0.44979411754876053
-0.47365616309375014	0.4410211082788441
-0.47359512793750014	0.43192289321424354
-0.47353409278125014	0.42250601464218523
-0.47347305762500014	0.4127772783444928
-0.47341202246875014	0.40274380316320874
-0.47335098731250014	0.3924130516239304
-0.47328995215625014	0.3817926588314923
-0.47322891700000014	0.3708903221358974
-0.47316788184375014	0.3597138816698069
-0.47310684668750014	0.34827149255218964
-0.47304581153125014	0.33657177483277545
-0.47298477637500014	0.3246234734343341
-0.47292374121875014	0.31243512690423475
-0.47286270606250014	0.3000155295916757
-0.47280167090625014	0.2873738420040486
-0.47274063575000014	0.2745193432142524
-0.47267960059375014	0.26146158238341294
-0.47261856543750014	0.2482103173499994
-0.47255753028125014	0.23477528510979048
-0.47249649512500014	0.22116619718871605
-0.47243545996875014	0.20739297445833538
-0.47237442481250014	0.1934657839625786
-0.47231338965625014	0.17939480593278403
-0.47225235450000014	0.16519046483705982
-0.47219131934375014	0.150863563737656
-0.47213028418750014	0.13642474925405315
-0.47206924903125014	0.12188436515624876
-0.47200821387500014	0.10725274574647448
-0.47194717871875014	0.09254064988676815
-0.47188614356250014	0.07775944345651917
-0.47182510840625014	0.06292037889049394
-0.47176407325000014	0.048034195062165455
-0.47170303809375014	0.03311138519043179
-0.47164200293750014	0.018162793792798664
-0.47158096778125014	0.0032000143923180614
-0.47151993262500014	-0.011765540697822026
-0.47145889746875014	-0.02672319795573492
-0.47139786231250014	-0.041662141946090546
-0.47133682715625014	-0.056571151012096574
-0.47127579200000014	-0.07143910307648141
-0.47121475684375014	-0.08625496759351198
-0.47115372168750014	-0.10100780894049746
-0.47109268653125014	-0.1156867504602856
-0.47103165137500014	-0.13028072837975524
-0.47097061621875014	-0.1447788453831497
-0.47090958106250014	-0.15917055342218642
-0.47084854590625014	-0.17344529824390564
-0.47078751075000014	-0.1875924023072802
-0.47072647559375014	-0.20160121951243584
-0.47066544043750014	-0.2154612798789952
-0.47060440528125014	-0.2291621998280609
-0.47054337012500014	-0.24269378811289585
-0.47048233496875014	-0.2560462543239593
-0.47042129981250014	-0.26920979419735186
-0.47036026465625014	-0.282174350526316
-0.47029922950000014	-0.2949299979946127
