Time	Frequency
-0.5000610345000069	-1.0213082783675263e-23
-0.49999999934375694	-1.0295763753900486e-23
-0.49993896418750694	-1.0370340109078235e-23
-0.49987792903125694	-1.0436754608942928e-23
-0.49981689387500694	-1.0494952850680233e-23
-0.49975585871875694	-1.0544884466448593e-23
-0.49969482356250694	-1.0586506459494216e-23
-0.49963378840625694	-1.0619782113916189e-23
-0.49957275325000694	-1.0644683855509752e-23
-0.49951171809375694	-1.0661190689430073e-23
-0.49945068293750694	-1.0669285274242987e-23
-0.49938964778125694	-1.0668958462149883e-23
-0.49932861262500694	-1.0660208434327743e-23
-0.49926757746875694	-1.0643038587028285e-23
-0.49920654231250694	-1.0617459729103894e-23
-0.49914550715625694	-1.0583488966860835e-23
-0.49908447200000694	-1.0541148669527077e-23
-0.49902343684375694	-1.0490468670990476e-23
-0.49896240168750694	-1.0431487978278945e-23
-0.49890136653125694	-1.0364251661149084e-23
-0.49884033137500694	-1.0288807660994012e-23
-0.49877929621875694	-1.0205210280974467e-23
-0.49871826106250694	-1.0113522896883364e-23
-0.49865722590625694	-1.0013816187041927e-23
-0.49859619075000694	-9.90616629443608e-24
-0.49853515559375694	-9.790655454082605e-24
-0.49847412043750694	-9.667370091619558e-24
-0.49841308528125694	-9.536400986685412e-24
-0.49835205012500694	-9.397849729011007e-24
-0.49829101496875694	-9.25182554808306e-24
-0.49822997981250694	-9.098441788223418e-24
-0.49816894465625694	-8.937817464383609e-24
-0.49810790950000694	-8.77007232386992e-24
-0.49804687434375694	-8.59532971976795e-24
-0.49798583918750694	-8.4137266455377e-24
-0.49792480403125694	-8.225410624702684e-24
-0.49786376887500694	-8.030529023795056e-24
-0.49780273371875694	-7.829228589624466e-24
-0.49774169856250694	-7.621660282726588e-24
-0.49768066340625694	-7.407986650070962e-24
-0.49761962825000694	-7.188380413795847e-24
-0.49755859309375694	-6.963007987524107e-24
-0.49749755793750694	-6.732037031000571e-24
-0.49743652278125694	-6.4956536082963604e-24
-0.49737548762500694	-6.254047414726248e-24
-0.49731445246875694	-6.007402359593765e-24
-0.49725341731250694	-5.7559089407329906e-24
-0.49719238215625694	-5.499762182556189e-24
-0.49713134700000694	-5.239159932251512e-24
-0.49707031184375694	-4.974309625850807e-24
-0.49700927668750694	-4.70541817058674e-24
-0.49694824153125694	-4.432692313947568e-24
-0.49688720637500694	-4.156349892318327e-24
-0.49682617121875694	-3.876609267849173e-24
-0.49676513606250694	-3.593684172478751e-24
-0.49670410090625694	-3.307792331531091e-24
-0.49664306575000694	-3.0191544166339954e-24
-0.49658203059375694	-2.727999446741313e-24
-0.49652099543750694	-2.434569467081915e-24
-0.49645996028125694	-2.1390987874864933e-24
-0.49639892512500694	-1.8418038039310518e-24
-0.49633788996875694	-1.5429053263288431e-24
-0.49627685481250694	-1.2426441677605974e-24
-0.49621581965625694	-9.412690292837846e-25
-0.49615478450000694	-6.390194368546633e-25
-0.49609374934375694	-3.3612678930593507e-25
-0.49603271418750694	-3.282466492950336e-26
-0.49597167903125694	2.7064896106792177e-25
-0.49591064387500694	5.740518979809076e-25
-0.49584960871875694	8.771406672509318e-25
-0.49578857356250694	1.179679232293319e-24
-0.49572753840625694	1.481434047017526e-24
-0.49566650325000694	1.782166415708889e-24
-0.49560546809375694	2.081636937176662e-24
-0.49554443293750694	2.3796065246503435e-24
-0.49548339778125694	2.6758408660560965e-24
-0.49542236262500694	2.9701101257586155e-24
-0.49536132746875694	3.262179804197229e-24
-0.49530029231250694	3.551816638330711e-24
-0.49523925715625694	3.838795218676008e-24
-0.49517822200000694	4.122889401109059e-24
-0.49511718684375694	4.403869057523582e-24
-0.49505615168750694	4.6815104581305984e-24
-0.49499511653125694	4.9555998417744596e-24
-0.49493408137500694	5.2259225871021006e-24
-0.49487304621875694	5.4922584884865674e-24
-0.49481201106250694	5.754393746431547e-24
-0.49475097590625694	6.012125658599461e-24
-0.49468994075000694	6.265247538243522e-24
-0.49462890559375694	6.513551337633141e-24
-0.49456787043750694	6.756848417261266e-24
-0.49450683528125694	6.99495357409872e-24
-0.49444580012500694	7.227665041437615e-24
-0.49438476496875694	7.454790725589746e-24
-0.49432372981250694	7.676159022085232e-24
-0.49426269465625694	7.891595809323102e-24
-0.49420165950000694	8.100923942146863e-24
-0.49414062434375694	8.303976654761124e-24
-0.49407958918750694	8.500593886265316e-24
-0.49401855403125694	8.6906179407881e-24
-0.49395751887500694	8.873895343148851e-24
-0.49389648371875694	9.050276390745765e-24
-0.49383544856250694	9.219620306244556e-24
-0.49377441340625694	9.381796478735245e-24
-0.49371337825000694	9.53667295967165e-24
-0.49365234309375694	9.684118251161607e-24
-0.49359130793750694	9.82401735747047e-24
-0.49353027278125694	9.956262770761476e-24
-0.49346923762500694	1.0080740589620238e-23
-0.49340820246875694	1.0197345518542096e-23
-0.49334716731250694	1.0305988239672477e-23
-0.49328613215625694	1.0406584490695195e-23
-0.49322509700000694	1.049905020672941e-23
-0.49316406184375694	1.0583304520843426e-23
-0.49310302668750694	1.0659276655377301e-23
-0.49304199153125694	1.0726908185519292e-23
-0.49298095637500694	1.0786143997257668e-23
-0.49291992121875694	1.0836930788587454e-23
-0.49285888606250694	1.0879225529005342e-23
-0.49279785090625694	1.0912992919168985e-23
-0.49273681575000694	1.0938202769832814e-23
-0.49267578059375694	1.0954832924055552e-23
-0.49261474543750694	1.0962866014655451e-23
-0.49255371028125694	1.096229168682841e-23
-0.49249267512500694	1.0953109408429708e-23
-0.49243163996875694	1.0935322565062501e-23
-0.49237060481250694	1.0908940249381096e-23
-0.49230956965625694	1.0873980579175546e-23
-0.49224853450000694	1.0830469127435628e-23
-0.49218749934375694	1.0778438712358442e-23
-0.49212646418750694	1.0717926711126875e-23
-0.49206542903125694	1.0648975465923388e-23
-0.49200439387500694	1.057163494258384e-23
-0.49194335871875694	1.0485964423649624e-23
-0.49188232356250694	1.039203204899465e-23
-0.49182128840625694	1.0289907513791637e-23
-0.49176025325000694	1.017966581143127e-23
-0.49169921809375694	1.006139453674537e-23
-0.49163818293750694	9.935184541969583e-24
-0.49157714778125694	9.801128260334523e-24
-0.49151611262500694	9.65932747713612e-24
-0.49145507746875694	9.509894198843002e-24
-0.49139404231250694	9.352946386845511e-24
-0.49133300715625694	9.188604611717217e-24
-0.49127197200000694	9.016997939572654e-24
-0.49121093684375694	8.838259270579057e-24
-0.49114990168750694	8.652517574429041e-24
-0.49108886653125694	8.459916268355702e-24
-0.49102783137500694	8.26061608563203e-24
-0.49096679621875694	8.054773837675835e-24
-0.49090576106250694	7.842545486003939e-24
-0.49084472590625694	7.624094427690204e-24
-0.49078369075000694	7.399587906360463e-24
-0.49072265559375694	7.169203741120524e-24
-0.49066162043750694	6.933127996954771e-24
-0.49060058528125694	6.691543302167165e-24
-0.49053955012500694	6.444633465379853e-24
-0.49047851496875694	6.192589316662595e-24
-0.49041747981250694	5.935611522678371e-24
-0.49035644465625694	5.673909302803502e-24
-0.49029540950000694	5.407686154964937e-24
-0.49023437434375694	5.137141782717118e-24
-0.49017333918750694	4.862487876363622e-24
-0.49011230403125694	4.5839470812421854e-24
-0.49005126887500694	4.301744266266667e-24
-0.48999023371875694	4.016094660869495e-24
-0.48992919856250694	3.727211950757372e-24
-0.48986816340625694	3.435331561263864e-24
-0.48980712825000694	3.140691382112075e-24
-0.48974609309375694	2.84351888287075e-24
-0.48968505793750694	2.544048863342884e-24
-0.48962402278125694	2.242513687652106e-24
-0.48956298762500694	1.939144178717195e-24
-0.48950195246875694	1.634185452123529e-24
-0.48944091731250694	1.3278863560610393e-24
-0.48937988215625694	1.0204892942322336e-24
-0.48931884700000694	7.122315848180932e-25
-0.48925781184375694	4.0334917931812636e-25
-0.48919677668750694	9.408677267550038e-26
-0.48913574153125694	-2.153022863792893e-25
-0.48907470637500694	-5.245726713026814e-25
-0.48901367121875694	-8.334834314210615e-25
-0.48895263606250694	-1.1417885791018019e-24
-0.48889160090625694	-1.449245664430926e-24
-0.48883056575000694	-1.7556139748727148e-24
-0.48876953059375694	-2.0606487287170497e-24
-0.48870849543750694	-2.3641062872852934e-24
-0.48864746028125694	-2.66574679813437e-24
-0.48858642512500694	-2.9653294237684468e-24
-0.48852538996875694	-3.2626161069519647e-24
-0.48846435481250694	-3.557375114785339e-24
-0.48840331965625694	-3.849374493267282e-24
-0.48834228450000694	-4.1383791450853134e-24
-0.48828124934375694	-4.424153074620697e-24
-0.48822021418750694	-4.706469727645655e-24
-0.48815917903125694	-4.9851144426778594e-24
-0.48809814387500694	-5.259867161580967e-24
-0.48803710871875694	-5.5304995582051135e-24
-0.48797607356250694	-5.7967938425307744e-24
-0.48791503840625694	-6.05854603384023e-24
-0.48785400325000694	-6.31554876031714e-24
-0.48779296809375694	-6.567589173576079e-24
-0.48773193293750694	-6.814467321680948e-24
-0.48767089778125694	-7.055993008665333e-24
-0.48760986262500694	-7.291971609345259e-24
-0.48754882746875694	-7.52221386515936e-24
-0.48748779231250694	-7.746537996530486e-24
-0.48742675715625694	-7.964759607722001e-24
-0.48736572200000694	-8.176699027057271e-24
-0.48730468684375694	-8.382192446023944e-24
-0.48724365168750694	-8.58108482670307e-24
-0.48718261653125694	-8.773214167784973e-24
-0.48712158137500694	-8.95841676053183e-24
-0.48706054621875694	-9.136544299137177e-24
-0.48699951106250694	-9.307460830951256e-24
-0.48693847590625694	-9.47102973518503e-24
-0.48687744075000694	-9.627115568046418e-24
-0.48681640559375694	-9.775591834693366e-24
-0.48675537043750694	-9.916339222006495e-24
-0.48669433528125694	-1.0049246258530854e-23
-0.48663330012500694	-1.0174208953310267e-23
-0.48657226496875694	-1.0291124639545982e-23
-0.48651122981250694	-1.0399894404640287e-23
-0.48645019465625694	-1.0500430326254254e-23
-0.48638915950000694	-1.0592654817284686e-23
-0.48632812434375694	-1.0676493533572357e-23
-0.48626708918750694	-1.075187550769604e-23
-0.48620605403125694	-1.0818738182660376e-23
-0.48614501887500694	-1.0877027822936313e-23
-0.48608398371875694	-1.0926697491068512e-23
-0.48602294856250694	-1.0967705890279686e-23
-0.48596191340625694	-1.1000018901141621e-23
-0.48590087825000694	-1.102360881315315e-23
-0.48583984309375694	-1.103845327459312e-23
-0.48577880793750694	-1.1044539019667128e-23
-0.48571777278125694	-1.1041862002364514e-23
-0.48565673762500694	-1.1030422836521412e-23
-0.48559570246875694	-1.1010227277299768e-23
-0.48553466731250694	-1.0981290379496369e-23
-0.48547363215625694	-1.0943633970870781e-23
-0.48541259700000694	-1.089728425935748e-23
-0.48535156184375694	-1.0842277823068802e-23
-0.48529052668750694	-1.077865930634808e-23
-0.48522949153125694	-1.0706475934460502e-23
-0.48516845637500694	-1.0625783984577186e-23
-0.48510742121875694	-1.053664760966766e-23
-0.48504638606250694	-1.0439132752310844e-23
-0.48498535090625694	-1.0333314688305481e-23
-0.48492431575000694	-1.0219281739168228e-23
-0.48486328059375694	-1.0097124175259076e-23
-0.48480224543750694	-9.966932726207432e-24
-0.48474121028125694	-9.828810605183234e-24
-0.48468017512500694	-9.682870503822936e-24
-0.48461913996875694	-9.529225972325183e-24
-0.48455810481250694	-9.367997184891052e-24
-0.48449706965625694	-9.19931087734479e-24
-0.48443603450000694	-9.023299268372839e-24
-0.48437499934375694	-8.840105384950828e-24
-0.48431396418750694	-8.649875037176128e-24
-0.48425292903125694	-8.452755522942744e-24
-0.48419189387500694	-8.24890512365637e-24
-0.48413085871875694	-8.038487576823135e-24
-0.48406982356250694	-7.821666549690117e-24
-0.48400878840625694	-7.598610307370648e-24
-0.48394775325000694	-7.369498684942677e-24
-0.48388671809375694	-7.134522043342117e-24
-0.48382568293750694	-6.893866035275669e-24
-0.48376464778125694	-6.64771338207968e-24
-0.48370361262500694	-6.396259956368556e-24
-0.48364257746875694	-6.139713075076047e-24
-0.48358154231250694	-5.8782786300814626e-24
-0.48352050715625694	-5.612157245161163e-24
-0.48345947200000694	-5.341558562730923e-24
-0.48339843684375694	-5.0667057464625174e-24
-0.48333740168750694	-4.78782509759752e-24
-0.48327636653125694	-4.5051391419658544e-24
-0.48321533137500694	-4.2188619078014354e-24
-0.48315429621875694	-3.929212244471547e-24
-0.48309326106250694	-3.636431220016105e-24
-0.48303222590625694	-3.340766797118251e-24
-0.48297119075000694	-3.0424523774746003e-24
-0.48291015559375694	-2.7417174603033387e-24
-0.48284912043750694	-2.4388034094036774e-24
-0.48278808528125694	-2.133955701718571e-24
-0.48272705012500694	-1.8274161046835394e-24
-0.48266601496875694	-1.5194321870823374e-24
-0.48260497981250694	-1.2102520658617848e-24
-0.48254394465625694	-9.001139421184863e-25
-0.48248290950000694	-5.892667336945704e-25
-0.48242187434375694	-2.7797803691366116e-25
-0.48236083918750694	3.349598493493227e-26
-0.48229980403125694	3.449258708535093e-25
-0.48223876887500694	6.560779599695499e-25
-0.48217773371875694	9.666887710582393e-25
-0.48211669856250694	1.2764886303350795e-24
-0.48205566340625694	1.5852319242453606e-24
-0.48199462825000694	1.892688917053534e-24
-0.48193359309375694	2.198615036451102e-24
-0.48187255793750694	2.502749009596955e-24
-0.48181152278125694	2.8048407468912315e-24
-0.48175048762500694	3.1046560569034154e-24
-0.48168945246875694	3.4019590778906415e-24
-0.48162841731250694	3.6965081384657484e-24
-0.48156738215625694	3.988064120047269e-24
-0.48150634700000694	4.276391959183624e-24
-0.48144531184375694	4.561256291636094e-24
-0.48138427668750694	4.8424245198772356e-24
-0.48132324153125694	5.119672760351203e-24
-0.48126220637500694	5.392779484592895e-24
-0.48120117121875694	5.661523427421386e-24
-0.48114013606250694	5.925690424440444e-24
-0.48107910090625694	6.1850647421720914e-24
-0.48101806575000694	6.4394329755917134e-24
-0.48095703059375694	6.688593094712895e-24
-0.48089599543750694	6.932342507603881e-24
-0.48083496028125694	7.170478665320504e-24
-0.48077392512500694	7.40280896590585e-24
-0.48071288996875694	7.629151311124436e-24
-0.48065185481250694	7.849325401645956e-24
-0.48059081965625694	8.063149219825147e-24
-0.48052978450000694	8.270444668808578e-24
-0.48046874934375694	8.471041548335571e-24
-0.48040771418750694	8.664780042653918e-24
-0.48034667903125694	8.85150349649957e-24
-0.48028564387500694	9.031058473267352e-24
-0.48022460871875694	9.203300617789512e-24
-0.48016357356250694	9.368088617049672e-24
-0.48010253840625694	9.525285439001486e-24
-0.48004150325000694	9.674765467922786e-24
-0.47998046809375694	9.816408590737856e-24
-0.47991943293750694	9.95009209005885e-24
-0.47985839778125694	1.0075705240032052e-23
-0.47979736262500694	1.01931534074967e-23
-0.47973632746875694	1.0302338004600174e-23
-0.47967529231250694	1.0403161831395665e-23
-0.47961425715625694	1.0495544071026176e-23
-0.47955322200000694	1.057941363014096e-23
-0.47949218684375694	1.0654699564914924e-23
-0.47943115168750694	1.0721334655638494e-23
-0.47937011653125694	1.0779263635270606e-23
-0.47930908137500694	1.0828439917086878e-23
-0.47924804621875694	1.0868820225747369e-23
-0.47918701106250694	1.0900368809332599e-23
-0.47912597590625694	1.0923059850510927e-23
-0.47906494075000694	1.093687319861189e-23
-0.47900390559375694	1.0941793938038056e-23
-0.47894287043750694	1.0937816135054107e-23
-0.47888183528125694	1.0924941331020567e-23
-0.47882080012500694	1.0903176644472797e-23
-0.47875976496875694	1.0872537151526795e-23
-0.47869872981250694	1.083304647417099e-23
-0.47863769465625694	1.078473473411697e-23
-0.47857665950000694	1.072763720903335e-23
-0.47851562434375694	1.066179684912903e-23
-0.47845458918750694	1.0587266002488598e-23
-0.47839355403125694	1.0504103911024167e-23
-0.47833251887500694	1.041237537725604e-23
-0.47827148371875694	1.0312149850670167e-23
-0.47821044856250694	1.0203505271681165e-23
-0.47814941340625694	1.0086530712667413e-23
-0.47808837825000694	9.961318360224418e-24
-0.47802734309375694	9.827964176784378e-24
-0.47796630793750694	9.686574608128391e-24
-0.47790527278125694	9.537264548371219e-24
-0.47784423762500694	9.3801528182905e-24
-0.47778320246875694	9.215361609112397e-24
-0.47772216731250694	9.043021396811918e-24
-0.47766113215625694	8.863271697406404e-24
-0.47760009700000694	8.676256591867519e-24
-0.47753906184375694	8.482122391838301e-24
-0.47747802668750694	8.281024778766972e-24
-0.47741699153125694	8.073130338803477e-24
-0.47735595637500694	7.858603284938017e-24
-0.47729492121875694	7.637609454470458e-24
-0.47723388606250694	7.410327107050044e-24
-0.47717285090625694	7.176943147987328e-24
-0.47711181575000694	6.93764721189613e-24
-0.47705078059375694	6.692628160628936e-24
-0.47698974543750694	6.4420772210065465e-24
-0.47692871028125694	6.186196126798843e-24
-0.47686767512500694	5.9251978468308696e-24
-0.47680663996875694	5.659294831355678e-24
-0.47674560481250694	5.3886972662193585e-24
-0.47668456965625694	5.113623204435022e-24
-0.47662353450000694	4.8342921297535035e-24
-0.47656249934375694	4.550920510347088e-24
-0.47650146418750694	4.263739509766293e-24
-0.47644042903125694	3.972997588538345e-24
-0.47637939387500694	3.6789335255994124e-24
-0.47631835871875694	3.381771084764728e-24
-0.47625732356250694	3.0817396992677304e-24
-0.47619628840625694	2.7790798020787562e-24
-0.47613525325000694	2.474049030512699e-24
-0.47607421809375694	2.1669102940362695e-24
-0.47601318293750694	1.8579028291884778e-24
-0.47595214778125694	1.5472616642090722e-24
-0.47589111262500694	1.2352394749114123e-24
-0.47583007746875694	9.220934672491486e-25
-0.47576904231250694	6.080812977287714e-25
-0.47570800715625694	2.934610686767286e-25
-0.47564697200000694	-2.1514914131234456e-26
-0.47558593684375694	-3.365947135949652e-25
-0.47552490168750694	-6.515196024804948e-25
-0.47546386653125694	-9.660316702228177e-25
-0.47540283137500694	-1.2798787355753692e-24
-0.47534179621875694	-1.592813180711607e-24
-0.47528076106250694	-1.90458156879348e-24
-0.47521972590625694	-2.214914611917494e-24
-0.47515869075000694	-2.523552820285836e-24
-0.47509765559375694	-2.8302593798128913e-24
-0.47503662043750694	-3.134791894514191e-24
-0.47497558528125694	-3.4368955171628346e-24
-0.47491455012500694	-3.7363213937120706e-24
-0.47485351496875694	-4.0328251557231214e-24
-0.47479247981250694	-4.3261637541947535e-24
-0.47473144465625694	-4.616104030954339e-24
-0.47467040950000694	-4.9024075679435496e-24
-0.47460937434375694	-5.18483125040138e-24
-0.47454833918750694	-5.463147895651307e-24
-0.47448730403125694	-5.7371354746149394e-24
-0.47442626887500694	-6.0065679090700136e-24
-0.47436523371875694	-6.271221644788984e-24
-0.47430419856250694	-6.5308793430085384e-24
-0.47424316340625694	-6.785333249998643e-24
-0.47418212825000694	-7.03437670149077e-24
-0.47412109309375694	-7.277796539280655e-24
-0.47406005793750694	-7.515387387172322e-24
-0.47399902278125694	-7.746960520949039e-24
-0.47393798762500694	-7.972333966611781e-24
-0.47387695246875694	-8.19131942114445e-24
-0.47381591731250694	-8.403727418573626e-24
-0.47375488215625694	-8.609385244098213e-24
-0.47369384700000694	-8.808129243385217e-24
-0.47363281184375694	-8.999789735670443e-24
-0.47357177668750694	-9.184204189982335e-24
-0.47351074153125694	-9.361226064164945e-24
-0.47344970637500694	-9.530710491330803e-24
-0.47338867121875694	-9.692512487093004e-24
-0.47332763606250694	-9.846496345523646e-24
-0.47326660090625694	-9.992535613491391e-24
-0.47320556575000694	-1.0130509750362604e-23
-0.47314453059375694	-1.0260302654243234e-23
-0.47308349543750694	-1.038180253250194e-23
-0.47302246028125694	-1.0494905689000175e-23
-0.47296142512500694	-1.0599520655881042e-23
-0.47290038996875694	-1.0695561097132255e-23
-0.47283935481250694	-1.078294268544582e-23
-0.47277831965625694	-1.0861589985707708e-23
-0.47271728450000694	-1.0931435770388125e-23
-0.47265624934375694	-1.099241930043e-23
-0.47259521418750694	-1.1044486964072818e-23
-0.47253417903125694	-1.108759353572497e-23
-0.47247314387500694	-1.1121701442535529e-23
-0.47241210871875694	-1.114677752956118e-23
-0.47235107356250694	-1.1162797213189705e-23
-0.47229003840625694	-1.116974471014179e-23
