Time	Frequency
-0.5000610344062579	0.17047942984496003
-0.49999999925000793	0.18617758562840886
-0.49993896409375793	0.2017267324103443
-0.49987792893750793	0.21711379326751046
-0.49981689378125793	0.23232553956808144
-0.49975585862500793	0.2473489452072797
-0.49969482346875793	0.26217145065945296
-0.49963378831250793	0.27678057661426064
-0.49957275315625793	0.2911639578447094
-0.49951171800000793	0.3053094386433094
-0.49945068284375793	0.31920472288051704
-0.49938964768750793	0.3328378885675992
-0.49932861253125793	0.34619777619985154
-0.49926757737500793	0.3592731216953113
-0.49920654221875793	0.3720525517814046
-0.49914550706250793	0.38452513454150605
-0.49908447190625793	0.396680180141749
-0.49902343675000793	0.4085073454419334
-0.49896240159375793	0.419996819461594
-0.49890136643750793	0.4311388055228714
-0.49884033128125793	0.4419235791605455
-0.49877929612500793	0.45234187466314635
-0.49871826096875793	0.46238475600580814
-0.49865722581250793	0.47204372592006594
-0.49859619065625793	0.4813105812319989
-0.49853515550000793	0.49017722092167665
-0.49847412034375793	0.4986360519637414
-0.49841308518750793	0.5066799924119765
-0.49835205003125793	0.5143020101574654
-0.49829101487500793	0.5214952588419076
-0.49822997971875793	0.5282536167039621
-0.49816894456250793	0.5345714636479453
-0.49810790940625793	0.5404432253286146
-0.49804687425000793	0.5458637239258262
-0.49798583909375793	0.550828249816905
-0.49792480393750793	0.5553323889300656
-0.49786376878125793	0.559372242603058
-0.49780273362500793	0.5629442933730093
-0.49774169846875793	0.5660453029937293
-0.49768066331250793	0.5686724200721602
-0.49761962815625793	0.5708232823991055
-0.49755859300000793	0.5724960100608593
-0.49749755784375793	0.5736890063457387
-0.49743652268750793	0.5744010545997987
-0.49737548753125793	0.5746313566581813
-0.49731445237500793	0.5743794881367036
-0.49725341721875793	0.5736455944170898
-0.49719238206250793	0.572430196805295
-0.49713134690625793	0.5707340492355142
-0.49707031175000793	0.568558419628765
-0.49700927659375793	0.5659050139233877
-0.49694824143750793	0.5627758700836126
-0.49688720628125793	0.5591734670016287
-0.49682617112500793	0.5551006704209546
-0.49676513596875793	0.5505607187153231
-0.49670410081250793	0.5455574096546054
-0.49664306565625793	0.540094935653666
-0.49658203050000793	0.5341775251491375
-0.49652099534375793	0.5278098744145512
-0.49645996018750793	0.5209973769269655
-0.49639892503125793	0.5137457062750969
-0.49633788987500793	0.5060608467991441
-0.49627685471875793	0.49794915362345266
-0.49621581956250793	0.4894172237333095
-0.49615478440625793	0.48047205159441303
-0.49609374925000793	0.4711212105932405
-0.49603271409375793	0.46137251726788453
-0.49597167893750793	0.4512339178788379
-0.49591064378125793	0.44071382423909
-0.49584960862500793	0.4298211018621941
-0.49578857346875793	0.41856500468125796
-0.49572753831250793	0.406954849266568
-0.49566650315625793	0.395000018797111
-0.49560546800000793	0.38271051723558525
-0.49554443284375793	0.3700968292910153
-0.49548339768750793	0.35716962173956135
-0.49542236253125793	0.34393975987864983
-0.49536132737500793	0.3304182364400211
-0.49530029221875793	0.316616191807163
-0.49523925706250793	0.30254512714489207
-0.49517822190625793	0.28821700879386697
-0.49511718675000793	0.2736440188142237
-0.49505615159375793	0.2588384050409633
-0.49499511643750793	0.24381258890807667
-0.49493408128125793	0.22857919555137465
-0.49487304612500793	0.2131508495920004
-0.49481201096875793	0.19754040918651067
-0.49475097581250793	0.1817612766381497
-0.49468994065625793	0.1658269582402531
-0.49462890550000793	0.1497507282442819
-0.49456787034375793	0.13354598504079832
-0.49450683518750793	0.11722654178016326
-0.49444580003125793	0.1008061845614688
-0.49438476487500793	0.0842986256404351
-0.49432372971875793	0.0677177805731943
-0.49426269456250793	0.051077776352936116
-0.49420165940625793	0.03439280130500251
-0.49414062425000793	0.017676881781416628
-0.49407958909375793	0.0009438881101933595
-0.49401855393750793	-0.01579179847111966
-0.49395751878125793	-0.03251565281816971
-0.49389648362500793	-0.04921383665145076
-0.49383544846875793	-0.06587271301186252
-0.49377441331250793	-0.08247798449439951
-0.49371337815625793	-0.09901496875284015
-0.49365234300000793	-0.11546960997467373
-0.49359130784375793	-0.13182835873094328
-0.49353027268750793	-0.14807774916995134
-0.49346923753125793	-0.16420370387227942
-0.49340820237500793	-0.18019200423767842
-0.49334716721875793	-0.19602923950960396
-0.49328613206250793	-0.21170234990548517
-0.49322509690625793	-0.22719808040670583
-0.49316406175000793	-0.24250303162195097
-0.49310302659375793	-0.25760391970127383
-0.49304199143750793	-0.2724880134139472
-0.49298095628125793	-0.2871428956165432
-0.49291992112500793	-0.30155612909565055
-0.49285888596875793	-0.31571531527360397
-0.49279785081250793	-0.32960815863166953
-0.49273681565625793	-0.3432230547673149
-0.49267578050000793	-0.3565486266326781
-0.49261474534375793	-0.36957318242651177
-0.49255371018750793	-0.3822853286723393
-0.49249267503125793	-0.39467450376883867
-0.49243163987500793	-0.4067303894283011
-0.49237060471875793	-0.4184426367610525
-0.49230956956250793	-0.4298011680435434
-0.49224853440625793	-0.4407960575181076
-0.49218749925000793	-0.45141776379134935
-0.49212646409375793	-0.46165739802316064
-0.49206542893750793	-0.4715064230149736
-0.49200439378125793	-0.48095630826270513
-0.49194335862500793	-0.4899988135126909
-0.49188232346875793	-0.49862620697474397
-0.49182128831250793	-0.5068310333827688
-0.49176025315625793	-0.5146061761567616
-0.49169921800000793	-0.5219451574052899
-0.49163818284375793	-0.5288417431631369
-0.49157714768750793	-0.5352897408090644
-0.49151611253125793	-0.5412835798362592
-0.49145507737500793	-0.5468182013711659
-0.49139404221875793	-0.5518887088479777
-0.49133300706250793	-0.5564907435976877
-0.49127197190625793	-0.5606204450629932
-0.49121093675000793	-0.5642741570555477
-0.49114990159375793	-0.5674486335224039
-0.49108886643750793	-0.5701410809784577
-0.49102783128125793	-0.5723491093577288
-0.49096679612500793	-0.5740707599373497
-0.49090576096875793	-0.5753045471325157
-0.49084472581250793	-0.576049377223229
-0.49078369065625793	-0.5763044424736915
-0.49072265550000793	-0.5760693949074912
-0.49066162034375793	-0.575344494635329
-0.49060058518750793	-0.5741303419838629
-0.49053955003125793	-0.5724277327418233
-0.49047851487500793	-0.5702379595177991
-0.49041747971875793	-0.5675628858216857
-0.49035644456250793	-0.564404854135561
-0.49029540940625793	-0.5607665048286699
-0.49023437425000793	-0.5566507043055904
-0.49017333909375793	-0.5520608650647632
-0.49011230393750793	-0.5470009557228535
-0.49005126878125793	-0.5414751569969963
-0.48999023362500793	-0.5354880487014693
-0.48992919846875793	-0.529044852202294
-0.48986816331250793	-0.5221510199959815
-0.48980712815625793	-0.514812136113905
-0.48974609300000793	-0.5070344249418359
-0.48968505784375793	-0.4988246825493621
-0.48962402268750793	-0.4901897572609888
-0.48956298753125793	-0.4811368301788731
-0.48950195237500793	-0.47167375105451254
-0.48944091721875793	-0.46180857104818296
-0.48937988206250793	-0.45154949609763617
-0.48931884690625793	-0.44090527609901997
-0.48925781175000793	-0.4298850483145083
-0.48919677659375793	-0.41849821086036315
-0.48913574143750793	-0.4067544148507341
-0.48907470628125793	-0.3946635468287537
-0.48901367112500793	-0.3822358820133725
-0.48895263596875793	-0.36948210970946543
-0.48889160081250793	-0.3564132863240739
-0.48883056565625793	-0.3430404656191232
-0.48876953050000793	-0.3293747443944647
-0.48870849534375793	-0.31542786299363285
-0.48864746018750793	-0.30121195324947286
-0.48858642503125793	-0.2867391690571662
-0.48852538987500793	-0.2720217989558865
-0.48846435471875793	-0.25707228237877267
-0.48840331956250793	-0.24190352289416495
-0.48834228440625793	-0.22652867493283063
-0.48828124925000793	-0.21096056536369703
-0.48822021409375793	-0.19521231727467248
-0.48815917893750793	-0.179297731507804
-0.48809814378125793	-0.16323067563285326
-0.48803710862500793	-0.1470249693315928
-0.48797607346875793	-0.13069438526259577
-0.48791503831250793	-0.11425237793196415
-0.48785400315625793	-0.09771285552721264
-0.48779296800000793	-0.08109066586317593
-0.48773193284375793	-0.06440042344273345
-0.48767089768750793	-0.04765619671468223
-0.48760986253125793	-0.0308720249724901
-0.48754882737500793	-0.01406209364965615
-0.48748779221875793	0.002758845733783299
-0.48742675706250793	0.019576010180210046
-0.48736572190625793	0.03637519329211215
-0.48730468675000793	0.05314209581077212
-0.48724365159375793	0.06986216351635498
-0.48718261643750793	0.08652112834578247
-0.48712158128125793	0.10310468925375954
-0.48706054612500793	0.11959821927139638
-0.48699951096875793	0.13598758313178044
-0.48693847581250793	0.152259011279959
-0.48687744065625793	0.16839834875734364
-0.48681640550000793	0.18439151926019434
-0.48675537034375793	0.20022486268938966
-0.48669433518750793	0.2158847438299586
-0.48663330003125793	0.23135752322008932
-0.48657226487500793	0.24662985285934969
-0.48651122971875793	0.26168859558325785
-0.48645019456250793	0.27652074382987607
-0.48638915940625793	0.2911135644047188
-0.48632812425000793	0.30545440156669895
-0.48626708909375793	0.31953071588811893
-0.48620605393750793	0.3333303604332163
-0.48614501878125793	0.34684145933375765
-0.48608398362500793	0.36005222786015206
-0.48602294846875793	0.3729512504939307
-0.48596191331250793	0.38552755413745204
-0.48590087815625793	0.39777014146670775
-0.48583984300000793	0.4096680603046712
-0.48577880784375793	0.42121098140076874
-0.48571777268750793	0.43238919763130024
-0.48565673753125793	0.4431930966433386
-0.48559570237500793	0.4536130954322871
-0.48553466721875793	0.46363998354897135
-0.48547363206250793	0.47326514062674224
-0.48541259690625793	0.4824801538008134
-0.48535156175000793	0.49127688185253354
-0.48529052659375793	0.4996476679736226
-0.48522949143750793	0.5075853377197609
-0.48516845628125793	0.5150830170228893
-0.48510742112500793	0.5221340280909316
-0.48504638596875793	0.5287320225137392
-0.48498535081250793	0.5348711826841643
-0.48492431565625793	0.5405462294748938
-0.48486328050000793	0.5457521724727338
-0.48480224534375793	0.550484465232757
-0.48474121018750793	0.5547387924371271
-0.48468017503125793	0.5585113286827833
-0.48461913987500793	0.5617987817139712
-0.48455810471875793	0.564598194519373
-0.48449706956250793	0.5669069687655525
-0.48443603440625793	0.5687229643269082
-0.48437499925000793	0.5700445395421918
-0.48431396409375793	0.5708705140723557
-0.48425292893750793	0.5711999951039887
-0.48419189378125793	0.571032484291835
-0.48413085862500793	0.5703680606854578
-0.48406982346875793	0.5692071623820714
-0.48400878831250793	0.5675507156922962
-0.48394775315625793	0.5654000049305635
-0.48388671800000793	0.5627566870285197
-0.48382568284375793	0.5596229562341082
-0.48376464768750793	0.5560015070014545
-0.48370361253125793	0.551895248665294
-0.48364257737500793	0.5473075722808418
-0.48358154221875793	0.5422424219757332
-0.48352050706250793	0.5367039573104826
-0.48345947190625793	0.5306968079893336
-0.48339843675000793	0.524226210302059
-0.48333740159375793	0.5172976779253987
-0.48327636643750793	0.5099168577191259
-0.48321533128125793	0.5020900076662662
-0.48315429612500793	0.4938239854229091
-0.48309326096875793	0.4851257755493879
-0.48303222581250793	0.47600267092762494
-0.48297119065625793	0.4664626255588468
-0.48291015550000793	0.45651384682605295
-0.48284912034375793	0.4461646309031191
-0.48278808518750793	0.43542378098253814
-0.48272705003125793	0.4243005342335066
-0.48266601487500793	0.41280449155674326
-0.48260497971875793	0.40094570881447134
-0.48254394456250793	0.38873425036736325
-0.48248290940625793	0.3761803819703472
-0.48242187425000793	0.3632950242055608
-0.48236083909375793	0.35008926875763086
-0.48229980393750793	0.336574422360593
-0.48223876878125793	0.3227622503064907
-0.48217773362500793	0.308664549525686
-0.48211669846875793	0.2942931863879836
-0.48205566331250793	0.2796607316435235
-0.48199462815625793	0.2647802916361345
-0.48193359300000793	0.2496645900118027
-0.48187255784375793	0.2343260134142114
-0.48181152268750793	0.218777756244165
-0.48175048753125793	0.20303382140421947
-0.48168945237500793	0.1871079129366137
-0.48162841721875793	0.17101354830960486
-0.48156738206250793	0.15476451698531463
-0.48150634690625793	0.1383748980993215
-0.48144531175000793	0.12185904031691351
-0.48138427659375793	0.10523118727436184
-0.48132324143750793	0.08850566593629076
-0.48126220628125793	0.07169709229751683
-0.48120117112500793	0.05481990094573004
-0.48114013596875793	0.03788868253549675
-0.48107910081250793	0.020918412054092287
-0.48101806565625793	0.003923827701460087
-0.48095703050000793	-0.013080614309157688
-0.48089599534375793	-0.030080333027985677
-0.48083496018750793	-0.047060308873330445
-0.48077392503125793	-0.06400543017109128
-0.48071288987500793	-0.08090109063262885
-0.48065185471875793	-0.0977328475023443
-0.48059081956250793	-0.11448606336337183
-0.48052978440625793	-0.13114613244849624
-0.48046874925000793	-0.14769849082949368
-0.48040771409375793	-0.16412852840154155
-0.48034667893750793	-0.18042187362521647
-0.48028564378125793	-0.19656462821497472
-0.48022460862500793	-0.21254279963935196
-0.48016357346875793	-0.2283421429954109
-0.48010253831250793	-0.24394887402819806
-0.48004150315625793	-0.2593494384952092
-0.47998046800000793	-0.2745302134946418
-0.47991943284375793	-0.28947790310493926
-0.47985839768750793	-0.3041795776519138
-0.47979736253125793	-0.31862258133912835
-0.47973632737500793	-0.33279427418366836
-0.47967529221875793	-0.3466818278673473
-0.47961425706250793	-0.36027283052238496
-0.47955322190625793	-0.3735556545047545
-0.47949218675000793	-0.3865188926302009
-0.47943115159375793	-0.39915105118014
-0.47937011643750793	-0.41144080141456857
-0.47930908128125793	-0.42337731202901896
-0.47924804612500793	-0.4349503200611442
-0.47918701096875793	-0.44614959796904535
-0.47912597581250793	-0.4569648647525024
-0.47906494065625793	-0.4673866538679119
-0.47900390550000793	-0.4774061398931543
-0.47894287034375793	-0.4870142946364651
-0.47888183518750793	-0.4962023598002957
-0.47882080003125793	-0.5049622751346362
-0.47875976487500793	-0.5132863399850881
-0.47869872971875793	-0.521167097040676
-0.47863769456250793	-0.528597440103744
-0.47857665940625793	-0.5355708008818982
-0.47851562425000793	-0.542080960787566
-0.47845458909375793	-0.5481219337544406
-0.47839355393750793	-0.5536882510673246
-0.47833251878125793	-0.5587749793653597
-0.47827148362500793	-0.5633775649996694
-0.47821044846875793	-0.5674916753226064
-0.47814941331250793	-0.5711134868514671
-0.47808837815625793	-0.5742398264293396
-0.47802734300000793	-0.5768677015114702
-0.47796630784375793	-0.578994437400378
-0.47790527268750793	-0.5806180674086889
-0.47784423753125793	-0.5817370639912388
-0.47778320237500793	-0.5823501655852402
-0.47772216721875793	-0.5824566447534825
-0.47766113206250793	-0.5820562566282679
-0.47760009690625793	-0.5811490630647296
-0.47753906175000793	-0.5797355946804146
-0.47747802659375793	-0.5778168683773555
-0.47741699143750793	-0.5753944037188998
-0.47735595628125793	-0.5724701613426839
-0.47729492112500793	-0.5690464382729017
-0.47723388596875793	-0.565125892781327
-0.47717285081250793	-0.5607116624160065
-0.47711181565625793	-0.5558074913032349
-0.47705078050000793	-0.550417575378423
-0.47698974534375793	-0.5445463425915607
-0.47692871018750793	-0.5381985847376256
-0.47686767503125793	-0.531379604728392
-0.47680663987500793	-0.5240951355946504
-0.47674560471875793	-0.5163514327239175
-0.47668456956250793	-0.5081550168496932
-0.47662353440625793	-0.49951277400296806
-0.47656249925000793	-0.49043209053146886
-0.47650146409375793	-0.48092073987493245
-0.47644042893750793	-0.4709866565156824
-0.47637939378125793	-0.4606381410500532
-0.47631835862500793	-0.4498842365906323
-0.47625732346875793	-0.4387344791504948
-0.47619628831250793	-0.4271982676995595
-0.47613525315625793	-0.4152850735100883
-0.47607421800000793	-0.4030051845301265
-0.47601318284375793	-0.3903692017429597
-0.47595214768750793	-0.37738799209147494
-0.47589111253125793	-0.36407289904373913
-0.47583007737500793	-0.3504354652002009
-0.47576904221875793	-0.33648714646480254
-0.47570800706250793	-0.32223981365455995
-0.47564697190625793	-0.3077059126018589
-0.47558593675000793	-0.2928980306966062
-0.47552490159375793	-0.27782877868944017
-0.47546386643750793	-0.2625113041799213
-0.47540283128125793	-0.2469590847069194
-0.47534179612500793	-0.23118528952085035
-0.47528076096875793	-0.2152033909522512
-0.47521972581250793	-0.1990272747895882
-0.47515869065625793	-0.18267105380037907
-0.47509765550000793	-0.16614903330450942
-0.47503662034375793	-0.1494754678406504
-0.47497558518750793	-0.13266460233934363
-0.47491455003125793	-0.11573116023078844
-0.47485351487500793	-0.09868986373363581
-0.47479247971875793	-0.08155532929581834
-0.47473144456250793	-0.06434257452059516
-0.47467040940625793	-0.047066588789554234
-0.47460937425000793	-0.029742322376535256
-0.47454833909375793	-0.01238499729240674
-0.47448730393750793	0.004990400725368049
-0.47442626878125793	0.02236911886935739
-0.47436523362500793	0.03973570501744041
-0.47430419846875793	0.05707457463141999
-0.47424316331250793	0.07437100361013003
-0.47418212815625793	0.09161037685207961
-0.47412109300000793	0.1087774420381767
-0.47406005784375793	0.12585685902583346
-0.47399902268750793	0.14283368704026336
-0.47393798753125793	0.1596931460890861
-0.47387695237500793	0.17642056463621755
-0.47381591721875793	0.19300166544924816
-0.47375488206250793	0.20942211359058652
-0.47369384690625793	0.22566720358240672
-0.47363281175000793	0.24172243620826928
-0.47357177659375793	0.2575737177885828
-0.47351074143750793	0.2732072791316405
-0.47344970628125793	0.28860970296902283
-0.47338867112500793	0.3037676407323556
-0.47332763596875793	0.3186674936861975
-0.47326660081250793	0.33329603442183375
-0.47320556565625793	0.3476406945822345
-0.47314453050000793	0.3616888996596294
-0.47308349534375793	0.37542812262323005
-0.47302246018750793	0.3888461500249372
-0.47296142503125793	0.4019311047581996
-0.47290038987500793	0.4146717813421305
-0.47283935471875793	0.4270573443868606
-0.47277831956250793	0.43907656668762374
-0.47271728440625793	0.4507183423675826
-0.47265624925000793	0.4619725345009167
-0.47259521409375793	0.4728295133063075
-0.47253417893750793	0.4832797141101382
-0.47247314378125793	0.4933138675252184
-0.47241210862500793	0.5029229267221551
-0.47235107346875793	0.5120982262753052
-0.47229003831250793	0.5208317808818442
-0.47222900315625793	0.5291160046644972
-0.47216796800000793	0.5369434335210773
-0.47210693284375793	0.5443069378732187
-0.47204589768750793	0.5512000410556516
-0.47198486253125793	0.5576166862421336
-0.47192382737500793	0.5635509979634289
-0.47186279221875793	0.568997550555959
-0.47180175706250793	0.5739515272953092
-0.47174072190625793	0.5784085556120451
-0.47167968675000793	0.5823645614957922
-0.47161865159375793	0.5858158829220068
-0.47155761643750793	0.5887593637313473
-0.47149658128125793	0.5911922136543205
-0.47143554612500793	0.5931121806819759
-0.47137451096875793	0.5945175595491802
-0.47131347581250793	0.5954068799731916
-0.47125244065625793	0.595779178190055
-0.47119140550000793	0.5956340403214093
-0.47113037034375793	0.5949713821419322
-0.47106933518750793	0.5937916626150536
-0.47100830003125793	0.5920958191629434
-0.47094726487500793	0.5898850650432536
-0.47088622971875793	0.5871611717656082
-0.47082519456250793	0.5839265107359896
-0.47076415940625793	0.5801838057657372
-0.47070312425000793	0.5759361478217528
-0.47064208909375793	0.5711869692020346
-0.47058105393750793	0.5659402370349941
-0.47052001878125793	0.5602005260045152
-0.47045898362500793	0.553972707945037
-0.47039794846875793	0.5472621398740548
-0.47033691331250793	0.5400746689825567
-0.47027587815625793	0.5324162985559051
-0.47021484300000793	0.5242935912745694
