Time	Frequency
-0.5000505443750001	0.500905544239585
-0.4999895092187501	0.5037645754826968
-0.4999284740625001	0.5063542093719794
-0.4998674389062501	0.5086674972530576
-0.4998064037500001	0.5105943416717602
-0.4997453685937501	0.5121420062976777
-0.4996843334375001	0.5134190749512888
-0.4996232982812501	0.5144127964434146
-0.4995622631250001	0.5150120553501448
-0.4995012279687501	0.5152320089938482
-0.4994401928125001	0.5151836568079066
-0.4993791576562501	0.5148475990094609
-0.4993181225000001	0.514112461327758
-0.4992570873437501	0.5130022948891528
-0.4991960521875001	0.511629622539379
-0.4991350170312501	0.5099673346207985
-0.4990739818750001	0.5079046646720414
-0.4990129467187501	0.5054755370861047
-0.4989519115625001	0.5027931368958648
-0.4988908764062501	0.4998218596388242
-0.4988298412500001	0.49645251265221807
-0.4987688060937501	0.4927294447120978
-0.4987077709375001	0.4887654057586948
-0.4986467357812501	0.48451580466261185
-0.4985857006250001	0.47987398126613007
-0.4985246654687501	0.47489522134810286
-0.4984636303125001	0.46969100501362454
-0.4984025951562501	0.464207190581889
-0.4983415600000001	0.4583405215753965
-0.4982805248437501	0.45215751211699134
-0.4982194896875001	0.44576706243217534
-0.4981584545312501	0.43910538148360556
-0.4980974193750001	0.43207428152065697
-0.4980363842187501	0.4247515723357625
-0.4979753490625001	0.417241745636053
-0.4979143139062501	0.40947093240982574
-0.4978532787500001	0.4013473186896955
-0.4977922435937501	0.39296028382582865
-0.4977312084375001	0.3844091342421371
-0.4976701732812501	0.3756103217393571
-0.4976091381250001	0.366478979920356
-0.4975481029687501	0.35711478539699726
-0.4974870678125001	0.3476105279692991
-0.4974260326562501	0.33787408401446134
-0.4973649975000001	0.3278294271026648
-0.4973039623437501	0.317585810167553
-0.4972429271875001	0.3072275860321214
-0.4971818920312501	0.2966545413707064
-0.4971208568750001	0.28580087584343994
-0.4970598217187501	0.27478458669501976
-0.4969987865625001	0.2636801086566547
-0.4969377514062501	0.2523798598457651
-0.4968767162500001	0.24082938522892292
-0.4968156810937501	0.22915477167982506
-0.4967546459375001	0.21742006432339786
-0.4966936107812501	0.20551100921607604
-0.4966325756250001	0.19338448558876195
-0.4965715404687501	0.18117273744757448
-0.4965105053125001	0.16892860722771744
-0.4964494701562501	0.15653409662215886
-0.4963884350000001	0.14395864695703586
-0.4963273998437501	0.13133795631094847
-0.4962663646875001	0.11871261902631833
-0.4962053295312501	0.10596155143074953
-0.4961442943750001	0.0930670577533308
-0.4960832592187501	0.0801686410173217
-0.4960222240625001	0.06729441241631676
-0.4959611889062501	0.05432064534714732
-0.4959001537500001	0.041242460285341134
-0.4958391185937501	0.028200689917727458
-0.4957780834375001	0.015210682944019838
-0.4957170482812501	0.0021493374818357535
-0.4956560131250001	-0.010974894480492079
-0.4955949779687501	-0.024023058655825335
-0.4955339428125001	-0.03699302424592285
-0.4954729076562501	-0.050005306897871554
-0.4954118725000001	-0.06303890704781571
-0.4953508373437501	-0.0759575528087653
-0.4952898021875001	-0.08877088373862524
-0.4952287670312501	-0.10159672603720317
-0.4951677318750001	-0.11440321603860046
-0.4951066967187501	-0.1270576337115321
-0.4950456615625001	-0.13958029780123035
-0.4949846264062501	-0.15208513305800728
-0.4949235912500001	-0.16453028804653758
-0.4948625560937501	-0.176787593232849
-0.4948015209375001	-0.1888872070275627
-0.4947404857812501	-0.20093890729513306
-0.4946794506250001	-0.21289245846172922
-0.4946184154687501	-0.22462488188433785
-0.4945573803125001	-0.23617455046716906
-0.4944963451562501	-0.2476458060986334
-0.4944353100000001	-0.25898121307931876
-0.4943742748437501	-0.2700647561887781
-0.4943132396875001	-0.28094263509472917
-0.4942522045312501	-0.2917129030254866
-0.4941911693750001	-0.3023115776103587
-0.4941301342187501	-0.31262938376012017
-0.4940690990625001	-0.3227193446858388
-0.4940080639062501	-0.33267422809409025
-0.4939470287500001	-0.34242499980395696
-0.4938859935937501	-0.35186856012450474
-0.4938249584375001	-0.36106329125232
-0.4937639232812501	-0.37009683431195967
-0.4937028881250001	-0.3788964195200772
-0.4936418529687501	-0.38736552789859985
-0.4935808178125001	-0.3955674643477015
-0.4935197826562501	-0.40358422405588906
-0.4934587475000001	-0.41133933563815006
-0.4933977123437501	-0.4187430569484266
-0.4933366771875001	-0.42586355260426223
-0.4932756420312501	-0.43277821802067623
-0.4932146068750001	-0.43940768536241454
-0.4931535717187501	-0.4456674539898079
-0.4930925365625001	-0.4516292654549442
-0.4930315014062501	-0.4573669298293952
-0.4929704662500001	-0.462799504039407
-0.4929094310937501	-0.4678479195042182
-0.4928483959375001	-0.47258706217206387
-0.4927873607812501	-0.47708671182734863
-0.4927263256250001	-0.4812641187189587
-0.4926652904687501	-0.4850454723426654
-0.4926042553125001	-0.4885091760579499
-0.4925432201562501	-0.49172195115318734
-0.4924821850000001	-0.494599344136799
-0.4924211498437501	-0.49707207089571315
-0.4923601146875001	-0.4992218124818498
-0.4922990795312501	-0.5011124019974008
-0.4922380443750001	-0.5026576555168277
-0.4921770092187501	-0.5037928587481849
-0.4921159740625001	-0.504603473951296
-0.4920549389062501	-0.5051507156264918
-0.4919939037500001	-0.5053461974400235
-0.4919328685937501	-0.5051294439642509
-0.4918718334375001	-0.5045899170048157
-0.4918107982812501	-0.5037863061390934
-0.4917497631250001	-0.5026278456377912
-0.4916887279687501	-0.5010584784356054
-0.4916276928125001	-0.49917214454849357
-0.4915666576562501	-0.4970247921719964
-0.4915056225000001	-0.49452257675061795
-0.4914445873437501	-0.49161404264846886
-0.4913835521875001	-0.4883982784501551
-0.4913225170312501	-0.484928221191264
-0.4912614818750001	-0.4811063850306638
-0.4912004467187501	-0.4768863002208883
-0.4911394115625001	-0.472372568579468
-0.4910783764062501	-0.4676145612383736
-0.4910173412500001	-0.46251095695570055
-0.4909563060937501	-0.45702091039694787
-0.4908952709375001	-0.451254607352371
-0.4908342357812501	-0.4452570845315663
-0.4907732006250001	-0.43892287300107036
-0.4907121654687501	-0.4322175230235205
-0.4906511303125001	-0.4252571537320315
-0.4905900951562501	-0.4180814897678553
-0.4905290600000001	-0.410580900943251
-0.4904680248437501	-0.4027284753032142
-0.4904069896875001	-0.3946456104827334
-0.4903459545312501	-0.38636514111335946
-0.4902849193750001	-0.3777739447385819
-0.4902238842187501	-0.36885440344875003
-0.4901628490625001	-0.359732796925353
-0.4901018139062501	-0.35043342607824085
-0.4900407787500001	-0.34083969152526433
-0.4899797435937501	-0.33094410340477065
-0.4899187084375001	-0.32087749166000706
-0.4898576732812501	-0.3106552880427292
-0.4897966381250001	-0.30015818805554006
-0.4897356029687501	-0.2893889296428246
-0.4896745678125001	-0.2784815207328788
-0.4896135326562501	-0.2674420300106735
-0.4895524975000001	-0.2561496989967235
-0.4894914623437501	-0.24461830680561267
-0.4894304271875001	-0.23298408320275496
-0.4893693920312501	-0.22124205585800574
-0.4893083568750001	-0.20927042396086876
-0.4892473217187501	-0.19709617470748514
-0.4891862865625001	-0.1848570952241487
-0.4891252514062501	-0.17253524215952953
-0.4890642162500001	-0.16000877577865244
-0.4890031810937501	-0.14731815917054802
-0.4889421459375001	-0.13460106390987636
-0.4888811107812501	-0.12182742557572118
-0.4888200756250001	-0.10887712827372467
-0.4887590404687501	-0.09580302360709685
-0.4886980053125001	-0.08274092686936786
-0.4886369701562501	-0.069648892996688
-0.4885759350000001	-0.05640973350824648
-0.4885148998437501	-0.04308889662139139
-0.4884538646875001	-0.0298187559110262
-0.4883928295312501	-0.01654468860441665
-0.4883317943750001	-0.003154543073653989
-0.4882707592187501	0.010272896859733606
-0.4882097240625001	0.02361096722333478
-0.4881486889062501	0.03692730051842778
-0.4880876537500001	0.05032809926512006
-0.4880266185937501	0.06372231769132972
-0.4879655834375001	0.07698930990589672
-0.4879045482812501	0.09020790242431453
-0.4878435131250001	0.1034773751038082
-0.4877824779687501	0.11669636088522636
-0.4877214428125001	0.1297525989599798
-0.4876604076562501	0.14273504141969962
-0.4875993725000001	0.15573395447643998
-0.4875383373437501	0.16863843458036074
-0.4874773021875001	0.18134616261956385
-0.4874162670312501	0.19395561153337268
-0.4873552318750001	0.20654667231850732
-0.4872941967187501	0.21899969171429717
-0.4872331615625001	0.23122415517163306
-0.4871721264062501	0.2433273338583556
-0.4871110912500001	0.25537735027792824
-0.4870500560937501	0.2672475410911215
-0.4869890209375001	0.2788601314600399
-0.4869279857812501	0.29032882623188594
-0.4868669506250001	0.3017094085921494
-0.4868059154687501	0.3128701751295223
-0.4867448803125001	0.3237467108992309
-0.4866838451562501	0.3344584869420483
-0.4866228100000001	0.34504928452303035
-0.4865617748437501	0.3553834207192688
-0.4865007396875001	0.3654089512706569
-0.4864397045312501	0.3752487813877577
-0.4863786693750001	0.38493527313254333
-0.4863176342187501	0.3943317320463209
-0.4862565990625001	0.4033990870254962
-0.4861955639062501	0.41226201158608594
-0.4861345287500001	0.42094148218265476
-0.4860734935937501	0.4293006127676526
-0.4860124584375001	0.43731221091649985
-0.4859514232812501	0.44510163468886094
-0.4858903881250001	0.45267987388489817
-0.4858293529687501	0.4599116553919152
-0.4857683178125001	0.4667812586953406
-0.4857072826562501	0.473413482051182
-0.4856462475000001	0.47980930828935725
-0.4855852123437501	0.48583567668228717
-0.4855241771875001	0.4914879015557926
-0.4854631420312501	0.4968896449939072
-0.4854021068750001	0.5020330862704113
-0.4853410717187501	0.5067887397592694
-0.4852800365625001	0.5111618581030368
-0.4852190014062501	0.5152735160934473
-0.4851579662500001	0.519108192068071
-0.4850969310937501	0.5225408415600854
-0.4850358959375001	0.525585350162257
-0.4849748607812501	0.5283601024225264
-0.4849138256250001	0.5308433581183686
-0.4848527904687501	0.5329145961027123
-0.4847917553125001	0.5345952925543913
-0.4847307201562501	0.5360009699382013
-0.4846696850000001	0.5371043429186003
-0.4846086498437501	0.5377895263443154
-0.4845476146875001	0.5380849807521648
-0.4844865795312501	0.538103515390608
-0.4844255443750001	0.5378131213133527
-0.4843645092187501	0.5371023304664013
-0.4843034740625001	0.5360058010569855
-0.4842424389062501	0.5346338406519705
-0.4841814037500001	0.5329502796214037
-0.4841203685937501	0.5308479488687627
-0.4840593334375001	0.5283673201395952
-0.4839982982812501	0.5256162505077632
-0.4839372631250001	0.5225548258640307
-0.4838762279687501	0.519079989043629
-0.4838151928125001	0.5152374555558388
-0.4837541576562501	0.5111330763535794
-0.4836931225000001	0.5067237803626126
-0.4836320873437501	0.5019100054754475
-0.4835710521875001	0.4967422586532401
-0.4835100170312501	0.49132492419884904
-0.4834489818750001	0.4856118287730663
-0.4833879467187501	0.47950628023572184
-0.4833269115625001	0.4730637132989468
-0.4832658764062501	0.4663876830737928
-0.4832048412500001	0.45942877820759886
-0.4831438060937501	0.4520927885737175
-0.4830827709375001	0.4444400448366125
-0.4830217357812501	0.4365729372713098
-0.4829607006250001	0.4284385836197014
-0.4828996654687501	0.4199455284170703
-0.4828386303125001	0.411159553582719
-0.4827775951562501	0.40218239352322943
-0.4827165600000001	0.3929566476481534
-0.4826555248437501	0.38339262680301833
-0.4825944896875001	0.37356254462405686
-0.4825334545312501	0.3635674488860928
-0.4824724193750001	0.3533446174187793
-0.4824113842187501	0.34280692730884094
-0.4823503490625001	0.33203357282871343
-0.4822893139062501	0.3211241249084478
-0.4822282787500001	0.3100098679390307
-0.4821672435937501	0.2986065244437542
-0.4821062084375001	0.2870004578463165
-0.4820451732812501	0.27528923140583306
-0.4819841381250001	0.26339802861591227
-0.4819231029687501	0.25124606688519613
-0.4818620678125001	0.2389274476596717
-0.4818010326562501	0.22653690095044252
-0.4817399975000001	0.21399208218177806
-0.4816789623437501	0.20121633586010887
-0.4816179271875001	0.1883123242079777
-0.4815568920312501	0.17537078663878586
-0.4814958568750001	0.16230208921168035
-0.4814348217187501	0.1490354859716433
-0.4813737865625001	0.13568140379274435
-0.4813127514062501	0.12232404643316454
-0.4812517162500001	0.10886610102036398
-0.4811906810937501	0.09524491170311791
-0.4811296459375001	0.08157980220697901
-0.4810686107812501	0.06794701925157157
-0.4810075756250001	0.0542408626554827
-0.4809465404687501	0.04040679048213639
-0.4808855053125001	0.026572161189329837
-0.4808244701562501	0.01280565253339215
-0.4807634350000001	-0.001005468153942391
-0.4807023998437501	-0.014907569253214199
-0.4806413646875001	-0.028766669754451753
-0.4805803295312501	-0.042523057008326766
-0.4805192943750001	-0.05629580863963859
-0.4804582592187501	-0.07012137358174152
-0.4803972240625001	-0.0838592632256927
-0.4803361889062501	-0.09746061933254166
-0.4802751537500001	-0.11105118024394268
-0.4802141185937501	-0.12465572963182829
-0.4801530834375001	-0.13812800497803696
-0.4800920482812501	-0.15143221496360243
-0.4800310131250001	-0.1646991415011527
-0.4799699779687501	-0.17794009223078014
-0.4799089428125001	-0.19100484238486876
-0.4798479076562501	-0.2038714696311728
-0.4797868725000001	-0.21667493906748408
-0.4797258373437501	-0.22941372089483822
-0.4796648021875001	-0.24193465273186618
-0.4796037670312501	-0.25422923243209944
-0.4795427318750001	-0.2664348812722349
-0.4794816967187501	-0.27853682062944746
-0.4794206615625001	-0.2903811344156708
-0.4793596264062501	-0.3019739960681656
-0.4792985912500001	-0.3134539222357457
-0.4792375560937501	-0.32479219388385666
-0.4791765209375001	-0.33583559216248676
-0.4791154857812501	-0.3466051007197277
-0.4790544506250001	-0.35723818550703607
-0.4789934154687501	-0.3676923177188965
-0.4789323803125001	-0.3778176636036793
-0.4788713451562501	-0.3876503945873301
-0.4788103100000001	-0.3973250320682935
-0.4787492748437501	-0.40678519758484977
-0.4786882396875001	-0.41588595916745374
-0.4786272045312501	-0.4246780193861081
-0.4785661693750001	-0.43329129110101483
-0.4785051342187501	-0.44165682481882185
-0.4784440990625001	-0.4496369197697878
-0.4783830639062501	-0.45729602592306196
-0.4783220287500001	-0.4647572075966809
-0.4782609935937501	-0.47193946464963615
-0.4781999584375001	-0.4787141528967306
-0.4781389232812501	-0.4851588206928364
-0.4780778881250001	-0.49138869536623736
-0.4780168529687501	-0.49731197546640576
-0.4779558178125001	-0.5028097522196592
-0.4778947826562501	-0.5079712691099055
-0.4778337475000001	-0.512903333880411
-0.4777727123437501	-0.5175049959112193
-0.4777116771875001	-0.5216679285266298
-0.4776506420312501	-0.5254912758038371
-0.4775896068750001	-0.5290724928501362
-0.4775285717187501	-0.5323035108199148
-0.4774675365625001	-0.5350876058149869
-0.4774065014062501	-0.5375319588096631
-0.4773454662500001	-0.5397240445990104
-0.4772844310937501	-0.5415503122213086
-0.4772233959375001	-0.542925783367615
-0.4771623607812501	-0.5439642571573763
-0.4771013256250001	-0.5447434282777502
-0.4770402904687501	-0.545145768499311
-0.4769792553125001	-0.5450979578506402
-0.4769182201562501	-0.5447189223249363
-0.4768571850000001	-0.5440765706404396
-0.4767961498437501	-0.5430507766973854
-0.4767351146875001	-0.5415797892889243
-0.4766740795312501	-0.5397863025961527
-0.4766130443750001	-0.537728701342762
-0.4765520092187501	-0.5352858398594073
-0.4764909740625001	-0.5324072120047456
-0.4764299389062501	-0.529217646148361
-0.4763689037500001	-0.5257664777897806
-0.4763078685937501	-0.5219327211285157
-0.4762468334375001	-0.5176761643258523
-0.4761857982812501	-0.5131230056157355
-0.4761247631250001	-0.5083147920488065
-0.4760637279687501	-0.5031315119197198
-0.4760026928125001	-0.4975420877179038
-0.4759416576562501	-0.49167297738197424
-0.4758806225000001	-0.4855587267763659
-0.4758195873437501	-0.4790811031379406
-0.4757585521875001	-0.4722172822569002
-0.4756975170312501	-0.4650935460320948
-0.4756364818750001	-0.4577384042693532
-0.4755754467187501	-0.4500356429897821
-0.4755144115625001	-0.4419699657634604
-0.4754533764062501	-0.4336673088738242
-0.4753923412500001	-0.42515007268826394
-0.4753313060937501	-0.4163035713842439
-0.4752702709375001	-0.40712027011172697
-0.4752092357812501	-0.3977264981097152
-0.4751482006250001	-0.38813877519833295
-0.4750871654687501	-0.37824350885949615
-0.4750261303125001	-0.3680397031965324
-0.4749650951562501	-0.35765366410345245
-0.4749040600000001	-0.34709760637566844
-0.4748430248437501	-0.336259607845227
-0.4747819896875001	-0.3251436451639046
-0.4747209545312501	-0.3138756163351778
-0.4746599193750001	-0.3024641392942827
-0.4745988842187501	-0.2907985728155267
-0.4745378490625001	-0.27888794302373787
-0.4744768139062501	-0.26685838125966654
-0.4744157787500001	-0.2547143383521571
-0.4743547435937501	-0.24234567819678138
-0.4742937084375001	-0.22976643753941356
-0.4742326732812501	-0.2171034480620966
-0.4741716381250001	-0.2043570287540596
-0.4741106029687501	-0.19141697276251587
-0.4740495678125001	-0.1783028047342537
-0.4739885326562501	-0.16514243347096802
-0.4739274975000001	-0.15193076649793638
-0.4738664623437501	-0.13855693898671806
-0.4738054271875001	-0.12504700524864462
-0.4737443920312501	-0.11153027440944237
-0.4736833568750001	-0.09799531907549494
-0.4736223217187501	-0.08433051526603795
-0.4735612865625001	-0.07056888760645634
-0.4735002514062501	-0.05684070068009148
-0.4734392162500001	-0.04312791656273285
-0.4733781810937501	-0.029318257205645206
-0.4733171459375001	-0.015451704491955737
-0.4732561107812501	-0.0016594453692350614
-0.4731950756250001	0.012083812456355333
-0.4731340404687501	0.025891013398595217
-0.4730730053125001	0.039714063480401005
-0.4730119701562501	0.053421354335280224
-0.4729509350000001	0.06704713408584893
-0.4728898998437501	0.08070470678119926
-0.4728288646875001	0.09433676419692166
-0.4727678295312501	0.10781178476468961
-0.4727067943750001	0.12117345196219792
-0.4726457592187501	0.13453439391693753
-0.4725847240625001	0.14782807567293785
-0.4725236889062501	0.16092530770301433
-0.4724626537500001	0.17388020761223422
-0.4724016185937501	0.18680280972834695
-0.4723405834375001	0.19961556632021496
-0.4722795482812501	0.21219245448812937
-0.4722185131250001	0.22459969536590904
-0.4721574779687501	0.23694477810626213
-0.4720964428125001	0.24913922983575826
-0.4720354076562501	0.2610610876360144
-0.4719743725000001	0.27278771257177986
-0.4719133373437501	0.28442218622660315
-0.4718523021875001	0.2958658474049526
-0.4717912670312501	0.30700302337004337
-0.4717302318750001	0.31792267410503916
-0.4716691967187501	0.32872211318145766
-0.4716081615625001	0.33929168688637107
-0.4715471264062501	0.3495231681308091
-0.4714860912500001	0.35951777103204974
-0.4714250560937501	0.36936560901952653
-0.4713640209375001	0.3789463319560207
-0.4713029857812501	0.3881613169953978
-0.4712419506250001	0.3971232662382698
-0.4711809154687501	0.40591312272932933
-0.4711198803125001	0.41440086162517187
-0.4710588451562501	0.42249897867738956
-0.4709978100000001	0.4303309154601033
-0.4709367748437501	0.4379675602892198
-0.4708757396875001	0.4452702898452322
-0.4708147045312501	0.4521638143061452
-0.4707536693750001	0.45878090468248994
-0.4706926342187501	0.46518104816873607
-0.4706315990625001	0.4712185948703794
-0.4705705639062501	0.4768320505580885
-0.4705095287500001	0.4821624762346741
-0.4704484935937501	0.4872567022793021
-0.4703874584375001	0.49196314723109275
-0.4703264232812501	0.49623519861022813
-0.4702653881250001	0.5002205371370372
-0.4702043529687501	0.5039524597372524
-0.4701433178125001	0.5072757585501472
-0.4700822826562501	0.5101596666017246
-0.4700212475000001	0.5127564356806037
-0.4699602123437501	0.5150849362414647
-0.4698991771875001	0.51698803326083
-0.4698381420312501	0.5184515134518269
-0.4697771068750001	0.5196305710844925
-0.4697160717187501	0.5205294087142579
-0.4696550365625001	0.5209909115196649
-0.4695940014062501	0.5210174458161104
