Time	Frequency
-0.5000066753437409	0.5625700217014618
-0.4999456401874909	0.5661785132630867
-0.4998846050312409	0.5693095851965241
-0.4998235698749909	0.5719743752778714
-0.4997625347187409	0.574147402603035
-0.4997014995624909	0.5758404803506894
-0.4996404644062409	0.577057556507289
-0.4995794292499909	0.5777767184664199
-0.4995183940937409	0.5780165132918015
-0.4994573589374909	0.5777730701166014
-0.4993963237812409	0.5770311511874092
-0.4993352886249909	0.5758128214194744
-0.4992742534687409	0.5741074735542773
-0.4992132183124909	0.5719085744772012
-0.4991521831562409	0.5692380896274266
-0.4990911479999909	0.5660809745791044
-0.4990301128437409	0.5624403548318191
-0.4989690776874909	0.558334918289834
-0.4989080425312409	0.5537478055612006
-0.4988470073749909	0.5486910421123817
-0.4987859722187409	0.5431780704403663
-0.4987249370624909	0.5371938607296423
-0.4986639019062409	0.5307578017449478
-0.4986028667499909	0.523876655014408
-0.4985418315937409	0.5165395456609017
-0.4984807964374909	0.5087704741193945
-0.4984197612812409	0.5005700878494119
-0.4983587261249909	0.49193452717864683
-0.4982976909687409	0.4828894756870548
-0.4982366558124909	0.4734301558063567
-0.4981756206562409	0.46356055606229174
-0.4981145854999909	0.45330526489005896
-0.4980535503437409	0.4426567772300347
-0.4979925151874909	0.4316275940818107
-0.4979314800312409	0.4202383865808703
-0.4978704448749909	0.40848032865131884
-0.4978094097187409	0.3963731954877709
-0.4977483745624909	0.3839332627231055
-0.4976873394062409	0.3711542305228209
-0.4976263042499909	0.35806116106431907
-0.4975652690937409	0.3446637795329009
-0.4975042339374909	0.33095975834258795
-0.4974431987812409	0.316977816320078
-0.4973821636249909	0.3027226969455658
-0.4973211284687409	0.2881981978930797
-0.4972600933124909	0.27343303743092995
-0.4971990581562409	0.2584270414969687
-0.4971380229999909	0.2431915543170447
-0.4970769878437409	0.22775371262273017
-0.4970159526874909	0.21211029404870893
-0.4969549175312409	0.196279704211986
-0.4968938823749909	0.1802851707680465
-0.4968328472187409	0.16412301236025537
-0.4967718120624909	0.14781759054581056
-0.4967107769062409	0.13138613196772134
-0.4966497417499909	0.11482741697358338
-0.4965887065937409	0.09817104400529011
-0.4965276714374909	0.08142766794489428
-0.4964666362812409	0.06459964368683066
-0.4964056011249909	0.0477181297324826
-0.4963445659687409	0.030787866908045955
-0.4962835308124909	0.01381809346065211
-0.4962224956562409	-0.00316025037858777
-0.4961614604999909	-0.020147637235234443
-0.4961004253437409	-0.03712848391747064
-0.4960393901874909	-0.05407530055015391
-0.4959783550312409	-0.07099107773403888
-0.4959173198749909	-0.08785347666723146
-0.4958562847187409	-0.10464093981807153
-0.4957952495624909	-0.12135635944964433
-0.4957342144062409	-0.1379710547463497
-0.4956731792499909	-0.1544709362534857
-0.4956121440937409	-0.17085723480586926
-0.4955511089374909	-0.187097895527076
-0.4954900737812409	-0.20318591919782258
-0.4954290386249909	-0.21911701227905722
-0.4953680034687409	-0.2348591808347038
-0.4953069683124909	-0.2504130663240379
-0.4952459331562409	-0.26576692682877
-0.4951848979999909	-0.2808911523586336
-0.4951238628437409	-0.29579159067613203
-0.4950628276874909	-0.3104490253725755
-0.4950017925312409	-0.32484011709918603
-0.4949407573749909	-0.33897317154966283
-0.4948797222187409	-0.35282215265612604
-0.4948186870624909	-0.3663715961876843
-0.4947576519062409	-0.3796281411558818
-0.4946966167499909	-0.3925613823943912
-0.4946355815937409	-0.4051656823381037
-0.4945745464374909	-0.4174430487337396
-0.4945135112812409	-0.4293616277707443
-0.4944524761249909	-0.44092516098348566
-0.4943914409687409	-0.45212848924762095
-0.4943304058124909	-0.4629417088523511
-0.4942693706562409	-0.4733756344581306
-0.4942083354999909	-0.4834170143220633
-0.4941473003437409	-0.49304248810338114
-0.4940862651874909	-0.5022668900107843
-0.4940252300312409	-0.511068611593058
-0.4939641948749909	-0.5194333616492316
-0.4939031597187409	-0.5273762428997841
-0.4938421245624909	-0.5348699491943559
-0.4937810894062409	-0.5419109909507818
-0.4937200542499909	-0.5485102617049813
-0.4936590190937409	-0.5546380056052281
-0.4935979839374909	-0.5603016773659483
-0.4935369487812409	-0.5655050188868994
-0.4934759136249909	-0.5702201397992718
-0.4934148784687409	-0.5744633738906284
-0.4933538433124909	-0.5782293501285427
-0.4932928081562409	-0.5814962293700906
-0.4932317729999909	-0.5842859604218551
-0.4931707378437409	-0.5865843311252746
-0.4931097026874909	-0.5883789742146333
-0.4930486675312409	-0.5896929499978496
-0.4929876323749909	-0.5905049958967872
-0.4929265972187409	-0.5908143758180349
-0.4928655620624909	-0.5906411773852018
-0.4928045269062409	-0.5899605072598875
-0.4927434917499909	-0.5887831916897173
-0.4926824565937409	-0.5871225745786463
-0.4926214214374909	-0.5849545152293414
-0.4925603862812409	-0.5822998630162516
-0.4924993511249909	-0.5791629844968945
-0.4924383159687409	-0.5755248622556959
-0.4923772808124909	-0.571413205834371
-0.4923162456562409	-0.5668229898145949
-0.4922552104999909	-0.5617438927598902
-0.4921941753437409	-0.556206188228143
-0.4921331401874909	-0.5501970787593047
-0.4920721050312409	-0.5437173508631193
-0.4920110698749909	-0.536795093929789
-0.4919500347187409	-0.5294125934495432
-0.4918889995624909	-0.5215826882366509
-0.4918279644062409	-0.5133280736718729
-0.4917669292499909	-0.5046300809526955
-0.4917058940937409	-0.49551137634683273
-0.4916448589374909	-0.48598620671222686
-0.4915838237812409	-0.47603987185979163
-0.4915227886249909	-0.46570273947589186
-0.4914617534687409	-0.4549794409894706
-0.4914007183124909	-0.44386235284944126
-0.4913396831562409	-0.43238595397644836
-0.4912786479999909	-0.4205468659138384
-0.4912176128437409	-0.408346815501355
-0.4911565776874909	-0.3958191750487728
-0.4910955425312409	-0.38295457339780326
-0.4910345073749909	-0.36976571762404525
-0.4909734722187409	-0.35628218870388123
-0.4909124370624909	-0.3424924038978774
-0.4908514019062409	-0.32841853694533735
-0.4907903667499909	-0.31408249522477805
-0.4907293315937409	-0.2994739746158538
-0.4906682964374909	-0.28462336161055996
-0.4906072612812409	-0.26954440110962036
-0.4905462261249909	-0.2542312882862671
-0.4904851909687409	-0.23871898214807238
-0.4904241558124909	-0.2230134512884779
-0.4903631206562409	-0.20711598107412368
-0.4903020854999909	-0.19106157198511464
-0.4902410503437409	-0.17484947409008275
-0.4901800151874909	-0.15849052036557223
-0.4901189800312409	-0.14201771196075738
-0.4900579448749909	-0.12542593709837535
-0.4899969097187409	-0.10873409423318131
-0.4899358745624909	-0.09196944117247427
-0.4898748394062409	-0.07512596294392666
-0.4898138042499909	-0.05823041377301347
-0.4897527690937409	-0.04130319189260302
-0.4896917339374909	-0.024340049835192477
-0.4896306987812409	-0.007372227995127894
-0.4895696636249909	0.00958754273142801
-0.4895086284687409	0.026538233484294717
-0.4894475933124909	0.04344650620019135
-0.4893865581562409	0.060307358793621924
-0.4893255229999909	0.07711344772811837
-0.4892644878437409	0.09383180526210846
-0.4892034526874909	0.11046269860185692
-0.4891424175312409	0.1269921450729464
-0.4890813823749909	0.14339120539652447
-0.4890203472187409	0.1596633413821348
-0.4889593120624909	0.17578769592760654
-0.4888982769062409	0.19174093133884937
-0.4888372417499909	0.2075272757610058
-0.4887762065937409	0.22312047803767399
-0.4887151714374909	0.23850396579605004
-0.4886541362812409	0.25368051915069567
-0.4885931011249909	0.26862138527659324
-0.4885320659687409	0.28331736405670627
-0.4884710308124909	0.2977662011811064
-0.4884099956562409	0.3119377811861434
-0.4883489604999909	0.32583068769304285
-0.4882879253437409	0.3394381834748239
-0.4882268901874909	0.3527318304625181
-0.4881658550312409	0.36571480015918134
-0.4881048198749909	0.3783739019951318
-0.4880437847187409	0.39068555889483547
-0.4879827495624909	0.4026566082336022
-0.4879217144062409	0.41426832043207124
-0.4878606792499909	0.4255036627854136
-0.4877996440937409	0.4363696770372704
-0.4877386089374909	0.4468428971011968
-0.4876775737812409	0.45691427072912166
-0.4876165386249909	0.4665892608787173
-0.4875555034687409	0.47584245532090025
-0.4874944683124909	0.4846727164363729
-0.4874334331562409	0.4930808346655727
-0.4873723979999909	0.5010416009438353
-0.4873113628437409	0.5085614318667384
-0.4872503276874909	0.5156360133523039
-0.4871892925312409	0.5222434351555465
-0.4871282573749909	0.5283948488596637
-0.4870672222187409	0.5340795730106528
-0.4870061870624909	0.5392822061085011
-0.4869451519062409	0.5440169050861281
-0.4868841167499909	0.5482671044971104
-0.4868230815937409	0.5520253058533163
-0.4867620464374909	0.5553055803789583
-0.4867010112812409	0.5580876353559616
-0.4866399761249909	0.5603730707907649
-0.4865789409687409	0.5621725857107087
-0.4865179058124909	0.5634647978244237
-0.4864568706562409	0.5642603137594965
-0.4863958354999909	0.5645639634678724
-0.4863348003437409	0.5643566491067021
-0.4862737651874909	0.5636564907266497
-0.4862127300312409	0.5624610896998989
-0.4861516948749909	0.5607568806755051
-0.4860906597187409	0.5585665098667456
-0.4860296245624909	0.5558805285548186
-0.4859685894062409	0.5526938713235648
-0.4859075542499909	0.5490300888469988
-0.4858465190937409	0.5448742304555736
-0.4857854839374909	0.5402314163915622
-0.4857244487812409	0.535122187233946
-0.4856634136249909	0.5295289539144187
-0.4856023784687409	0.5234674850965347
-0.4855413433124909	0.5169520258588661
-0.4854803081562409	0.5099657902052865
-0.4854192729999909	0.5025337701428148
-0.4853582378437409	0.49466216675326735
-0.4852972026874909	0.48633912581008665
-0.4852361675312409	0.47759552644148845
-0.4851751323749909	0.46842867040302627
-0.4851140972187409	0.4588351673227601
-0.4850530620624909	0.4488479704937367
-0.4849920269062409	0.43845729217040635
-0.4849309917499909	0.42767082234476106
-0.4848699565937409	0.41651865229429674
-0.4848089214374909	0.4049860301597625
-0.4847478862812409	0.39309201322750803
-0.4846868511249909	0.3808606672553972
-0.4846258159687409	0.3682775513418346
-0.4845647808124909	0.3553717084523992
-0.4845037456562409	0.34215707949363866
-0.4844427104999909	0.3286230796617896
-0.4843816753437409	0.3148065419657762
-0.4843206401874909	0.30071173127930495
-0.4842596050312409	0.2863358658077091
-0.4841985698749909	0.2717182099545861
-0.4841375347187409	0.25685375245703707
-0.4840764995624909	0.241750323112901
-0.4840154644062409	0.2264454738235128
-0.4839544292499909	0.2109285655191106
-0.4838933940937409	0.1952191442206175
-0.4838323589374909	0.1793479024190682
-0.4837713237812409	0.16330171843305172
-0.4837102886249909	0.14711090981994282
-0.4836492534687409	0.13079711059093563
-0.4835882183124909	0.11434969956980888
-0.4835271831562409	0.09780649657746103
-0.4834661479999909	0.08117817773777275
-0.4834051128437409	0.06446088137830454
-0.4833440776874909	0.047696453985405035
-0.4832830425312409	0.030885429762408205
-0.4832220073749909	0.014032826236568251
-0.4831609722187409	-0.0028210986095697005
-0.4830999370624909	-0.01968295131300293
-0.4830389019062409	-0.03653589247910472
-0.4829778667499909	-0.0533451726723352
-0.4829168315937409	-0.07012234517975437
-0.4828557964374909	-0.08684098615670376
-0.4827947612812409	-0.10347481045193117
-0.4827337261249909	-0.12003409315250896
-0.4826726909687409	-0.13648398993646005
-0.4826116558124909	-0.15280920564827108
-0.4825506206562409	-0.16901645626067607
-0.4824895854999909	-0.18506712344066714
-0.4824285503437409	-0.20095613864101955
-0.4823675151874909	-0.21668194597267537
-0.4823064800312409	-0.2322054883617472
-0.4822454448749909	-0.24753054025892005
-0.4821844097187409	-0.2626468177601038
-0.4821233745624909	-0.2775196828040257
-0.4820623394062409	-0.2921584858520363
-0.4820013042499909	-0.3065438671350839
-0.4819402690937409	-0.3206488345551851
-0.4818792339374909	-0.3344843613694009
-0.4818181987812409	-0.34802272815220336
-0.4817571636249909	-0.3612461391107603
-0.4816961284687409	-0.374164653997013
-0.4816350933124909	-0.38674683116023295
-0.4815740581562409	-0.39898476751760076
-0.4815130229999909	-0.4108827401928311
-0.4814519878437409	-0.4224076979292097
-0.4813909526874909	-0.43356101387130186
-0.4813299175312409	-0.4443403310838791
-0.4812688823749909	-0.45471516982205495
-0.4812078472187409	-0.46469390426439894
-0.4811468120624909	-0.4742666040937657
-0.4810857769062409	-0.4834081531004341
-0.4810247417499909	-0.4921309159323057
-0.4809637065937409	-0.5004183512004479
-0.4809026714374909	-0.5082530684599301
-0.4808416362812409	-0.5156478952943214
-0.4807806011249909	-0.5225813313368569
-0.4807195659687409	-0.5290453570913237
-0.4806585308124909	-0.53505082694882
-0.4805974956562409	-0.5405735979198756
-0.4805364604999909	-0.5456142361184869
-0.4804754253437409	-0.5501790774864991
-0.4804143901874909	-0.554244691262274
-0.4803533550312409	-0.5578196400784076
-0.4802923198749909	-0.560904595777504
-0.4802312847187409	-0.5634793615454269
-0.4801702495624909	-0.5655580049300114
-0.4801092144062409	-0.5671351621274603
-0.4800481792499909	-0.5681965013242029
-0.4799871440937409	-0.5687592975804551
-0.4799261089374909	-0.5688130484557274
-0.4798650737812409	-0.5683509033688517
-0.4798040386249909	-0.5673903311597044
-0.4797430034687409	-0.5659171602775096
-0.4796819683124909	-0.563933148111376
-0.4796209331562409	-0.5614536584023485
-0.4795598979999909	-0.5584628025848439
-0.4794988628437409	-0.554970401447663
-0.4794378276874909	-0.5509877934879296
-0.4793767925312409	-0.5465004886694969
-0.4793157573749909	-0.5415253188362201
-0.4792547222187409	-0.5360679016352344
-0.4791936870624909	-0.5301175652357764
-0.4791326519062409	-0.5236963264252741
-0.4790716167499909	-0.5168040617377645
-0.4790105815937409	-0.5094361907420271
-0.4789495464374909	-0.5016168856623386
-0.4788885112812409	-0.4933409019981657
-0.4788274761249909	-0.4846117933694263
-0.4787664409687409	-0.47545346069531996
-0.4787054058124909	-0.4658572463780238
-0.4786443706562409	-0.45583498182117926
-0.4785833354999909	-0.4454070125604983
-0.4785223003437409	-0.43456362349331634
-0.4784612651874909	-0.42332498880628344
-0.4784002300312409	-0.4117065614955838
-0.4783391948749909	-0.39970068504026063
-0.4782781597187409	-0.38733365429628663
-0.4782171245624909	-0.37461407697338833
-0.4781560894062409	-0.3615392631374616
-0.4780950542499909	-0.34813946993827904
-0.4780340190937409	-0.3344161673083144
-0.4779729839374909	-0.3203740677740854
-0.4779119487812409	-0.3060452633667793
-0.4778509136249909	-0.29142581738685547
-0.4777898784687409	-0.2765281566637206
-0.4777288433124909	-0.2613810933638352
-0.4776678081562409	-0.24597805993597613
-0.4776067729999909	-0.23034143309117466
-0.4775457378437409	-0.21449409453708207
-0.4774847026874909	-0.19842896903641385
-0.4774236675312409	-0.18217643199668043
-0.4773626323749909	-0.16575155137275938
-0.4773015972187409	-0.14915087365500404
-0.4772405620624909	-0.13241033919060197
-0.4771795269062409	-0.11553632734441466
-0.4771184917499909	-0.09853176986066109
-0.4770574565937409	-0.08143406280498833
-0.4769964214374909	-0.06424211870524797
-0.4769353862812409	-0.04696838138782387
-0.4768743511249909	-0.02964773013357983
-0.4768133159687409	-0.012273617133129905
-0.4767522808124909	0.005131236804962493
-0.4766912456562409	0.022538757484130395
-0.4766302104999909	0.039958201611337237
-0.4765691753437409	0.057357276999921
-0.4765081401874909	0.0747164039684737
-0.4764471050312409	0.09204252140960494
-0.4763860698749909	0.10929665170376737
-0.4763250347187409	0.12646981320161857
-0.4762639995624909	0.14356347822397725
-0.4762029644062409	0.1605369820128531
-0.4761419292499909	0.17739103934281616
-0.4760808940937409	0.19411651102772848
-0.4760198589374909	0.21067443754221998
-0.4759588237812409	0.22707404798855352
-0.4758977886249909	0.2432963315866725
-0.4758367534687409	0.2593090194976293
-0.4757757183124909	0.2751246776732138
-0.4757146831562409	0.2907138547995114
-0.4756536479999909	0.30605462899553765
-0.4755926128437409	0.3211591877122004
-0.4755315776874909	0.33599060519968077
-0.4754705425312409	0.35053865082221236
-0.4754095073749909	0.3648101220458633
-0.4753484722187409	0.3787649670584587
-0.4752874370624909	0.39240500064013045
-0.4752264019062409	0.40572808633561785
-0.4751653667499909	0.41869532221589817
-0.4751043315937409	0.43131820877723076
-0.4750432964374909	0.4435843887583891
-0.4749822612812409	0.45546115473141874
-0.4749212261249909	0.4669656925694766
-0.4748601909687409	0.4780753476895699
-0.4747991558124909	0.48876717251907253
-0.4747381206562409	0.4990593563554331
-0.4746770854999909	0.5089216668872163
-0.4746160503437409	0.5183438171528363
-0.4745550151874909	0.527340056952091
-0.4744939800312409	0.5358752346458585
-0.4744329448749909	0.5439516290908214
-0.4743719097187409	0.5515766070594103
-0.4743108745624909	0.5587155597326403
-0.4742498394062409	0.5653814187903097
-0.4741888042499909	0.5715717486910936
-0.4741277690937409	0.577256744854112
-0.4740667339374909	0.5824566797932268
-0.4740056987812409	0.5871595439071632
-0.4739446636249909	0.5913446962728679
-0.4738836284687409	0.5950352448977758
-0.4738225933124909	0.5982106743647094
-0.4737615581562409	0.600861731756679
-0.4737005229999909	0.6030101004680448
-0.4736394878437409	0.6046302098296795
-0.4735784526874909	0.6057249317964903
-0.4735174175312409	0.6063105749666206
-0.4734563823749909	0.6063605258964956
-0.4733953472187409	0.6058886546732604
-0.4733343120624909	0.6049033557602856
-0.4732732769062409	0.6033810915608186
-0.4732122417499909	0.6013439464679198
-0.4731512065937409	0.5987917270035262
-0.4730901714374909	0.5957079524107514
-0.4730291362812409	0.5921192455542537
-0.4729681011249909	0.5880173296684893
-0.4729070659687409	0.5833951009317426
-0.4728460308124909	0.5782798139217281
-0.4727849956562409	0.5726577117368978
-0.4727239604999909	0.5665324882054552
-0.4726629253437409	0.5599281820295096
-0.4726018901874909	0.5528282418614641
-0.4725408550312409	0.5452466136305122
-0.4724798198749909	0.5372017312744723
-0.4724187847187409	0.5286782457927807
-0.4723577495624909	0.5196987752902722
-0.4722967144062409	0.5102742901029527
-0.4722356792499909	0.5003933224258331
-0.4721746440937409	0.4900844208767992
-0.4721136089374909	0.4793516866701679
-0.4720525737812409	0.46819035814803256
-0.4719915386249909	0.45663110824585745
-0.4719305034687409	0.4446724064588431
-0.4718694683124909	0.4323184994960142
-0.4718084331562409	0.41959847145080237
-0.4717473979999909	0.4065060226534933
-0.4716863628437409	0.3930550649131992
-0.4716253276874909	0.3792718896111585
-0.4715642925312409	0.36514857276139556
-0.4715032573749909	0.35070663620082393
-0.4714422222187409	0.33596670168813636
-0.4713811870624909	0.32092257248410355
-0.4713201519062409	0.30560222472149157
-0.4712591167499909	0.2900198145371489
-0.4711980815937409	0.27417343239298914
-0.4711370464374909	0.2580947094804672
-0.4710760112812409	0.24179102753900836
-0.4710149761249909	0.22526690565724158
-0.4709539409687409	0.20855533179406935
-0.4708929058124909	0.19165799976816217
-0.4708318706562409	0.17458661819836896
-0.4707708354999909	0.15737249199896566
-0.4707098003437409	0.14001388223896868
-0.4706487651874909	0.1225303090140108
-0.4705877300312409	0.10494841704446929
-0.4705266948749909	0.08726483167937132
-0.4704656597187409	0.06950632043398458
-0.4704046245624909	0.051694000849410005
-0.4703435894062409	0.03382597289722086
-0.4702825542499909	0.015933397940813977
-0.4702215190937409	-0.001970179383715145
-0.4701604839374909	-0.01988214277845949
-0.4700994487812409	-0.03776822675778005
-0.4700384136249909	-0.05562203339785827
-0.4699773784687409	-0.07343533113941599
-0.4699163433124909	-0.09117454199011403
-0.4698553081562409	-0.1088387197457935
-0.4697942729999909	-0.12641163647324327
-0.4697332378437409	-0.14386342304194963
-0.4696722026874909	-0.16119796896317926
-0.4696111675312409	-0.17839181643731333
-0.4695501323749909	-0.19542032586379382
-0.4694890972187409	-0.21228800079716667
