Time	Frequency
-0.5000106555937549	-1.1799186009747353e-23
-0.4999496204375049	-1.182359047307511e-23
-0.4998885852812549	-1.1839251134812877e-23
-0.4998275501250049	-1.1846532816376474e-23
-0.4997665149687549	-1.1845184254725074e-23
-0.4997054798125049	-1.183517520812182e-23
-0.4996444446562549	-1.1816795474502426e-23
-0.4995834095000049	-1.1789677260606475e-23
-0.4995223743437549	-1.1754093458323583e-23
-0.4994613391875049	-1.1710076361355161e-23
-0.4994003040312549	-1.1657390279861646e-23
-0.4993392688750049	-1.1596442561080326e-23
-0.4992782337187549	-1.1527004196212038e-23
-0.4992171985625049	-1.1449140543972587e-23
-0.4991561634062549	-1.1363156979050791e-23
-0.4990951282500049	-1.1268745050766397e-23
-0.4990340930937549	-1.1166248470803313e-23
-0.4989730579375049	-1.1055705127915232e-23
-0.4989120227812549	-1.0936968101923703e-23
-0.4988509876250049	-1.081048155667723e-23
-0.4987899524687549	-1.0676048853440917e-23
-0.4987289173125049	-1.053382376769593e-23
-0.4986678821562549	-1.0384115188664426e-23
-0.4986068470000049	-1.0226683094849863e-23
-0.4985458118437549	-1.0061929962881123e-23
-0.4984847766875049	-9.889895606863292e-24
-0.4984237415312549	-9.710530915319969e-24
-0.4983627063750049	-9.524306563882557e-24
-0.4983016712187549	-9.331055528232755e-24
-0.4982406360625049	-9.131011281634419e-24
-0.4981796009062549	-8.924473236411332e-24
-0.4981185657500049	-8.71127100810457e-24
-0.4980575305937549	-8.491869440991967e-24
-0.4979964954375049	-8.266315467336151e-24
-0.4979354602812549	-8.034637056646018e-24
-0.4978744251250049	-7.797306595496018e-24
-0.4978133899687549	-7.554193500411957e-24
-0.4977523548125049	-7.305612786432137e-24
-0.4976913196562549	-7.051853393540159e-24
-0.4976302845000049	-6.792809644124039e-24
-0.4975692493437549	-6.5289798513722706e-24
-0.4975082141875049	-6.260405551132023e-24
-0.4974471790312549	-5.987205015963048e-24
-0.4973861438750049	-5.709849918244187e-24
-0.4973251087187549	-5.428223719574347e-24
-0.4972640735625049	-5.1427104165159404e-24
-0.4972030384062549	-4.853594324400297e-24
-0.4971420032500049	-4.5608241297153116e-24
-0.4970809680937549	-4.264909994901381e-24
-0.4970199329375049	-3.965885741189332e-24
-0.4969588977812549	-3.663945236235497e-24
-0.4968978626250049	-3.35955468117315e-24
-0.4968368274687549	-3.052626737683966e-24
-0.4967757923125049	-2.7435826468999633e-24
-0.4967147571562549	-2.432663829803785e-24
-0.4966537220000049	-2.119880702062571e-24
-0.4965926868437549	-1.8057730139862465e-24
-0.4965316516875049	-1.4903565201904713e-24
-0.4964706165312549	-1.1738688788137092e-24
-0.4964095813750049	-8.567514618442094e-25
-0.4963485462187549	-5.389350593492422e-25
-0.4962875110625049	-2.2087925567395334e-25
-0.4962264759062549	9.720603457847512e-26
-0.4961654407500049	4.152732706160905e-25
-0.4961044055937549	7.327903827440558e-25
-0.4960433704375049	1.0497568794654313e-24
-0.4959823352812549	1.365890385850296e-24
-0.4959213001250049	1.6807941103639912e-24
-0.4958602649687549	1.994525123704976e-24
-0.4957992298125049	2.306597471080022e-24
-0.4957381946562549	2.6168505563268945e-24
-0.4956771595000049	2.925203594805618e-24
-0.4956161243437549	3.2311449616212112e-24
-0.4955550891875049	3.53471218305507e-24
-0.4954940540312549	3.83558364186002e-24
-0.4954330188750049	4.133401970209503e-24
-0.4953719837187549	4.428226884604508e-24
-0.4953109485625049	4.71957403888403e-24
-0.4952499134062549	5.007347025259205e-24
-0.4951888782500049	5.291430962226521e-24
-0.4951278430937549	5.571334824862499e-24
-0.4950668079375049	5.847143111861972e-24
-0.4950057727812549	6.118515709115615e-24
-0.4949447376250049	6.385166025041686e-24
-0.4948837024687549	6.647167050016696e-24
-0.4948226673125049	6.90401779068413e-24
-0.4947616321562549	7.155679584716567e-24
-0.4947005970000049	7.402036021624416e-24
-0.4946395618437549	7.642649640125067e-24
-0.4945785266875049	7.877655872599283e-24
-0.4945174915312549	8.10669921106274e-24
-0.4944564563750049	8.329556978633798e-24
-0.4943954212187549	8.546310263837848e-24
-0.4943343860625049	8.756477124250494e-24
-0.4942733509062549	8.960109155103857e-24
-0.4942123157500049	9.157088039870426e-24
-0.4941512805937549	9.347020902441586e-24
-0.4940902454375049	9.530088445525197e-24
-0.4940292102812549	9.705933386318964e-24
-0.4939681751250049	9.874419859882087e-24
-0.4939071399687549	1.0035653584423479e-23
-0.4938461048125049	1.0189185879050386e-23
-0.4937850696562549	1.03351459782822e-23
-0.4937240345000049	1.0473400413588657e-23
-0.4936629993437549	1.0603629431285516e-23
-0.4936019641875049	1.0726081148255434e-23
-0.4935409290312549	1.0840393457460156e-23
-0.4934798938750049	1.0946523703378443e-23
-0.4934188587187549	1.1044605016196045e-23
-0.4933578235625049	1.1134212934015259e-23
-0.4932967884062549	1.1215569231100347e-23
-0.4932357532500049	1.1288552940380309e-23
-0.4931747180937549	1.1352910907106517e-23
-0.4931136829375049	1.1408946843193768e-23
-0.4930526477812549	1.1456312061378695e-23
-0.4929916126250049	1.1495058245956908e-23
-0.4929305774687549	1.152534255128236e-23
-0.4928695423125049	1.1546787453553623e-23
-0.4928085071562549	1.155970187372775e-23
-0.4927474720000049	1.1563968686088201e-23
-0.4926864368437549	1.1559415880635992e-23
-0.4926254016875049	1.154640066173314e-23
-0.4925643665312549	1.1524592358613816e-23
-0.4925033313750049	1.1494142960308548e-23
-0.4924422962187549	1.14552289790389e-23
-0.4923812610625049	1.140752514341733e-23
-0.4923202259062549	1.1351420697679935e-23
-0.4922591907500049	1.1286804087411369e-23
-0.4921981555937549	1.1213595775496515e-23
-0.4921371204375049	1.1132198480094256e-23
-0.4920760852812549	1.1042301644134512e-23
-0.4920150501250049	1.0944154043598557e-23
-0.4919540149687549	1.0837945269313544e-23
-0.4918929798125049	1.0723411346278069e-23
-0.4918319446562549	1.0601018512465595e-23
-0.4917709095000049	1.0470661161397939e-23
-0.4917098743437549	1.0332343582590893e-23
-0.4916488391875049	1.0186503773436414e-23
-0.4915878040312549	1.0032864248984393e-23
-0.4915267688750049	9.871763385614503e-24
-0.4914657337187549	9.703399892788956e-24
-0.4914046985625049	9.527573023472933e-24
-0.4913436634062549	9.344804671031266e-24
-0.4912826282500049	9.1549962527848e-24
-0.4912215930937549	8.958239789015045e-24
-0.4911605579375049	8.7550021505066e-24
-0.4910995227812549	8.54504460071632e-24
-0.4910384876250049	8.328772623909525e-24
-0.4909774524687549	8.106377574799136e-24
-0.4909164173125049	7.877730709362504e-24
-0.4908553821562549	7.643404412476674e-24
-0.4907943470000049	7.403314477810294e-24
-0.4907333118437549	7.157625821197713e-24
-0.4906722766875049	6.9068039121718e-24
-0.4906112415312549	6.650658092442553e-24
-0.4905502063750049	6.389653727216037e-24
-0.4904891712187549	6.123963547134951e-24
-0.4904281360625049	5.853533527290667e-24
-0.4903671009062549	5.5789697452411725e-24
-0.4903060657500049	5.3002010157978265e-24
-0.4902450305937549	5.017455837721597e-24
-0.4901839954375049	4.731168720547542e-24
-0.4901229602812549	4.441190476234579e-24
-0.4900619251250049	4.1480518785244075e-24
-0.4900008899687549	3.851923920410886e-24
-0.4899398548125049	3.552810598190743e-24
-0.4898788196562549	3.251292814766146e-24
-0.4898177845000049	2.9473000972445123e-24
-0.4897567493437549	2.6411437947098597e-24
-0.4896957141875049	2.3332437213060906e-24
-0.4896346790312549	2.023489917219406e-24
-0.4895736438750049	1.7124272292225588e-24
-0.4895126087187549	1.4001841064760765e-24
-0.4894515735625049	1.0868301690550304e-24
-0.4893905384062549	7.729492581851604e-25
-0.4893295032500049	4.584754362922766e-25
-0.4892684680937549	1.4375815162933317e-25
-0.4892074329375049	-1.70830074204411e-25
-0.4891463977812549	-4.853683343676114e-25
-0.4890853626250049	-7.993020475896099e-25
-0.4890243274687549	-1.1125215494136476e-24
-0.4889632923125049	-1.42489637864303e-24
-0.4889022571562549	-1.7358948488523974e-24
-0.4888412220000049	-2.0456061940392503e-24
-0.4887801868437549	-2.353636304215591e-24
-0.4887191516875049	-2.6596504782866924e-24
-0.4886581165312549	-2.9636941019724248e-24
-0.4885970813750049	-3.2652233494244776e-24
-0.4885360462187549	-3.5641919628018266e-24
-0.4884750110625049	-3.860439246266484e-24
-0.4884139759062549	-4.153459950579877e-24
-0.4883529407500049	-4.443341002639041e-24
-0.4882919055937549	-4.7296819659711604e-24
-0.4882308704375049	-5.012222376001415e-24
-0.4881698352812549	-5.2909868145045855e-24
-0.4881088001250049	-5.5654523380915495e-24
-0.4880477649687549	-5.8356178079145155e-24
-0.4879867298125049	-6.1012897880082855e-24
-0.4879256946562549	-6.362034951341786e-24
-0.4878646595000049	-6.617970217507293e-24
-0.4878036243437549	-6.868670725445845e-24
-0.4877425891875049	-7.113941472470472e-24
-0.4876815540312549	-7.353822047670679e-24
-0.4876205188750049	-7.587824220512004e-24
-0.4875594837187549	-7.815987691007538e-24
-0.4874984485625049	-8.038111876122052e-24
-0.4874374134062549	-8.253835860503996e-24
-0.4873763782500049	-8.463290487265676e-24
-0.4873153430937549	-8.666073165536742e-24
-0.4872543079375049	-8.862084753964943e-24
-0.4871932727812549	-9.051342078631713e-24
-0.4871322376250049	-9.233392637041978e-24
-0.4870712024687549	-9.408356669986604e-24
-0.4870101673125049	-9.576034684874193e-24
-0.4869491321562549	-9.736140106710784e-24
-0.4868880970000049	-9.888834388526501e-24
-0.4868270618437549	-1.0033730396396958e-23
-0.4867660266875049	-1.0170814808429259e-23
-0.4867049915312549	-1.0300117536550246e-23
-0.4866439563750049	-1.0421248362489109e-23
-0.4865829212187549	-1.0534388215623031e-23
-0.4865218860625049	-1.063932954444151e-23
-0.4864608509062549	-1.0735881948647991e-23
-0.4863998157500049	-1.0824253682134785e-23
-0.4863387805937549	-1.0904077332593323e-23
-0.4862777454375049	-1.0975428288148446e-23
-0.4862167102812549	-1.1038344762890694e-23
-0.4861556751250049	-1.1092500266494795e-23
-0.4860946399687549	-1.1138153713047177e-23
-0.4860336048125049	-1.1175106633632856e-23
-0.4859725696562549	-1.1203258268541427e-23
-0.4859115345000049	-1.1222849545294794e-23
-0.4858504993437549	-1.1233546288118166e-23
-0.4857894641875049	-1.1235525496309388e-23
-0.4857284290312549	-1.1228833230152165e-23
-0.4856673938750049	-1.121321083010589e-23
-0.4856063587187549	-1.1188992956778e-23
-0.4855453235625049	-1.1155987469750692e-23
-0.4854842884062549	-1.1114187845783603e-23
-0.4854232532500049	-1.1063876789604685e-23
-0.4853622180937549	-1.1004756635733858e-23
-0.4853011829375049	-1.0937092321655008e-23
-0.4852401477812549	-1.0860939863489154e-23
-0.4851791126250049	-1.0776122342260371e-23
-0.4851180774687549	-1.0683039601096561e-23
-0.4850570423125049	-1.0581505533604203e-23
-0.4849960071562549	-1.0471615463676856e-23
-0.4849349720000049	-1.0353676898084565e-23
-0.4848739368437549	-1.0227430779099855e-23
-0.4848129016875049	-1.009324918040074e-23
-0.4847518665312549	-9.951183124089857e-24
-0.4846908313750049	-9.801117806044665e-24
-0.4846297962187549	-9.643526893598404e-24
-0.4845687610625049	-9.478233927408426e-24
-0.4845077259062549	-9.305431314632006e-24
-0.4844466907500049	-9.125456272412978e-24
-0.4843856555937549	-8.938073144444287e-24
-0.4843246204375049	-8.743733006631438e-24
-0.4842635852812549	-8.54249801294092e-24
-0.4842025501250049	-8.334334398059993e-24
-0.4841415149687549	-8.119768170671398e-24
-0.4840804798125049	-7.898622079907497e-24
-0.4840194446562549	-7.671168429150491e-24
-0.4839584095000049	-7.437759721314225e-24
-0.4838973743437549	-7.198212798845617e-24
-0.4838363391875049	-6.953055447246268e-24
-0.4837753040312549	-6.70232948389361e-24
-0.4837142688750049	-6.446067435016188e-24
-0.4836532337187549	-6.184837415031504e-24
-0.4835921985625049	-5.9184783575540214e-24
-0.4835311634062549	-5.647346023495356e-24
-0.4834701282500049	-5.371774740311905e-24
-0.4834090930937549	-5.0916141998014456e-24
-0.4833480579375049	-4.807460971442728e-24
-0.4832870227812549	-4.519351078080221e-24
-0.4832259876250049	-4.2273899067661716e-24
-0.4831649524687549	-3.93215233124878e-24
-0.4831039173125049	-3.633469718837324e-24
-0.4830428821562549	-3.331773196182168e-24
-0.4829818470000049	-3.0273856393377225e-24
-0.4829208118437549	-2.7201953636745247e-24
-0.4828597766875049	-2.410843294985396e-24
-0.4827987415312549	-2.099342020304875e-24
-0.4827377063750049	-1.785852451660986e-24
-0.4826766712187549	-1.4709460005327884e-24
-0.4826156360625049	-1.1544531549440425e-24
-0.4825546009062549	-8.368610098567297e-25
-0.4824935657500049	-5.184699268308599e-25
-0.4824325305937549	-1.9920922695419962e-25
-0.4823714954375049	1.202612173101596e-25
-0.4823104602812549	4.399746589598383e-25
-0.4822494251250049	7.597289384562038e-25
-0.4821883899687549	1.0789518716926485e-24
-0.4821273548125049	1.3978033389525407e-24
-0.4820663196562549	1.715774794024703e-24
-0.4820052845000049	2.0326053786380882e-24
-0.4819442493437549	2.348338376061417e-24
-0.4818832141875049	2.6623293513977102e-24
-0.4818221790312549	2.9746225501810533e-24
-0.4817611438750049	3.284969651289925e-24
-0.4817001087187549	3.5928617780569076e-24
-0.4816390735625049	3.89845974437294e-24
-0.4815780384062549	4.201233159684601e-24
-0.4815170032500049	4.5009718136057164e-24
-0.4814559680937549	4.7976850147498536e-24
-0.4813949329375049	5.090760856000177e-24
-0.4813338977812549	5.380285205707328e-24
-0.4812728626250049	5.6659854481224464e-24
-0.4812118274687549	5.9474142957779075e-24
-0.4811507923125049	6.22471853429453e-24
-0.4810897571562549	6.4973689893956325e-24
-0.4810287220000049	6.7652368671709e-24
-0.4809676868437549	7.02831218024292e-24
-0.4809066516875049	7.286023861107551e-24
-0.4808456165312549	7.538491233387178e-24
-0.4807845813750049	7.785425791616805e-24
-0.4807235462187549	8.026460400481967e-24
-0.4806625110625049	8.26174965612203e-24
-0.4806014759062549	8.490788382430816e-24
-0.4805404407500049	8.71351424889777e-24
-0.4804794055937549	8.929901488830168e-24
-0.4804183704375049	9.139450190463622e-24
-0.4803573352812549	9.34231463045748e-24
-0.4802963001250049	9.53820192158736e-24
-0.4802352649687549	9.726843209405557e-24
-0.4801742298125049	9.908399224014713e-24
-0.4801131946562549	1.0082394599902109e-23
-0.4800521595000049	1.0248845984084698e-23
-0.4799911243437549	1.0407722307110417e-23
-0.4799300891875049	1.0558605471488169e-23
-0.4798690540312549	1.0701696028105832e-23
-0.4798080188750049	1.0836703401390381e-23
-0.4797469837187549	1.0963452213839856e-23
-0.4796859485625049	1.1082119461507553e-23
-0.4796249134062549	1.1192281686747196e-23
-0.4795638782500049	1.1294034325348197e-23
-0.4795028430937549	1.1387342330945e-23
-0.4794418079375049	1.1471877503549913e-23
-0.4793807727812549	1.154789097660318e-23
-0.4793197376250049	1.1615109681271779e-23
-0.4792587024687549	1.1673455883755451e-23
-0.4791976673125049	1.1723117624242339e-23
-0.4791366321562549	1.1763729171920516e-23
-0.4790755970000049	1.1795476609933701e-23
-0.4790145618437549	1.18183305845933e-23
-0.4789535266875049	1.1832046974300929e-23
-0.4788924915312549	1.1836926465298786e-23
-0.4788314563750049	1.1832725725870206e-23
-0.4787704212187549	1.1819463261049496e-23
-0.4787093860625049	1.1797343147139881e-23
-0.4786483509062549	1.1766069562014802e-23
-0.4785873157500049	1.1725906794277929e-23
-0.4785262805937549	1.1676829530391972e-23
-0.4784652454375049	1.1618692907875295e-23
-0.4784042102812549	1.1551841910853388e-23
-0.4783431751250049	1.1476060629878684e-23
-0.4782821399687549	1.139147148088261e-23
-0.4782211048125049	1.1298291655972062e-23
-0.4781600696562549	1.1196289849336157e-23
-0.4780990345000049	1.10858115786761e-23
-0.4780379993437549	1.096683785006663e-23
-0.4779769641875049	1.0839317481225317e-23
-0.4779159290312549	1.0703639510245996e-23
-0.4778548938750049	1.0559614697068971e-23
-0.4777938587187549	1.0407464205615741e-23
-0.4777328235625049	1.0247416863037105e-23
-0.4776717884062549	1.007930209062902e-23
-0.4776107532500049	9.903543465201551e-24
-0.4775497180937549	9.720129971299163e-24
-0.4774886829375049	9.52909842218271e-24
-0.4774276477812549	9.33087037907874e-24
-0.4773666126250049	9.125283729104567e-24
-0.4773055774687549	8.91265122675732e-24
-0.4772445423125049	8.693204355221067e-24
-0.4771835071562549	8.466844728847574e-24
-0.4771224720000049	8.234062522598957e-24
-0.4770614368437549	7.99483139564533e-24
-0.4770004016875049	7.749279170510106e-24
-0.4769393665312549	7.497857837419149e-24
-0.4768783313750049	7.240419387808113e-24
-0.4768172962187549	6.977370471466537e-24
-0.4767562610625049	6.70894535902988e-24
-0.4766952259062549	6.4350865417181794e-24
-0.4766341907500049	6.156333371283502e-24
-0.4765731555937549	5.872666077458084e-24
-0.4765121204375049	5.5842923430488744e-24
-0.4764510852812549	5.291667776659739e-24
-0.4763900501250049	4.994670808131537e-24
-0.4763290149687549	4.693785800930737e-24
-0.4762679798125049	4.389214066093087e-24
-0.4762069446562549	4.080952100723017e-24
-0.4761459095000049	3.769592978260351e-24
-0.4760848743437549	3.455091887955606e-24
-0.4760238391875049	3.137728866913584e-24
-0.4759628040312549	2.8179611697844513e-24
-0.4759017688750049	2.495667749423653e-24
-0.4758407337187549	2.1714090333199408e-24
-0.4757796985625049	1.8453594859712837e-24
-0.4757186634062549	1.5175386612688796e-24
-0.4756576282500049	1.1885681520267054e-24
-0.4755965930937549	8.583859042793046e-25
-0.4755355579375049	5.273387258649295e-25
-0.4754745227812549	1.9587138104612753e-25
-0.4754134876250049	-1.361436258962142e-25
-0.4753524524687549	-4.681121635434457e-25
-0.4752914173125049	-7.999004996526724e-25
-0.4752303821562549	-1.1314338850501166e-24
-0.4751693470000049	-1.4620767809543518e-24
-0.4751083118437549	-1.7919415062639288e-24
-0.4750472766875049	-2.1206383862130492e-24
-0.4749862415312549	-2.447750814694375e-24
-0.4749252063750049	-2.773405554299384e-24
-0.4748641712187549	-3.0969799860780624e-24
-0.4748031360625049	-3.418392870419614e-24
-0.4747421009062549	-3.737537415609337e-24
-0.4746810657500049	-4.053796966786626e-24
-0.4746200305937549	-4.3673227867557284e-24
-0.4745589954375049	-4.677682319139383e-24
-0.4744979602812549	-4.984524584158406e-24
-0.4744369251250049	-5.28798730496289e-24
-0.4743758899687549	-5.58741572947148e-24
-0.4743148548125049	-5.88278767866663e-24
-0.4742538196562549	-6.1739921310826284e-24
-0.4741927845000049	-6.4604492899040896e-24
-0.4741317493437549	-6.742353042572286e-24
-0.4740707141875049	-7.019253070060617e-24
-0.4740096790312549	-7.290850444228864e-24
-0.4739486438750049	-7.557282078907162e-24
-0.4738876087187549	-7.81792131077566e-24
-0.4738265735625049	-8.072827135764183e-24
-0.4737655384062549	-8.321872122962078e-24
-0.4737045032500049	-8.564523558944976e-24
-0.4736434680937549	-8.801005344272285e-24
-0.4735824329375049	-9.03086296802681e-24
-0.4735213977812549	-9.25389671191341e-24
-0.4734603626250049	-9.470262251684944e-24
-0.4733993274687549	-9.67935258676e-24
-0.4733382923125049	-9.881285195835149e-24
-0.4732772571562549	-1.007593248825636e-23
-0.4732162220000049	-1.0262843043471554e-23
-0.4731551868437549	-1.0442285929993987e-23
-0.4730941516875049	-1.0613824582879423e-23
-0.4730331165312549	-1.0777331144683081e-23
-0.4729720813750049	-1.0932961276089345e-23
-0.4729110462187549	-1.1080186558318808e-23
-0.4728500110625049	-1.1219199424988769e-23
-0.4727889759062549	-1.1349859819228598e-23
-0.4727279407500049	-1.1471806094245593e-23
-0.4726669055937549	-1.1585342763460513e-23
-0.4726058704375049	-1.1690065721622592e-23
-0.4725448352812549	-1.1785947366246766e-23
-0.4724838001250049	-1.1873147137561632e-23
-0.4724227649687549	-1.1951208155280388e-23
-0.4723617298125049	-1.2020390116106444e-23
-0.4723006946562549	-1.2080560809602702e-23
-0.4722396595000049	-1.2131464940117577e-23
-0.4721786243437549	-1.2173436378186933e-23
-0.4721175891875049	-1.2206110519233423e-23
-0.4720565540312549	-1.2229558865090944e-23
-0.4719955188750049	-1.2243947129142039e-23
-0.4719344837187549	-1.2248902089067827e-23
-0.4718734485625049	-1.2244749422560854e-23
-0.4718124134062549	-1.2231373308818653e-23
-0.4717513782500049	-1.2208621286280483e-23
-0.4716903430937549	-1.217685053629161e-23
-0.4716293079375049	-1.2135755614633297e-23
