Time	Frequency
-0.5000535098750021	0.36070104287993066
-0.4999924747187521	0.35350533327322825
-0.4999314395625021	0.34631929171651266
-0.4998704044062521	0.33882146057649665
-0.4998093692500021	0.3309846016699201
-0.4997483340937521	0.32314210572724905
-0.4996872989375021	0.31523367653446893
-0.4996262637812521	0.3069575108128131
-0.4995652286250021	0.29846969567671505
-0.4995041934687521	0.2900323413320282
-0.4994431583125021	0.2814263773744407
-0.4993821231562521	0.27246659787042826
-0.4993210880000021	0.26343104362012926
-0.4992600528437521	0.2544331660317709
-0.4991990176875021	0.24517935051838471
-0.4991379825312521	0.23565189224234923
-0.4990769473750021	0.226153519470405
-0.4990159122187521	0.21662770104175016
-0.4989548770625021	0.20680581989419844
-0.4988938419062521	0.1968295595974666
-0.4988328067500021	0.18693354381514507
-0.4987717715937521	0.17692591039026792
-0.4987107364375021	0.16664214864239318
-0.4986497012812521	0.15632645125548397
-0.4985886661250021	0.1460839899171688
-0.4985276309687521	0.13566056062912707
-0.4984665958125021	0.1250360624821152
-0.4984055606562521	0.1144753139246039
-0.4983445255000021	0.10393760155425878
-0.4982834903437521	0.09318865173332681
-0.4982224551875021	0.08234398825879295
-0.4981614200312521	0.07161368951924282
-0.4981003848750021	0.060842141999179616
-0.4980393497187521	0.049878259550088365
-0.4979783145625021	0.03892579297821743
-0.4979172794062521	0.028091744391177485
-0.4978562442500021	0.01716285635423772
-0.4977952090937521	0.006102417607678535
-0.4977341739375021	-0.0048596685262823226
-0.4976731387812521	-0.01573293316978267
-0.4976121036250021	-0.02672607265802025
-0.4975510684687521	-0.03776484308629118
-0.4974900333125021	-0.048651118915662865
-0.4974289981562521	-0.05949323500617573
-0.4973679630000021	-0.07044587892132319
-0.4973069278437521	-0.08135311559647962
-0.4972458926875021	-0.09208812530325501
-0.4971848575312521	-0.10282075542146377
-0.4971238223750021	-0.1136218294883526
-0.4970627872187521	-0.12429557039361079
-0.4970017520625021	-0.1348066811338252
-0.4969407169062521	-0.14534395377304732
-0.4968796817500021	-0.1558853434997647
-0.4968186465937521	-0.1662363335315603
-0.4967576114375021	-0.17645130392219024
-0.4966965762812521	-0.18669899362229114
-0.4966355411250021	-0.1968743471114084
-0.4965745059687521	-0.2068209902231894
-0.4965134708125021	-0.2166685092269076
-0.4964524356562521	-0.22653249426287317
-0.4963914005000021	-0.2362434989506447
-0.4963303653437521	-0.24571166192058214
-0.4962693301875021	-0.2551179414243469
-0.4962082950312521	-0.2645005270301049
-0.4961472598750021	-0.2736553579781371
-0.4960862247187521	-0.28258031470254963
-0.4960251895625021	-0.2914731267746396
-0.4959641544062521	-0.30027760034874607
-0.4959031192500021	-0.30879393850035847
-0.4958420840937521	-0.3171181577381387
-0.4957810489375021	-0.32542164015862196
-0.4957200137812521	-0.33355257639459396
-0.4956589786250021	-0.34136237516587215
-0.4955979434687521	-0.34903546161355936
-0.4955369083125021	-0.35666871039688064
-0.4954758731562521	-0.3640373403183485
-0.4954148380000021	-0.37108960512328476
-0.4953538028437521	-0.3780620900620576
-0.4952927676875021	-0.3849382763980683
-0.4952317325312521	-0.391469564674598
-0.4951706973750021	-0.39772977431706474
-0.4951096622187521	-0.40394779247670926
-0.4950486270625021	-0.40997878325502274
-0.4949875919062521	-0.4156178922794615
-0.4949265567500021	-0.4210620803976673
-0.4948655215937521	-0.4264621090819642
-0.4948044864375021	-0.4315675204620726
-0.4947434512812521	-0.43628463550011437
-0.4946824161250021	-0.4408901758579835
-0.4946213809687521	-0.4453984629440622
-0.4945603458125021	-0.4495156030509737
-0.4944993106562521	-0.45330290713520155
-0.4944382755000021	-0.4570397417991661
-0.4943772403437521	-0.46058018556214114
-0.4943162051875021	-0.46367385577382386
-0.4942551700312521	-0.46653609156174153
-0.4941941348750021	-0.46935883250073895
-0.4941330997187521	-0.47186417772014627
-0.4940720645625021	-0.47393085737350404
-0.4940110294062521	-0.4758736538531642
-0.4939499942500021	-0.4777241022199037
-0.4938889590937521	-0.4791496852456908
-0.4938279239375021	-0.48021087937156587
-0.4937668887812521	-0.48122719679471143
-0.4937058536250021	-0.4820440137774054
-0.4936448184687521	-0.4823793006549556
-0.4935837833125021	-0.4824700414959315
-0.4935227481562521	-0.4825338012395367
-0.4934617130000021	-0.482267210754271
-0.4934006778437521	-0.4815370815679594
-0.4933396426875021	-0.48068932714066287
-0.4932786075312521	-0.47975929135073536
-0.4932175723750021	-0.4783877362960728
-0.4931565372187521	-0.4766441757517953
-0.4930955020625021	-0.47487270729874914
-0.4930344669062521	-0.4729051193733358
-0.4929734317500021	-0.47044542373434517
-0.4929123965937521	-0.46775146971013554
-0.4928513614375021	-0.46504890217149303
-0.4927903262812521	-0.46201562977633964
-0.4927292911250021	-0.45852183723378237
-0.4926682559687521	-0.4549326381501693
-0.4926072208125021	-0.45127610946169805
-0.4925461856562521	-0.4471818513830701
-0.4924851505000021	-0.44273386164504586
-0.4924241153437521	-0.43828346563496384
-0.4923630801875021	-0.4336493576136106
-0.4923020450312521	-0.42853856752157293
-0.4922410098750021	-0.42322350322086255
-0.4921799747187521	-0.4179228899435974
-0.4921189395625021	-0.4123069882725852
-0.4920579044062521	-0.4062607322912524
-0.4919968692500021	-0.40015348987214056
-0.4919358340937521	-0.393998706947591
-0.4918747989375021	-0.38743140106220847
-0.4918137637812521	-0.38055249208200403
-0.4917527286250021	-0.37370398140829086
-0.4916916934687521	-0.36669377359810473
-0.4916306583125021	-0.3592460562169658
-0.4915696231562521	-0.3516404145362622
-0.4915085880000021	-0.34407773786664136
-0.4914475528437521	-0.33623144460306065
-0.4913865176875021	-0.3280069340616426
-0.4913254825312521	-0.3197643432666436
-0.4912644473750021	-0.31150233719713666
-0.4912034122187521	-0.30287516990027485
-0.4911423770625021	-0.29399438058440275
-0.4910813419062521	-0.2851795229297004
-0.4910203067500021	-0.27623855013677406
-0.4909592715937521	-0.26692217109865796
-0.4908982364375021	-0.25750259480944143
-0.4908372012812521	-0.2481582767271577
-0.4907761661250021	-0.23858077892366075
-0.4907151309687521	-0.2286943841493263
-0.4906540958125021	-0.2188361722406647
-0.4905930606562521	-0.20899548808340349
-0.4905320255000021	-0.198855712304929
-0.4904709903437521	-0.18852993350873412
-0.4904099551875021	-0.1783087654655313
-0.4903489200312521	-0.16801098297142708
-0.4902878848750021	-0.15741565558988685
-0.4902268497187521	-0.14677498861175622
-0.4901658145625021	-0.1362464262290774
-0.4901047794062521	-0.12555160153134495
-0.4900437442500021	-0.11462766011077997
-0.4899827090937521	-0.1037776307954292
-0.4899216739375021	-0.09299131565547965
-0.4898606387812521	-0.08198796199418391
-0.4897996036250021	-0.07086822994641676
-0.4897385684687521	-0.059891392267244555
-0.4896775333125021	-0.0489011639623223
-0.4896164981562521	-0.037701800599951395
-0.4895554630000021	-0.02651262637061097
-0.4894944278437521	-0.015476767724504308
-0.4894333926875021	-0.004354484373999413
-0.4893723575312521	0.006915108750890237
-0.4893113223750021	0.01806826321394393
-0.4892502872187521	0.02910255642282096
-0.4891892520625021	0.04026226903562803
-0.4891282169062521	0.051472323248339884
-0.4890671817500021	0.0625014868008079
-0.4890061465937521	0.07346985156208008
-0.4889451114375021	0.0845582609240171
-0.4888840762812521	0.09558987792743454
-0.4888230411250021	0.10642020196215185
-0.4887620059687521	0.1172451127460869
-0.4887009708125021	0.12814356452338146
-0.4886399356562521	0.1388922096598657
-0.4885789005000021	0.14945638012882734
-0.4885178653437521	0.16004939992013412
-0.4884568301875021	0.17064014262093147
-0.4883957950312521	0.18101553370488882
-0.4883347598750021	0.19124527165495062
-0.4882737247187521	0.20150839225028194
-0.4882126895625021	0.2116812977070739
-0.4881516544062521	0.2216055998751116
-0.4880906192500021	0.23142832254302087
-0.4880295840937521	0.24125934889361716
-0.4879685489375021	0.25091595678303796
-0.4879075137812521	0.2603198946595856
-0.4878464786250021	0.2696590479903162
-0.4877854434687521	0.2789563941304852
-0.4877244083125021	0.2880081818004226
-0.4876633731562521	0.29682766809323863
-0.4876023380000021	0.3056050778147094
-0.4875413028437521	0.31427225025848426
-0.4874802676875021	0.32264252042434294
-0.4874192325312521	0.33081747796148164
-0.4873581973750021	0.33895269868290406
-0.4872971622187521	0.3468990796590761
-0.4872361270625021	0.35452301903374683
-0.4871750919062521	0.36199797373794185
-0.4871140567500021	0.36941012076419144
-0.4870530215937521	0.3765525828035611
-0.4869919864375021	0.38337786433346327
-0.4869309512812521	0.3901007568945804
-0.4868699161250021	0.39670866604030197
-0.4868088809687521	0.40297534693917436
-0.4867478458125021	0.40896237032314703
-0.4866868106562521	0.4148800229169396
-0.4866257755000021	0.42060400875543547
-0.4865647403437521	0.425941178048212
-0.4865037051875021	0.431061769311249
-0.4864426700312521	0.43611482528278667
-0.4863816348750021	0.44088021823615237
-0.4863205997187521	0.44525537117311204
-0.4862595645625021	0.4494878474420511
-0.4861985294062521	0.4536120811188088
-0.4861374942500021	0.4573583072862263
-0.4860764590937521	0.46075825027165984
-0.4860154239375021	0.4640769033257793
-0.4859543887812521	0.46720563645025154
-0.4858933536250021	0.4698964502796517
-0.4858323184687521	0.47232455734960493
-0.4857712833125021	0.47469394763171635
-0.4857102481562521	0.47676540294389386
-0.4856492130000021	0.4783919923080689
-0.4855881778437521	0.47985728358967933
-0.4855271426875021	0.4812312379248426
-0.4854661075312521	0.4822015496043571
-0.4854050723750021	0.4827819125434107
-0.4853440372187521	0.48328704250998494
-0.4852830020625021	0.4836136170685168
-0.4852219669062521	0.48346802366036634
-0.4851609317500021	0.4830382172877709
-0.4850998965937521	0.48257088550137456
-0.4850388614375021	0.4818044982500156
-0.4849778262812521	0.48056229700786884
-0.4849167911250021	0.4791621650399658
-0.4848557559687521	0.47769469259617187
-0.4847947208125021	0.47581183892562984
-0.4847336856562521	0.47352286935583976
-0.4846726505000021	0.4711810449823638
-0.4846116153437521	0.46867809682986716
-0.4845505801875021	0.465689574328167
-0.4844895450312521	0.4624217474919698
-0.4844285098750021	0.45914716933351113
-0.4843674747187521	0.45558208814214146
-0.4843064395625021	0.4515369691082153
-0.4842454044062521	0.447357812260357
-0.4841843692500021	0.4431403754077853
-0.4841233340937521	0.43851279617890493
-0.4840622989375021	0.433491909837324
-0.4840012637812521	0.42845286874957195
-0.4839402286250021	0.42327526401246807
-0.4838791934687521	0.41762299141280834
-0.4838181583125021	0.41172159382966617
-0.4837571231562521	0.40584992810703374
-0.4836960880000021	0.39970729195915444
-0.4836350528437521	0.39310842084455205
-0.4835740176875021	0.3864161787349278
-0.4835129825312521	0.37971861349949715
-0.4834519473750021	0.37263506251007916
-0.4833909122187521	0.3651967734292238
-0.4833298770625021	0.3577837619596842
-0.4832688419062521	0.3502624287769964
-0.4832078067500021	0.34230141410077225
-0.4831467715937521	0.3341404967287065
-0.4830857364375021	0.32604961024127027
-0.4830247012812521	0.31772056221105727
-0.4829636661250021	0.308984804468385
-0.4829026309687521	0.30020887080703235
-0.4828415958125021	0.29146358815784895
-0.4827805606562521	0.2823740542959076
-0.4827195255000021	0.2729902574148554
-0.4826584903437521	0.2636814272609495
-0.4825974551875021	0.25430184910685444
-0.4825364200312521	0.2445392456783706
-0.4824753848750021	0.2346402367277339
-0.4824143497187521	0.2248538608607046
-0.4823533145625021	0.21487567083569079
-0.4822922794062521	0.204560107871109
-0.4822312442500021	0.19426307160745898
-0.4821702090937521	0.1840375851337879
-0.4821091739375021	0.1735288814373037
-0.4820481387812521	0.1628000817454388
-0.4819871036250021	0.15219585738915545
-0.4819260684687521	0.14156727461555693
-0.4818650333125021	0.13063095076745987
-0.4818039981562521	0.11962841872318217
-0.4817429630000021	0.10878218208135987
-0.4816819278437521	0.09780397590426711
-0.4816208926875021	0.0865713000127769
-0.4815598575312521	0.07541612753861203
-0.4814988223750021	0.0643773726158368
-0.4814377872187521	0.05313153696642332
-0.4813767520625021	0.0417459005789158
-0.4813157169062521	0.03053258466918218
-0.4812546817500021	0.019351704576031137
-0.4811936465937521	0.007950616237606914
-0.4811326114375021	-0.003449373687306685
-0.4810715762812521	-0.0146495591583236
-0.4810105411250021	-0.025908113330468496
-0.4809495059687521	-0.03733280718171371
-0.4808884708125021	-0.048627116625859765
-0.4808274356562521	-0.05975491438671184
-0.4807664005000021	-0.0710024261577006
-0.4807053653437521	-0.08231190330976469
-0.4806443301875021	-0.09340614417431746
-0.4805832950312521	-0.10440350524230617
-0.4805222598750021	-0.11552805163418392
-0.4804612247187521	-0.12659068814234287
-0.4804001895625021	-0.13741100923343968
-0.4803391544062521	-0.1482077027010725
-0.4802781192500021	-0.15908485298277686
-0.4802170840937521	-0.16978869976223285
-0.4801560489375021	-0.18027138489430097
-0.4800950137812521	-0.1907799158851682
-0.4800339786250021	-0.20128394093408386
-0.4799729434687521	-0.2115376649670318
-0.4799119083125021	-0.2216208514030782
-0.4798508731562521	-0.23174014849618607
-0.4797898380000021	-0.24175350289466196
-0.4797288028437521	-0.2514831417589247
-0.4796677676875021	-0.26109956497353104
-0.4796067325312521	-0.27072162524622473
-0.4795456973750021	-0.28014209407574897
-0.4794846622187521	-0.28928438305603277
-0.4794236270625021	-0.2983581092515046
-0.4793625919062521	-0.30737620196101645
-0.4793015567500021	-0.3161190424191412
-0.4792405215937521	-0.3246153855164133
-0.4791794864375021	-0.3330640367809956
-0.4791184512812521	-0.34137951855607984
-0.4790574161250021	-0.34937481674514675
-0.4789963809687521	-0.35716779263532233
-0.4789353458125021	-0.3649070886166868
-0.4788743106562521	-0.37243173143008657
-0.4788132755000021	-0.37962111127445197
-0.4787522403437521	-0.38665453027123514
-0.4786912051875021	-0.3936026879174976
-0.4786301700312521	-0.4002605947880004
-0.4785691348750021	-0.406595605851985
-0.4785080997187521	-0.41281367786822376
-0.4784470645625021	-0.41889241116882225
-0.4783860294062521	-0.4246207862403048
-0.4783249942500021	-0.43006321873244857
-0.4782639590937521	-0.43541189892948756
-0.4782029239375021	-0.4405485611669918
-0.4781418887812521	-0.4452983898402933
-0.4780808536250021	-0.4498183121015615
-0.4780198184687521	-0.4542435848469123
-0.4779587833125021	-0.45837401480434997
-0.4778977481562521	-0.46211385963713864
-0.4778367130000021	-0.46568760965234823
-0.4777756778437521	-0.4691332988555135
-0.4777146426875021	-0.472205508496108
-0.4776536075312521	-0.47492248284508554
-0.4775925723750021	-0.4775284571033673
-0.4775315372187521	-0.4799383850435278
-0.4774705020625021	-0.4819189245426367
-0.4774094669062521	-0.4836153081069386
-0.4773484317500021	-0.4852275223838478
-0.4772873965937521	-0.48655070725407445
-0.4772263614375021	-0.48743068167977266
-0.4771653262812521	-0.48811789918908605
-0.4771042911250021	-0.4887028570801091
-0.4770432559687521	-0.48890203421265055
-0.4769822208125021	-0.4886979200302829
-0.4769211856562521	-0.48838671586900523
-0.4768601505000021	-0.4879056922436174
-0.4767991153437521	-0.48696745321619433
-0.4767380801875021	-0.48571587713969766
-0.4766770450312521	-0.4844076178761236
-0.4766160098750021	-0.4828252762000779
-0.4765549747187521	-0.48076723701944496
-0.4764939395625021	-0.47851414953858423
-0.4764329044062521	-0.47619643632600495
-0.4763718692500021	-0.4734930638722584
-0.4763108340937521	-0.4703636801069089
-0.4762497989375021	-0.4671509284870775
-0.4761887637812521	-0.4638027282932702
-0.4761277286250021	-0.45998775551837034
-0.4760666934687521	-0.45585743516007077
-0.4760056583125021	-0.451711079355596
-0.4759446231562521	-0.44731375351391456
-0.4758835880000021	-0.4424329128954707
-0.4758225528437521	-0.43737959909205654
-0.4757615176875021	-0.4323069569681514
-0.4757004825312521	-0.4268612702023807
-0.4756394473750021	-0.4209947899026503
-0.4755784122187521	-0.4150863254358685
-0.4755173770625021	-0.4090823098578575
-0.4754563419062521	-0.40262223502565364
-0.4753953067500021	-0.3958719906138165
-0.4753342715937521	-0.38915551931795134
-0.4752732364375021	-0.38221932214663035
-0.4752122012812521	-0.37481861585078946
-0.4751511661250021	-0.36728894817592606
-0.4750901309687521	-0.3597881570024912
-0.4750290958125021	-0.35194150088257126
-0.4749680606562521	-0.3437087543537975
-0.4749070255000021	-0.3354882335851721
-0.4748459903437521	-0.3272143045368353
-0.4747849551875021	-0.3185161077549103
-0.4747239200312521	-0.30957778711501377
-0.4746628848750021	-0.30072842828897883
-0.4746018497187521	-0.2916986194362987
-0.4745408145625021	-0.28224829650031014
-0.4744797794062521	-0.27272819525467296
-0.4744187442500021	-0.26328736906470457
-0.4743577090937521	-0.2535437936689113
-0.4742966739375021	-0.24347240204125395
-0.4742356387812521	-0.23347340534329372
-0.4741746036250021	-0.22346662188973415
-0.4741135684687521	-0.213089238634615
-0.4740525333125021	-0.202540527952233
-0.4739914981562521	-0.19213624330513193
-0.4739304630000021	-0.18159780034575737
-0.4738694278437521	-0.17070539221930633
-0.4738083926875021	-0.1598138917502795
-0.4737473575312521	-0.14905164537358587
-0.4736863223750021	-0.13804212037431327
-0.4736252872187521	-0.1267810350023554
-0.4735642520625021	-0.11565668516745953
-0.4735032169062521	-0.10457418922092822
-0.4734421817500021	-0.09319038011486483
-0.4733811465937521	-0.08171275702722801
-0.4733201114375021	-0.07043454181194496
-0.4732590762812521	-0.05907968131911099
-0.4731980411250021	-0.0474529095741228
-0.4731370059687521	-0.035897295450861746
-0.4730759708125021	-0.02451955097413842
-0.4730149356562521	-0.01296504146597655
-0.4729539005000021	-0.0012468655263875598
-0.4728928653437521	0.010274736658149135
-0.4728318301875021	0.021703600261660964
-0.4727707950312521	0.03335141234085426
-0.4727097598750021	0.04501159732127374
-0.4726487247187521	0.05642092091911792
-0.4725876895625021	0.06784282046042985
-0.4725266544062521	0.0794470499832051
-0.4724656192500021	0.09091337722264206
-0.4724045840937521	0.10215256210621156
-0.4723435489375021	0.1134892847535904
-0.4722825137812521	0.12490429495705883
-0.4722214786250021	0.1360706568545412
-0.4721604434687521	0.14708529273077273
-0.4720994083125021	0.15822762543148913
-0.4720383731562521	0.1693115016748778
-0.4719773380000021	0.1801016117700033
-0.4719163028437521	0.19083111857674304
-0.4718552676875021	0.20165175272845973
-0.4717942325312521	0.21228075049609996
-0.4717331973750021	0.22263480244848607
-0.4716721622187521	0.2329995086700705
-0.4716111270625021	0.24336507136545457
-0.4715500919062521	0.25344305168134934
-0.4714890567500021	0.26330820761980017
-0.4714280215937521	0.2732086565043976
-0.4713669864375021	0.28299304460364066
-0.4713059512812521	0.29244797260520444
-0.4712449161250021	0.30176533833466845
-0.4711838809687521	0.3110909577518208
-0.4711228458125021	0.3201881148000515
-0.4710618106562521	0.3289644462521975
-0.4710007755000021	0.33766300931051063
-0.4709397403437521	0.3463008488050384
-0.4708787051875021	0.35462657455723434
-0.4708176700312521	0.3626764339364424
-0.4707566348750021	0.3706756575568393
-0.4706955997187521	0.37852270976148117
-0.4706345645625021	0.3860131972232123
-0.4705735294062521	0.39328694672084197
-0.4705124942500021	0.40050041541224074
-0.4704514590937521	0.4074698056938753
-0.4703904239375021	0.41407709157886846
-0.4703293887812521	0.42052229327238055
-0.4702683536250021	0.4268657837241699
-0.4702073184687521	0.4328881681707493
-0.4701462833125021	0.4385732372065995
-0.4700852481562521	0.44413442083476845
-0.4700242130000021	0.4495314864532702
-0.4699631778437521	0.45455472418402865
-0.4699021426875021	0.4592855325719847
-0.4698411075312521	0.4639080875757336
-0.4697800723750021	0.4682927057795273
