Time	Frequency
-0.5000041643437498	-0.5579381312801823
-0.49994312918749984	-0.5533260688406254
-0.49988209403124984	-0.5482082303244535
-0.49982105887499984	-0.5425892754208897
-0.49976002371874984	-0.5364743910278044
-0.49969898856249984	-0.5298692152501222
-0.49963795340624984	-0.522779742942098
-0.49957691824999984	-0.5152123017203696
-0.49951588309374984	-0.5071737396869066
-0.49945484793749984	-0.49867152753569927
-0.49939381278124984	-0.48971357673241883
-0.49933277762499984	-0.4803080248135817
-0.49927174246874984	-0.47046338188835884
-0.49921070731249984	-0.46018857351081977
-0.49914967215624984	-0.4494928317713819
-0.49908863699999984	-0.43838601809015476
-0.49902760184374984	-0.42687864582438784
-0.49896656668749984	-0.4149811748550359
-0.49890553153124984	-0.4027041063438127
-0.49884449637499984	-0.39005879898089174
-0.49878346121874984	-0.3770571017921915
-0.49872242606249984	-0.36371071062086224
-0.49866139090624984	-0.35003173336917254
-0.49860035574999984	-0.3360328325869785
-0.49853932059374984	-0.32172687720479304
-0.49847828543749984	-0.3071269991050189
-0.49841725028124984	-0.29224644650891507
-0.49835621512499984	-0.2770989021100657
-0.49829517996874984	-0.26169848812393876
-0.49823414481249984	-0.24605903731845089
-0.49817310965624984	-0.23019467182811004
-0.49811207449999984	-0.21412035996150125
-0.49805103934374984	-0.19785107604698635
-0.49799000418749984	-0.18140150210150524
-0.49792896903124984	-0.16478656223837027
-0.49786793387499984	-0.14802157963347978
-0.49780689871874984	-0.13112197975984885
-0.49774586356249984	-0.11410333415766269
-0.49768482840624984	-0.09698149222169279
-0.49762379324999984	-0.07977222273270039
-0.49756275809374984	-0.06249099608719919
-0.49750172293749984	-0.04515359523861566
-0.49744068778124984	-0.027776396213652403
-0.49737965262499984	-0.010375439391330666
-0.49731861746874984	0.007033487900337007
-0.49725758231249984	0.024434186582879276
-0.49719654715624984	0.04181069414202646
-0.49713551199999984	0.05914711274845831
-0.49707447684374984	0.07642723542735037
-0.49701344168749984	0.09363523036064776
-0.49695240653124984	0.11075540052791634
-0.49689137137499984	0.12777182897144487
-0.49683033621874984	0.1446686051479508
-0.49676930106249984	0.16142999784682707
-0.49670826590624984	0.1780406772812524
-0.49664723074999984	0.19448550792878389
-0.49658619559374984	0.2107492842450447
-0.49652516043749984	0.2268168222287314
-0.49646412528124984	0.24267319949439592
-0.49640309012499984	0.2583038204358622
-0.49634205496874984	0.27369419986553273
-0.49628101981249984	0.28882981497330557
-0.49621998465624984	0.30369667124430555
-0.49615894949999984	0.3182813553312536
-0.49609791434374984	0.33257024405480473
-0.49603687918749984	0.3465499020090111
-0.49597584403124984	0.36020738862669105
-0.49591480887499984	0.3735299462774123
-0.49585377371874984	0.38650521752845585
-0.49579273856249984	0.399121051232637
-0.49573170340624984	0.4113657326657638
-0.49567066824999984	0.4232280019016545
-0.49560963309374984	0.4346966917468492
-0.49554859793749984	0.4457610916469882
-0.49548756278124984	0.4564108810264227
-0.49542652762499984	0.46663599144982254
-0.49536549246874984	0.47642677644679554
-0.49530445731249984	0.4857741399505797
-0.49524342215624984	0.4946694065222251
-0.49518238699999984	0.5031042734749809
-0.49512135184374984	0.5110707125150866
-0.49506031668749984	0.5185611748776434
-0.49499928153124984	0.5255685567275028
-0.49493824637499984	0.5320860925253705
-0.49487721121874984	0.5381077189605177
-0.49481617606249984	0.5436279055035071
-0.49475514090624984	0.5486412377192404
-0.49469410574999984	0.5531428089033701
-0.49463307059374984	0.5571282895601795
-0.49457203543749984	0.5605938566776298
-0.49451100028124984	0.5635362261434647
-0.49444996512499984	0.5659524031125347
-0.49438892996874984	0.5678399378944823
-0.49432789481249984	0.5691968933989245
-0.49426685965624984	0.5700218131790182
-0.49420582449999984	0.5703138051751115
-0.49414478934374984	0.5700724389093104
-0.49408375418749984	0.5692976310554615
-0.49402271903124984	0.5679898932921897
-0.49396168387499984	0.5661502642607056
-0.49390064871874984	0.5637802510405682
-0.49383961356249984	0.5608818590643497
-0.49377857840624984	0.5574575430621829
-0.49371754324999984	0.5535102622210478
-0.49365650809374984	0.5490435167295401
-0.49359547293749984	0.5440611948617546
-0.49353443778124984	0.5385675841492115
-0.49347340262499984	0.5325675870336726
-0.49341236746874984	0.5260667369736245
-0.49335133231249984	0.5190709149770782
-0.49329029715624984	0.5115862169707085
-0.49322926199999984	0.5036191928725573
-0.49316822684374984	0.49517706923115995
-0.49310719168749984	0.4862675910326389
-0.49304615653124984	0.4768988286972981
-0.49298512137499984	0.46707928803056775
-0.49292408621874984	0.45681787069980134
-0.49286305106249984	0.44612391605275764
-0.49280201590624984	0.43500700777456114
-0.49274098074999984	0.4234769769279401
-0.49267994559374984	0.41154441669385106
-0.49261891043749984	0.39922054194445017
-0.49255787528124984	0.38651658451780757
-0.49249684012499984	0.3734440954724577
-0.49243580496874984	0.3600150988735996
-0.49237476981249984	0.3462415795164181
-0.49231373465624984	0.33213579316231323
-0.49225269949999984	0.3177109118630783
-0.49219166434374984	0.30298048236310643
-0.49213062918749984	0.2879579590155249
-0.49206959403124984	0.272656962906471
-0.49200855887499984	0.25709158138572735
-0.49194752371874984	0.2412761771537697
-0.49188648856249984	0.22522510167250095
-0.49182545340624984	0.20895292559146117
-0.49176441824999984	0.19247466596046717
-0.49170338309374984	0.17580562391466603
-0.49164234793749984	0.15896132257277584
-0.49158131278124984	0.14195743438263636
-0.49152027762499984	0.12480936077922215
-0.49145924246874984	0.10753253791108598
-0.49139820731249984	0.09014308806927451
-0.49133717215624984	0.07265729212298197
-0.49127613699999984	0.0550910909007035
-0.49121510184374984	0.03746056612982403
-0.49115406668749984	0.0197822758752746
-0.49109303153124984	0.002072935633838102
-0.49103199637499984	-0.01565129675204313
-0.49097096121874984	-0.033374511505055326
-0.49090992606249984	-0.05108029651160438
-0.49084889090624984	-0.068752007056045
-0.49078785574999984	-0.08637312783510545
-0.49072682059374984	-0.1039273750247918
-0.49066578543749984	-0.1213985888889223
-0.49060475028124984	-0.1387703406239897
-0.49054371512499984	-0.1560264428242858
-0.49048267996874984	-0.1731512442585948
-0.49042164481249984	-0.1901288515825513
-0.49036060965624984	-0.2069430881614913
-0.49029957449999984	-0.2235783051096991
-0.49023853934374984	-0.24001937533766277
-0.49017750418749984	-0.2562509732920374
-0.49011646903124984	-0.2722577654180867
-0.49005543387499984	-0.2880247606512821
-0.48999439871874984	-0.30353711473006134
-0.48993336356249984	-0.3187804070376838
-0.48987232840624984	-0.3337405991141369
-0.48981129324999984	-0.348403771683851
-0.48975025809374984	-0.36275621287476995
-0.48968922293749984	-0.37678426669439735
-0.48962818778124984	-0.3904746504755181
-0.48956715262499984	-0.4038146702700654
-0.48950611746874984	-0.41679179060813304
-0.48944508231249984	-0.4293937692878716
-0.48938404715624984	-0.44160881431321763
-0.48932301199999984	-0.45342538466873217
-0.48926197684374984	-0.46483233459781953
-0.48920094168749984	-0.47581895132260443
-0.48913990653124984	-0.4863748039936155
-0.48907887137499984	-0.4964898398555506
-0.48901783621874984	-0.5061544762987137
-0.48895680106249984	-0.5153595300423475
-0.48889576590624984	-0.5240962070444606
-0.48883473074999984	-0.5323561114192448
-0.48877369559374984	-0.5401314122822193
-0.48871266043749984	-0.5474148622665367
-0.48865162528124984	-0.5541993417715261
-0.48859059012499984	-0.5604780295159412
-0.48852955496874984	-0.5662449914497647
-0.48846851981249984	-0.5714947650974095
-0.48840748465624984	-0.5762220821745102
-0.48834644949999984	-0.5804222697422161
-0.48828541434374984	-0.5840911512145437
-0.48822437918749984	-0.5872250506707511
-0.48816334403124984	-0.5898208450338381
-0.48810230887499984	-0.5918758049573354
-0.48804127371874984	-0.5933877247206423
-0.48798023856249984	-0.594354860495249
-0.48791920340624984	-0.594775985311061
-0.48785816824999984	-0.5946504968129658
-0.48779713309374984	-0.593978211336028
-0.48773609793749984	-0.5927594021428868
-0.48767506278124984	-0.5909949133968665
-0.48761402762499984	-0.5886860379256844
-0.48755299246874984	-0.5858346516662364
-0.48749195731249984	-0.5824431467651194
-0.48743092215624984	-0.578514237127071
-0.48736988699999984	-0.574051246295292
-0.48730885184374984	-0.5690580961817325
-0.48724781668749984	-0.5635390928961295
-0.48718678153124984	-0.5574990461546191
-0.48712574637499984	-0.5509432057904557
-0.48706471121874984	-0.5438773851760029
-0.48700367606249984	-0.5363078961984492
-0.48694264090624984	-0.528241335798119
-0.48688160574999984	-0.5196848266168604
-0.48682057059374984	-0.5106460988658792
-0.48675953543749984	-0.5011333075331986
-0.48669850028124984	-0.49115493490660633
-0.48663746512499984	-0.48071992822880977
-0.48657642996874984	-0.46983765449932935
-0.48651539481249984	-0.45851797400376604
-0.48645435965624984	-0.4467710522888703
-0.48639332449999984	-0.43460747279883616
-0.48633228934374984	-0.42203826944687045
-0.48627125418749984	-0.4090748085255678
-0.48621021903124984	-0.39572896359381704
-0.48614918387499984	-0.3820128822375935
-0.48608814871874984	-0.3679387282664882
-0.48602711356249984	-0.3535193554192705
-0.48596607840624984	-0.3387682751806692
-0.48590504324999984	-0.3236989109634184
-0.48584400809374984	-0.30832468475199226
-0.48578297293749984	-0.29265937122394475
-0.48572193778124984	-0.27671739984236166
-0.48566090262499984	-0.26051365941711463
-0.48559986746874984	-0.2440632537847875
-0.48553883231249984	-0.22738110122569521
-0.48547779715624984	-0.2104819417667736
-0.48541676199999984	-0.193381091253927
-0.48535572684374984	-0.17609461951701771
-0.48529469168749984	-0.15863859123879578
-0.48523365653124984	-0.14102900910772195
-0.48517262137499984	-0.12328183398274646
-0.48511158621874984	-0.10541326939275056
-0.48505055106249984	-0.08744005697663414
-0.48498951590624984	-0.06937868591089942
-0.48492848074999984	-0.05124521341863742
-0.48486744559374984	-0.033056265125987125
-0.48480641043749984	-0.014829149450974966
-0.48474537528124984	0.0034190118867120046
-0.48468434012499984	0.021671598191680144
-0.48462330496874984	0.039912127776313304
-0.48456226981249984	0.05812398133877662
-0.48450123465624984	0.07629037684079185
-0.48444019949999984	0.09439431991739826
-0.48437916434374984	0.11241883426998744
-0.48431812918749984	0.1303473716778419
-0.48425709403124984	0.14816347080144318
-0.48419605887499984	0.16585051786448368
-0.48413502371874984	0.18339244910207944
-0.48407398856249984	0.20077321890659217
-0.48401295340624984	0.21797636404567314
-0.48395191824999984	0.23498584317519366
-0.48389088309374984	0.25178602836168706
-0.48382984793749984	0.26836138742904353
-0.48376881278124984	0.28469679550948535
-0.48370777762499984	0.3007771261265459
-0.48364674246874984	0.31658705385363506
-0.48358570731249984	0.33211186553146255
-0.48352467215624984	0.3473374559332817
-0.48346363699999984	0.36224970382139576
-0.48340260184374984	0.37683468727815367
-0.48334156668749984	0.39107882324043436
-0.48328053153124984	0.4049689373033215
-0.48321949637499984	0.41849213774769567
-0.48315846121874984	0.43163565321397085
-0.48309742606249984	0.4443872614450185
-0.48303639090624984	0.4567352281111553
-0.48297535574999984	0.46866797517134234
-0.48291432059374984	0.4801743889133154
-0.48285328543749984	0.4912438600707159
-0.48279225028124984	0.5018659251913128
-0.48273121512499984	0.5120305221566156
-0.48267017996874984	0.5217283053428237
-0.48260914481249984	0.5309503702236826
-0.48254810965624984	0.5396879637650414
-0.48248707449999984	0.547932752666243
-0.48242603934374984	0.5556770031147836
-0.48236500418749984	0.5629135337124768
-0.48230396903124984	0.5696356680974722
-0.48224293387499984	0.5758370887776482
-0.48218189871874984	0.5815118295576662
-0.48212086356249984	0.5866544628511912
-0.48205982840624984	0.5912601990790587
-0.48199879324999984	0.5953247527513095
-0.48193775809374984	0.5988442087410095
-0.48187672293749984	0.6018152259056545
-0.48181568778124984	0.6042349636256602
-0.48175465262499984	0.6061010082041244
-0.48169361746874984	0.6074115607593057
-0.48163258231249984	0.6081653971742594
-0.48157154715624984	0.6083617517819565
-0.48151051199999984	0.6080002497919695
-0.48144947684374984	0.6070810750556758
-0.48138844168749984	0.6056050987275412
-0.48132740653124984	0.6035736731608959
-0.48126637137499984	0.6009885854113508
-0.48120533621874984	0.5978520653465418
-0.48114430106249984	0.5941668891261362
-0.48108326590624984	0.5899365133276916
-0.48102223074999984	0.5851648115663034
-0.48096119559374984	0.5798560875393951
-0.48090016043749984	0.5740152317713099
-0.48083912528124984	0.5676475852822622
-0.48077809012499984	0.5607589604871794
-0.48071705496874984	0.5533557025750953
-0.48065601981249984	0.5454447125323403
-0.48059498465624984	0.5370332511414502
-0.48053394949999984	0.5281289430586863
-0.48047291434374984	0.5187401449510541
-0.48041187918749984	0.5088755893350134
-0.48035084403124984	0.4985442704795609
-0.48028980887499984	0.48775583376563836
-0.48022877371874984	0.47652025953956667
-0.48016773856249984	0.4648477868067079
-0.48010670340624984	0.4527493113347152
-0.48004566824999984	0.440236232015371
-0.47998463309374984	0.427320162442158
-0.47992359793749984	0.4140129450425254
-0.47986256278124984	0.40032688496945695
-0.47980152762499984	0.3862747515241746
-0.47974049246874984	0.37186957021891437
-0.47967945731249984	0.35712480830842863
-0.47961842215624984	0.3420542488137012
-0.47955738699999984	0.3266718517863665
-0.47949635184374984	0.3109918665037947
-0.47943531668749984	0.29502889067558
-0.47937428153124984	0.27879787212189283
-0.47931324637499984	0.2623137082497056
-0.47925221121874984	0.2455918296167065
-0.47919117606249984	0.22864832223456466
-0.47913014090624984	0.21149872559883254
-0.47906910574999984	0.19415862882318116
-0.47900807059374984	0.17664435585336935
-0.47894703543749984	0.15897222593050214
-0.47888600028124984	0.1411588545631028
-0.47882496512499984	0.12322117304175254
-0.47876392996874984	0.10517581987528248
-0.47870289481249984	0.08703951787783978
-0.47864185965624984	0.06882908662311979
-0.47858082449999984	0.05056126489924848
-0.47851978934374984	0.03225331552433621
-0.47845875418749984	0.013922850088263073
-0.47839771903124984	-0.004412945854826602
-0.47833668387499984	-0.022737342316056043
-0.47827564871874984	-0.04103332919940779
-0.47821461356249984	-0.05928355981373878
-0.47815357840624984	-0.07747102554515871
-0.47809254324999984	-0.09557882342215468
-0.47803150809374984	-0.11358973754053456
-0.47797047293749984	-0.13148659078906047
-0.47790943778124984	-0.14925289089598637
-0.47784840262499984	-0.1668724460045919
-0.47778736746874984	-0.18432863155515372
-0.47772633231249984	-0.2016045288413808
-0.47766529715624984	-0.21868401478776078
-0.47760426199999984	-0.2355515266558267
-0.47754322684374984	-0.252191126353572
-0.47748219168749984	-0.2685869755243774
-0.47742115653124984	-0.2847237733744431
-0.47736012137499984	-0.3005862824156596
-0.47729908621874984	-0.3161595683290141
-0.47723805106249984	-0.33142925855802974
-0.47717701590624984	-0.34638101863668097
-0.47711598074999984	-0.36100067389180535
-0.47705494559374984	-0.3752744476689888
-0.47699391043749984	-0.38918884555134464
-0.47693287528124984	-0.4027307628327073
-0.47687184012499984	-0.41588763037264864
-0.47681080496874984	-0.4286470055230091
-0.47674976981249984	-0.44099690658040924
-0.47668873465624984	-0.4529258232244739
-0.47662769949999984	-0.4644223941213935
-0.47656666434374984	-0.4754756398840824
-0.47650562918749984	-0.4860752057321368
-0.47644459403124984	-0.496211197552518
-0.47638355887499984	-0.5058740601893418
-0.47632252371874984	-0.5150546785813864
-0.47626148856249984	-0.5237444681557099
-0.47620045340624984	-0.5319352310736902
-0.47613941824999984	-0.5396190861142576
-0.47607838309374984	-0.5467886860557333
-0.47601734793749984	-0.5534373042148891
-0.47595631278124984	-0.5595587840941604
-0.47589527762499984	-0.5651474637277945
-0.47583424246874984	-0.5701980307369366
-0.47577320731249984	-0.574705545955061
-0.47571217215624984	-0.5786656432452109
-0.47565113699999984	-0.5820746286963518
-0.47559010184374984	-0.5849293572137483
-0.47552906668749984	-0.5872270930911402
-0.47546803153124984	-0.5889657112043355
-0.47540699637499984	-0.5901435082280426
-0.47534596121874984	-0.590759259667691
-0.47528492606249984	-0.5908124694271406
-0.47522389090624984	-0.590303069941546
-0.47516285574999984	-0.5892313928756855
-0.47510182059374984	-0.5875984944706848
-0.47504078543749984	-0.5854059186730904
-0.47497975028124984	-0.5826557120935125
-0.47491871512499984	-0.5793505695712385
-0.47485767996874984	-0.5754935153979167
-0.47479664481249984	-0.5710879733850889
-0.47473560965624984	-0.5661381874825843
-0.47467457449999984	-0.5606489812514784
-0.47461353934374984	-0.5546255460583159
-0.47455250418749984	-0.5480734768523836
-0.47449146903124984	-0.540998823146911
-0.47443043387499984	-0.5334082610701643
-0.47436939871874984	-0.5253090666329381
-0.47430836356249984	-0.5167089324467896
-0.47424732840624984	-0.5076159973547013
-0.47418629324999984	-0.4980388804994272
-0.47412525809374984	-0.4879864929478878
-0.47406422293749984	-0.4774682537183342
-0.47400318778124984	-0.46649427312038355
-0.47394215262499984	-0.4550750695122189
-0.47388111746874984	-0.4432213850185708
-0.47382008231249984	-0.4309442077487826
-0.47375904715624984	-0.4182550692630206
-0.47369801199999984	-0.4051664476726911
-0.47363697684374984	-0.39169097734789515
-0.47357594168749984	-0.377840917812156
-0.47351490653124984	-0.3636292087862354
-0.47345387137499984	-0.3490696079578083
-0.47339283621874984	-0.33417592196473334
-0.47333180106249984	-0.31896228331776233
-0.47327076590624984	-0.3034434002568189
-0.47320973074999984	-0.28763399345398827
-0.47314869559374984	-0.27154859930126934
-0.47308766043749984	-0.25520249369012504
-0.47302662528124984	-0.2386117572671816
-0.47296559012499984	-0.22179220537258992
-0.47290455496874984	-0.20475944881218938
-0.47284351981249984	-0.18752944460651652
-0.47278248465624984	-0.17011867230523023
-0.47272144949999984	-0.1525441170933881
-0.47266041434374984	-0.13482280598664695
-0.47259937918749984	-0.11697144129230685
-0.47253834403124984	-0.09900644582318298
-0.47247730887499984	-0.08094469478579318
-0.47241627371874984	-0.06280405366493731
-0.47235523856249984	-0.04460228965691543
-0.47229420340624984	-0.02635622271287419
-0.47223316824999984	-0.008082803637657635
-0.47217213309374984	0.01020006671592008
-0.47211109793749984	0.028474566602313223
-0.47205006278124984	0.04672355735320467
-0.47198902762499984	0.06492974185116168
-0.47192799246874984	0.08307557225461176
-0.47186695731249984	0.1011437771133774
-0.47180592215624984	0.1191171740643317
-0.47174488699999984	0.13697852308974962
-0.47168385184374984	0.15471049785420626
-0.47162281668749984	0.17229586776990366
-0.47156178153124984	0.18971804571903852
-0.47150074637499984	0.20696067259903939
-0.47143971121874984	0.22400701386658128
-0.47137867606249984	0.24084051665432013
-0.47131764090624984	0.2574451835885688
-0.47125660574999984	0.27380524355854985
-0.47119557059374984	0.2899047252487245
-0.47113453543749984	0.30572779418797175
-0.47107350028124984	0.3212594603236855
-0.47101246512499984	0.3364850933679531
-0.47095142996874984	0.3513900051067226
-0.47089039481249984	0.36595975420013765
-0.47082935965624984	0.38018013258217265
-0.47076832449999984	0.3940372525309738
-0.47070728934374984	0.40751790980579816
-0.47064625418749984	0.4206092639251502
-0.47058521903124984	0.43329834530964895
-0.47052418387499984	0.4455728301803179
-0.47046314871874984	0.4574212368640111
-0.47040211356249984	0.46883193169379733
-0.47034107840624984	0.47979344093331205
-0.47028004324999984	0.49029525439290944
