Time	Frequency
-0.5000449410312484	-0.4708129942682226
-0.4999839058749984	-0.4712178909990781
-0.4999228707187484	-0.47138612187991813
-0.4998618355624984	-0.471321793600876
-0.4998008004062484	-0.4710190419311875
-0.4997397652499984	-0.47048375809721393
-0.4996787300937484	-0.46971197908162526
-0.4996176949374984	-0.46870550645231596
-0.4995566597812484	-0.46746629733934947
-0.4994956246249984	-0.46599089024832985
-0.4994345894687484	-0.4642852382904684
-0.4993735543124984	-0.4623450736916465
-0.4993125191562484	-0.4601748027398976
-0.4992514839999984	-0.45777452555796255
-0.4991904488437484	-0.45514349982474217
-0.4991294136874984	-0.45228707928457595
-0.4990683785312484	-0.4492016672897512
-0.4990073433749984	-0.44589318010307805
-0.4989463082187484	-0.44236054915127687
-0.4988852730624984	-0.43860557745943546
-0.4988242379062484	-0.4346324401108351
-0.4987632027499984	-0.4304391008344815
-0.4987021675937484	-0.42603212483602876
-0.4986411324374984	-0.4214101243953603
-0.4985800972812484	-0.4165772788951843
-0.4985190621249984	-0.4115360100487115
-0.4984580269687484	-0.4062861225053549
-0.4983969918124984	-0.40083450180193503
-0.4983359566562484	-0.3951799950865166
-0.4982749214999984	-0.3893281896989574
-0.4982138863437484	-0.3832805148693035
-0.4981528511874984	-0.3770394268058426
-0.4980918160312484	-0.3706104901774229
-0.4980307808749984	-0.3639931236370818
-0.4979697457187484	-0.3571948058227771
-0.4979087105624984	-0.35021592968871895
-0.4978476754062484	-0.34306043408691367
-0.4977866402499984	-0.3357334013316683
-0.4977256050937484	-0.32823631157568456
-0.4976645699374984	-0.320575674953549
-0.4976035347812484	-0.31275155140284894
-0.4975424996249984	-0.3047712055945287
-0.4974814644687484	-0.29663775887100496
-0.4974204293124984	-0.2883538098122087
-0.4973593941562484	-0.27992576147847664
-0.4972983589999984	-0.2713549225312728
-0.4972373238437484	-0.2626494747549357
-0.4971762886874984	-0.2538102507149665
-0.4971152535312484	-0.24484292248797404
-0.4970542183749984	-0.2357531112161492
-0.4969931832187484	-0.2265429077397385
-0.4969321480624984	-0.21722059440893812
-0.4968711129062484	-0.2077864601259313
-0.4968100777499984	-0.19824875795828403
-0.4967490425937484	-0.18861095523049984
-0.4966880074374984	-0.1788768470973931
-0.4966269722812484	-0.16905376484551748
-0.4965659371249984	-0.15914324809928507
-0.4965049019687484	-0.14915516168349147
-0.4964438668124984	-0.13908975300546303
-0.4963828316562484	-0.12895419276320827
-0.4963217964999984	-0.11875449267302683
-0.4962607613437484	-0.10849300941576154
-0.4961997261874984	-0.09817901883553004
-0.4961386910312484	-0.08781226180241544
-0.4960776558749984	-0.07740342437953947
-0.4960166207187484	-0.06695470895709817
-0.4959555855624984	-0.05647150335603655
-0.4958945504062484	-0.04596177590586777
-0.4958335152499984	-0.035425352979706295
-0.4957724800937484	-0.024874610636292187
-0.4957114449374984	-0.014308120354179766
-0.4956504097812484	-0.003735577155382807
-0.4955893746249984	0.006838048834587558
-0.4955283394687484	0.017410675466599905
-0.4954673043124984	0.027970393073306368
-0.4954062691562484	0.038520945520550395
-0.4953452339999984	0.049048014669005456
-0.4952841988437484	0.05955205430046764
-0.4952231636874984	0.07002734031600086
-0.4951621285312484	0.0804632891591223
-0.4951010933749984	0.09086358838293523
-0.4950400582187484	0.1012122380852822
-0.4949790230624984	0.11151427672952476
-0.4949179879062484	0.12175787896458103
-0.4948569527499984	0.13193801720975654
-0.4947959175937484	0.14205627809856314
-0.4947348824374984	0.152095756704715
-0.4946738472812484	0.1620646873745875
-0.4946128121249984	0.1719461940593469
-0.4945517769687484	0.1817421886641926
-0.4944907418124984	0.1914492445834827
-0.4944297066562484	0.20105203096179333
-0.4943686714999984	0.2105604655146973
-0.4943076363437484	0.21995486559463576
-0.4942466011874984	0.22924207021860724
-0.4941855660312484	0.2384129700672456
-0.4941245308749984	0.24745828796288769
-0.4940634957187484	0.25638481109489236
-0.4940024605624984	0.26517224340287476
-0.4939414254062484	0.27383224188993804
-0.4938803902499984	0.2823497313894602
-0.4938193550937484	0.29072229509942726
-0.4937583199374984	0.2989521393293849
-0.4936972847812484	0.30702141628204005
-0.4936362496249984	0.31494312387634227
-0.4935752144687484	0.32269844677957915
-0.4935141793124984	0.3302910703652854
-0.4934531441562484	0.33771792684674623
-0.4933921089999984	0.34496710071718034
-0.4933310738437484	0.352048324003304
-0.4932700386874984	0.35894210989204395
-0.4932090035312484	0.3656575829971202
-0.4931479683749984	0.3721859187293415
-0.4930869332187484	0.3785219667579532
-0.4930258980624984	0.38467070199677306
-0.4929648629062484	0.39061540786253357
-0.4929038277499984	0.3963673117140862
-0.4928427925937484	0.4019131019363377
-0.4927817574374984	0.40725417954051657
-0.4927207222812484	0.41239035531869994
-0.4926596871249984	0.41731002684677626
-0.4925986519687484	0.4220233582148602
-0.4925376168124984	0.4265152515708804
-0.4924765816562484	0.4307922731831963
-0.4924155464999984	0.4348494102326998
-0.4923545113437484	0.4386805671018039
-0.4922934761874984	0.4422929632657641
-0.4922324410312484	0.4456731559251977
-0.4921714058749984	0.44883015940977017
-0.4921103707187484	0.4517552385027134
-0.4920493355624984	0.4544479630249518
-0.4919883004062484	0.4569117729295464
-0.4919272652499984	0.4591365140518826
-0.4918662300937484	0.4611312860659467
-0.4918051949374984	0.46288593810085166
-0.4917441597812484	0.46440450218328727
-0.4916831246249984	0.4656866817708082
-0.4916220894687484	0.4667264870839647
-0.4915610543124984	0.4675315746656158
-0.4915000191562484	0.4680926551841712
-0.4914389839999984	0.4684160850951102
-0.4913779488437484	0.46849874019989374
-0.4913169136874984	0.4683391641955568
-0.4912558785312484	0.4679423947222571
-0.4911948433749984	0.46730155462533657
-0.4911338082187484	0.46642386946786735
-0.4910727730624984	0.4653046907369546
-0.4910117379062484	0.46394640215275024
-0.4909507027499984	0.46235118655533775
-0.4908896675937484	0.46051537147720206
-0.4908286324374984	0.4584458486736607
-0.4907675972812484	0.45613788597867577
-0.4907065621249984	0.4535965988940719
-0.4906455269687484	0.4508217873134863
-0.4905844918124984	0.44781315138827466
-0.4905234566562484	0.4445764306158013
-0.4904624214999984	0.4411079467832397
-0.4904013863437484	0.43741432527547675
-0.4903403511874984	0.43349401524711473
-0.4902793160312484	0.42934979110732824
-0.4902182808749984	0.424985464340612
-0.4901572457187484	0.420399286560745
-0.4900962105624984	0.4155989471496206
-0.4900351754062484	0.4105820960223713
-0.4899741402499984	0.4053535678075194
-0.4899131050937484	0.3999160929401993
-0.4898520699374984	0.394269969174712
-0.4897910347812484	0.3884222972710694
-0.4897299996249984	0.38237166818655294
-0.4896689644687484	0.3761243976836227
-0.4896079293124984	0.3696816398084101
-0.4895468941562484	0.3630466554839672
-0.4894858589999984	0.35622552701253946
-0.4894248238437484	0.3492171485147309
-0.4893637886874984	0.3420292443179313
-0.4893027535312484	0.3346630097487608
-0.4892417183749984	0.32712299046223314
-0.4891806832187484	0.3194133360448956
-0.4891196480624984	0.31153588275866
-0.4890586129062484	0.3034988791047972
-0.4889975777499984	0.2953022190044865
-0.4889365425937484	0.286952175050493
-0.4888755074374984	0.2784520879622412
-0.4888144722812484	0.2698056610108474
-0.4887534371249984	0.2610203568471493
-0.4886924019687484	0.2520971795958124
-0.4886313668124984	0.24304356646332104
-0.4885703316562484	0.23386102543290513
-0.4885092964999984	0.22455564494106592
-0.4884482613437484	0.21513378800074962
-0.4883872261874984	0.20559750197648827
-0.4883261910312484	0.1959544329649203
-0.4882651558749984	0.18620613884557288
-0.4882041207187484	0.17636132021124068
-0.4881430855624984	0.16642322526291983
-0.4880820504062484	0.1563952779191675
-0.4880210152499984	0.14628560045191505
-0.4879599800937484	0.13609608604236406
-0.4878989449374984	0.1258362566846034
-0.4878379097812484	0.11550806207081009
-0.4877768746249984	0.10511785610242899
-0.4877158394687484	0.09467130285434676
-0.4876548043124984	0.08417117798218983
-0.4875937691562484	0.07362716753538694
-0.4875327339999984	0.06304034800928973
-0.4874716988437484	0.052420460156132206
-0.4874106636874984	0.041770413861768205
-0.4873496285312484	0.031094744141670527
-0.4872885933749984	0.020401883756804563
-0.4872275582187484	0.009693080441150814
-0.4871665230624984	-0.0010206125938255093
-0.4871054879062484	-0.011738739224719791
-0.4870444527499984	-0.022452737632552712
-0.4869834175937484	-0.033157516891326344
-0.4869223824374984	-0.04385021111567038
-0.4868613472812484	-0.054519648176751964
-0.4868003121249984	-0.06516792179989846
-0.4867392769687484	-0.07578279223271804
-0.4866782418124984	-0.08636253793940622
-0.4866172066562484	-0.0969011226114057
-0.4865561714999984	-0.10738985162867273
-0.4864951363437484	-0.11783021612018496
-0.4864341011874984	-0.12820811903603585
-0.4863730660312484	-0.1385272129968487
-0.4863120308749984	-0.14877590949878453
-0.4862509957187484	-0.15894928801997565
-0.4861899605624984	-0.1690469925904296
-0.4861289254062484	-0.17905461240658285
-0.4860678902499984	-0.18897879943450344
-0.4860068550937484	-0.19880387207558906
-0.4859458199374984	-0.20853113154056976
-0.4858847847812484	-0.2181553429755439
-0.4858237496249984	-0.22766448163320077
-0.4857627144687484	-0.23706556954775423
-0.4857016793124984	-0.24633955143423475
-0.4856406441562484	-0.2554943512302628
-0.4855796089999984	-0.26451914803217996
-0.4855185738437484	-0.2734068088679244
-0.4854575386874984	-0.2821623430925036
-0.4853965035312484	-0.29076615619512763
-0.4853354683749984	-0.29922992360544487
-0.4852744332187484	-0.3075373653530605
-0.4852133980624984	-0.3156883314618781
-0.4851523629062484	-0.3236831543308063
-0.4850913277499984	-0.3315053531855829
-0.4850302925937484	-0.3391675854373928
-0.4849692574374984	-0.34664960377207715
-0.4849082222812484	-0.35395819901711456
-0.4848471871249984	-0.361087249249853
-0.4847861519687484	-0.3680258747485203
-0.4847251168124984	-0.37478556941246666
-0.4846640816562484	-0.38134520883460776
-0.4846030464999984	-0.38771537519877697
-0.4845420113437484	-0.39388479372163365
-0.4844809761874984	-0.39985010804796206
-0.4844199410312484	-0.40561729547376724
-0.4843589058749984	-0.41116842656400415
-0.4842978707187484	-0.4165162152450999
-0.4842368355624984	-0.4216452978397802
-0.4841758004062484	-0.42655891007458624
-0.4841147652499984	-0.4312565604994311
-0.4840537300937484	-0.43572639376596334
-0.4839926949374984	-0.43998010513198543
-0.4839316597812484	-0.4440011669179274
-0.4838706246249984	-0.4477978640238707
-0.4838095894687484	-0.451363635573725
-0.4837485543124984	-0.4546933530726637
-0.4836875191562484	-0.45779511277749496
-0.4836264839999984	-0.4606544951146574
-0.4835654488437484	-0.46328249280498385
-0.4835044136874984	-0.46566841339552856
-0.4834433785312484	-0.4678135756854421
-0.4833823433749984	-0.46972117280724346
-0.4833213082187484	-0.47138057828574503
-0.4832602730624984	-0.47280289351759003
-0.4831992379062484	-0.47397622174326415
-0.4831382027499984	-0.47490674631269814
-0.4830771675937484	-0.47559302190693664
-0.4830161324374984	-0.47602945776064615
-0.4829550972812484	-0.47622511158260333
-0.4828940621249984	-0.47616912166203473
-0.4828330269687484	-0.4758703633554845
-0.4827719918124984	-0.4753241066064299
-0.4827109566562484	-0.47452985481291843
-0.4826499214999984	-0.4734936096024945
-0.4825888863437484	-0.4722072649460015
-0.4825278511874984	-0.47068028640231757
-0.4824668160312484	-0.4689066339433764
-0.4824057808749984	-0.46688981579381245
-0.4823447457187484	-0.46463245167259903
-0.4822837105624984	-0.46213046312300177
-0.4822226754062484	-0.459392291011962
-0.4821616402499984	-0.45641209222444673
-0.4821006050937484	-0.4531962143145447
-0.4820395699374984	-0.4497446859102922
-0.4819785347812484	-0.4460574859935386
-0.4819174996249984	-0.44214094553803024
-0.4818564644687484	-0.4379907579831533
-0.4817954293124984	-0.43361479860061675
-0.4817343941562484	-0.42901163469812487
-0.4816733589999984	-0.42418469682104076
-0.4816123238437484	-0.4191379004321195
-0.4815512886874984	-0.41386953485616623
-0.4814902535312484	-0.40838769856286716
-0.4814292183749984	-0.40269042631813723
-0.4813681832187484	-0.3967839426908569
-0.4813071480624984	-0.3906699651959373
-0.4812461129062484	-0.3843496282075959
-0.4811850777499984	-0.377830681282132
-0.4811240425937484	-0.37111101574983585
-0.4810630074374984	-0.364198590802213
-0.4810019722812484	-0.35709478087847346
-0.4809409371249984	-0.34980284589375554
-0.4808799019687484	-0.3423287372687586
-0.4808188668124984	-0.3346720676790335
-0.4807578316562484	-0.3268413568323718
-0.4806967964999984	-0.3188373071065589
-0.4806357613437484	-0.3106658568528176
-0.4805747261874984	-0.3023313741166037
-0.4805136910312484	-0.2938352683526161
-0.4804526558749984	-0.2851862707080569
-0.4803916207187484	-0.27638458540964955
-0.4803305855624984	-0.2674371550974232
-0.4802695504062484	-0.2583477385280716
-0.4802085152499984	-0.24912092194326588
-0.4801474800937484	-0.23976403164302595
-0.4800864449374984	-0.2302768463939618
-0.4800254097812484	-0.2206677883900713
-0.4799643746249984	-0.2109405373239257
-0.4799033394687484	-0.20110129318193276
-0.4798423043124984	-0.19115523229217332
-0.4797812691562484	-0.18110413402522305
-0.4797202339999984	-0.17095710550433083
-0.4796591988437484	-0.16071674788073273
-0.4795981636874984	-0.15039070449560502
-0.4795371285312484	-0.13998279374175174
-0.4794760933749984	-0.12949774866411357
-0.4794150582187484	-0.118943561759385
-0.4793540230624984	-0.10832151956893578
-0.4792929879062484	-0.0976410482216156
-0.4792319527499984	-0.08690543662792256
-0.4791709175937484	-0.07612134479983156
-0.4791098824374984	-0.06529489574700441
-0.4790488472812484	-0.05442873160616264
-0.4789878121249984	-0.04353222818066657
-0.4789267769687484	-0.03260727159552265
-0.4788657418124984	-0.021663190829877138
-0.4788047066562484	-0.010703988491486753
-0.4787436714999984	0.00026607483507918006
-0.4786826363437484	0.011238436120368527
-0.4786216011874984	0.0222106988037015
-0.4785605660312484	0.033172917300601866
-0.4784995308749984	0.044124239476382054
-0.4784384957187484	0.05505596980565661
-0.4783774605624984	0.06596141176263566
-0.4783164254062484	0.07683887762164193
-0.4782553902499984	0.08767827871144557
-0.4781943550937484	0.09847874612230145
-0.4781333199374984	0.10922976153925515
-0.4780722847812484	0.11992892432832616
-0.4780112496249984	0.13057005663503277
-0.4779502144687484	0.14114504626958907
-0.4778891793124984	0.15165432015374242
-0.4778281441562484	0.16208497747079098
-0.4777671089999984	0.17243827896626485
-0.4777060738437484	0.18270457902790405
-0.4776450386874984	0.19287916778613357
-0.4775840035312484	0.20295999266618042
-0.4775229683749984	0.21293454939726908
-0.4774619332187484	0.2228070854857788
-0.4774008980624984	0.23256380017101058
-0.4773398629062484	0.2422054557226766
-0.4772788277499984	0.2517258582870867
-0.4772177925937484	0.26111513886626053
-0.4771567574374984	0.27037824333138555
-0.4770957222812484	0.279497993904666
-0.4770346871249984	0.28848058982939945
-0.4769736519687484	0.29731532087614004
-0.4769126168124984	0.30599738473696736
-0.4768515816562484	0.31452868390783895
-0.4767905464999984	0.32289217133151343
-0.4767295113437484	0.3310988391230334
-0.4766684761874984	0.33913193566425054
-0.4766074410312484	0.3469929488062145
-0.4765464058749984	0.3546797221538555
-0.4764853707187484	0.3621783201374414
-0.4764243355624984	0.36950058281908293
-0.4763633004062484	0.37662579173787025
-0.4763022652499984	0.38356271132876296
-0.4762412300937484	0.39030359286786104
-0.4761801949374984	0.3968394971199378
-0.4761191597812484	0.40317977857791987
-0.4760581246249984	0.4093036566632493
-0.4759970894687484	0.4152249930890623
-0.4759360543124984	0.42092993948389806
-0.4758750191562484	0.42641705033189575
-0.4758139839999984	0.4316909987839002
-0.4757529488437484	0.4367335187577849
-0.4756919136874984	0.44156014377032593
-0.4756308785312484	0.44615347043387976
-0.4755698433749984	0.45051896082795656
-0.4755088082187484	0.45465515907568893
-0.4754477730624984	0.4585500855539586
-0.4753867379062484	0.46221700818734784
-0.4753257027499984	0.46563775915094296
-0.4752646675937484	0.46882318309546
-0.4752036324374984	0.4717656695876078
-0.4751425972812484	0.4744610117257364
-0.4750815621249984	0.47691785797900316
-0.4750205269687484	0.4791204547881722
-0.4749594918124984	0.4810821470449193
-0.4748984566562484	0.48279106599810906
-0.4748374214999984	0.4842502570585741
-0.4747763863437484	0.48546253409123075
-0.4747153511874984	0.486417168035948
-0.4746543160312484	0.48712700981585594
-0.4745932808749984	0.48757865749714663
-0.4745322457187484	0.48778072310798326
-0.4744712105624984	0.48773055648691954
-0.4744101754062484	0.4874235437991491
-0.4743491402499984	0.48686984097996683
-0.4742881050937484	0.4860571492605315
-0.4742270699374984	0.48499705227657197
-0.4741660347812484	0.4836832284464398
-0.4741049996249984	0.48211694307384834
-0.4740439644687484	0.48030455431044217
-0.4739829293124984	0.4782370205344948
-0.4739218941562484	0.4759261914205971
-0.4738608589999984	0.4733643830794368
-0.4737998238437484	0.4705575082700665
-0.4737387886874984	0.46750774159082403
-0.4736777535312484	0.46421069922795793
-0.4736167183749984	0.46067717981371664
-0.4735556832187484	0.456899703502395
-0.4734946480624984	0.4528865448933495
-0.4734336129062484	0.44863745902310903
-0.4733725777499984	0.444152899289564
-0.4733115425937484	0.43944043062980503
-0.4732505074374984	0.4344947997172519
-0.4731894722812484	0.4293258104363819
-0.4731284371249984	0.42393158127537495
-0.4730674019687484	0.4183162949525377
-0.4730063668124984	0.41248458739592897
-0.4729453316562484	0.4064344408851267
-0.4728842964999984	0.40017516791516816
-0.4728232613437484	0.39370455646117486
-0.4727622261874984	0.387029861916053
-0.4727011910312484	0.38015348054104303
-0.4726401558749984	0.3730767763466531
-0.4725791207187484	0.3658073958646149
-0.4725180855624984	0.358344042986147
-0.4724570504062484	0.35069566036627925
-0.4723960152499984	0.34286262038256365
-0.4723349800937484	0.33485005460438644
-0.4722739449374984	0.3266643400532543
-0.4722129097812484	0.3183048939273717
-0.4721518746249984	0.309781324362055
-0.4720908394687484	0.30109358059408653
-0.4720298043124984	0.2922484725768768
-0.4719687691562484	0.28325119325519904
-0.4719077339999984	0.27410394049980236
-0.4718466988437484	0.2648155651280225
-0.4717856636874984	0.25538598027838966
-0.4717246285312484	0.24582339801559253
-0.4716635933749984	0.236131577336813
-0.4716025582187484	0.22631516098086712
-0.4715415230624984	0.21638171849842383
-0.4714804879062484	0.20633229273792053
-0.4714194527499984	0.1961765569886057
-0.4713584175937484	0.18591697342185087
-0.4712973824374984	0.17555952636983257
-0.4712363472812484	0.1651101538806484
-0.4711753121249984	0.15457175380788982
-0.4711142769687484	0.14395461250873484
-0.4710532418124984	0.133260655998431
-0.4709922066562484	0.12249698311901104
-0.4709311714999984	0.11166824752482656
-0.4708701363437484	0.10077954979760625
-0.4708091011874984	0.08983960579262494
-0.4707480660312484	0.07885038084495759
-0.4706870308749984	0.06782069633689337
-0.4706259957187484	0.05675409770390259
-0.4705649605624984	0.0456576905332457
-0.4705039254062484	0.034537851136283534
-0.4704428902499984	0.02339743764962964
-0.4703818550937484	0.01224648029779287
-0.4703208199374984	0.0010871790316674807
-0.4702597847812484	-0.010072377551448504
-0.4701987496249984	-0.02122699777335636
-0.4701377144687484	-0.03237122349581778
-0.4700766793124984	-0.04349713223578066
-0.4700156441562484	-0.054603274624081356
-0.4699546089999984	-0.06567914344290983
-0.4698935738437484	-0.07672175418153725
-0.4698325386874984	-0.08772412510155471
-0.4697715035312484	-0.0986796313816026
-0.4697104683749984	-0.10958529532084668
-0.4696494332187484	-0.1204315018292151
