Time	Frequency
-0.5000200269687554	-1.5105266141008536e-23
-0.49995899181250536	-1.505468140065475e-23
-0.49989795665625536	-1.499544677985178e-23
-0.49983692150000536	-1.492759514608297e-23
-0.49977588634375536	-1.4851162744013394e-23
-0.49971485118750536	-1.4766191184485747e-23
-0.49965381603125536	-1.46727289142004e-23
-0.49959278087500536	-1.4570828836165563e-23
-0.49953174571875536	-1.4460543517058928e-23
-0.49947071056250536	-1.434193090020435e-23
-0.49940967540625536	-1.4215063237211362e-23
-0.49934864025000536	-1.408001516162252e-23
-0.49928760509375536	-1.3936855991826333e-23
-0.49922656993750536	-1.3785662879377452e-23
-0.49916553478125536	-1.362652355446112e-23
-0.49910449962500536	-1.3459531931005192e-23
-0.49904346446875536	-1.328478003067688e-23
-0.49898242931250536	-1.3102357397928577e-23
-0.49892139415625536	-1.2912370803226899e-23
-0.49886035900000536	-1.2714933971417016e-23
-0.49879932384375536	-1.2510151768913953e-23
-0.49873828868750536	-1.2298139947808053e-23
-0.49867725353125536	-1.2079024153312812e-23
-0.49861621837500536	-1.1852924842677221e-23
-0.49855518321875536	-1.1619964034052754e-23
-0.49849414806250536	-1.1380271915856565e-23
-0.49843311290625536	-1.1133986883602033e-23
-0.49837207775000536	-1.0881258625976992e-23
-0.49831104259375536	-1.0622233988164512e-23
-0.49825000743750536	-1.0357040578856553e-23
-0.49818897228125536	-1.0085819079454194e-23
-0.49812793712500536	-9.80874283248807e-24
-0.49806690196875536	-9.525981613330719e-24
-0.49800586681250536	-9.237686471697034e-24
-0.49794483165625536	-8.94400937674142e-24
-0.49788379650000536	-8.64511531299927e-24
-0.49782276134375536	-8.341176772873245e-24
-0.49776172618750536	-8.032372341271282e-24
-0.49770069103125536	-7.718885672389391e-24
-0.49763965587500536	-7.400890645386112e-24
-0.49757862071875536	-7.078563345011624e-24
-0.49751758556250536	-6.752089735114074e-24
-0.49745655040625536	-6.421645589565227e-24
-0.49739551525000536	-6.087418384514998e-24
-0.49733448009375536	-5.74961729228023e-24
-0.49727344493750536	-5.408434829352714e-24
-0.49721240978125536	-5.064051159996556e-24
-0.49715137462500536	-4.716663591511516e-24
-0.49709033946875536	-4.366478293458464e-24
-0.49702930431250536	-4.0136965283592075e-24
-0.49696826915625536	-3.6585141098556085e-24
-0.49690723400000536	-3.301125776379258e-24
-0.49684619884375536	-2.9417426858334403e-24
-0.49678516368750536	-2.5805863341189117e-24
-0.49672412853125536	-2.2178600013465127e-24
-0.49666309337500536	-1.8537554553426e-24
-0.49660205821875536	-1.4884746339420784e-24
-0.49654102306250536	-1.1222343715516247e-24
-0.49647998790625536	-7.552605160700091e-25
-0.49641895275000536	-3.8776364517202103e-25
-0.49635791759375536	-1.9937340155478395e-26
-0.49629688243750536	3.4800732224682913e-25
-0.49623584728125536	7.158451775775367e-25
-0.49617481212500536	1.083369627101325e-24
-0.49611377696875536	1.4503826954485864e-24
-0.49605274181250536	1.81666451151093e-24
-0.49599170665625536	2.1819906892579154e-24
-0.49593067150000536	2.5461609425834028e-24
-0.49586963634375536	2.9089780299506877e-24
-0.49580860118750536	3.2702242628137328e-24
-0.49574756603125536	3.629681050445147e-24
-0.49568653087500536	3.9871487267857244e-24
-0.49562549571875536	4.342429334421603e-24
-0.49556446056250536	4.69531505507866e-24
-0.49550342540625536	5.0455968039918026e-24
-0.49544239025000536	5.393067386632802e-24
-0.49538135509375536	5.737529927381347e-24
-0.49532031993750536	6.0787929647753096e-24
-0.49525928478125536	6.416654395648682e-24
-0.49519824962500536	6.750917682208676e-24
-0.49513721446875536	7.08139587537339e-24
-0.49507617931250536	7.407889889172323e-24
-0.49501514415625536	7.730204013852164e-24
-0.49495410900000536	8.04815993887214e-24
-0.49489307384375536	8.361579191779126e-24
-0.49483203868750536	8.670276645353125e-24
-0.49477100353125536	8.97406553241268e-24
-0.49470996837500536	9.272767873989697e-24
-0.49464893321875536	9.566217337815948e-24
-0.49458789806250536	9.85424865828836e-24
-0.49452686290625536	1.013668991729253e-23
-0.49446582775000536	1.0413363274504463e-23
-0.49440479259375536	1.0684108206044774e-23
-0.49434375743750536	1.0948785246850411e-23
-0.49428272228125536	1.1207238168114258e-23
-0.49422168712500536	1.1459300376721314e-23
-0.49416065196875536	1.1704829172040937e-23
-0.49409961681250536	1.1943687503135066e-23
-0.49403858165625536	1.2175725922629678e-23
-0.49397754650000536	1.2400806523084021e-23
-0.49391651134375536	1.261880937322812e-23
-0.49385547618750536	1.2829606921384319e-23
-0.49379444103125536	1.303306097642458e-23
-0.49373340587500536	1.3229050371904692e-23
-0.49367237071875536	1.341747318721978e-23
-0.49361133556250536	1.3598216538919112e-23
-0.49355030040625536	1.3771161444937178e-23
-0.49348926525000536	1.3936208645629605e-23
-0.49342823009375536	1.4093264791530976e-23
-0.49336719493750536	1.4242232247168287e-23
-0.49330615978125536	1.4383022469912077e-23
-0.49324512462500536	1.4515553934473164e-23
-0.49318408946875536	1.463974518591178e-23
-0.49312305431250536	1.475551739104579e-23
-0.49306201915625536	1.4862800260732008e-23
-0.49300098400000536	1.49615310070709e-23
-0.49293994884375536	1.5051648116946287e-23
-0.49287891368750536	1.513309592308878e-23
-0.49281787853125536	1.520582564418289e-23
-0.49275684337500536	1.526979009393316e-23
-0.49269580821875536	1.5324946973343887e-23
-0.49263477306250536	1.5371259582534323e-23
-0.49257373790625536	1.5408697029136727e-23
-0.49251270275000536	1.5437236303758874e-23
-0.49245166759375536	1.5456857751555525e-23
-0.49239063243750536	1.5467543853167587e-23
-0.49232959728125536	1.5469283309203246e-23
-0.49226856212500536	1.5462071636546542e-23
-0.49220752696875536	1.5445909243094022e-23
-0.49214649181250536	1.542080082635711e-23
-0.49208545665625536	1.538675599206265e-23
-0.49202442150000536	1.5343789971969634e-23
-0.49196338634375536	1.529192420055975e-23
-0.49190235118750536	1.5231185842222956e-23
-0.49184131603125536	1.5161604780596494e-23
-0.49178028087500536	1.5083212605665338e-23
-0.49171924571875536	1.499604925536506e-23
-0.49165821056250536	1.490016567203367e-23
-0.49159717540625536	1.4795615509444364e-23
-0.49153614025000536	1.468245172059664e-23
-0.49147510509375536	1.4560731708009563e-23
-0.49141406993750536	1.4430521542681608e-23
-0.49135303478125536	1.4291894522867132e-23
-0.49129199962500536	1.4144925568496932e-23
-0.49123096446875536	1.3989694635233144e-23
-0.49116992931250536	1.3826289202600712e-23
-0.49110889415625536	1.3654796111793674e-23
-0.49104785900000536	1.347531004045718e-23
-0.49098682384375536	1.3287935013409977e-23
-0.49092578868750536	1.3092769004107403e-23
-0.49086475353125536	1.2889920159143626e-23
-0.49080371837500536	1.2679509230977944e-23
-0.49074268321875536	1.2461645628704966e-23
-0.49068164806250536	1.223644496149075e-23
-0.49062061290625536	1.2004043876754107e-23
-0.49055957775000536	1.1764577013217943e-23
-0.49049854259375536	1.1518171836718412e-23
-0.49043750743750536	1.1264962326842148e-23
-0.49037647228125536	1.1005089691756459e-23
-0.49031543712500536	1.0738704720976502e-23
-0.49025440196875536	1.0465961630822372e-23
-0.49019336681250536	1.0187004411606574e-23
-0.49013233165625536	9.901991746417327e-24
-0.49007129650000536	9.611098752646697e-24
-0.49001026134375536	9.314480584030774e-24
-0.48994922618750536	9.012290610157847e-24
-0.48988819103125536	8.704707119098506e-24
-0.48982715587500536	8.391916636417143e-24
-0.48976612071875536	8.074095109382536e-24
-0.48970508556250536	7.751410848838944e-24
-0.48964405040625536	7.424047369600725e-24
-0.48958301525000536	7.092201848400155e-24
-0.48952198009375536	6.756058384099943e-24
-0.48946094493750536	6.415795635184833e-24
-0.48939990978125536	6.071611326161821e-24
-0.48933887462500536	5.723712230087749e-24
-0.48927783946875536	5.372295931854655e-24
-0.48921680431250536	5.017561619899626e-24
-0.48915576915625536	4.659709785638639e-24
-0.48909473400000536	4.298931058171781e-24
-0.48903369884375536	3.93543213583849e-24
-0.48897266368750536	3.5694382951040504e-24
-0.48891162853125536	3.201157307505563e-24
-0.48885059337500536	2.8307856202295615e-24
-0.48878955821875536	2.4585395139891462e-24
-0.48872852306250536	2.08464380870193e-24
-0.48866748790625536	1.7093052995892722e-24
-0.48860645275000536	1.3327302082404251e-24
-0.48854541759375536	9.55136989133917e-25
-0.48848438243750536	5.7673974281354125e-25
-0.48842334728125536	1.977551326578776e-25
-0.48836231212500536	-1.8158515318214407e-25
-0.48830127696875536	-5.610549532435601e-25
-0.48824024181250536	-9.404550019118492e-25
-0.48817920665625536	-1.3195862820140445e-24
-0.48811817150000536	-1.698216811756197e-24
-0.48805713634375536	-2.0761110698835723e-24
-0.48799610118750536	-2.453062323929853e-24
-0.48793506603125536	-2.828860132091135e-24
-0.48787403087500536	-3.2032774996986952e-24
-0.48781299571875536	-3.576101975496427e-24
-0.48775196056250536	-3.9471297377853306e-24
-0.48769092540625536	-4.316144836202767e-24
-0.48762989025000536	-4.6829231384941755e-24
-0.48756885509375536	-5.047250287606426e-24
-0.48750781993750536	-5.4089304201940865e-24
-0.48744678478125536	-5.767757945587155e-24
-0.48738574962500536	-6.123508689490955e-24
-0.48732471446875536	-6.475977397615363e-24
-0.48726367931250536	-6.824971840842516e-24
-0.48720264415625536	-7.17028711872428e-24
-0.48714160900000536	-7.511725040278036e-24
-0.48708057384375536	-7.849093273476112e-24
-0.48701953868750536	-8.182186096184895e-24
-0.48695850353125536	-8.510800412005468e-24
-0.48689746837500536	-8.834753328884916e-24
-0.48683643321875536	-9.153868542054087e-24
-0.48677539806250536	-9.467960173217644e-24
-0.48671436290625536	-9.776839532984699e-24
-0.48665332775000536	-1.0080323486344446e-23
-0.48659229259375536	-1.0378239321912559e-23
-0.48653125743750536	-1.0670416334099148e-23
-0.48647022228125536	-1.0956674805462641e-23
-0.48640918712500536	-1.1236850970965422e-23
-0.48634815196875536	-1.1510792331874018e-23
-0.48628711681250536	-1.1778331587294248e-23
-0.48622608165625536	-1.2039311448185599e-23
-0.48616504650000536	-1.2293583787370186e-23
-0.48610401134375536	-1.2540994248914942e-23
-0.48604297618750536	-1.2781400108441104e-23
-0.48598194103125536	-1.3014660504459372e-23
-0.48592090587500536	-1.324063515827875e-23
-0.48585987071875536	-1.3459199584144085e-23
-0.48579883556250536	-1.367022678880249e-23
-0.48573780040625536	-1.3873582041347528e-23
-0.48567676525000536	-1.4069144695008446e-23
-0.48561573009375536	-1.4256811016323254e-23
-0.48555469493750536	-1.4436470068754748e-23
-0.48549365978125536	-1.4608002890600018e-23
-0.48543262462500536	-1.4771310769103148e-23
-0.48537158946875536	-1.4926308549021621e-23
-0.48531055431250536	-1.5072901125132037e-23
-0.48524951915625536	-1.5210991537795758e-23
-0.48518848400000536	-1.5340497205324977e-23
-0.48512744884375536	-1.5461348310245508e-23
-0.48506641368750536	-1.5573474650918935e-23
-0.48500537853125536	-1.5676804084339766e-23
-0.48494434337500536	-1.5771271748377917e-23
-0.48488330821875536	-1.5856821612661662e-23
-0.48482227306250536	-1.5933403581893788e-23
-0.48476123790625536	-1.600097006169317e-23
-0.48470020275000536	-1.605947694376874e-23
-0.48463916759375536	-1.610888797992585e-23
-0.48457813243750536	-1.6149173361273705e-23
-0.48451709728125536	-1.6180307385621865e-23
-0.48445606212500536	-1.620226814597377e-23
-0.48439502696875536	-1.6215038719124746e-23
-0.48433399181250536	-1.621860868356862e-23
-0.48427295665625536	-1.6212973750811877e-23
-0.48421192150000536	-1.619813501722403e-23
-0.48415088634375536	-1.617409821021048e-23
-0.48408985118750536	-1.6140873836575362e-23
-0.48402881603125536	-1.6098476953853079e-23
-0.48396778087500536	-1.604692862124957e-23
-0.48390674571875536	-1.5986257689236252e-23
-0.48384571056250536	-1.5916495937140356e-23
-0.48378467540625536	-1.5837679060366723e-23
-0.48372364025000536	-1.5749852519625466e-23
-0.48366260509375536	-1.5653064188284097e-23
-0.48360156993750536	-1.5547362183901528e-23
-0.48354053478125536	-1.5432806021617762e-23
-0.48347949962500536	-1.5309464565683816e-23
-0.48341846446875536	-1.5177404682502352e-23
-0.48335742931250536	-1.5036695228118497e-23
-0.48329639415625536	-1.4887415712630658e-23
-0.48323535900000536	-1.4729652118204297e-23
-0.48317432384375536	-1.456349485320328e-23
-0.48311328868750536	-1.438903741968859e-23
-0.48305225353125536	-1.4206371078427997e-23
-0.48299121837500536	-1.4015598733620937e-23
-0.48293018321875536	-1.381683888425718e-23
-0.48286914806250536	-1.3610202373939043e-23
-0.48280811290625536	-1.3395796277770582e-23
-0.48274707775000536	-1.3173741366449293e-23
-0.48268604259375536	-1.2944170796326176e-23
-0.48262500743750536	-1.2707222177497732e-23
-0.48256397228125536	-1.2463023578758695e-23
-0.48250293712500536	-1.2211704065640578e-23
-0.48244190196875536	-1.1953416135659856e-23
-0.48238086681250536	-1.1688313620131996e-23
-0.48231983165625536	-1.1416535863307188e-23
-0.48225879650000536	-1.1138235073084192e-23
-0.48219776134375536	-1.0853579739166585e-23
-0.48213672618750536	-1.0562735930441934e-23
-0.48207569103125536	-1.0265867836532048e-23
-0.48201465587500536	-9.963142885637513e-24
-0.48195362071875536	-9.654730337491918e-24
-0.48189258556250536	-9.340803722817648e-24
-0.48183155040625536	-9.021551819031019e-24
-0.48177051525000536	-8.697163485929943e-24
-0.48170948009375536	-8.367813875017652e-24
-0.48164844493750536	-8.033693608467917e-24
-0.48158740978125536	-7.694999647419409e-24
-0.48152637462500536	-7.351920784127212e-24
-0.48146533946875536	-7.004661263279203e-24
-0.48140430431250536	-6.653420995505617e-24
-0.48134326915625536	-6.298389993884128e-24
-0.48128223400000536	-5.939776136304806e-24
-0.48122119884375536	-5.5777959989090285e-24
-0.48116016368750536	-5.212660611432504e-24
-0.48109912853125536	-4.844576953313344e-24
-0.48103809337500536	-4.473748713075479e-24
-0.48097705821875536	-4.100382106853906e-24
-0.48091602306250536	-3.724704624514906e-24
-0.48085498790625536	-3.34694708870937e-24
-0.48079395275000536	-2.9673153181436783e-24
-0.48073291759375536	-2.586028280763325e-24
-0.48067188243750536	-2.203313075974711e-24
-0.48061084728125536	-1.819371011536388e-24
-0.48054981212500536	-1.43442491694514e-24
-0.48048877696875536	-1.0487207216384216e-24
-0.48042774181250536	-6.624828115732548e-25
-0.48036670665625536	-2.7592641689036665e-25
-0.48030567150000536	1.1073242328576937e-25
-0.48024463634375536	4.972733371596831e-25
-0.48018360118750536	8.834664902935954e-25
-0.48012256603125536	1.2690837822265452e-24
-0.48006153087500536	1.6538923431913016e-24
-0.48000049571875536	2.0376715633143656e-24
-0.47993946056250536	2.420221988283156e-24
-0.47987842540625536	2.8013146327064913e-24
-0.47981739025000536	3.1807051415517343e-24
-0.47975635509375536	3.558181091115002e-24
-0.47969531993750536	3.933531790837301e-24
-0.47963428478125536	4.306540249600233e-24
-0.47957324962500536	4.676998641634102e-24
-0.47951221446875536	5.044678478042331e-24
-0.47945117931250536	5.40934288735091e-24
-0.47939014415625536	5.770793754887843e-24
-0.47932910900000536	6.128850569805029e-24
-0.47926807384375536	6.483300731796096e-24
-0.47920703868750536	6.83390951168952e-24
-0.47914600353125536	7.180463937207527e-24
-0.47908496837500536	7.522779920424684e-24
-0.47902393321875536	7.860672339807722e-24
-0.47896289806250536	8.19393745675132e-24
-0.47890186290625536	8.522372071497389e-24
-0.47884082775000536	8.845785035512128e-24
-0.47877979259375536	9.163983994444357e-24
-0.47871875743750536	9.476782896230987e-24
-0.47865772228125536	9.784007664571118e-24
-0.47859668712500536	1.0085482331406617e-23
-0.47853565196875536	1.0381025947772941e-23
-0.47847461681250536	1.0670457947748547e-23
-0.47841358165625536	1.0953609933109961e-23
-0.47835254650000536	1.1230324189545477e-23
-0.47829151134375536	1.1500437067609631e-23
-0.47823047618750536	1.1763784901216982e-23
-0.47816944103125536	1.202021516843139e-23
-0.47810840587500536	1.2269579285805251e-23
-0.47804737071875536	1.2511733068891907e-23
-0.47798633556250536	1.274653714664742e-23
-0.47792530040625536	1.2973845777675887e-23
-0.47786426525000536	1.3193520438808018e-23
-0.47780323009375536	1.3405442120757955e-23
-0.47774219493750536	1.3609487596817e-23
-0.47768115978125536	1.380553029093332e-23
-0.47762012462500536	1.399345989339069e-23
-0.47755908946875536	1.4173167078577658e-23
-0.47749805431250536	1.4344540702959044e-23
-0.47743701915625536	1.4507480684727195e-23
-0.47737598400000536	1.4661888727011146e-23
-0.47731494884375536	1.4807672758825762e-23
-0.47725391368750536	1.4944754527265338e-23
-0.47719287853125536	1.507305517012632e-23
-0.47713184337500536	1.5192493269707795e-23
-0.47707080821875536	1.5302994157997832e-23
-0.47700977306250536	1.5404491608579547e-23
-0.47694873790625536	1.549692826826747e-23
-0.47688770275000536	1.558025253816146e-23
-0.47682666759375536	1.5654414392002816e-23
-0.47676563243750536	1.5719367450266194e-23
-0.47670459728125536	1.5775071750734634e-23
-0.47664356212500536	1.5821494380337077e-23
-0.47658252696875536	1.5858607910673344e-23
-0.47652149181250536	1.588638895544707e-23
-0.47646045665625536	1.590482005280021e-23
-0.47639942150000536	1.5913890474392735e-23
-0.47633838634375536	1.5913594558180525e-23
-0.47627735118750536	1.5903930746760843e-23
-0.47621631603125536	1.5884903004411642e-23
-0.47615528087500536	1.5856522924600625e-23
-0.47609424571875536	1.5818806979111378e-23
-0.47603321056250536	1.5771774380038563e-23
-0.47597217540625536	1.571545146956362e-23
-0.47591114025000536	1.564987217407827e-23
-0.47585010509375536	1.5575073942095187e-23
-0.47578906993750536	1.549109923289327e-23
-0.47572803478125536	1.539799819936375e-23
-0.47566699962500536	1.529582575427029e-23
-0.47560596446875536	1.5184638211439186e-23
-0.47554492931250536	1.5064495964379413e-23
-0.47548389415625536	1.4935471216171887e-23
-0.47542285900000536	1.4797646166992357e-23
-0.47536182384375536	1.4651100986640264e-23
-0.47530078868750536	1.4495915423661898e-23
-0.47523975353125536	1.4332176964446195e-23
-0.47517871837500536	1.4159981879027067e-23
-0.47511768321875536	1.3979436857590737e-23
-0.47505664806250536	1.3790650450368517e-23
-0.47499561290625536	1.3593727052323948e-23
-0.47493457775000536	1.3388777118764165e-23
-0.47487354259375536	1.3175921439998735e-23
-0.47481250743750536	1.2955292778418866e-23
-0.47475147228125536	1.2727025459454936e-23
-0.47469043712500536	1.2491243864307553e-23
-0.47462940196875536	1.2248081709307803e-23
-0.47456836681250536	1.1997685851071188e-23
-0.47450733165625536	1.1740203443024936e-23
-0.47444629650000536	1.1475788147833975e-23
-0.47438526134375536	1.1204598160329044e-23
-0.47432422618750536	1.0926790580460998e-23
-0.47426319103125536	1.0642526911027595e-23
-0.47420215587500536	1.0351972693161372e-23
-0.47414112071875536	1.0055298549800373e-23
-0.47408008556250536	9.752684133012229e-24
-0.47401905040625536	9.444308146423237e-24
-0.47395801525000536	9.13034623672039e-24
-0.47389698009375536	8.810985689868097e-24
-0.47383594493750536	8.48642172637045e-24
-0.47377490978125536	8.156839506263427e-24
-0.47371387462500536	7.822424637009883e-24
-0.47365283946875536	7.483386220402703e-24
-0.47359180431250536	7.139935579775865e-24
-0.47353076915625536	6.792259890845384e-24
-0.47346973400000536	6.4405531999923964e-24
-0.47340869884375536	6.0850400871298956e-24
-0.47334766368750536	5.7259396392416855e-24
-0.47328662853125536	5.363449149997298e-24
-0.47322559337500536	4.9977762559730846e-24
-0.47316455821875536	4.629148460602456e-24
-0.47310352306250536	4.25779180673918e-24
-0.47304248790625536	3.88392162936824e-24
-0.47298145275000536	3.507751992730748e-24
-0.47292041759375536	3.1295039866137297e-24
-0.47285938243750536	2.749406125868121e-24
-0.47279834728125536	2.367687751767441e-24
-0.47273731212500536	1.984575229477342e-24
-0.47267627696875536	1.6002946360373676e-24
-0.47261524181250536	1.2150707229766325e-24
-0.47255420665625536	8.291295461684957e-25
-0.47249317150000536	4.427014594372186e-25
-0.47243213634375536	5.602615066081188e-26
-0.47237110118750536	-3.306578823456415e-25
-0.47231006603125536	-7.17136746864995e-25
