Time	Frequency
-0.5000066751562571	0.48338444797034746
-0.4999456400000071	0.48647851500466094
-0.4998846048437571	0.48934122398630886
-0.4998235696875071	0.49186055168151127
-0.4997625345312571	0.49403674990720076
-0.4997014993750071	0.4959745292331828
-0.4996404642187571	0.49762198754508286
-0.4995794290625071	0.49889784290941036
-0.4995183939062571	0.4998870051633639
-0.4994573587500071	0.5006279601452988
-0.4993963235937571	0.5010187396650146
-0.4993352884375071	0.5010666823364229
-0.4992742532812571	0.5008673906694142
-0.4992132181250071	0.5003698658484681
-0.4991521829687571	0.49950320646021873
-0.4990911478125071	0.4983504448070813
-0.4990301126562571	0.4969451881015712
-0.4989690775000071	0.4951912157649757
-0.4989080423437571	0.4931004311879199
-0.4988470071875071	0.4907657957571842
-0.4987859720312571	0.4881361147561955
-0.4987249368750071	0.48514478481918194
-0.4986639017187571	0.48187730936613604
-0.4986028665625071	0.4783656173091361
-0.4985418314062571	0.47451330850565243
-0.4984807962500071	0.470337923608855
-0.4984197610937571	0.4659346545918057
-0.4983587259375071	0.46124704647382503
-0.4982976907812571	0.4562111623029517
-0.4982366556250071	0.4509218472713251
-0.4981756204687571	0.44540664965541193
-0.4981145853125071	0.43956288619219086
-0.4980535501562571	0.43341969983447914
-0.4979925150000071	0.42707726744240476
-0.4979314798437571	0.4204666866004165
-0.4978704446875071	0.4135280703918363
-0.4978094095312571	0.4063709665428299
-0.4977483743750071	0.39901328022725446
-0.4976873392187571	0.3913443107029354
-0.4976263040625071	0.3834117617569464
-0.4975652689062571	0.3753177498259978
-0.4975042337500071	0.36697431986465673
-0.4974431985937571	0.3583322960559494
-0.4973821634375071	0.3495192010130843
-0.4973211282812571	0.34053458394904107
-0.4972600931250071	0.3312612344687214
-0.4971990579687571	0.3217728844940201
-0.4971380228125071	0.31216659444332384
-0.4970769876562571	0.3023313947751773
-0.4970159525000071	0.2922385561153708
-0.4969549173437571	0.28203176273699515
-0.4968938821875071	0.2716829559269948
-0.4968328470312571	0.2610752588783515
-0.4967718118750071	0.250313051098105
-0.4967107767187571	0.23947767162878494
-0.4966497415625071	0.22843636970995235
-0.4965887064062571	0.21719181802192644
-0.4965276712500071	0.20589635082777516
-0.4964666360937571	0.1944857496071409
-0.4964056009375071	0.1828540970665425
-0.4963445657812571	0.1711388017915487
-0.4962835306250071	0.15939481091701185
-0.4962224954687571	0.147471833093778
-0.4961614603125071	0.13541053777440745
-0.4961004251562571	0.12336150280414013
-0.4960393900000071	0.11122278529304372
-0.4959783548437571	0.09891233457127259
-0.4959173196875071	0.08659596929076302
-0.4958562845312571	0.07428983032645937
-0.4957952493750071	0.06183530445037265
-0.4957342142187571	0.04931806532767189
-0.4956731790625071	0.036874460417229214
-0.4956121439062571	0.024365128128267317
-0.4955511087500071	0.01174331057738095
-0.4954900735937571	-0.000805545927014394
-0.4954290384375071	-0.013311684294993178
-0.4953680032812571	-0.025927918020849056
-0.4953069681250071	-0.038523724249733445
-0.4952459329687571	-0.05099273249507796
-0.4951848978125071	-0.06350363735284115
-0.4951238626562571	-0.07605728502903424
-0.4950628275000071	-0.08846318802169148
-0.4950017923437571	-0.10080007356556618
-0.4949407571875071	-0.11320004498366323
-0.4948797220312571	-0.12549540698971096
-0.4948186868750071	-0.13762074631905682
-0.4947576517187571	-0.1497606480268785
-0.4946966165625071	-0.16186694107573138
-0.4946355814062571	-0.1737599020858333
-0.4945745462500071	-0.18556175696963215
-0.4945135110937571	-0.19737098132492184
-0.4944524759375071	-0.2089959611102521
-0.4943914407812571	-0.2204194033159591
-0.4943304056250071	-0.2318246025060161
-0.4942693704687571	-0.24311571377356447
-0.4942083353125071	-0.25414017190921206
-0.4941473001562571	-0.2650558195801419
-0.4940862650000071	-0.27591800011008555
-0.4940252298437571	-0.286523344933287
-0.4939641946875071	-0.29690344205018426
-0.4939031595312571	-0.30722831075698204
-0.4938421243750071	-0.3173633808610874
-0.4937810892187571	-0.3271925227483897
-0.4937200540625071	-0.3368936659442555
-0.4936590189062571	-0.34647625429192447
-0.4935979837500071	-0.3557434468050397
-0.4935369485937571	-0.3647710976283157
-0.4934759134375071	-0.3737015405164157
-0.4934148782812571	-0.3823733663517447
-0.4933538431250071	-0.39071364307729906
-0.4932928079687571	-0.39890568479256255
-0.4932317728125071	-0.40691614962171696
-0.4931707376562571	-0.4145680648726324
-0.4931097025000071	-0.42197096972405324
-0.4930486673437571	-0.4292322934629005
-0.4929876321875071	-0.4361787874950415
-0.4929265970312571	-0.44278062839455523
-0.4928655618750071	-0.4492122303791367
-0.4928045267187571	-0.4554050608575185
-0.4927434915625071	-0.4612121794385613
-0.4926824564062571	-0.4667647430415709
-0.4926214212500071	-0.47213262336662265
-0.4925603860937571	-0.4771440210291295
-0.4924993509375071	-0.48180717749993096
-0.4924383157812571	-0.48627782535191333
-0.4923772806250071	-0.4904637545108126
-0.4923162454687571	-0.4942518707405394
-0.4922552103125071	-0.49778131298481004
-0.4921941751562571	-0.5010877544823577
-0.4921331400000071	-0.5040125342550897
-0.4920721048437571	-0.5065933200371442
-0.4920110696875071	-0.5089613899476673
-0.4919500345312571	-0.5110122249040724
-0.4918889993750071	-0.5126653226048415
-0.4918279642187571	-0.5140576522689113
-0.4917669290625071	-0.5151984011520291
-0.4917058939062571	-0.5159481067480653
-0.4916448587500071	-0.5163628634380704
-0.4915838235937571	-0.516549494235119
-0.4915227884375071	-0.5164018431078364
-0.4914617532812571	-0.5158665147944648
-0.4914007181250071	-0.5150716000157078
-0.4913396829687571	-0.5140087395606071
-0.4912786478125071	-0.5125587775022481
-0.4912176126562571	-0.5107871706103867
-0.4911565775000071	-0.5087806127170579
-0.4910955423437571	-0.5064376059424828
-0.4910345071875071	-0.5037240811370429
-0.4909734720312571	-0.5007575349523773
-0.4909124368750071	-0.49752059763507306
-0.4908514017187571	-0.4939113533486308
-0.4907903665625071	-0.4899980242912486
-0.4907293314062571	-0.4858537365787123
-0.4906682962500071	-0.48138424238486216
-0.4906072610937571	-0.47656696270057364
-0.4905462259375071	-0.47151061343210526
-0.4904851907812571	-0.4661950347368363
-0.4904241556250071	-0.4605304107566218
-0.4903631204687571	-0.45458499883633857
-0.4903020853125071	-0.44842424424300503
-0.4902410501562571	-0.44195961417794194
-0.4901800150000071	-0.43517545404884933
-0.4901189798437571	-0.4281764346735047
-0.4900579446875071	-0.42094093042725683
-0.4899969095312571	-0.41338453170416245
-0.4899358743750071	-0.4055778560900665
-0.4898748392187571	-0.3975846031661132
-0.4898138040625071	-0.3893161147917301
-0.4897527689062571	-0.38076086619695315
-0.4896917337500071	-0.37202615453315285
-0.4896306985937571	-0.36308646794361404
-0.4895696634375071	-0.35385813616803663
-0.4895086282812571	-0.3444202407072116
-0.4894475931250071	-0.3348344838259733
-0.4893865579687571	-0.325004866571116
-0.4893255228125071	-0.3149285138761874
-0.4892644876562571	-0.30472008022578123
-0.4892034525000071	-0.29434301162259874
-0.4891424173437571	-0.2837130055606608
-0.4890813821875071	-0.27292423900661616
-0.4890203470312571	-0.26203366209558665
-0.4889593118750071	-0.2509329233589555
-0.4888982767187571	-0.2396334674437942
-0.4888372415625071	-0.22825861417628981
-0.4887762064062571	-0.21675298148445862
-0.4887151712500071	-0.20503448350428602
-0.4886541360937571	-0.193218509835375
-0.4885931009375071	-0.18134976738963443
-0.4885320657812571	-0.16930582513969622
-0.4884710306250071	-0.15712124505607813
-0.4884099954687571	-0.14492296456812287
-0.4883489603125071	-0.13262952313656415
-0.4882879251562571	-0.12017053487616704
-0.4882268900000071	-0.10768470316599213
-0.4881658548437571	-0.09519343593394418
-0.4881048196875071	-0.08256346916084137
-0.4880437845312571	-0.06986023980350244
-0.4879827493750071	-0.05720543915703304
-0.4879217142187571	-0.04448886480869609
-0.4878606790625071	-0.03166331728982695
-0.4877996439062571	-0.018886848994820047
-0.4877386087500071	-0.006145759583092338
-0.4876775735937571	0.006695527880587836
-0.4876165384375071	0.019533088831469172
-0.4875555032812571	0.03226186086695735
-0.4874944681250071	0.045022275473663935
-0.4874334329687571	0.057828627182360884
-0.4873723978125071	0.07050972962085023
-0.4873113626562571	0.08312010026741605
-0.4872503275000071	0.09578685498411234
-0.4871892923437571	0.10836857594109321
-0.4871282571875071	0.12078928329922643
-0.4870672220312571	0.13321262313669593
-0.4870061868750071	0.14561062216137796
-0.4869451517187571	0.1578119832245039
-0.4868841165625071	0.1699160988707805
-0.4868230814062571	0.18202649925088613
-0.4867620462500071	0.19396828218951892
-0.4867010110937571	0.20570789198010395
-0.4866399759375071	0.2174217495314726
-0.4865789407812571	0.2290335401521942
-0.4865179056250071	0.24038642421376147
-0.4864568704687571	0.25162215339475147
-0.4863958353125071	0.2628073150761834
-0.4863348001562571	0.27374489300470406
-0.4862737650000071	0.2844525198221441
-0.4862127298437571	0.2951037018600394
-0.4861516946875071	0.3055736755543942
-0.4860906595312571	0.3157352528317564
-0.4860296243750071	0.3257641983147238
-0.4859685892187571	0.33568159979661344
-0.4859075540625071	0.34528343396373506
-0.4858465189062571	0.35463855362900865
-0.4857854837500071	0.36390134976916433
-0.4857244485937571	0.37290794015568846
-0.4856634134375071	0.3815736114837054
-0.4856023782812571	0.39009276535203313
-0.4855413431250071	0.3984364062901549
-0.4854803079687571	0.4064109480166261
-0.4854192728125071	0.414132177503808
-0.4853582376562571	0.4217218944499946
-0.4852972025000071	0.42898912969461495
-0.4852361673437571	0.4358983355752311
-0.4851751321875071	0.4426475561019767
-0.4851140970312571	0.44915967516071187
-0.4850530618750071	0.4552656422108511
-0.4849920267187571	0.46111881966510304
-0.4849309915625071	0.4667998736912969
-0.4848699564062571	0.472105671418851
-0.4848089212500071	0.4770504627100675
-0.4847478860937571	0.48182043673857927
-0.4846868509375071	0.48629897473941286
-0.4846258157812571	0.4903530716736204
-0.4845647806250071	0.494158679629671
-0.4845037454687571	0.49775205473145967
-0.4844427103125071	0.5009348633943982
-0.4843816751562571	0.5037657184467847
-0.4843206400000071	0.5064057451578748
-0.4842596048437571	0.5087113765314424
-0.4841985696875071	0.5105917906827396
-0.4841375345312571	0.512230329005594
-0.4840764993750071	0.5136214025519905
-0.4840154642187571	0.5145849495373324
-0.4839544290625071	0.515214161801938
-0.4838933939062571	0.5156375189582094
-0.4838323587500071	0.5156985466273917
-0.4837713235937571	0.5153484727612679
-0.4837102884375071	0.5147643625489207
-0.4836492532812571	0.513906552076687
-0.4835882181250071	0.5126224950809979
-0.4835271829687571	0.5110272905656459
-0.4834661478125071	0.5092147746426343
-0.4834051126562571	0.5070291269871493
-0.4833440775000071	0.5044580936000926
-0.4832830423437571	0.5016623089998388
-0.4832220071875071	0.4985790167847663
-0.4831609720312571	0.4950869754392223
-0.4830999368750071	0.4913105980016574
-0.4830389017187571	0.48731237581224085
-0.4829778665625071	0.4829470629091959
-0.4829168314062571	0.4782300397063312
-0.4828557962500071	0.47330121060597585
-0.4827947610937571	0.4680857452155634
-0.4827337259375071	0.4624912712522558
-0.4826726907812571	0.4566419537357967
-0.4826116556250071	0.45057659617515117
-0.4825506204687571	0.44416548648963755
-0.4824895853125071	0.4374414534524047
-0.4824285501562571	0.4305241763322257
-0.4823675150000071	0.42333563233509225
-0.4823064798437571	0.41580681582688184
-0.4822454446875071	0.40805659191681454
-0.4821844095312571	0.40010798667327896
-0.4821233743750071	0.39184631067468695
-0.4820623392187571	0.3833138066588571
-0.4820013040625071	0.3746151748713608
-0.4819402689062571	0.3656745855232268
-0.4818792337500071	0.35643776306568314
-0.4818181985937571	0.34701635620164917
-0.4817571634375071	0.33742629754668213
-0.4816961282812571	0.3275658637009121
-0.4816350931250071	0.31748031632304086
-0.4815740579687571	0.3072634334804273
-0.4815130228125071	0.2968432945090664
-0.4814519876562571	0.2861757250995996
-0.4813909525000071	0.27536770062509225
-0.4813299173437571	0.2644306531822904
-0.4812688821875071	0.2532692716971783
-0.4812078470312571	0.24193208802353947
-0.4811468118750071	0.230509830551837
-0.4810857767187571	0.21893004632133697
-0.4810247415625071	0.20715176790368794
-0.4809637064062571	0.19528402203377943
-0.4809026712500071	0.18333595369197309
-0.4808416360937571	0.1712118646608305
-0.4807806009375071	0.15896619727074573
-0.4807195657812571	0.1466893303684566
-0.4806585306250071	0.13430142858733438
-0.4805974954687571	0.12176694399346842
-0.4805364603125071	0.10920418915101864
-0.4804754251562571	0.09661306524578249
-0.4804143900000071	0.08389202111103744
-0.4803533548437571	0.07110910567948919
-0.4802923196875071	0.05835537695199889
-0.4802312845312571	0.045537594654601644
-0.4801702493750071	0.032628070943724906
-0.4801092142187571	0.019755893179383907
-0.4800481790625071	0.006905963015331878
-0.4799871439062571	-0.006026570493261951
-0.4799261087500071	-0.01895344288577232
-0.4798650735937571	-0.03179019009285448
-0.4798040384375071	-0.04464948698535888
-0.4797430032812571	-0.05754128803877095
-0.4796819681250071	-0.0703242764083708
-0.4796209329687571	-0.08303932817279691
-0.4795598978125071	-0.09579077628566525
-0.4794988626562571	-0.10846311158655862
-0.4794378275000071	-0.12098748266784197
-0.4793767923437571	-0.1334972809245545
-0.4793157571875071	-0.1459747066662817
-0.4792547220312571	-0.15827259405525165
-0.4791936868750071	-0.17046568031621145
-0.4791326517187571	-0.18264631001157805
-0.4790716165625071	-0.19466967787913145
-0.4790105814062571	-0.20649632580308488
-0.4789495462500071	-0.21827643677466074
-0.4788885110937571	-0.22995402467847514
-0.4788274759375071	-0.24138536469673375
-0.4787664407812571	-0.2526833633126083
-0.4787054056250071	-0.263917932566456
-0.4786443704687571	-0.27491909102635936
-0.4785833353125071	-0.28568556855714383
-0.4785223001562571	-0.2963741609224552
-0.4784612650000071	-0.30688743721913725
-0.4784002298437571	-0.3170988522533981
-0.4783391946875071	-0.3271569126577132
-0.4782781595312571	-0.3370966016528344
-0.4782171243750071	-0.3467316924984287
-0.4781560892187571	-0.35610792233368027
-0.4780950540625071	-0.3653757845368898
-0.4780340189062571	-0.3743947275611187
-0.4779729837500071	-0.38307014042852483
-0.4779119485937571	-0.39158010380036573
-0.4778509134375071	-0.399913362355864
-0.4777898782812571	-0.40788080312806074
-0.4777288431250071	-0.41557948763418523
-0.4776678079687571	-0.4231379532201556
-0.4776067728125071	-0.4303779683280605
-0.4775457376562571	-0.43724977008071064
-0.4774847025000071	-0.4439480989129665
-0.4774236673437571	-0.45041075731566926
-0.4773626321875071	-0.45646232959337035
-0.4773015970312571	-0.462246540480492
-0.4772405618750071	-0.46785579046236964
-0.4771795267187571	-0.4730872705556888
-0.4771184915625071	-0.47794415076023794
-0.4770574564062571	-0.4826209633809916
-0.4769964212500071	-0.4870054363353173
-0.4769353860937571	-0.49095193978954155
-0.4768743509375071	-0.4946417021612678
-0.4768133157812571	-0.498121021348476
-0.4767522806250071	-0.5011777490221319
-0.4766912454687571	-0.5038690894617591
-0.4766302103125071	-0.506373257744195
-0.4765691751562571	-0.5085364411653255
-0.4765081400000071	-0.5102550288629455
-0.4764471048437571	-0.5117327794555022
-0.4763860696875071	-0.5129655874917523
-0.4763250345312571	-0.513748997992573
-0.4762639993750071	-0.5141897650581648
-0.4762029642187571	-0.5144359290565603
-0.4761419290625071	-0.514304302279728
-0.4760808939062571	-0.5137402241273877
-0.4760198587500071	-0.5129538468804408
-0.4759588235937571	-0.5118930247361791
-0.4758977884375071	-0.5103763862684051
-0.4758367532812571	-0.5085492400243111
-0.4757757181250071	-0.5065198482344188
-0.4757146829687571	-0.5040920041348428
-0.4756536478125071	-0.5012607670673015
-0.4755926126562571	-0.498226171816166
-0.4755315775000071	-0.4948962261721154
-0.4754705423437571	-0.4911242015896807
-0.4754095071875071	-0.487079587486336
-0.4753484720312571	-0.48282758693287625
-0.4752874368750071	-0.47817481263208417
-0.4752264017187571	-0.47316024793716654
-0.4751653665625071	-0.4679612825136629
-0.4751043314062571	-0.4624586992824164
-0.4750432962500071	-0.45654585943224146
-0.4749822610937571	-0.45040091194659143
-0.4749212259375071	-0.44404862626128155
-0.4748601907812571	-0.43731184667408196
-0.4747991556250071	-0.4302637636978454
-0.4747381204687571	-0.42305144613044104
-0.4746770853125071	-0.41554180830767834
-0.4746160501562571	-0.40766778552445343
-0.4745550150000071	-0.3996029962937997
-0.4744939798437571	-0.39133975677810157
-0.4744329446875071	-0.3827256265754923
-0.4743719095312571	-0.3738549842204813
-0.4743108743750071	-0.3648428680320514
-0.4742498392187571	-0.3555554419262746
-0.4741888040625071	-0.3459597162387137
-0.4741277689062571	-0.3362152758488528
-0.4740667337500071	-0.32629172114261557
-0.4740056985937571	-0.31606400268119694
-0.4739446634375071	-0.3056368019441668
-0.4738836282812571	-0.2950971379381183
-0.4738225931250071	-0.2843180286621746
-0.4737615579687571	-0.27329093723590214
-0.4737005228125071	-0.2621590174722296
-0.4736394876562571	-0.2508802462167337
-0.4735784525000071	-0.23935314761900997
-0.4735174173437571	-0.22768319966526757
-0.4734563821875071	-0.21593663005040206
-0.4733953470312571	-0.2039979236399892
-0.4733343118750071	-0.19187465315531152
-0.4732732767187571	-0.17969370430736695
-0.4732122415625071	-0.1674074899934553
-0.4731512064062571	-0.15493298716292303
-0.4730901712500071	-0.1423734060877982
-0.4730291360937571	-0.12978192584950934
-0.4729681009375071	-0.11705296595429951
-0.4729070657812571	-0.10420136934925492
-0.4728460306250071	-0.0913426285923258
-0.4727849954687571	-0.07842967838675638
-0.4727239603125071	-0.06539064420811891
-0.4726629251562571	-0.05232423822820759
-0.4726018900000071	-0.03927666154932597
-0.4725408548437571	-0.026149455865719425
-0.4724798196875071	-0.012961273683143362
-0.4724187845312571	0.0001782753261807057
-0.4723577493750071	0.01331708611859805
-0.4722967142187571	0.02652240515738799
-0.4722356790625071	0.03969499434482598
-0.4721746439062571	0.052792446999420685
-0.4721136087500071	0.06591405941623914
-0.4720525735937571	0.07903598477863316
-0.4719915384375071	0.09204755576846796
-0.4719305032812571	0.10500415456476102
-0.4718694681250071	0.1179725116992076
-0.4718084329687571	0.1308445457222916
-0.4717473978125071	0.14358278464540164
-0.4716863626562571	0.15629472593922866
-0.4716253275000071	0.1689466424004438
-0.4715642923437571	0.18142448986397913
-0.4715032571875071	0.19379797012692762
-0.4714422220312571	0.20613084957625422
-0.4713811868750071	0.2183011159839685
-0.4713201517187571	0.23028272730683924
-0.4712591165625071	0.2421936719001214
-0.4711980814062571	0.25398322638374965
-0.4711370462500071	0.2655366765492047
-0.4710760110937571	0.27694483928396685
-0.4710149759375071	0.2882613768060189
-0.4709539407812571	0.29934690627516103
-0.4708929056250071	0.31019802979718514
-0.4708318704687571	0.32094222623165436
-0.4707708353125071	0.33150119828505786
-0.4707098001562571	0.34176639347449056
-0.4706487650000071	0.3518560611549047
-0.4705877298437571	0.36180410557709386
-0.4705266946875071	0.37145538334708855
-0.4704656595312571	0.3808389864349056
-0.4704046243750071	0.39008364722714206
-0.4703435892187571	0.39907769814428934
-0.4702825540625071	0.40773146906053376
-0.4702215189062571	0.41619112751286735
-0.4701604837500071	0.42445862238744086
-0.4700994485937571	0.43236917601011626
-0.4700384134375071	0.43999301122435847
-0.4699773782812571	0.44744952316998315
-0.4699163431250071	0.4545919635935663
-0.4698553079687571	0.4613620992483334
-0.4697942728125071	0.4679287871390604
-0.4697332376562571	0.47425269468003717
-0.4696722025000071	0.4801707585546265
-0.4696111673437571	0.4857973703609214
