Time	Frequency
-0.500031470312507	-0.08641317087529835
-0.49997043515625705	-0.10326724770222119
-0.49990940000000705	-0.1200428539955636
-0.49984836484375705	-0.13672505011578898
-0.49978732968750705	-0.15329875334704368
-0.49972629453125705	-0.1697481500049995
-0.49966525937500705	-0.18605886329748833
-0.49960422421875705	-0.20221667015881648
-0.49954318906250705	-0.21820731676197133
-0.49948215390625705	-0.23401591771156935
-0.49942111875000705	-0.2496277759731654
-0.49936008359375705	-0.26502893591905397
-0.49929904843750705	-0.28020553850757945
-0.49923801328125705	-0.2951441551643017
-0.49917697812500705	-0.30983094826134744
-0.49911594296875705	-0.3242526864962923
-0.49905490781250705	-0.33839624167077154
-0.49899387265625705	-0.35224898544876854
-0.49893283750000705	-0.36579815040266633
-0.49887180234375705	-0.3790312426940171
-0.49881076718750705	-0.3919364036693766
-0.49874973203125705	-0.40450195336030126
-0.49868869687500705	-0.41671637412624535
-0.49862766171875705	-0.4285683273172552
-0.49856662656250705	-0.4400470431154843
-0.49850559140625705	-0.4511422793964647
-0.49844455625000705	-0.46184379878823006
-0.49838352109375705	-0.47214151357583917
-0.49832248593750705	-0.48202573689615025
-0.49826145078125705	-0.49148786231697916
-0.49820041562500705	-0.5005191818023146
-0.49813938046875705	-0.5091112093524205
-0.49807834531250705	-0.5172558951503312
-0.49801731015625705	-0.5249456617806174
-0.49795627500000705	-0.5321733449557315
-0.49789523984375705	-0.5389320856224341
-0.49783420468750705	-0.5452158232109183
-0.49777316953125705	-0.5510185073868428
-0.49771213437500705	-0.5563346820366665
-0.49765109921875705	-0.5611591811835682
-0.49759006406250705	-0.5654875366309411
-0.49752902890625705	-0.5693153934380768
-0.49746799375000705	-0.5726390917824128
-0.49740695859375705	-0.5754552910697835
-0.49734592343750705	-0.5777611020444547
-0.49728488828125705	-0.5795543505026164
-0.49722385312500705	-0.5808329935226507
-0.49716281796875705	-0.5815956798536005
-0.49710178281250705	-0.5818412303498212
-0.49704074765625705	-0.5815690708928731
-0.49697971250000705	-0.5807791826893114
-0.49691867734375705	-0.5794720525483379
-0.49685764218750705	-0.5776483742505544
-0.49679660703125705	-0.5753095052057049
-0.49673557187500705	-0.5724573127150768
-0.49667453671875705	-0.5690938935963428
-0.49661350156250705	-0.5652220063264181
-0.49655246640625705	-0.5608447358625694
-0.49649143125000705	-0.5559656336443255
-0.49643039609375705	-0.5505888077113892
-0.49636936093750705	-0.5447187780019234
-0.49630832578125705	-0.5383603665789927
-0.49624729062500705	-0.5315189803837169
-0.49618625546875705	-0.524200731949983
-0.49612522031250705	-0.516411668976347
-0.49606418515625705	-0.5081580920402419
-0.49600315000000705	-0.49944725553040414
-0.49594211484375705	-0.49028695507694425
-0.49588107968750705	-0.48068495190758537
-0.49582004453125705	-0.4706494152781281
-0.49575900937500705	-0.4601890843777701
-0.49569797421875705	-0.44931301350905767
-0.49563693906250705	-0.4380308356514445
-0.49557590390625705	-0.42635229818943704
-0.49551486875000705	-0.41428740628002686
-0.49545383359375705	-0.40184659959448843
-0.49539279843750705	-0.389040911001765
-0.49533176328125705	-0.37588178361883906
-0.49527072812500705	-0.36238059353934216
-0.49520969296875705	-0.3485489452647741
-0.49514865781250705	-0.3343990746303194
-0.49508762265625705	-0.3199435681191194
-0.49502658750000705	-0.3051949663481365
-0.49496555234375705	-0.29016630861932075
-0.49490451718750705	-0.2748708226590564
-0.49484348203125705	-0.2593218356657331
-0.49478244687500705	-0.24353334021439443
-0.49472141171875705	-0.227519345178975
-0.49466037656250705	-0.21129353053776367
-0.49459934140625705	-0.1948701659142008
-0.49453830625000705	-0.17826409664106843
-0.49447727109375705	-0.1614902151384544
-0.49441623593750705	-0.14456350948923502
-0.49435520078125705	-0.12749860480301337
-0.49429416562500705	-0.11031004843172885
-0.49423313046875705	-0.09301335442648233
-0.49417209531250705	-0.0756244463678141
-0.49411106015625705	-0.058158742788978125
-0.49405002500000705	-0.040631443864656995
-0.49398898984375705	-0.023058112207340158
-0.49392795468750705	-0.005454483434743591
-0.49386691953125705	0.012164074990647143
-0.49380588437500705	0.02978188230672701
-0.49374484921875705	0.0473830262040534
-0.49368381406250705	0.06495191347400968
-0.49362277890625705	0.08247272028870659
-0.49356174375000705	0.0999295876931014
-0.49350070859375705	0.11730734379775153
-0.49343967343750705	0.13459091621559865
-0.49337863828125705	0.15176471001562317
-0.49331760312500705	0.16881299970583447
-0.49325656796875705	0.18572046584091245
-0.49319553281250705	0.2024720470808327
-0.49313449765625705	0.2190528064149133
-0.49307346250000705	0.2354482440490259
-0.49301242734375705	0.2516437060270688
-0.49295139218750705	0.2676246732614758
-0.49289035703125705	0.28337668237166225
-0.49282932187500705	0.29888519208832554
-0.49276828671875705	0.31413649130750443
-0.49270725156250705	0.3291173448652458
-0.49264621640625705	0.3438142767940016
-0.49258518125000705	0.35821391816728865
-0.49252414609375705	0.37230326271580333
-0.49246311093750705	0.3860695058111111
-0.49240207578125705	0.39950069022089385
-0.49234104062500705	0.4125845795896933
-0.49228000546875705	0.42530921224576557
-0.49221897031250705	0.4376631861873226
-0.49215793515625705	0.44963554704550734
-0.49209690000000705	0.46121549505061193
-0.49203586484375705	0.4723925236585087
-0.49197482968750705	0.4831566041990277
-0.49191379453125705	0.49349776612314183
-0.49185275937500705	0.5034067659727878
-0.49179172421875705	0.5128746823888107
-0.49173068906250705	0.5218932881192756
-0.49166965390625705	0.5304539522280751
-0.49160861875000705	0.5385491803158764
-0.49154758359375705	0.5461713665625401
-0.49148654843750705	0.5533136005559255
-0.49142551328125705	0.5599694910790565
-0.49136447812500705	0.5661331922440496
-0.49130344296875705	0.5717989697227224
-0.49124240781250705	0.5769611833137912
-0.49118137265625705	0.5816155951358466
-0.49112033750000705	0.5857577379388802
-0.49105930234375705	0.5893840636901324
-0.49099826718750705	0.5924907550696237
-0.49093723203125705	0.5950751616050091
-0.49087619687500705	0.597134763529362
-0.49081516171875705	0.5986677692984508
-0.49075412656250705	0.5996725771566876
-0.49069309140625705	0.6001482044673289
-0.49063205625000705	0.6000941419014133
-0.49057102109375705	0.5995101599365901
-0.49050998593750705	0.5983969075323119
-0.49044895078125705	0.5967550100582386
-0.49038791562500705	0.5945860303901996
-0.49032688046875705	0.5918917161983965
-0.49026584531250705	0.5886745256195729
-0.49020481015625705	0.584937075337632
-0.49014377500000705	0.5806826707210501
-0.49008273984375705	0.5759150524631576
-0.49002170468750705	0.5706381473976838
-0.48996066953125705	0.5648567582470077
-0.48989963437500705	0.5585761362328268
-0.48983859921875705	0.5518018070980283
-0.48977756406250705	0.5445396468662441
-0.48971652890625705	0.5367959807538387
-0.48965549375000705	0.5285777009018197
-0.48959445859375705	0.519892026966717
-0.48953342343750705	0.5107469738110414
-0.48947238828125705	0.5011505456258348
-0.48941135312500705	0.4911111674596651
-0.48935031796875705	0.4806376216152023
-0.48928928281250705	0.4697394280144473
-0.48922824765625705	0.4584265485028495
-0.48916721250000705	0.4467089207993073
-0.48910617734375705	0.4345968940179303
-0.48904514218750705	0.42210101422612445
-0.48898410703125705	0.4092327394102406
-0.48892307187500705	0.39600358031481714
-0.48886203671875705	0.3824254897989017
-0.48880100156250705	0.36851034865549637
-0.48873996640625705	0.3542706774169258
-0.48867893125000705	0.339719402425153
-0.48861789609375705	0.32486962578184775
-0.48855686093750705	0.30973438896912237
-0.48849582578125705	0.29432701558653307
-0.48843479062500705	0.27866171351619573
-0.48837375546875705	0.2627523885887067
-0.48831272031250705	0.2466134409263201
-0.48825168515625705	0.23025949324314263
-0.48819065000000705	0.2137049855639858
-0.48812961484375705	0.1969645977961202
-0.48806857968750705	0.18005383898630092
-0.48800754453125705	0.1629877803651853
-0.48794650937500705	0.14578134386455488
-0.48788547421875705	0.12845034051613224
-0.48782443906250705	0.11101029857035516
-0.48776340390625705	0.09347690830049006
-0.48770236875000705	0.0758661815805969
-0.48764133359375705	0.058193718732051675
-0.48758029843750705	0.04047532286458158
-0.48751926328125705	0.022727399177694438
-0.48745822812500705	0.004965806259430574
-0.48739719296875705	-0.012794246573604711
-0.48733615781250705	-0.030536395016443802
-0.48727512265625705	-0.04824377125915405
-0.48721408750000705	-0.06590066970858319
-0.48715305234375705	-0.08349183776538889
-0.48709201718750705	-0.10100139928933793
-0.48703098203125705	-0.11841322741659123
-0.48696994687500705	-0.13571139529488782
-0.48690891171875705	-0.15288031544426905
-0.48684787656250705	-0.1699048347722713
-0.48678684140625705	-0.18676954466977572
-0.48672580625000705	-0.20345920278855417
-0.48666477109375705	-0.219958554093198
-0.48660373593750705	-0.23625251323441118
-0.48654270078125705	-0.252326769007648
-0.48648166562500705	-0.268166862202356
-0.48642063046875705	-0.28375813257249993
-0.48635959531250705	-0.299086260723469
-0.48629856015625705	-0.3141375334922354
-0.48623752500000705	-0.3288988502733932
-0.48617648984375705	-0.3433570252590715
-0.48611545468750705	-0.35749831070608246
-0.48605441953125705	-0.3713094966397018
-0.48599338437500705	-0.3847784531493342
-0.48593234921875705	-0.39789338711100214
-0.48587131406250705	-0.4106425664995091
-0.48581027890625705	-0.42301427536716923
-0.48574924375000705	-0.43499682002162304
-0.48568820859375705	-0.44657924721470227
-0.48562717343750705	-0.4577515523624973
-0.48556613828125705	-0.46850378438568857
-0.48550510312500705	-0.47882586261264054
-0.48544406796875705	-0.48870827620767543
-0.48538303281250705	-0.49814227499483615
-0.48532199765625705	-0.5071195532368022
-0.48526096250000705	-0.5156317929858514
-0.48519992734375705	-0.5236708736827055
-0.48513889218750705	-0.5312296336373793
-0.48507785703125705	-0.5383014558076132
-0.48501682187500705	-0.5448799519721272
-0.48495578671875705	-0.5509591623866129
-0.48489475156250705	-0.5565334570082956
-0.48483371640625705	-0.5615976390440203
-0.48477268125000705	-0.56614727277681
-0.48471164609375705	-0.570178253730762
-0.48465061093750705	-0.5736867556672017
-0.48458957578125705	-0.5766696333354034
-0.48452854062500705	-0.5791242766100588
-0.48446750546875705	-0.5810485206161626
-0.48440647031250705	-0.5824405540119788
-0.48434543515625705	-0.5832990662932094
-0.48428440000000705	-0.5836232289563433
-0.48422336484375705	-0.5834128294936787
-0.48416232968750705	-0.5826680495863836
-0.48410129453125705	-0.5813895928787113
-0.48404025937500705	-0.5795787066023809
-0.48397922421875705	-0.5772369553125819
-0.48391818906250705	-0.5743664164595879
-0.48385715390625705	-0.5709697347490315
-0.48379611875000705	-0.5670500833719413
-0.48373508359375705	-0.5626110462365118
-0.48367404843750705	-0.5576568855886532
-0.48361301328125705	-0.55219181029648
-0.48355197812500705	-0.5462208094630348
-0.48349094296875705	-0.5397493364648255
-0.48342990781250705	-0.5327834162064208
-0.48336887265625705	-0.5253295088608907
-0.48330783750000705	-0.5173944145937902
-0.48324680234375705	-0.5089854054455455
-0.48318576718750705	-0.5001099376371996
-0.48312473203125705	-0.49077609033007913
-0.48306369687500705	-0.48099249027791185
-0.48300266171875705	-0.47076864650576933
-0.48294162656250705	-0.46011345402281495
-0.48288059140625705	-0.4490365230485546
-0.48281955625000705	-0.43754753798811064
-0.48275852109375705	-0.425657837473915
-0.48269748593750705	-0.41337874873346
-0.48263645078125705	-0.4007209543992499
-0.48257541562500705	-0.3876953679119577
-0.48251438046875705	-0.3743141044810186
-0.48245334531250705	-0.3605902849785142
-0.48239231015625705	-0.34653617793304203
-0.48233127500000705	-0.33216485905262566
-0.48227023984375705	-0.3174887265601041
-0.48220920468750705	-0.3025215563644098
-0.48214816953125705	-0.2872773623274821
-0.48208713437500705	-0.2717702784491254
-0.48202609921875705	-0.2560141216557357
-0.48196506406250705	-0.24002337965623582
-0.48190402890625705	-0.22381277156964183
-0.48184299375000705	-0.20739726433323688
-0.48178195859375705	-0.19079222264735773
-0.48172092343750705	-0.17401257930040037
-0.48165988828125705	-0.1570739737709951
-0.48159885312500705	-0.1399916162827497
-0.48153781796875705	-0.122781201765391
-0.48147678281250705	-0.10545861918689525
-0.48141574765625705	-0.08804025125078363
-0.48135471250000705	-0.07054214560983656
-0.48129367734375705	-0.052980092573439594
-0.48123264218750705	-0.03537029270528591
-0.48117160703125705	-0.017728714362246815
-0.48111057187500705	-7.143352720357953e-05
-0.48104953671875705	0.017584789355483965
-0.48098850156250705	0.0352230783823212
-0.48092746640625705	0.052827707936986754
-0.48086643125000705	0.07038307409247928
-0.48080539609375705	0.0878723077284799
-0.48074436093750705	0.10527936523335434
-0.48068332578125705	0.12258848638304116
-0.48062229062500705	0.139783519844193
-0.48056125546875705	0.1568481856363565
-0.48050022031250705	0.17376681979875924
-0.48043918515625705	0.19052397878869928
-0.48037815000000705	0.20710425543126013
-0.48031711484375705	0.22349252110627704
-0.48025607968750705	0.239673091567117
-0.48019504453125705	0.25563115716600804
-0.48013400937500705	0.27135192211197584
-0.48007297421875705	0.2868206926285788
-0.48001193906250705	0.3020231008444464
-0.47995090390625705	0.31694550853594017
-0.47988986875000705	0.3315738996588264
-0.47982883359375705	0.3458944050271901
-0.47976779843750705	0.35989387277143375
-0.47970676328125705	0.37355920477068383
-0.47964572812500705	0.38687776010097996
-0.47958469296875705	0.399836878376896
-0.47952365781250705	0.41242491252994834
-0.47946262265625705	0.4246302706753088
-0.47940158750000705	0.4364411060539369
-0.47934055234375705	0.4478463064297508
-0.47927951718750705	0.45883548675983504
-0.47921848203125705	0.469398283392153
-0.47915744687500705	0.4795248294217873
-0.47909641171875705	0.4892058621971765
-0.47903537656250705	0.4984320236366722
-0.47897434140625705	0.507194594607177
-0.47891330625000705	0.5154853645390607
-0.47885227109375705	0.5232964764533722
-0.47879123593750705	0.5306207108925685
-0.47873020078125705	0.5374512308752165
-0.47866916562500705	0.5437814807544544
-0.47860813046875705	0.5496051830278376
-0.47854709531250705	0.5549168078366365
-0.47848606015625705	0.5597115005186526
-0.47842502500000705	0.5639847246544356
-0.47836398984375705	0.5677321977287674
-0.47830295468750705	0.570950129424808
-0.47824191953125705	0.5736354179232958
-0.47818088437500705	0.5757855157448143
-0.47811984921875705	0.5773983052379389
-0.47805881406250705	0.5784718674076955
-0.47799777890625705	0.579005087533795
-0.47793674375000705	0.5789973334699363
-0.47787570859375705	0.5784483693861177
-0.47781467343750705	0.5773585584704135
-0.47775363828125705	0.5757286180572622
-0.47769260312500705	0.5735598554403155
-0.47763156796875705	0.5708540886543421
-0.47757053281250705	0.5676136222390061
-0.47750949765625705	0.5638412799216389
-0.47744846250000705	0.5595403405986539
-0.47738742734375705	0.5547144580855874
-0.47732639218750705	0.5493679702030486
-0.47726535703125705	0.5435056937828805
-0.47720432187500705	0.5371327444585926
-0.47714328671875705	0.5302548299079746
-0.47708225156250705	0.5228780306101904
-0.47702121640625705	0.515008886873233
-0.47696018125000705	0.5066547155004189
-0.47689914609375705	0.4978232149753558
-0.47683811093750705	0.48852219489120285
-0.47677707578125705	0.47875988903263067
-0.47671604062500705	0.4685450468034042
-0.47665500546875705	0.45788684666866636
-0.47659397031250705	0.4467951591362247
-0.47653293515625705	0.4352803228635616
-0.47647190000000705	0.42335291208156106
-0.47641086484375705	0.41102380814470524
-0.47634982968750705	0.3983036745444524
-0.47628879453125705	0.3852037436292769
-0.47622775937500705	0.371736501470288
-0.47616672421875705	0.35791453464146294
-0.47610568906250705	0.3437503795088564
-0.47604465390625705	0.3292572452380555
-0.47598361875000705	0.3144481213494
-0.47592258359375705	0.29933610880785444
-0.47586154843750705	0.2839352584393227
-0.47580051328125705	0.2682598740180371
-0.47573947812500705	0.2523244625697224
-0.47567844296875705	0.2361435508742314
-0.47561740781250705	0.21973185253974184
-0.47555637265625705	0.20310461701507512
-0.47549533750000705	0.18627719250125788
-0.47543430234375705	0.16926490177760192
-0.47537326718750705	0.15208359034440272
-0.47531223203125705	0.13474900948187454
-0.47525119687500705	0.11727673412798967
-0.47519016171875705	0.0996829827689953
-0.47512912656250705	0.08198438287653237
-0.47506809140625705	0.06419727903350136
-0.47500705625000705	0.046337879203327506
-0.47494602109375705	0.028422897415192945
-0.47488498593750705	0.010468665247454037
-0.47482395078125705	-0.007508414918732502
-0.47476291562500705	-0.02549188462899957
-0.47470188046875705	-0.043464466909683704
-0.47464084531250705	-0.06140921719059496
-0.47457981015625705	-0.07931022963824658
-0.47451877500000705	-0.09715122004075036
-0.47445773984375705	-0.114915177812928
-0.47439670468750705	-0.132585335445931
-0.47433566953125705	-0.15014543998072666
-0.47427463437500705	-0.1675789682652587
-0.47421359921875705	-0.18487047342242216
-0.47415256406250705	-0.20200383670924954
-0.47409152890625705	-0.21896299911744257
-0.47403049375000705	-0.23573138589979908
-0.47396945859375705	-0.2522936330816561
-0.47390842343750705	-0.2686346148543662
-0.47384738828125705	-0.28473926274440964
-0.47378635312500705	-0.3005925449355887
-0.47372531796875705	-0.31617938094034354
-0.47366428281250705	-0.3314857089580712
-0.47360324765625705	-0.3464966848999932
-0.47354221250000705	-0.3611981340702434
-0.47348117734375705	-0.37557596747157995
-0.47342014218750705	-0.3896177979184933
-0.47335910703125705	-0.40331039173277494
-0.47329807187500705	-0.4166404599741487
-0.47323703671875705	-0.4295952439700111
-0.47317600156250705	-0.4421627096029293
-0.47311496640625705	-0.45433097486508445
-0.47305393125000705	-0.46608864211049544
-0.47299289609375705	-0.4774251708798319
-0.47293186093750705	-0.48832931401680946
-0.47287082578125705	-0.49879076446820453
-0.47280979062500705	-0.5087995140572285
-0.47274875546875705	-0.5183462024337925
-0.47268772031250705	-0.5274216256988353
-0.47262668515625705	-0.5360173512594127
-0.47256565000000705	-0.5441253148250218
-0.47250461484375705	-0.5517375615022687
-0.47244357968750705	-0.5588467422754776
-0.47238254453125705	-0.5654458497561335
-0.47232150937500705	-0.5715286399968095
-0.47226047421875705	-0.5770893346559335
-0.47219943906250705	-0.5821225255510237
-0.47213840390625705	-0.5866232437841743
-0.47207736875000705	-0.5905868505193271
-0.47201633359375705	-0.594009667183902
-0.47195529843750705	-0.59688808995549
-0.47189426328125705	-0.5992192245168125
-0.47183322812500705	-0.6010005253135654
-0.47177219296875705	-0.6022300568454937
-0.47171115781250705	-0.6029065260139899
-0.47165012265625705	-0.603029013817872
-0.47158908750000705	-0.6025970905509112
-0.47152805234375705	-0.601610590218101
-0.47146701718750705	-0.600070470075612
-0.47140598203125705	-0.5979777290498113
-0.47134494687500705	-0.5953340941756254
-0.47128391171875705	-0.5921415813600082
-0.47122287656250705	-0.588402957540547
-0.47116184140625705	-0.5841213137484017
-0.47110080625000705	-0.5793003704930473
-0.47103977109375705	-0.5739444243836275
-0.47097873593750705	-0.5680578942573173
-0.47091770078125705	-0.5616459803630474
-0.47085666562500705	-0.5547143704442032
-0.47079563046875705	-0.5472696157215263
-0.47073459531250705	-0.5393178752929867
-0.47067356015625705	-0.5308659358385028
-0.47061252500000705	-0.521921815195913
-0.47055148984375705	-0.5124937217483605
-0.47049045468750705	-0.5025898897843747
-0.47042941953125705	-0.4922191163483787
-0.47036838437500705	-0.4813906406625613
-0.47030734921875705	-0.47011414633305054
