Time	Frequency
-0.5000173619999941	0.06260158825275879
-0.49995632684374414	0.04638364011412386
-0.49989529168749414	0.030126422053044527
-0.49983425653124414	0.013840811949407157
-0.49977322137499414	-0.002455186216741585
-0.49971218621874414	-0.01875401407348122
-0.49965115106249414	-0.03503833239702863
-0.49959011590624414	-0.05129505057155004
-0.49952908074999414	-0.06751377238861546
-0.49946804559374414	-0.08367624701282458
-0.49940701043749414	-0.09977399608520245
-0.49934597528124414	-0.1157905775896783
-0.49928494012499414	-0.13171323200582824
-0.49922390496874414	-0.1475321422123781
-0.49916286981249414	-0.16322926354674952
-0.49910183465624414	-0.1787963561948895
-0.49904079949999414	-0.19421763768948722
-0.49897976434374414	-0.20947978873481593
-0.49891872918749414	-0.22457378259544322
-0.49885769403124414	-0.2394825930289735
-0.49879665887499414	-0.2541986862630257
-0.49873562371874414	-0.2687073482843585
-0.49867458856249414	-0.28299538699052296
-0.49861355340624414	-0.2970549208608462
-0.49855251824999414	-0.3108693671644174
-0.49849148309374414	-0.3244314778602686
-0.49843044793749414	-0.3377284703012623
-0.49836941278124414	-0.35074789455557187
-0.49830837762499414	-0.3634828851699871
-0.49824734246874414	-0.37591817835803837
-0.49818630731249414	-0.3880474429417244
-0.49812527215624414	-0.39985889147331305
-0.49806423699999414	-0.41134087354426785
-0.49800320184374414	-0.4224886385399863
-0.49794216668749414	-0.433287964240969
-0.49788113153124414	-0.443733364132589
-0.49782009637499414	-0.4538152729037442
-0.49775906121874414	-0.4635229788043077
-0.49769802606249414	-0.4728531402914849
-0.49763699090624414	-0.4817929292040935
-0.49757595574999414	-0.49033826193128016
-0.49751492059374414	-0.49848177617850586
-0.49745388543749414	-0.5062138894286156
-0.49739285028124414	-0.5135330499946998
-0.49733181512499414	-0.5204280661862256
-0.49727077996874414	-0.5268962935885335
-0.49720974481249414	-0.5329323679232172
-0.49714870965624414	-0.5385279736123469
-0.49708767449999414	-0.5436838258627293
-0.49702663934374414	-0.5483904269781125
-0.49696560418749414	-0.5526466648161114
-0.49690456903124414	-0.5564495475961635
-0.49684353387499414	-0.5597920075063164
-0.49678249871874414	-0.5626769576605782
-0.49672146356249414	-0.5650965975576594
-0.49666042840624414	-0.5670514386198946
-0.49659939324999414	-0.5685411540241384
-0.49653835809374414	-0.5695598298459718
-0.49647732293749414	-0.5701126886772755
-0.49641628778124414	-0.5701939805516789
-0.49635525262499414	-0.5698056745164916
-0.49629421746874414	-0.5689500249132265
-0.49623318231249414	-0.5676223123833104
-0.49617214715624414	-0.5658301428707672
-0.49611111199999414	-0.5635698991818392
-0.49605007684374414	-0.5608448535861535
-0.49598904168749414	-0.5576599487399282
-0.49592800653124414	-0.5540116992389769
-0.49586697137499414	-0.5499099865411454
-0.49580593621874414	-0.5453534508371799
-0.49574490106249414	-0.5403465801671515
-0.49568386590624414	-0.5348968892503302
-0.49562283074999414	-0.5290020300472527
-0.49556179559374414	-0.5226741051072864
-0.49550076043749414	-0.515913995193646
-0.49543972528124414	-0.5087271048572168
-0.49537869012499414	-0.5011237913156928
-0.49531765496874414	-0.49310314488221557
-0.49525661981249414	-0.4846789524342223
-0.49519558465624414	-0.4758539325402094
-0.49513454949999414	-0.4666343621093281
-0.49507351434374414	-0.4570334453728751
-0.49501247918749414	-0.447051333035596
-0.49495144403124414	-0.4367035703222725
-0.49489040887499414	-0.42599535056859095
-0.49482937371874414	-0.41493313639967827
-0.49476833856249414	-0.40353253887914864
-0.49470730340624414	-0.3917950041532471
-0.49464626824999414	-0.3797368653976328
-0.49458523309374414	-0.36736567921220314
-0.49452419793749414	-0.3546888835564371
-0.49446316278124414	-0.341724073824256
-0.49440212762499414	-0.32847331768668236
-0.49434109246874414	-0.31495381466955963
-0.49428005731249414	-0.3011755986955804
-0.49421902215624414	-0.2871463216092799
-0.49415798699999414	-0.27288521401679877
-0.49409695184374414	-0.25839526292977133
-0.49403591668749414	-0.2436941878540099
-0.49397488153124414	-0.22879425462836214
-0.49391384637499414	-0.21370281314539433
-0.49385281121874414	-0.19844037388897928
-0.49379177606249414	-0.18301129394702104
-0.49373074090624414	-0.16743344805146027
-0.49366970574999414	-0.15172087820180402
-0.49360867059374414	-0.13588036421021096
-0.49354763543749414	-0.11993337267954741
-0.49348660028124414	-0.1038855364927601
-0.49342556512499414	-0.08775401011692775
-0.49336452996874414	-0.07155445699865325
-0.49330349481249414	-0.05529350221193835
-0.49324245965624414	-0.03899322437038848
-0.49318142449999414	-0.022660405751541452
-0.49312038934374414	-0.006310671854348728
-0.49305935418749414	0.010039131826815135
-0.49299831903124414	0.026382172483603566
-0.49293728387499414	0.04269675217165816
-0.49287624871874414	0.05897525124113812
-0.49281521356249414	0.07520279934778525
-0.49275417840624414	0.0913620328152751
-0.49269314324999414	0.10744699999579578
-0.49263210809374414	0.12343619058974653
-0.49257107293749414	0.13932098094386092
-0.49251003778124414	0.1550883744817512
-0.49244900262499414	0.17072035004678698
-0.49238796746874414	0.1862111974424423
-0.49232693231249414	0.20154130151287958
-0.49226589715624414	0.21670136057894734
-0.49220486199999414	0.23167941825634392
-0.49214382684374414	0.24645801117999425
-0.49208279168749414	0.2610318017962555
-0.49202175653124414	0.27538212693086156
-0.49196072137499414	0.289499841604013
-0.49189968621874414	0.3033752713536334
-0.49183865106249414	0.31699144782130756
-0.49177761590624414	0.33034332433820296
-0.49171658074999414	0.3434140939921097
-0.49165554559374414	0.3561946814774542
-0.49159451043749414	0.3686768831620582
-0.49153347528124414	0.38084468086068546
-0.49147244012499414	0.3926942250805515
-0.49141140496874414	0.4042112409832968
-0.49135036981249414	0.4153867426799828
-0.49128933465624414	0.4262138975855643
-0.49122829949999414	0.4366784099839775
-0.49116726434374414	0.44677737285448466
-0.49110622918749414	0.45649826059975096
-0.49104519403124414	0.46583312678236344
-0.49098415887499414	0.4747773861087442
-0.49092312371874414	0.48331820568462014
-0.49086208856249414	0.4914537626142629
-0.49080105340624414	0.4991738858316721
-0.49074001824999414	0.5064716725194653
-0.49067898309374414	0.5133444878621727
-0.49061794793749414	0.5197811817897404
-0.49055691278124414	0.5257812085211128
-0.49049587762499414	0.5313369539442142
-0.49043484246874414	0.5364429153660675
-0.49037380731249414	0.541098459841299
-0.49031277215624414	0.545294399519493
-0.49025173699999414	0.5490316578065316
-0.49019070184374414	0.5523049140054315
-0.49012966668749414	0.5551101208914305
-0.49006863153124414	0.5574488140939776
-0.49000759637499414	0.5593137924650166
-0.48994656121874414	0.5607076932265145
-0.48988552606249414	0.5616276800908031
-0.48982449090624414	0.562071140053023
-0.48976345574999414	0.5620418677269021
-0.48970242059374414	0.5615347137687098
-0.48964138543749414	0.5605538574115128
-0.48958035028124414	0.5590989473814763
-0.48951931512499414	0.5571690088367034
-0.48945827996874414	0.5547700412476482
-0.48939724481249414	0.5518988887609533
-0.48933620965624414	0.5485614915725395
-0.48927517449999414	0.5447600007611194
-0.48921413934374414	0.5404948037291084
-0.48915310418749414	0.5357740868945645
-0.48909206903124414	0.5305968391710887
-0.48903103387499414	0.5249706026679909
-0.48896999871874414	0.5188998062181861
-0.48890896356249414	0.5123863386216793
-0.48884792840624414	0.5054406631158932
-0.48878689324999414	0.4980636558567224
-0.48872585809374414	0.4902643633706657
-0.48866482293749414	0.48204947248701335
-0.48860378778124414	0.47342218982365664
-0.48854275262499414	0.46439520817081026
-0.48848171746874414	0.45497111025411946
-0.48842068231249414	0.4451601469587251
-0.48835964715624414	0.4349714517894461
-0.48829861199999414	0.424409512548327
-0.48823757684374414	0.413488608360701
-0.48817654168749414	0.40221310095123536
-0.48811550653124414	0.39059484848355364
-0.48805447137499414	0.37864462379150543
-0.48799343621874414	0.3663676904717273
-0.48793240106249414	0.3537807340823982
-0.48787136590624414	0.3408893469405393
-0.48781033074999414	0.3277057665764072
-0.48774929559374414	0.3142431303024228
-0.48768826043749414	0.30050776755404507
-0.48762722528124414	0.286517707685753
-0.48756619012499414	0.2722796320897812
-0.48750515496874414	0.257806620049786
-0.48744411981249414	0.24311387813951807
-0.48738308465624414	0.2282078468050488
-0.48732204949999414	0.21310755910870874
-0.48726101434374414	0.19782097490835313
-0.48719997918749414	0.18236167410902865
-0.48713894403124414	0.16674657700841541
-0.48707790887499414	0.15098216426763603
-0.48701687371874414	0.1350885998620707
-0.48695583856249414	0.11907500694242834
-0.48689480340624414	0.10295456213008
-0.48683376824999414	0.08674531350313093
-0.48677273309374414	0.07045364070862581
-0.48671169793749414	0.05410065637552946
-0.48665066278124414	0.037696531537596625
-0.48658962762499414	0.02125372710830995
-0.48652859246874414	0.004791660667795765
-0.48646755731249414	-0.011683484002072185
-0.48640652215624414	-0.028151007239927008
-0.48634548699999414	-0.04460028816878218
-0.48628445184374414	-0.061019124942694146
-0.48622341668749414	-0.07738668827420195
-0.48616238153124414	-0.0936979018542993
-0.48610134637499414	-0.10993278535186968
-0.48604031121874414	-0.12607953610039732
-0.48597927606249414	-0.14212718964597174
-0.48591824090624414	-0.15805471591982426
-0.48585720574999414	-0.17385740033604422
-0.48579617059374414	-0.18951586244327262
-0.48573513543749414	-0.20501813176746897
-0.48567410028124414	-0.2203551823998553
-0.48561306512499414	-0.23550565619039016
-0.48555202996874414	-0.2504650980959335
-0.48549099481249414	-0.2652153449733229
-0.48542995965624414	-0.27974438192085865
-0.48536892449999414	-0.29404525493659167
-0.48530788934374414	-0.3080966709412533
-0.48524685418749414	-0.3218948895225055
-0.48518581903124414	-0.33542386620055314
-0.48512478387499414	-0.3486711712521582
-0.48506374871874414	-0.3616315066655647
-0.48500271356249414	-0.37428465023067875
-0.48494167840624414	-0.3866279519755319
-0.48488064324999414	-0.39864727472706024
-0.48481960809374414	-0.41032991193135177
-0.48475857293749414	-0.42167316166343294
-0.48469753778124414	-0.4326581862633484
-0.48463650262499414	-0.4432825549381341
-0.48457546746874414	-0.45353492175943966
-0.48451443231249414	-0.46340308353214504
-0.48445339715624414	-0.472886254309797
-0.48439236199999414	-0.4819673946092581
-0.48433132684374414	-0.49064466832360687
-0.48427029168749414	-0.4989097080140239
-0.48420925653124414	-0.5067511270980274
-0.48414822137499414	-0.514169803375669
-0.48408718621874414	-0.5211509301610617
-0.48402615106249414	-0.5276937891455016
-0.48396511590624414	-0.533792798214271
-0.48390408074999414	-0.5394371811689409
-0.48384304559374414	-0.5446300249277818
-0.48378201043749414	-0.549359411155366
-0.48372097528124414	-0.553625011695802
-0.48365994012499414	-0.557424116256203
-0.48359890496874414	-0.5607476026975106
-0.48353786981249414	-0.5636002593383762
-0.48347683465624414	-0.5659728357707607
-0.48341579949999414	-0.56786596087457
-0.48335476434374414	-0.5692799163687943
-0.48329372918749414	-0.5702072287954107
-0.48323269403124414	-0.5706543355222656
-0.48317165887499414	-0.5706149142095233
-0.48311062371874414	-0.5700904751353951
-0.48304958856249414	-0.5690841353038236
-0.48298855340624414	-0.5675903768458178
-0.48292751824999414	-0.5656170880589232
-0.48286648309374414	-0.563161038662077
-0.48280544793749414	-0.5602248808398878
-0.48274441278124414	-0.5568142934964943
-0.48268337762499414	-0.5529258749347479
-0.48262234246874414	-0.5485687367668035
-0.48256130731249414	-0.5437425151037653
-0.48250027215624414	-0.5384513058143878
-0.48243923699999414	-0.5327031209198596
-0.48237820184374414	-0.5264967053541395
-0.48231716668749414	-0.5198426924920927
-0.48225613153124414	-0.5127433243333205
-0.48219509637499414	-0.5052038660217545
-0.48213406121874414	-0.49723452809710583
-0.48207302606249414	-0.4888361181515664
-0.48201199090624414	-0.480020691534071
-0.48195095574999414	-0.4707930790415603
-0.48188992059374414	-0.461159730231274
-0.48182888543749414	-0.45113284469778886
-0.48176785028124414	-0.4407152057484383
-0.48170681512499414	-0.42992007861455545
-0.48164577996874414	-0.41875469113320635
-0.48158474481249414	-0.40722661794788634
-0.48152370965624414	-0.39534958469282877
-0.48146267449999414	-0.3831283331861111
-0.48140163934374414	-0.3705774624836833
-0.48134060418749414	-0.35770600596995583
-0.48127956903124414	-0.34452260734659423
-0.48121853387499414	-0.3310427600508952
-0.48115749871874414	-0.3172725152129786
-0.48109646356249414	-0.30322732191049157
-0.48103542840624414	-0.288918197504267
-0.48097439324999414	-0.2743546227566345
-0.48091335809374414	-0.25955335073105446
-0.48085232293749414	-0.24452180164627899
-0.48079128778124414	-0.22927627669043896
-0.48073025262499414	-0.21382907341816026
-0.48066921746874414	-0.19819014497124735
-0.48060818231249414	-0.18237778840052707
-0.48054714715624414	-0.1664002467833337
-0.48048611199999414	-0.15027372421043078
-0.48042507684374414	-0.13401229297622452
-0.48036404168749414	-0.11762677980413999
-0.48030300653124414	-0.10113587614876296
-0.48024197137499414	-0.0845481518150331
-0.48018093621874414	-0.06788010194089533
-0.48011990106249414	-0.05114687835736235
-0.48005886590624414	-0.034359364243994
-0.47999783074999414	-0.017536816079653402
-0.47993679559374414	-0.0006883289395589222
-0.47987576043749414	0.01616943820029509
-0.47981472528124414	0.03302104710262024
-0.47975369012499414	0.04985638622181946
-0.47969265496874414	0.0666553297958579
-0.47963161981249414	0.08340848646426435
-0.47957058465624414	0.10010010705661432
-0.47950954949999414	0.11671414773663563
-0.47944851434374414	0.1332409478853297
-0.47938747918749414	0.14966080009396784
-0.47932644403124414	0.1659642775740857
-0.47926540887499414	0.18213569464930374
-0.47920437371874414	0.19815954436680377
-0.47914333856249414	0.21402793642215
-0.47908230340624414	0.22972047350052202
-0.47902126824999414	0.24522792582083675
-0.47896023309374414	0.2605365292647966
-0.47889919793749414	0.2756303559878168
-0.47883816278124414	0.29050231442251434
-0.47877712762499414	0.30513322336295123
-0.47871609246874414	0.31951510691858137
-0.47865505731249414	0.3336353977049757
-0.47859402215624414	0.3474776942264546
-0.47853298699999414	0.3610365178252719
-0.47847195184374414	0.374294151173696
-0.47841091668749414	0.38724352259596784
-0.47834988153124414	0.39987352307612123
-0.47828884637499414	0.4121684099932554
-0.47822781121874414	0.4241250436611248
-0.47816677606249414	0.4357262953074308
-0.47810574090624414	0.44696565637654884
-0.47804470574999414	0.45783487003246826
-0.47798367059374414	0.4683190035883689
-0.47792263543749414	0.47841677416009254
-0.47786160028124414	0.48811246379450446
-0.47780056512499414	0.49740063754167785
-0.47773952996874414	0.5062757286432802
-0.47767849481249414	0.5147232925830164
-0.47761745965624414	0.5227442781155767
-0.47755642449999414	0.5303253217280898
-0.47749538934374414	0.5374618221518955
-0.47743435418749414	0.5441507752743874
-0.47737331903124414	0.5503788544911601
-0.47731228387499414	0.5561492959759241
-0.47725124871874414	0.5614509277091257
-0.47719021356249414	0.5662800937997063
-0.47712917840624414	0.5706369271743317
-0.47706814324999414	0.5745093600890351
-0.47700710809374414	0.5779026518230591
-0.47694607293749414	0.5808081446010952
-0.47688503778124414	0.5832232023316447
-0.47682400262499414	0.5851511949726674
-0.47676296746874414	0.5865813929307812
-0.47670193231249414	0.5875209781520009
-0.47664089715624414	0.587964262174144
-0.47657986199999414	0.5879094868786774
-0.47651882684374414	0.5873631498202356
-0.47645779168749414	0.5863161770304679
-0.47639675653124414	0.5847775374285826
-0.47633572137499414	0.5827447097288745
-0.47627468621874414	0.5802166401663436
-0.47621365106249414	0.5772029186577134
-0.47615261590624414	0.5736964736282946
-0.47609158074999414	0.5697076048570936
-0.47603054559374414	0.5652371549403138
-0.47596951043749414	0.5602849081922746
-0.47590847528124414	0.5548632268665111
-0.47584744012499414	0.5489672618277133
-0.47578640496874414	0.5426082861489491
-0.47572536981249414	0.5357906082275486
-0.47566433465624414	0.5285149489112378
-0.47560329949999414	0.5207958921166529
-0.47554226434374414	0.5126311842664848
-0.47548122918749414	0.5040329081558248
-0.47542019403124414	0.49500838647346934
-0.47535915887499414	0.4855595034778499
-0.47529812371874414	0.4757028991640762
-0.47523708856249414	0.4654387072091268
-0.47517605340624414	0.4547796468846126
-0.47511501824999414	0.4437361659644594
-0.47505398309374414	0.4323109738128021
-0.47499294793749414	0.4205219663166096
-0.47493191278124414	0.4083722683384996
-0.47487087762499414	0.39587525245336613
-0.47480984246874414	0.3830436234161601
-0.47474880731249414	0.3698813298219135
-0.47468777215624414	0.3564075747895957
-0.47462673699999414	0.3426274402828094
-0.47456570184374414	0.3285543228139278
-0.47450466668749414	0.31420363153518677
-0.47444363153124414	0.2995806634533233
-0.47438259637499414	0.2847052017098935
-0.47432156121874414	0.26958458120304013
-0.47426052606249414	0.25423219766199767
-0.47419949090624414	0.2386651497042422
-0.47413845574999414	0.22288968964134026
-0.47407742059374414	0.20692592917888408
-0.47401638543749414	0.19078367180011252
-0.47395535028124414	0.17447605544862724
-0.47389431512499414	0.15802107230162496
-0.47383327996874414	0.14142662464327302
-0.47377224481249414	0.12471268706505362
-0.47371120965624414	0.10788985832495385
-0.47365017449999414	0.0909716325800862
-0.47358913934374414	0.07397744348474851
-0.47352810418749414	0.05691540405338487
-0.47346706903124414	0.03980479159887998
-0.47340603387499414	0.02265799647596387
-0.47334499871874414	0.005488478773210644
-0.47328396356249414	-0.011684690831342862
-0.47322292840624414	-0.028852873430538002
-0.47316189324999414	-0.0459964713000741
-0.47310085809374414	-0.06310282695324067
-0.47303982293749414	-0.08015967859140372
-0.47297878778124414	-0.09714719460543184
-0.47291775262499414	-0.11405620284363854
-0.47285671746874414	-0.13086845662071683
-0.47279568231249414	-0.1475707744843879
-0.47273464715624414	-0.1641513221269247
-0.47267361199999414	-0.1805912352179885
-0.47261257684374414	-0.19688162205535056
-0.47255154168749414	-0.21300462064915984
-0.47249050653124414	-0.22894701016707028
-0.47242947137499414	-0.24469815261876632
-0.47236843621874414	-0.2602399371583551
-0.47230740106249414	-0.2755639369634966
-0.47224636590624414	-0.29065334074812166
-0.47218533074999414	-0.3054955912022832
-0.47212429559374414	-0.32008140130990703
-0.47206326043749414	-0.33439306244928385
-0.47200222528124414	-0.34842311981107604
-0.47194119012499414	-0.36215663664816083
-0.47188015496874414	-0.3755815010869126
-0.47181911981249414	-0.3886897051684485
-0.47175808465624414	-0.40146480528980266
-0.47169704949999414	-0.41390078198802194
-0.47163601434374414	-0.4259843668959999
-0.47157497918749414	-0.43770406989549276
-0.47151394403124414	-0.44905387889322684
-0.47145290887499414	-0.46001876124103075
-0.47139187371874414	-0.470593745220846
-0.47133083856249414	-0.48076773288714186
-0.47126980340624414	-0.4905306745997147
-0.47120876824999414	-0.49987835478065773
-0.47114773309374414	-0.5087972023228217
-0.47108669793749414	-0.5172840893100885
-0.47102566278124414	-0.5253298329984577
-0.47096462762499414	-0.5329254623732915
-0.47090359246874414	-0.5400694437451942
-0.47084255731249414	-0.5467500146670796
-0.47078152215624414	-0.5529655610802068
-0.47072048699999414	-0.558709269314831
-0.47065945184374414	-0.563973708255681
-0.47059841668749414	-0.5687596578020159
-0.47053738153124414	-0.5730570036524426
-0.47047634637499414	-0.5768662776053636
-0.47041531121874414	-0.5801832726567282
-0.47035427606249414	-0.5830018394161909
-0.47029324090624414	-0.5853254918132694
