Time	Frequency
-0.5000410610000046	7.284070412863787e-24
-0.49998002584375456	7.593583658039944e-24
-0.49991899068750456	7.898702803244397e-24
-0.49985795553125456	8.199260524820186e-24
-0.49979692037500456	8.495063786114435e-24
-0.49973588521875456	8.785919192267161e-24
-0.49967485006250456	9.071652801946158e-24
-0.49961381490625456	9.352108828861287e-24
-0.49955277975000456	9.627103995041091e-24
-0.49949174459375456	9.896479382399567e-24
-0.49943070943750456	1.0160083379760213e-23
-0.49936967428125456	1.0417723391634926e-23
-0.49930863912500456	1.0669250346019514e-23
-0.49924760396875456	1.0914529726511202e-23
-0.49918656881250456	1.1153422574377374e-23
-0.49912553365625456	1.1385755166309068e-23
-0.49906449850000456	1.161138766207275e-23
-0.49900346334375456	1.1830196605274736e-23
-0.49894242818750456	1.2042038756131341e-23
-0.49888139303125456	1.2246796120610436e-23
-0.49882035787500456	1.2444338513400146e-23
-0.49875932271875456	1.263453386111724e-23
-0.49869828756250456	1.2817269347924627e-23
-0.49863725240625456	1.2992450476349875e-23
-0.49857621725000456	1.3159959697489709e-23
-0.49851518209375456	1.3319679912557912e-23
-0.49845414693750456	1.347151848274192e-23
-0.49839311178125456	1.3615392323055296e-23
-0.49833207662500456	1.375121252340593e-23
-0.49827104146875456	1.3878887884927088e-23
-0.49821000631250456	1.3998337325338377e-23
-0.49814897115625456	1.4109485322789986e-23
-0.49808793600000456	1.421226059169876e-23
-0.49802690084375456	1.430660688617787e-23
-0.49796586568750456	1.4392469032340552e-23
-0.49790483053125456	1.4469778851253656e-23
-0.49784379537500456	1.4538482649602498e-23
-0.49778276021875456	1.4598553700890443e-23
-0.49772172506250456	1.464994695155084e-23
-0.49766068990625456	1.4692619072100318e-23
-0.49759965475000456	1.4726550783032603e-23
-0.49753861959375456	1.47517119636644e-23
-0.49747758443750456	1.476808939619996e-23
-0.49741654928125456	1.477566995871863e-23
-0.49735551412500456	1.47744434679531e-23
-0.49729447896875456	1.4764403151564137e-23
-0.49723344381250456	1.474556109735766e-23
-0.49717240865625456	1.471791925130367e-23
-0.49711137350000456	1.468148634894968e-23
-0.49705033834375456	1.463629301755797e-23
-0.49698930318750456	1.4582352275474968e-23
-0.49692826803125456	1.4519696428896145e-23
-0.49686723287500456	1.4448361556024305e-23
-0.49680619771875456	1.4368389918313005e-23
-0.49674516256250456	1.4279818895433875e-23
-0.49668412740625456	1.418270005141647e-23
-0.49662309225000456	1.407708994786783e-23
-0.49656205709375456	1.3963048474571135e-23
-0.49650102193750456	1.3840645517763225e-23
-0.49643998678125456	1.370994067932198e-23
-0.49637895162500456	1.3571009445345618e-23
-0.49631791646875456	1.34239483949982e-23
-0.49625688131250456	1.3268834843040993e-23
-0.49619584615625456	1.3105749381294211e-23
-0.49613481100000456	1.293479018830047e-23
-0.49607377584375456	1.2756052660709496e-23
-0.49601274068750456	1.2569657196294654e-23
-0.49595170553125456	1.2375710516215591e-23
-0.49589067037500456	1.2174308736455724e-23
-0.49582963521875456	1.196557627169657e-23
-0.49576860006250456	1.1749653984264551e-23
-0.49570756490625456	1.152665403820956e-23
-0.49564652975000456	1.1296689054620641e-23
-0.49558549459375456	1.1059904077393162e-23
-0.49552445943750456	1.0816471932652014e-23
-0.49546342428125456	1.0566522223520054e-23
-0.49540238912500456	1.0310161380805017e-23
-0.49534135396875456	1.0047571941455205e-23
-0.49528031881250456	9.778930578468912e-24
-0.49521928365625456	9.504367094347573e-24
-0.49515824850000456	9.224034309521762e-24
-0.49509721334375456	8.938119205866618e-24
-0.49503617818750456	8.646786063402448e-24
-0.49497514303125456	8.350216716638225e-24
-0.49491410787500456	8.048582160896509e-24
-0.49485307271875456	7.742050862881724e-24
-0.49479203756250456	7.430810325235863e-24
-0.49473100240625456	7.115036622723221e-24
-0.49466996725000456	6.794929437866901e-24
-0.49460893209375456	6.470691010833842e-24
-0.49454789693750456	6.14250239063908e-24
-0.49448686178125456	5.810548265146473e-24
-0.49442582662500456	5.475038831247582e-24
-0.49436479146875456	5.136166887602357e-24
-0.49430375631250456	4.7941300691043096e-24
-0.49424272115625456	4.449151039413352e-24
-0.49418168600000456	4.101442585516669e-24
-0.49412065084375456	3.7511795056639535e-24
-0.49405961568750456	3.3985723608231325e-24
-0.49399858053125456	3.0438607938500596e-24
-0.49393754537500456	2.6872473856432834e-24
-0.49387651021875456	2.328931803156073e-24
-0.49381547506250456	1.96914695936066e-24
-0.49375443990625456	1.6081064585803578e-24
-0.49369340475000456	1.2459894077284563e-24
-0.49363236959375456	8.83042384942608e-25
-0.49357133443750456	5.195182812368103e-25
-0.49351029928125456	1.5559610049379487e-25
-0.49344926412500456	-2.0853727142230004e-25
-0.49338822896875456	-5.726154415161519e-25
-0.49332719381250456	-9.364113181206815e-25
-0.49326615865625456	-1.2997426222921524e-24
-0.49320512350000456	-1.6623913819509922e-24
-0.49314408834375456	-2.0241041089709323e-24
-0.49308305318750456	-2.3846737423711275e-24
-0.49302201803125456	-2.743910093480387e-24
-0.49296098287500456	-3.101579590482827e-24
-0.49289994771875456	-3.457479440786592e-24
-0.49283891256250456	-3.8113774746160285e-24
-0.49277787740625456	-4.1630495563931905e-24
-0.49271684225000456	-4.5122979406207036e-24
-0.49265580709375456	-4.8589232754930465e-24
-0.49259477193750456	-5.202720938290239e-24
-0.49253373678125456	-5.5434779585527396e-24
-0.49247270162500456	-5.880955614539013e-24
-0.49241166646875456	-6.2149639977378055e-24
-0.49235063131250456	-6.545353281627052e-24
-0.49228959615625456	-6.871883449702794e-24
-0.49222856100000456	-7.194326298717544e-24
-0.49216752584375456	-7.51251353938456e-24
-0.49210649068750456	-7.826279630155121e-24
-0.49204545553125456	-8.135416953612735e-24
-0.49198442037500456	-8.439721857914417e-24
-0.49192338521875456	-8.739017948739088e-24
-0.49186235006250456	-9.033138479114117e-24
-0.49180131490625456	-9.321902425825757e-24
-0.49174027975000456	-9.605107141384005e-24
-0.49167924459375456	-9.88259161368172e-24
-0.49161820943750456	-1.0154214621116384e-23
-0.49155717428125456	-1.0419791470376447e-23
-0.49149613912500456	-1.0679155496389569e-23
-0.49143510396875456	-1.0932170120646776e-23
-0.49137406881250456	-1.1178657100636701e-23
-0.49131303365625456	-1.1418461203991912e-23
-0.49125199850000456	-1.1651464364514106e-23
-0.49119096334375456	-1.1877516691143923e-23
-0.49112992818750456	-1.2096463408626201e-23
-0.49106889303125456	-1.2308187260097061e-23
-0.49100785787500456	-1.251255563120723e-23
-0.49094682271875456	-1.2709440294977135e-23
-0.49088578756250456	-1.2898722406643181e-23
-0.49082475240625456	-1.3080287476765086e-23
-0.49076371725000456	-1.3254022159828897e-23
-0.49070268209375456	-1.3419818359133127e-23
-0.49064164693750456	-1.3577576608060638e-23
-0.49058061178125456	-1.3727200139851903e-23
-0.49051957662500456	-1.3868601687289315e-23
-0.49045854146875456	-1.400168306134015e-23
-0.49039750631250456	-1.4126374572427818e-23
-0.49033647115625456	-1.4242587008386402e-23
-0.49027543600000456	-1.4350251352109455e-23
-0.49021440084375456	-1.4449308298317543e-23
-0.49015336568750456	-1.453968999947483e-23
-0.49009233053125456	-1.4621343858983142e-23
-0.49003129537500456	-1.4694210947970225e-23
-0.48997026021875456	-1.475825251145519e-23
-0.48990922506250456	-1.4813426738804568e-23
-0.48984818990625456	-1.485969883476054e-23
-0.48978715475000456	-1.4897033889954899e-23
-0.48972611959375456	-1.4925410592337316e-23
-0.48966508443750456	-1.4944815111847876e-23
-0.48960404928125456	-1.4955229464314272e-23
-0.48954301412500456	-1.4956643041977897e-23
-0.48948197896875456	-1.4949054832154366e-23
-0.48942094381250456	-1.4932469074378926e-23
-0.48935990865625456	-1.4906891467320035e-23
-0.48929887350000456	-1.4872338619576306e-23
-0.48923783834375456	-1.4828829835318196e-23
-0.48917680318750456	-1.477638694460056e-23
-0.48911576803125456	-1.4715041968827085e-23
-0.48905473287500456	-1.4644828143621158e-23
-0.48899369771875456	-1.456578729365327e-23
-0.48893266256250456	-1.4477962835917754e-23
-0.48887162740625456	-1.438141151296314e-23
-0.48881059225000456	-1.42761922487805e-23
-0.48874955709375456	-1.416235453262541e-23
-0.48868852193750456	-1.4039978568401842e-23
-0.48862748678125456	-1.3909132789605297e-23
-0.48856645162500456	-1.3769890105667678e-23
-0.48850541646875456	-1.3622336716075655e-23
-0.48844438131250456	-1.34665648901645e-23
-0.48838334615625456	-1.3302655706844723e-23
-0.48832231100000456	-1.3130717147616881e-23
-0.48826127584375456	-1.295086403685638e-23
-0.48820024068750456	-1.2763174086899252e-23
-0.48813920553125456	-1.2567772013867493e-23
-0.48807817037500456	-1.2364789183762682e-23
-0.48801713521875456	-1.2154334039548822e-23
-0.48795610006250456	-1.1936526048275476e-23
-0.48789506490625456	-1.1711512153499494e-23
-0.48783402975000456	-1.1479416018363246e-23
-0.48777299459375456	-1.1240380040303768e-23
-0.48771195943750456	-1.0994568273529429e-23
-0.48765092428125456	-1.0742100619591336e-23
-0.48758988912500456	-1.048312401118676e-23
-0.48752885396875456	-1.0217813405598986e-23
-0.48746781881250456	-9.946321089551102e-24
-0.48740678365625456	-9.668831032565077e-24
-0.48734574850000456	-9.385509967557524e-24
-0.48728471334375456	-9.096482170821236e-24
-0.48722367818750456	-8.801948633854744e-24
-0.48716264303125456	-8.502111581950024e-24
-0.48710160787500456	-8.197119882124343e-24
-0.48704057271875456	-7.88716950131042e-24
-0.48697953756250456	-7.572480715402858e-24
-0.48691850240625456	-7.253203990773379e-24
-0.48685746725000456	-6.92951456406532e-24
-0.48679643209375456	-6.601636826142639e-24
-0.48673539693750456	-6.269787685864089e-24
-0.48667436178125456	-5.934158609193804e-24
-0.48661332662500456	-5.594930107353063e-24
-0.48655229146875456	-5.25231742432632e-24
-0.48649125631250456	-4.9065433355957675e-24
-0.48643022115625456	-4.5578240273193044e-24
-0.48636918600000456	-4.206338573753902e-24
-0.48630815084375456	-3.8522864489609726e-24
-0.48624711568750456	-3.495936813090079e-24
-0.48618608053125456	-3.137525078281073e-24
-0.48612504537500456	-2.7772030186689256e-24
-0.48606401021875456	-2.4151958389830815e-24
-0.48600297506250456	-2.0517592482412227e-24
-0.48594193990625456	-1.6870927821869665e-24
-0.48588090475000456	-1.3214203852913582e-24
-0.48581986959375456	-9.54981623620318e-25
-0.48575883443750456	-5.880002965434174e-25
-0.48569779928125456	-2.2067402236974207e-25
-0.48563676412500456	1.467744421321478e-25
-0.48557572896875456	5.140980751228801e-25
-0.48551469381250456	8.810620914380947e-25
-0.48545365865625456	1.2474632499342132e-24
-0.48539262350000456	1.6130789187650777e-24
-0.48533158834375456	1.9776834379570157e-24
-0.48527055318750456	2.3410621237062644e-24
-0.48520951803125456	2.702975963642388e-24
-0.48514848287500456	3.063191709433063e-24
-0.48508744771875456	3.421509667653985e-24
-0.48502641256250456	3.777716662079888e-24
-0.48496537740625456	4.1315853161798455e-24
-0.48490434225000456	4.4829052613481545e-24
-0.48484330709375456	4.831442287290306e-24
-0.48478227193750456	5.1769834682085085e-24
-0.48472123678125456	5.519336597364425e-24
-0.48466020162500456	5.858295075487814e-24
-0.48459916646875456	6.1936282025329695e-24
-0.48453813131250456	6.525134348791261e-24
-0.48447709615625456	6.85262657906209e-24
-0.48441606100000456	7.175892383137803e-24
-0.48435502584375456	7.494709502812224e-24
-0.48429399068750456	7.808909605863315e-24
-0.48423295553125456	8.118319522455572e-24
-0.48417192037500456	8.42271243469597e-24
-0.48411088521875456	8.72190774456238e-24
-0.48404985006250456	9.01572358022595e-24
-0.48398881490625456	9.303981654338238e-24
-0.48392777975000456	9.586498096129788e-24
-0.48386674459375456	9.86309896824441e-24
-0.48380570943750456	1.0133624753143089e-23
-0.48374467428125456	1.0397909716556898e-23
-0.48368363912500456	1.0655772592499093e-23
-0.48362260396875456	1.090705255291043e-23
-0.48356156881250456	1.11516104498679e-23
-0.48350053365625456	1.1389285249339124e-23
-0.48343949850000456	1.1619937592270576e-23
-0.48337846334375456	1.1843419355713039e-23
-0.48331742818750456	1.2059586295124281e-23
-0.48325639303125456	1.2268298033322776e-23
-0.48319535787500456	1.2469443925029915e-23
-0.48313432271875456	1.2662905873197616e-23
-0.48307328756250456	1.2848536133103213e-23
-0.48301225240625456	1.3026215937713367e-23
-0.48295121725000456	1.3195848435581116e-23
-0.48289018209375456	1.3357341933212995e-23
-0.48282914693750456	1.3510587901021092e-23
-0.48276811178125456	1.365546709909927e-23
-0.48270707662500456	1.3791892624055698e-23
-0.48264604146875456	1.3919801544473128e-23
-0.48258500631250456	1.4039108946581592e-23
-0.48252397115625456	1.4149728564682202e-23
-0.48246293600000456	1.4251587303027266e-23
-0.48240190084375456	1.4344622868545122e-23
-0.48234086568750456	1.442878048000228e-23
-0.48227983053125456	1.450400957152468e-23
-0.48221879537500456	1.457025104744836e-23
-0.48215776021875456	1.462746831105694e-23
-0.48209672506250456	1.4675624901308496e-23
-0.48203568990625456	1.4714685255565184e-23
-0.48197465475000456	1.4744620829925758e-23
-0.48191361959375456	1.4765413384080978e-23
-0.48185258443750456	1.4777050294055996e-23
-0.48179154928125456	1.4779517121124755e-23
-0.48173051412500456	1.4772815601756736e-23
-0.48166947896875456	1.4756937879263498e-23
-0.48160844381250456	1.4731903561182216e-23
-0.48154740865625456	1.4697716034357584e-23
-0.48148637350000456	1.465439545621526e-23
-0.48142533834375456	1.460196876598831e-23
-0.48136430318750456	1.4540460791524543e-23
-0.48130326803125456	1.4469911277611192e-23
-0.48124223287500456	1.4390358084430152e-23
-0.48118119771875456	1.4301858965471617e-23
-0.48112016256250456	1.420445088096401e-23
-0.48105912740625456	1.4098188162551427e-23
-0.48099809225000456	1.3983140300018486e-23
-0.48093705709375456	1.3859385470989913e-23
-0.48087602193750456	1.3726999557824328e-23
-0.48081498678125456	1.3586042773293215e-23
-0.48075395162500456	1.3436592791978788e-23
-0.48069291646875456	1.3278758005558293e-23
-0.48063188131250456	1.3112641987146735e-23
-0.48057084615625456	1.2938334385755955e-23
-0.48050981100000456	1.2755933239245361e-23
-0.48044877584375456	1.2565538102695091e-23
-0.48038774068750456	1.2367279063202814e-23
-0.48032670553125456	1.2161297490569246e-23
-0.48026567037500456	1.1947694296520428e-23
-0.48020463521875456	1.172658229558475e-23
-0.48014360006250456	1.1498110880516381e-23
-0.48008256490625456	1.1262436001088528e-23
-0.48002152975000456	1.101969212445828e-23
-0.47996049459375456	1.0770012338498138e-23
-0.47989945943750456	1.0513555262493385e-23
-0.47983842428125456	1.0250469428972902e-23
-0.47977738912500456	9.980930411750701e-24
-0.47971635396875456	9.705109100938443e-24
-0.47965531881250456	9.423164208332115e-24
-0.47959428365625456	9.135249819278602e-24
-0.47953324850000456	8.841549876946346e-24
-0.47947221334375456	8.542262647559751e-24
-0.47941117818750456	8.237554217800932e-24
-0.47935014303125456	7.927617294029954e-24
-0.47928910787500456	7.612641432395232e-24
-0.47922807271875456	7.292821091549806e-24
-0.47916703756250456	6.968352139647492e-24
-0.47910600240625456	6.639421699696828e-24
-0.47904496725000456	6.306221190891052e-24
-0.47898393209375456	5.968990737674296e-24
-0.47892289693750456	5.62794751218158e-24
-0.47886186178125456	5.283245082280021e-24
-0.47880082662500456	4.935113677988364e-24
-0.47873979146875456	4.583800929785311e-24
-0.47867875631250456	4.229485034079019e-24
-0.47861772115625456	3.8723983865099915e-24
-0.47855668600000456	3.512778902279709e-24
-0.47849565084375456	3.1508055809763397e-24
-0.47843461568750456	2.7867223284170497e-24
-0.47837358053125456	2.4207823286193464e-24
-0.47831254537500456	2.0531839214022497e-24
-0.47825151021875456	1.6841369637018768e-24
-0.47819047506250456	1.3138801473667417e-24
-0.47812943990625456	9.426512389735618e-25
-0.47806840475000456	5.706995586083635e-25
-0.47800736959375456	1.982343148806966e-25
-0.47794633443750456	-1.745349686972332e-25
-0.47788529928125456	-5.473615968961166e-25
-0.47782426412500456	-9.200033791765243e-25
-0.47776322896875456	-1.2922308365189053e-24
-0.47770219381250456	-1.6638398026142594e-24
-0.47764115865625456	-2.034588808599469e-24
-0.47758012350000456	-2.404220230447584e-24
-0.47751908834375456	-2.772509858328858e-24
-0.47745805318750456	-3.139258958666591e-24
-0.47739701803125456	-3.504245584686888e-24
-0.47733598287500456	-3.867234027470581e-24
-0.47727494771875456	-4.227967378206322e-24
-0.47721391256250456	-4.586230076546169e-24
-0.47715287740625456	-4.941829126920163e-24
-0.47709184225000456	-5.294519285184914e-24
-0.47703080709375456	-5.644088675782233e-24
-0.47696977193750456	-5.9903334825332236e-24
-0.47690873678125456	-6.333019188465963e-24
-0.47684770162500456	-6.671931076741669e-24
-0.47678666646875456	-7.006880033289248e-24
-0.47672563131250456	-7.337625759338248e-24
-0.47666459615625456	-7.663962258432633e-24
-0.47660356100000456	-7.985722731736893e-24
-0.47654252584375456	-8.30269250443539e-24
-0.47648149068750456	-8.614654068731771e-24
-0.47642045553125456	-8.921423331009147e-24
-0.47635942037500456	-9.222816853270655e-24
-0.47629838521875456	-9.518631865146796e-24
-0.47623735006250456	-9.808674146764689e-24
-0.47617631490625456	-1.0092784129870351e-23
-0.47611527975000456	-1.0370792089538075e-23
-0.47605424459375456	-1.0642497941121337e-23
-0.47599320943750456	-1.0907742263122351e-23
-0.47593217428125456	-1.116635730605293e-23
-0.47587113912500456	-1.1418166836908578e-23
-0.47581010396875456	-1.1663022504446078e-23
-0.47574906881250456	-1.1900784486650849e-23
-0.47568803365625456	-1.2131285396983097e-23
-0.47562699850000456	-1.2354385736991827e-23
-0.47556596334375456	-1.2569950832334572e-23
-0.47550492818750456	-1.2777825113591122e-23
-0.47544389303125456	-1.2977875752489177e-23
-0.47538285787500456	-1.3169988851860053e-23
-0.47532182271875456	-1.3354060635567536e-23
-0.47526078756250456	-1.3529950607563752e-23
-0.47519975240625456	-1.3697539929729996e-23
-0.47513871725000456	-1.3856724398825664e-23
-0.47507768209375456	-1.400741582521325e-23
-0.47501664693750456	-1.414951156483112e-23
-0.47495561178125456	-1.428291461049006e-23
-0.47489457662500456	-1.440754481264312e-23
-0.47483354146875456	-1.4523318438420445e-23
-0.47477250631250456	-1.4630160547445678e-23
-0.47471147115625456	-1.472799498594631e-23
-0.47465043600000456	-1.4816770816699358e-23
-0.47458940084375456	-1.489641863851129e-23
-0.47452836568750456	-1.49668890798286e-23
-0.47446733053125456	-1.502813401538466e-23
-0.47440629537500456	-1.5080111793437636e-23
-0.47434526021875456	-1.512278868196216e-23
-0.47428422506250456	-1.5156127232931058e-23
-0.47422318990625456	-1.5180108814498968e-23
-0.47416215475000456	-1.5194714286441356e-23
-0.47410111959375456	-1.519993128157309e-23
-0.47404008443750456	-1.5195751329280043e-23
-0.47397904928125456	-1.518216977286622e-23
-0.47391801412500456	-1.5159193699093677e-23
-0.47385697896875456	-1.512683865334429e-23
-0.47379594381250456	-1.5085114404542976e-23
-0.47373490865625456	-1.5034043274598747e-23
-0.47367387350000456	-1.4973655090489573e-23
-0.47361283834375456	-1.4903981126641371e-23
-0.47355180318750456	-1.4825063930717542e-23
-0.47349076803125456	-1.4736950515244708e-23
-0.47342973287500456	-1.4639680473950255e-23
-0.47336869771875456	-1.4533321674936162e-23
-0.47330766256250456	-1.441793559306236e-23
-0.47324662740625456	-1.4293581765203924e-23
-0.47318559225000456	-1.4160336750464428e-23
-0.47312455709375456	-1.401828563149341e-23
-0.47306352193750456	-1.3867514524172e-23
-0.47300248678125456	-1.3708105571886947e-23
-0.47294145162500456	-1.354014785332651e-23
-0.47288041646875456	-1.336373946274724e-23
-0.47281938131250456	-1.3179015624739157e-23
-0.47275834615625456	-1.2986069929228229e-23
-0.47269731100000456	-1.2785014710061428e-23
-0.47263627584375456	-1.2575971673478844e-23
-0.47257524068750456	-1.2359057449891628e-23
-0.47251420553125456	-1.2134421803891227e-23
-0.47245317037500456	-1.1902206523904802e-23
-0.47239213521875456	-1.1662543406927665e-23
