Time	Frequency
-0.5000391001874931	0.3902813983548733
-0.4999780650312431	0.3972066874930915
-0.4999170298749931	0.4040217439237401
-0.4998559947187431	0.4106171814923141
-0.4997949595624931	0.4168701103361486
-0.4997339244062431	0.42288070242896464
-0.4996728892499931	0.4287659218029281
-0.4996118540937431	0.4344203253966229
-0.4995508189374931	0.4397190360452099
-0.4994897837812431	0.4447595631060764
-0.4994287486249931	0.44966180343857787
-0.4993677134687431	0.4543243241963454
-0.4993066783124931	0.4586207831411392
-0.4992456431562431	0.46264528057870946
-0.4991846079999931	0.466520154597634
-0.4991235728437431	0.47014867213277095
-0.4990625376874931	0.47340306445388647
-0.4990015025312431	0.476374176902161
-0.4989404673749931	0.4791872713791724
-0.4988794322187431	0.48174972197696886
-0.4988183970624931	0.48393158525110375
-0.4987573619062431	0.48582083563591
-0.4986963267499931	0.487546427891489
-0.4986352915937431	0.48902004843308616
-0.4985742564374931	0.49010930786242557
-0.4985132212812431	0.4908988734185212
-0.4984521861249931	0.491521169852756
-0.4983911509687431	0.49189248348286896
-0.4983301158124931	0.4918782818148137
-0.4982690806562431	0.49155991717848396
-0.4982080454999931	0.49107326757549
-0.4981470103437431	0.49033910750971677
-0.4980859751874931	0.4892206219272748
-0.4980249400312431	0.48779601538647793
-0.4979639048749931	0.4862047084631239
-0.4979028697187431	0.48437187798936604
-0.4978418345624931	0.4821584909794233
-0.4977807994062431	0.4796393796831718
-0.4977197642499931	0.4769573204694862
-0.4976587290937431	0.47404237615225914
-0.4975976939374931	0.4707534254961852
-0.4975366587812431	0.4671616315052274
-0.4974756236249931	0.4634130592684593
-0.4974145884687431	0.45944230456744395
-0.4973535533124931	0.4551062702123476
-0.4972925181562431	0.4504731433476337
-0.4972314829999931	0.4456920816615454
-0.4971704478437431	0.44070181983226697
-0.4971094126874931	0.4353571966913338
-0.4970483775312431	0.4297231809454087
-0.4969873423749931	0.4239523361233633
-0.4969263072187431	0.41798804870564704
-0.4968652720624931	0.411682983341612
-0.4968042369062431	0.40509827983913094
-0.4967432017499931	0.39838944741002735
-0.4966821665937431	0.3915049659311812
-0.4966211314374931	0.3842956733509695
-0.4965600962812431	0.376818678074181
-0.4964990611249931	0.36923277514738373
-0.4964380259687431	0.36149139987114864
-0.4963769908124931	0.35344266260829954
-0.4963159556562431	0.3451397528246395
-0.4962549204999931	0.3367450337487342
-0.4961938853437431	0.32821670387058094
-0.4961328501874931	0.31940081287005484
-0.4960718150312431	0.310346914174968
-0.4960107798749931	0.30122004070435654
-0.4959497447187431	0.29198277187638566
-0.4958887095624931	0.28247897712382086
-0.4958276744062431	0.2727543683139939
-0.4957666392499931	0.2629773104323329
-0.4957056040937431	0.25311553234944323
-0.4956445689374931	0.2430104234986039
-0.4955835337812431	0.2327030942868403
-0.4955224986249931	0.22236476565776006
-0.4954614634687431	0.21196798721513524
-0.4954004283124931	0.2013523342510992
-0.4953393931562431	0.19055511186008697
-0.4952783579999931	0.17974943777810815
-0.4952173228437431	0.16891252388440964
-0.4951562876874931	0.15788299505487613
-0.4950952525312431	0.1466934407604534
-0.4950342173749931	0.13551838438450162
-0.4949731822187431	0.12434060576006932
-0.4949121470624931	0.11299742758396622
-0.4948511119062431	0.10151595531225109
-0.4947900767499931	0.09007289241537834
-0.4947290415937431	0.07865703954574753
-0.4946680064374931	0.06710351711648337
-0.4946069712812431	0.05543397390281888
-0.4945459361249931	0.043827527967038094
-0.4944849009687431	0.032278099950161177
-0.4944238658124931	0.020618791922741277
-0.4943628306562431	0.008866560538809564
-0.4943017954999931	-0.002797310240158199
-0.4942407603437431	-0.014373906410819322
-0.4941797251874931	-0.026032106027399075
-0.4941186900312431	-0.03776022833020063
-0.4940576548749931	-0.04937576901666053
-0.4939966197187431	-0.060874309583358634
-0.4939355845624931	-0.07242465768478698
-0.4938745494062431	-0.08402063640084861
-0.4938135142499931	-0.0954812894428546
-0.4937524790937431	-0.10679717797596347
-0.4936914439374931	-0.11813484949810762
-0.4936304087812431	-0.1294931359795338
-0.4935693736249931	-0.1406933207524192
-0.4935083384687431	-0.15172105668268032
-0.4934473033124931	-0.16274205289524715
-0.4933862681562431	-0.1737607171814512
-0.4933252329999931	-0.1845987982354408
-0.4932641978437431	-0.19523633175886412
-0.4932031626874931	-0.205838591182178
-0.4931421275312431	-0.21641610128993286
-0.4930810923749931	-0.22679229364119022
-0.4930200572187431	-0.2369421561690418
-0.4929590220624931	-0.2470294588677697
-0.4928979869062431	-0.25706951920069543
-0.4928369517499931	-0.2668875318912881
-0.4927759165937431	-0.27645464523420665
-0.4927148814374931	-0.28593386857127184
-0.4926538462812431	-0.2953451449599359
-0.4925928111249931	-0.3045151714396829
-0.4925317759687431	-0.3134108967648733
-0.4924707408124931	-0.3221943258285001
-0.4924097056562431	-0.3308904727258614
-0.4923486704999931	-0.3393276734118715
-0.4922876353437431	-0.34746860565046583
-0.4922266001874931	-0.3554747540507142
-0.4921655650312431	-0.3633762383882176
-0.4921045298749931	-0.3710030796200465
-0.4920434947187431	-0.378313871917134
-0.4919824595624931	-0.38546832342624043
-0.4919214244062431	-0.39250123634750467
-0.4918603892499931	-0.3992462415274424
-0.4917993540937431	-0.40565854625362574
-0.4917383189374931	-0.41189522232017955
-0.4916772837812431	-0.4179954762148665
-0.4916162486249931	-0.42379608234512656
-0.4915552134687431	-0.42924862720409473
-0.4914941783124931	-0.4345083666926611
-0.4914331431562431	-0.4396194190591408
-0.4913721079999931	-0.44442164068246126
-0.4913110728437431	-0.448862911182101
-0.4912500376874931	-0.4530965157945109
-0.4911890025312431	-0.45717113568807116
-0.4911279673749931	-0.4609294341476095
-0.4910669322187431	-0.4643160604954541
-0.4910058970624931	-0.46748294367429677
-0.4909448619062431	-0.4704833364509689
-0.4908838267499931	-0.4731624974128132
-0.4908227915937431	-0.47546156370930387
-0.4907617564374931	-0.4775310144667238
-0.4907007212812431	-0.47942875049848116
-0.4906396861249931	-0.4810027244480058
-0.4905786509687431	-0.48219087180816417
-0.4905176158124931	-0.4831421784568999
-0.4904565806562431	-0.48391903412091336
-0.4903955454999931	-0.4843723183891129
-0.4903345103437431	-0.48443660192514304
-0.4902734751874931	-0.4842591523553723
-0.4902124400312431	-0.4839070905779492
-0.4901514048749931	-0.48323418008688773
-0.4900903697187431	-0.4821715344904857
-0.4900293345624931	-0.48086502881226917
-0.4899682994062431	-0.47938655733858143
-0.4899072642499931	-0.47759250779331386
-0.4898462290937431	-0.4754104702020689
-0.4897851939374931	-0.4729848658010764
-0.4897241587812431	-0.47039245852657174
-0.4896631236249931	-0.46749247970234015
-0.4896020884687431	-0.46420884244564303
-0.4895410533124931	-0.46068440434099545
-0.4894800181562431	-0.4570009751707581
-0.4894189829999931	-0.45302054693197713
-0.4893579478437431	-0.4486631397378823
-0.4892969126874931	-0.44407024817252055
-0.4892358775312431	-0.4393288347542036
-0.4891748423749931	-0.4343031819326716
-0.4891138072187431	-0.428909473871845
-0.4890527720624931	-0.4232883276943457
-0.4889917369062431	-0.41753172315535386
-0.4889307017499931	-0.4115062916769822
-0.4888696665937431	-0.40512410077707656
-0.4888086314374931	-0.39852390791399017
-0.4887475962812431	-0.39180321491410164
-0.4886865611249931	-0.38483203199152805
-0.4886255259687431	-0.37751832335567576
-0.4885644908124931	-0.36999885485992573
-0.4885034556562431	-0.3623755753590146
-0.4884424204999931	-0.35452097899034885
-0.4883813853437431	-0.34633999622224576
-0.4883203501874931	-0.3379682120847841
-0.4882593150312431	-0.3295119986416488
-0.4881982798749931	-0.3208460213219724
-0.4881372447187431	-0.31187113907444886
-0.4880762095624931	-0.3027217690830426
-0.4880151744062431	-0.29350967690220775
-0.4879541392499931	-0.28411168803876863
-0.4878931040937431	-0.2744237889064423
-0.4878320689374931	-0.2645785696054251
-0.4877710337812431	-0.25469383085560815
-0.4877099986249931	-0.2446496898355569
-0.4876489634687431	-0.2343370874125678
-0.4875879283124931	-0.2238858593556789
-0.4875268931562431	-0.21341910255932434
-0.4874658579999931	-0.20281994012564494
-0.4874048228437431	-0.1919747974515822
-0.4873437876874931	-0.1810118732043233
-0.4872827525312431	-0.17005955627686403
-0.4872217173749931	-0.15900327159515448
-0.4871606822187431	-0.14772483944510068
-0.4870996470624931	-0.13634983731859687
-0.4870386119062431	-0.1250112864028107
-0.4869775767499931	-0.11359829764526048
-0.4869165415937431	-0.10198925988512415
-0.4868555064374931	-0.09030666082628197
-0.4867944712812431	-0.07868705414959856
-0.4867334361249931	-0.06702258708540572
-0.4866724009687431	-0.05518786530513502
-0.4866113658124931	-0.04330299439856758
-0.4865503306562431	-0.031509257785398745
-0.4864892954999931	-0.019701527267245982
-0.4864282603437431	-0.007750140151859676
-0.4863672251874931	0.004228075859869118
-0.4863061900312431	0.016088088250915417
-0.4862451548749931	0.02793071462288767
-0.4861841197187431	0.03988919659281177
-0.4861230845624931	0.05185125130549648
-0.4860620494062431	0.06366758581641317
-0.4860010142499931	0.07543483945882942
-0.4859399790937431	0.08729119559145597
-0.4858789439374931	0.09912808175998028
-0.4858179087812431	0.1107911293846636
-0.4857568736249931	0.1223737552321667
-0.4856958384687431	0.13401922955441073
-0.4856348033124931	0.14562222268383837
-0.4855737681562431	0.15702376213492233
-0.4855127329999931	0.16831412719222738
-0.4854516978437431	0.17964131495797317
-0.4853906626874931	0.19090392300995748
-0.4853296275312431	0.20193876782031117
-0.4852685923749931	0.21283186017505726
-0.4852075572187431	0.22373516316331968
-0.4851465220624931	0.23455261038974679
-0.4850854869062431	0.24511886192887594
-0.4850244517499931	0.25551484059258117
-0.4849634165937431	0.2658935445087763
-0.4849023814374931	0.2761644844526726
-0.4848413462812431	0.28616271971079354
-0.4847803111249931	0.29596432028943415
-0.4847192759687431	0.30572306181700165
-0.4846582408124931	0.31535394739909284
-0.4845972056562431	0.3246906493089917
-0.4845361704999931	0.3338042274652013
-0.4844751353437431	0.3428515107277979
-0.4844141001874931	0.35175359326219624
-0.4843530650312431	0.36034201332114674
-0.4842920298749931	0.36868253734146533
-0.4842309947187431	0.3769339704501046
-0.4841699595624931	0.38502336388195574
-0.4841089244062431	0.39278218102554024
-0.4840478892499931	0.4002712434730867
-0.4839868540937431	0.4076501104344149
-0.4839258189374931	0.41485174577226214
-0.4838647837812431	0.42170745125317227
-0.4838037486249931	0.4282733061472602
-0.4837427134687431	0.4347104515999527
-0.4836816783124931	0.44095736756848775
-0.4836206431562431	0.44684475905825527
-0.4835596079999931	0.4524243865458144
-0.4834985728437431	0.45785897753828786
-0.4834375376874931	0.46309246810428184
-0.4833765025312431	0.4679553912808636
-0.4833154673749931	0.4724952334755678
-0.4832544322187431	0.476875608765142
-0.4831933970624931	0.4810458480917676
-0.4831323619062431	0.4848372323601922
-0.4830713267499931	0.48829305338651097
-0.4830102915937431	0.4915772480458308
-0.4829492564374931	0.49464469422090096
-0.4828882212812431	0.49732746517412907
-0.4828271861249931	0.4996644584612325
-0.4827661509687431	0.501820272270419
-0.4827051158124931	0.5037554838355637
-0.4826440806562431	0.5053027690735166
-0.4825830454999931	0.506496689685212
-0.4825220103437431	0.5075024594132687
-0.4824609751874931	0.5082861802058334
-0.4823999400312431	0.5086812973173986
-0.4823389048749931	0.5087183092805246
-0.4822778697187431	0.5085629904757673
-0.4822168345624931	0.5081867100136248
-0.4821557994062431	0.5074236501560792
-0.4820947642499931	0.5063004859774096
-0.4820337290937431	0.504983624289591
-0.4819726939374931	0.5034495456028378
-0.4819116587812431	0.5015331342241027
-0.4818506236249931	0.49925722342554274
-0.4817895884687431	0.49678879062226
-0.4817285533124931	0.4941096511763015
-0.4816675181562431	0.4910555730092787
-0.4816064829999931	0.4876452617493652
-0.4815454478437431	0.4840460098617341
-0.4814844126874931	0.480245058322336
-0.4814233775312431	0.47607911991521407
-0.4813623423749931	0.47156283277424643
-0.4813013072187431	0.46686418224554266
-0.4812402720624931	0.4619757302709871
-0.4811792369062431	0.45673436597859823
-0.4811182017499931	0.45115067233553846
-0.4810571665937431	0.44539368132888263
-0.4809961314374931	0.43946132728148424
-0.4809350962812431	0.4331911362323453
-0.4808740611249931	0.42658944202637056
-0.4808130259687431	0.41982552455135463
-0.4807519908124931	0.41290267282874665
-0.4806909556562431	0.4056591620233219
-0.4806299204999931	0.39809726086018904
-0.4805688853437431	0.39038721103429774
-0.4805078501874931	0.38253759869112214
-0.4804468150312431	0.37438614916734636
-0.4803857798749931	0.3659305975116752
-0.4803247447187431	0.35734317617416317
-0.4802637095624931	0.3486383554559067
-0.4802026744062431	0.3396532090920222
-0.4801416392499931	0.33038039193828495
-0.4800806040937431	0.3209929242600446
-0.4800195689374931	0.3115113924382631
-0.4799585337812431	0.3017736737394346
-0.4798974986249931	0.2917674176042594
-0.4798364634687431	0.28166579385699775
-0.4797754283124931	0.27149465493073455
-0.4797143931562431	0.2610921970926045
-0.4796533579999931	0.2504422967564396
-0.4795923228437431	0.23971869730975423
-0.4795312876874931	0.22895166185595842
-0.4794702525312431	0.217979443149483
-0.4794092173749931	0.2067816506211867
-0.4793481822187431	0.19553317890720925
-0.4792871470624931	0.18427004256831497
-0.4792261119062431	0.17282934747867906
-0.4791650767499931	0.16118505172451708
-0.4791040415937431	0.14951393652107936
-0.4790430064374931	0.13785802295280758
-0.4789819712812431	0.12605335943823212
-0.4789209361249931	0.11406877023777305
-0.4788599009687431	0.10208196282537274
-0.4787988658124931	0.09014075793030185
-0.4787378306562431	0.07808131228986394
-0.4786767954999931	0.06586615669545955
-0.4786157603437431	0.05367283537025947
-0.4785547251874931	0.041556011883692366
-0.4784936900312431	0.02935207885316076
-0.4784326548749931	0.017017811506965727
-0.4783716197187431	0.004731039945524689
-0.4783105845624931	-0.0074485520235494755
-0.4782495494062431	-0.01968459051381213
-0.4781885142499931	-0.03202510838769506
-0.4781274790937431	-0.04429285961019158
-0.4780664439374931	-0.056423196366359445
-0.4780054087812431	-0.0685784642787081
-0.4779443736249931	-0.08081170024813077
-0.4778833384687431	-0.09294709903647823
-0.4778223033124931	-0.10491500836461613
-0.4777612681562431	-0.11687690047984986
-0.4777002329999931	-0.1288912041268643
-0.4776391978437431	-0.14078289014117132
-0.4775781626874931	-0.15247687778808763
-0.4775171275312431	-0.16413422029130625
-0.4774560923749931	-0.17581932490497576
-0.4773950572187431	-0.18735785586008682
-0.4773340220624931	-0.19866898280322623
-0.4772729869062431	-0.2099131901762118
-0.4772119517499931	-0.22116110068286496
-0.4771509165937431	-0.23223989923285915
-0.4770898814374931	-0.2430630040547145
-0.4770288462812431	-0.25378973227702106
-0.4769678111249931	-0.2644969491830552
-0.4769067759687431	-0.27501350665376634
-0.4768457408124931	-0.2852473726938419
-0.4767847056562431	-0.2953565943995745
-0.4767236704999931	-0.3054239240081886
-0.4766626353437431	-0.3152805111300641
-0.4766016001874931	-0.32482938928557026
-0.4765405650312431	-0.3342271174125398
-0.4764795298749931	-0.34356193715005956
-0.4764184947187431	-0.3526673609985719
-0.4763574595624931	-0.36144181555765953
-0.4762964244062431	-0.3700395639089867
-0.4762353892499931	-0.37855437654978136
-0.4761743540937431	-0.38682399785673643
-0.4761133189374931	-0.3947425737972875
-0.4760522837812431	-0.40246054353256955
-0.4759912486249931	-0.4100763483387022
-0.4759302134687431	-0.4174325719096439
-0.4758691783124931	-0.42441996792708064
-0.4758081431562431	-0.4311854906488392
-0.4757471079999931	-0.43783231975512255
-0.4756860728437431	-0.44420723987899047
-0.4756250376874931	-0.45019701950073865
-0.4755640025312431	-0.45594567503585504
-0.4755029673749931	-0.46156156995221714
-0.4754419322187431	-0.4668958502885207
-0.4753808970624931	-0.4718316456486571
-0.4753198619062431	-0.47650938231161577
-0.4752588267499931	-0.481041653003342
-0.4751977915937431	-0.4852847414517201
-0.4751367564374931	-0.4891193444080814
-0.4750757212812431	-0.49268195595677666
-0.4750146861249931	-0.4960886840190561
-0.4749536509687431	-0.4992009003813839
-0.4748926158124931	-0.5018969955618664
-0.4748315806562431	-0.5043098593386832
-0.4747705454999931	-0.5065593921959777
-0.4747095103437431	-0.5085117982165887
-0.4746484751874931	-0.5100429221416289
-0.4745874400312431	-0.5112821488230247
-0.4745264048749931	-0.5123532338236768
-0.4744653697187431	-0.5131273876076154
-0.4744043345624931	-0.5134781830602578
-0.4743432994062431	-0.5135311982695443
-0.4742822642499931	-0.5134135238312674
-0.4742212290937431	-0.5130017029009641
-0.4741601939374931	-0.5121675861424606
-0.4740991587812431	-0.5110326952963561
-0.4740381236249931	-0.5097271568857663
-0.4739770884687431	-0.5081329818628527
-0.4739160533124931	-0.5061203989178612
-0.4738550181562431	-0.5038069575868558
-0.4737939829999931	-0.5013257359616099
-0.4737329478437431	-0.4985638338477925
-0.4736719126874931	-0.49538988724020133
-0.4736108775312431	-0.4919179537401951
-0.4735498423749931	-0.4882841257111864
-0.4734888072187431	-0.48438038566662045
-0.4734277720624931	-0.4800737867412958
-0.4733667369062431	-0.47547469976228496
-0.4733057017499931	-0.4707217404982356
-0.4732446665937431	-0.4657117609244091
-0.4731836314374931	-0.46031105201661826
-0.4731225962812431	-0.45462675221545884
-0.4730615611249931	-0.4487996460837706
-0.4730005259687431	-0.4427310282173259
-0.4729394908124931	-0.4362854917671153
-0.4728784556562431	-0.42956660466500823
-0.4728174204999931	-0.422718700751648
-0.4727563853437431	-0.4156483880645415
-0.4726953501874931	-0.4082181668825062
-0.4726343150312431	-0.4005271875335761
-0.4725732798749931	-0.39272237106853886
-0.4725122447187431	-0.3847156923246596
-0.4724512095624931	-0.3763682940299452
-0.4723901744062431	-0.36777572712376244
-0.4723291392499931	-0.35908792277188123
-0.4722681040937431	-0.350220898747362
-0.4722070689374931	-0.341033505562833
-0.4721460337812431	-0.33161820575393586
-0.4720849986249931	-0.32212777337980064
-0.4720239634687431	-0.3124829316553975
-0.4719629283124931	-0.3025412465016972
-0.4719018931562431	-0.2923910336452252
-0.4718408579999931	-0.2821873505136008
-0.4717798228437431	-0.27185575506177523
-0.4717187876874931	-0.261251567994425
-0.4716577525312431	-0.2504593040724696
-0.4715967173749931	-0.23963780527585135
-0.4715356822187431	-0.22871708776869046
-0.4714746470624931	-0.21754942733511418
-0.4714136119062431	-0.2062159556147028
-0.4713525767499931	-0.19487872938595047
-0.4712915415937431	-0.1834714355605286
-0.4712305064374931	-0.1718438726991204
-0.4711694712812431	-0.1600738055264048
-0.4711084361249931	-0.1483268536567157
-0.4710474009687431	-0.13654134016144984
-0.4709863658124931	-0.1245636610199816
-0.4709253306562431	-0.11246702184312414
-0.4708642954999931	-0.10042044375337934
-0.4708032603437431	-0.08836705290560785
-0.4707422251874931	-0.07615081601263289
-0.4706811900312431	-0.06384067444832775
-0.4706201548749931	-0.0516083942246663
-0.4705591197187431	-0.039401673007038715
-0.4704980845624931	-0.02706132753989556
-0.4704370494062431	-0.014651905631046657
-0.4703760142499931	-0.0023492087000201115
-0.4703149790937431	0.009894679078532908
-0.4702539439374931	0.022243062987742798
-0.4701929087812431	0.03463581872408388
-0.4701318736249931	0.04689352919244492
-0.4700708384687431	0.05905919187112359
-0.4700098033124931	0.07129898511164932
-0.4699487681562431	0.08355811333966905
-0.4698877329999931	0.09565466482999394
-0.4698266978437431	0.10762662324588901
-0.4697656626874931	0.11964315888562699
-0.4697046275312431	0.1316544642169437
-0.4696435923749931	0.1434756437226818
