Time	Frequency
-0.5000047721249956	1.2323635907881754e-23
-0.4999437369687456	1.2403906844647163e-23
-0.4998827018124956	1.2475818440162892e-23
-0.4998216666562456	1.2539318125412575e-23
-0.4997606314999956	1.2594361493345293e-23
-0.4996995963437456	1.26409074691954e-23
-0.4996385611874956	1.2678919391152153e-23
-0.4995775260312456	1.2708366281482145e-23
-0.4995164908749956	1.2729222607227647e-23
-0.4994554557187456	1.2741469780943725e-23
-0.4993944205624956	1.2745095704216516e-23
-0.4993333854062456	1.2740093146013948e-23
-0.4992723502499956	1.2726460587190652e-23
-0.4992113150937456	1.2704202559325842e-23
-0.4991502799374956	1.2673329260462669e-23
-0.4990892447812456	1.263385683358287e-23
-0.4990282096249956	1.2585807222132043e-23
-0.4989671744687456	1.2529207973145858e-23
-0.4989061393124956	1.2464092875825231e-23
-0.4988451041562456	1.2390501690973816e-23
-0.4987840689999956	1.2308479072564808e-23
-0.4987230338437456	1.221807589437549e-23
-0.4986619986874956	1.21193493239587e-23
-0.4986009635312456	1.2012360269974294e-23
-0.4985399283749956	1.1897174465954586e-23
-0.4984788932187456	1.1773867368228713e-23
-0.4984178580624956	1.1642521978510023e-23
-0.4983568229062456	1.1503219818843125e-23
-0.4982957877499956	1.1356046771328469e-23
-0.4982347525937456	1.1201100634378827e-23
-0.4981737174374956	1.103848167370206e-23
-0.4981126822812456	1.0868292857326051e-23
-0.4980516471249956	1.0690647898650054e-23
-0.4979906119687456	1.0505667298348197e-23
-0.4979295768124956	1.0313471618088245e-23
-0.4978685416562456	1.0114179105496812e-23
-0.4978075064999956	9.9079152608697e-24
-0.4977464713437456	9.694822112267547e-24
-0.4976854361874956	9.475047095818179e-24
-0.4976244010312456	9.248735772583105e-24
-0.4975633658749956	9.016032788210639e-24
-0.4975023307187456	8.777082291749071e-24
-0.4974412955624956	8.532043147369107e-24
-0.4973802604062456	8.281089193773348e-24
-0.4973192252499956	8.024387737845658e-24
-0.4972581900937456	7.762099801753976e-24
-0.4971971549374956	7.494397152335684e-24
-0.4971361197812456	7.221466685426936e-24
-0.4970750846249956	6.943491502149543e-24
-0.4970140494687456	6.660645343867455e-24
-0.4969530143124956	6.373114982683121e-24
-0.4968919791562456	6.081099126989729e-24
-0.4968309439999956	5.7847966723379665e-24
-0.4967699088437456	5.484407305801354e-24
-0.4967088736874956	5.180125028230082e-24
-0.4966478385312456	4.872143960792854e-24
-0.4965868033749956	4.5606730100751865e-24
-0.4965257682187456	4.24593020072417e-24
-0.4964647330624956	3.928128460939276e-24
-0.4964036979062456	3.607473975738744e-24
-0.4963426627499956	3.2841768330845433e-24
-0.4962816275937456	2.9584567694689904e-24
-0.4962205924374956	2.630537062527258e-24
-0.4961595572812456	2.30063544357617e-24
-0.4960985221249956	1.968967169636672e-24
-0.4960374869687456	1.6357589945210546e-24
-0.4959764518124956	1.3012419298471758e-24
-0.4959154166562456	9.656358925515149e-25
-0.4958543814999956	6.291598360297152e-25
-0.4957933463437456	2.920437193222194e-25
-0.4957323111874956	-4.548061685451123e-26
-0.4956712760312456	-3.8318861589472875e-25
-0.4956102408749956	-7.208542552048285e-25
-0.4955492057187456	-1.0582455324174956e-24
-0.4954881705624956	-1.3951356893873648e-24
-0.4954271354062456	-1.731306495408328e-24
-0.4953661002499956	-2.0665301824578044e-24
-0.4953050650937456	-2.4005678065491617e-24
-0.4952440299374956	-2.7331959184647038e-24
-0.4951829947812456	-3.064198107727932e-24
-0.4951219596249956	-3.393345773685915e-24
-0.4950609244687456	-3.720417342525505e-24
-0.4949998893124956	-4.045196522668236e-24
-0.4949388541562456	-4.3674572890224874e-24
-0.4948778189999956	-4.686978446703688e-24
-0.4948167838437456	-5.003548529855881e-24
-0.4947557486874956	-5.316953043628933e-24
-0.4946947135312456	-5.626972462418686e-24
-0.4946336783749956	-5.9333991114163606e-24
-0.4945726432187456	-6.236038141549012e-24
-0.4945116080624956	-6.534680122037828e-24
-0.4944505729062456	-6.829108154889565e-24
-0.4943895377499956	-7.1191249656878e-24
-0.4943285025937456	-7.404539346885053e-24
-0.4942674674374956	-7.685152380131212e-24
-0.4942064322812456	-7.960774389357795e-24
-0.4941453971249956	-8.23122690006313e-24
-0.4940843619687456	-8.496323380387432e-24
-0.4940233268124956	-8.755872726647764e-24
-0.4939622916562456	-9.009697475057404e-24
-0.4939012564999956	-9.257629565302334e-24
-0.4938402213437456	-9.499499295949177e-24
-0.4937791861874956	-9.73514048740235e-24
-0.4937181510312456	-9.96439530688266e-24
-0.4936571158749956	-1.0187107670562355e-23
-0.4935960807187456	-1.0403120192538709e-23
-0.4935350455624956	-1.061228353680744e-23
-0.4934740104062456	-1.0814456743472503e-23
-0.4934129752499956	-1.100949837384395e-23
-0.4933519400937456	-1.1197274786007257e-23
-0.4932909049374956	-1.1377663156807495e-23
-0.4932298697812456	-1.155053922276154e-23
-0.4931688346249956	-1.1715777383441054e-23
-0.4931077994687456	-1.1873258411482679e-23
-0.4930467643124956	-1.2022876449473467e-23
-0.4929857291562456	-1.2164537115523698e-23
-0.4929246939999956	-1.2298143968482384e-23
-0.4928636588437456	-1.2423595741568086e-23
-0.4928026236874956	-1.2540799009193832e-23
-0.4927415885312456	-1.264967700400777e-23
-0.4926805533749956	-1.2750159575909854e-23
-0.4926195182187456	-1.2842174399196038e-23
-0.4925584830624956	-1.2925654078184579e-23
-0.4924974479062456	-1.3000538839870582e-23
-0.4924364127499956	-1.3066775801605365e-23
-0.4923753775937456	-1.3124319019520313e-23
-0.4923143424374956	-1.3173126896937857e-23
-0.4922533072812456	-1.3213162828355506e-23
-0.4921922721249956	-1.3244397158709142e-23
-0.4921312369687456	-1.3266807100970266e-23
-0.4920702018124956	-1.32803749480479e-23
-0.4920091666562456	-1.3285088400463335e-23
-0.4919481314999956	-1.32809416020737e-23
-0.4918870963437456	-1.3267934507201333e-23
-0.4918260611874956	-1.3246074057368512e-23
-0.4917650260312456	-1.3215373536493265e-23
-0.4917039908749956	-1.3175850330963542e-23
-0.4916429557187456	-1.3127527893609467e-23
-0.4915819205624956	-1.307043719910831e-23
-0.4915208854062456	-1.3004615296428176e-23
-0.4914598502499956	-1.2930104096118996e-23
-0.4913988150937456	-1.2846950363718071e-23
-0.4913377799374956	-1.2755208957788058e-23
-0.4912767447812456	-1.2654941325908752e-23
-0.4912157096249956	-1.2546211744650125e-23
-0.4911546744687456	-1.2429091791896888e-23
-0.4910936393124956	-1.230365949681744e-23
-0.4910326041562456	-1.2169995771776889e-23
-0.4909715689999956	-1.2028188068820735e-23
-0.4909105338437456	-1.1878331822365344e-23
-0.4908494986874956	-1.1720530172428961e-23
-0.4907884635312456	-1.1554889469261607e-23
-0.4907274283749956	-1.138151593550694e-23
-0.4906663932187456	-1.1200521658435003e-23
-0.4906053580624956	-1.1012027455326722e-23
-0.4905443229062456	-1.0816162898542426e-23
-0.4904832877499956	-1.0613063181801413e-23
-0.4904222525937456	-1.0402863058831421e-23
-0.4903612174374956	-1.0185700835089967e-23
-0.4903001822812456	-9.961720927393018e-24
-0.4902391471249956	-9.731072686295031e-24
-0.4901781119687456	-9.493913904809655e-24
-0.4901170768124956	-9.250404981903127e-24
-0.4900560416562456	-9.000706302630313e-24
-0.4899950064999956	-8.74498832291147e-24
-0.4899339713437456	-8.483429357954586e-24
-0.4898729361874956	-8.21620250080321e-24
-0.4898119010312456	-7.943476509766026e-24
-0.4897508658749956	-7.665434847667017e-24
-0.4896898307187456	-7.382280258389897e-24
-0.4896287955624956	-7.094212518400708e-24
-0.4895677604062456	-6.801413818190615e-24
-0.4895067252499956	-6.504065050430741e-24
-0.4894456900937456	-6.202374726460971e-24
-0.4893846549374956	-5.896565030651805e-24
-0.4893236197812456	-5.58683975534551e-24
-0.4892625846249956	-5.2733993747575085e-24
-0.4892015494687456	-4.956455527215923e-24
-0.4891405143124956	-4.6362244765569465e-24
-0.4890794791562456	-4.312925146820765e-24
-0.4890184439999956	-3.986775259649769e-24
-0.4889574088437456	-3.657997191833187e-24
-0.4888963736874956	-3.326817669917157e-24
-0.4888353385312456	-2.993458481514084e-24
-0.4887743033749956	-2.6581458219868346e-24
-0.4887132682187456	-2.3211097235579705e-24
-0.4886522330624956	-1.98257107650493e-24
-0.4885911979062456	-1.64275948329863e-24
-0.4885301627499956	-1.301917392926503e-24
-0.4884691275937456	-9.602769885965248e-25
-0.4884080924374956	-6.1806755741652655e-25
-0.4883470572812456	-2.755184263218302e-25
-0.4882860221249956	6.714369867326242e-26
-0.4882249869687456	4.096780712564386e-25
-0.4881639518124956	7.518417072222875e-25
-0.4881029166562456	1.0934101386361093e-24
-0.4880418814999956	1.4341627081786787e-24
-0.4879808463437456	1.7738578446798444e-24
-0.4879198111874956	2.1122467010385315e-24
-0.4878587760312456	2.4491064449886522e-24
-0.4877977408749956	2.784226472635945e-24
-0.4877367057187456	3.117375242084219e-24
-0.4876756705624956	3.4483090996749726e-24
-0.4876146354062456	3.776800142392119e-24
-0.4875536002499956	4.1026350995706255e-24
-0.4874925650937456	4.425593886140016e-24
-0.4874315299374956	4.745448875164993e-24
-0.4873704947812456	5.061977975755364e-24
-0.4873094596249956	5.374968740752695e-24
-0.4872484244687456	5.68421522778339e-24
-0.4871873893124956	5.989503296765334e-24
-0.4871263541562456	6.290611852378554e-24
-0.4870653189999956	6.587337933939139e-24
-0.4870042838437456	6.879489599744438e-24
-0.4869432486874956	7.166861958282382e-24
-0.4868822135312456	7.44924897547577e-24
-0.4868211783749956	7.726462048474426e-24
-0.4867601432187456	7.998320360150032e-24
-0.4866991080624956	8.264635663102787e-24
-0.4866380729062456	8.525217057451428e-24
-0.4865770377499956	8.77988489610415e-24
-0.4865160025937456	9.028467906077293e-24
-0.4864549674374956	9.270794939616162e-24
-0.4863939322812456	9.506701007495917e-24
-0.4863328971249956	9.736026263161794e-24
-0.4862718619687456	9.958613041436717e-24
-0.4862108268124956	1.0174308875832233e-23
-0.4861497916562456	1.0382960346385955e-23
-0.4860887564999956	1.0584419972974052e-23
-0.4860277213437456	1.0778556093747641e-23
-0.4859666861874956	1.0965238744003743e-23
-0.4859056510312456	1.1144334905341016e-23
-0.4858446158749956	1.1315720115974563e-23
-0.4857835807187456	1.1479279459412726e-23
-0.4857225455624956	1.1634900564614818e-23
-0.4856615104062456	1.178247268696535e-23
-0.4856004752499956	1.1921893242861405e-23
-0.4855394400937456	1.2053069742378174e-23
-0.4854784049374956	1.2175912108998257e-23
-0.4854173697812456	1.2290331170201005e-23
-0.4853563346249956	1.2396248788226019e-23
-0.4852952994687456	1.2493596279201227e-23
-0.4852342643124956	1.2582305002165124e-23
-0.4851732291562456	1.2662310771689071e-23
-0.4851121939999956	1.2733558562175732e-23
-0.4850511588437456	1.2795999312656631e-23
-0.4849901236874956	1.2849589408928846e-23
-0.4849290885312456	1.2894291976623376e-23
-0.4848680533749956	1.2930076274226846e-23
-0.4848070182187456	1.2956917373260971e-23
-0.4847459830624956	1.2974795994414963e-23
-0.4846849479062456	1.2983699114071897e-23
-0.4846239127499956	1.2983620562466277e-23
-0.4845628775937456	1.2974559428982943e-23
-0.4845018424374956	1.2956520840491773e-23
-0.4844408072812456	1.2929517609604877e-23
-0.4843797721249956	1.289356951060815e-23
-0.4843187369687456	1.2848700939556608e-23
-0.4842577018124956	1.2794938991996974e-23
-0.4841966666562456	1.273231943361082e-23
-0.4841356314999956	1.2660889966681487e-23
-0.4840745963437456	1.2580701654234532e-23
-0.4840135611874956	1.2491805040386125e-23
-0.4839525260312456	1.2394256417975196e-23
-0.4838914908749956	1.2288125842044165e-23
-0.4838304557187456	1.2173492556787305e-23
-0.4837694205624956	1.2050432412863937e-23
-0.4837083854062456	1.1919025024960785e-23
-0.4836473502499956	1.1779364227143075e-23
-0.4835863150937456	1.1631548741080238e-23
-0.4835252799374956	1.1475676484131594e-23
-0.4834642447812456	1.131185326732391e-23
-0.4834032096249956	1.1140196985746926e-23
-0.4833421744687456	1.0960827337725253e-23
-0.4832811393124956	1.0773861638683181e-23
-0.4832201041562456	1.0579429571822959e-23
-0.4831590689999956	1.0377672095145079e-23
-0.4830980338437456	1.016872357980573e-23
-0.4830369986874956	9.952723367111564e-24
-0.4829759635312456	9.729829101550897e-24
-0.4829149283749956	9.500196995983965e-24
-0.4828538932187456	9.263977630869441e-24
-0.4827928580624956	9.02133549243986e-24
-0.4827318229062456	8.772444063513404e-24
-0.4826707877499956	8.517471382460192e-24
-0.4826097525937456	8.256591694993321e-24
-0.4825487174374956	7.989990810213836e-24
-0.4824876822812456	7.717852166292045e-24
-0.4824266471249956	7.440359170942127e-24
-0.4823656119687456	7.157707958818592e-24
-0.4823045768124956	6.87010188324351e-24
-0.4822435416562456	6.577736712889576e-24
-0.4821825064999956	6.280807268245256e-24
-0.4821214713437456	5.9795177470756246e-24
-0.4820604361874956	5.6740796757689386e-24
-0.4819994010312456	5.364714746680491e-24
-0.4819383658749956	5.051641502405456e-24
-0.4818773307187456	4.735068245780468e-24
-0.4818162955624956	4.4152097583986214e-24
-0.4817552604062456	4.092287192957344e-24
-0.4816942252499956	3.766529010852485e-24
-0.4816331900937456	3.4381703461002096e-24
-0.4815721549374956	3.1074372656736567e-24
-0.4815111197812456	2.7745534154654698e-24
-0.4814500846249956	2.4397531772587665e-24
-0.4813890494687456	2.1032713556947167e-24
-0.4813280143124956	1.7653364093926602e-24
-0.4812669791562456	1.426180889649826e-24
-0.4812059439999956	1.086048202110523e-24
-0.4811449088437456	7.45186175692437e-25
-0.4810838736874956	4.038301482930905e-25
-0.4810228385312456	6.220235492641746e-26
-0.4809618033749956	-2.7946410433770154e-25
-0.4809007682187456	-6.2092188392509645e-25
-0.4808397330624956	-9.619231644594961e-25
-0.4807786979062456	-1.3022243853252547e-24
-0.4807176627499956	-1.6415947547830481e-24
-0.4806566275937456	-1.9798090792496486e-24
-0.4805955924374956	-2.3166290419513484e-24
-0.4805345572812456	-2.6518141589176923e-24
-0.4804735221249956	-2.9851304584707382e-24
-0.4804124869687456	-3.316339880666146e-24
-0.4803514518124956	-3.645206611314506e-24
-0.4802904166562456	-3.97150489982113e-24
-0.4802293814999956	-4.295011652777771e-24
-0.4801683463437456	-4.6155032320308446e-24
-0.4801073111874956	-4.93275413765746e-24
-0.4800462760312456	-5.246534321964076e-24
-0.4799852408749956	-5.556619060226103e-24
-0.4799242057187456	-5.862792736732963e-24
-0.4798631705624956	-6.164844544137665e-24
-0.4798021354062456	-6.462568377202115e-24
-0.4797411002499956	-6.755751727025788e-24
-0.4796800650937456	-7.044181368625733e-24
-0.4796190299374956	-7.327657372413778e-24
-0.4795579947812456	-7.605983917657158e-24
-0.4794969596249956	-7.878963193323128e-24
-0.4794359244687456	-8.146398124984429e-24
-0.4793748893124956	-8.408099868694164e-24
-0.4793138541562456	-8.66388651607574e-24
-0.4792528189999956	-8.913577873802885e-24
-0.4791917838437456	-9.157001651883602e-24
-0.4791307486874956	-9.393986114456808e-24
-0.4790697135312456	-9.624356044556e-24
-0.4790086783749956	-9.847944788232103e-24
-0.4789476432187456	-1.0064597855995493e-23
-0.4788866080624956	-1.0274167070101806e-23
-0.4788255729062456	-1.0476502274390427e-23
-0.4787645377499956	-1.0671454440458245e-23
-0.4787035025937456	-1.0858884015252457e-23
-0.4786424674374956	-1.1038661338196212e-23
-0.4785814322812456	-1.1210661772543285e-23
-0.4785203971249956	-1.1374757459047356e-23
-0.4784593619687456	-1.1530825331553985e-23
-0.4783983268124956	-1.167875956585638e-23
-0.4783372916562456	-1.1818457514064356e-23
-0.4782762564999956	-1.194981231929266e-23
-0.4782152213437456	-1.2072728189241998e-23
-0.4781541861874956	-1.2187120543434687e-23
-0.4780931510312456	-1.2292905811697338e-23
-0.4780321158749956	-1.2390005023512815e-23
-0.4779710807187456	-1.2478348154006992e-23
-0.4779100455624956	-1.2557869596518294e-23
-0.4778490104062456	-1.262850900826697e-23
-0.4777879752499956	-1.2690215187192669e-23
-0.4777269400937456	-1.2742942865943978e-23
-0.4776659049374956	-1.2786650797318929e-23
-0.4776048697812456	-1.2821303885710774e-23
-0.4775438346249956	-1.2846875109390124e-23
-0.4774827994687456	-1.2863344210852925e-23
-0.4774217643124956	-1.2870695603080573e-23
-0.4773607291562456	-1.2868919870754091e-23
-0.4772996939999956	-1.2858014570809997e-23
-0.4772386588437456	-1.2837984608811681e-23
-0.4771776236874956	-1.2808841906690511e-23
-0.4771165885312456	-1.2770602836512997e-23
-0.4770555533749956	-1.2723288334706124e-23
-0.4769945182187456	-1.2666927097146978e-23
-0.4769334830624956	-1.2601557981955348e-23
-0.4768724479062456	-1.2527225430295519e-23
-0.4768114127499956	-1.2443975245663103e-23
-0.4767503775937456	-1.2351860319102562e-23
-0.4766893424374956	-1.2250943273176191e-23
-0.4766283072812456	-1.2141291726804775e-23
-0.4765672721249956	-1.2022977897503158e-23
-0.4765062369687456	-1.1896082782561584e-23
-0.4764452018124956	-1.176069292946052e-23
-0.4763841666562456	-1.1616896067811298e-23
-0.4763231314999956	-1.1464788506115165e-23
-0.4762620963437456	-1.1304477840036826e-23
-0.4762010611874956	-1.1136074608291487e-23
-0.4761400260312456	-1.0959690512139167e-23
-0.4760789908749956	-1.0775443951083026e-23
-0.4760179557187456	-1.058346123457865e-23
-0.4759569205624956	-1.0383874730253167e-23
-0.4758958854062456	-1.017682069178437e-23
-0.4758348502499956	-9.962440692830729e-24
-0.4757738150937456	-9.740886135800871e-24
-0.4757127799374956	-9.512310940384557e-24
-0.4756517447812456	-9.276866319030475e-24
-0.4755907096249956	-9.034709575190434e-24
-0.4755296744687456	-8.786010525784585e-24
-0.4754686393124956	-8.530947771655987e-24
-0.4754076041562456	-8.269698689863135e-24
-0.4753465689999956	-8.002439458421233e-24
-0.4752855338437456	-7.729350347476241e-24
-0.4752244986874956	-7.450618237520362e-24
-0.4751634635312456	-7.166442470612682e-24
-0.4751024283749956	-6.87702758209031e-24
-0.4750413932187456	-6.582570331079131e-24
-0.4749803580624956	-6.283265115389813e-24
-0.4749193229062456	-5.9793178623278e-24
-0.4748582877499956	-5.6709474527904654e-24
-0.4747972525937456	-5.358372457519978e-24
-0.4747362174374956	-5.0418075880282934e-24
-0.4746751822812456	-4.721471776189623e-24
-0.4746141471249956	-4.397587412815536e-24
-0.4745531119687456	-4.070378552723768e-24
-0.4744920768124956	-3.740073540652438e-24
-0.4744310416562456	-3.406903907044009e-24
-0.4743700064999956	-3.0711009545510283e-24
-0.4743089713437456	-2.7328982562656645e-24
-0.4742479361874956	-2.392536851812552e-24
-0.4741869010312456	-2.0502553285236576e-24
-0.4741258658749956	-1.7062861662467126e-24
-0.4740648307187456	-1.3608714501866476e-24
-0.4740037955624956	-1.014259012734075e-24
-0.4739427604062456	-6.666877281698708e-25
-0.4738817252499956	-3.183905565347078e-25
-0.4738206900937456	3.0386232545778744e-26
-0.4737596549374956	3.7938080343600604e-25
-0.4736986197812456	7.283480654590889e-25
-0.4736375846249956	1.0770555007735321e-24
-0.4735765494687456	1.4252588854615374e-24
-0.4735155143124956	1.7727171065420828e-24
-0.4734544791562456	2.119189087904202e-24
-0.4733934439999956	2.4644187574847935e-24
-0.4733324088437456	2.808153194644437e-24
-0.4732713736874956	3.1501605300435084e-24
-0.4732103385312456	3.490212987329031e-24
-0.4731493033749956	3.828066002216969e-24
-0.4730882682187456	4.163471942335541e-24
-0.4730272330624956	4.496196164896679e-24
-0.4729661979062456	4.826011322542269e-24
-0.4729051627499956	5.152684902804089e-24
-0.4728441275937456	5.47597746742676e-24
-0.4727830924374956	5.7956549029208076e-24
-0.4727220572812456	6.11149907952585e-24
-0.4726610221249956	6.4232990100091555e-24
-0.4725999869687456	6.73082886112131e-24
-0.4725389518124956	7.033859524592168e-24
-0.4724779166562456	7.332178101790387e-24
-0.4724168814999956	7.625571795002372e-24
-0.4723558463437456	7.913830859270422e-24
-0.4722948111874956	8.196764029931161e-24
-0.4722337760312456	8.474174410614789e-24
-0.4721727408749956	8.745850156019677e-24
-0.4721117057187456	9.011590833893202e-24
-0.4720506705624956	9.271210772483629e-24
-0.4719896354062456	9.524532098801473e-24
-0.4719286002499956	9.771380170949767e-24
-0.4718675650937456	1.0011572749975841e-23
-0.4718065299374956	1.0244930384510126e-23
-0.4717454947812456	1.0471288747235184e-23
-0.4716844596249956	1.0690489410583247e-23
