Time	Frequency
-0.5000155939062552	6.217138188380028e-24
-0.49995455875000516	5.971104914832727e-24
-0.49989352359375516	5.720187166201716e-24
-0.49983248843750516	5.4645767942326904e-24
-0.49977145328125516	5.204467819278496e-24
-0.49971041812500516	4.9400619495866e-24
-0.49964938296875516	4.671565262036733e-24
-0.49958834781250516	4.399179063645958e-24
-0.49952731265625516	4.12310763043891e-24
-0.49946627750000516	3.8435677701324614e-24
-0.49940524234375516	3.560774941777345e-24
-0.49934420718750516	3.274940278259783e-24
-0.49928317203125516	2.986291337790906e-24
-0.49922213687500516	2.6950605322007392e-24
-0.49916110171875516	2.4014613099934696e-24
-0.49910006656250516	2.105709436913881e-24
-0.49903903140625516	1.808040449528008e-24
-0.49897799625000516	1.5086904240716404e-24
-0.49891696109375516	1.2078868739031533e-24
-0.49885592593750516	9.05857975051105e-25
-0.49879489078125516	6.028396363923106e-25
-0.49873385562500516	2.9907358029376e-25
-0.49867282046875516	-5.204311012300336e-27
-0.49861178531250516	-3.0976671004981015e-25
-0.49855075015625516	-6.14383614045934e-25
-0.49848971500000516	-9.188150561005494e-25
-0.49842867984375516	-1.2228190946761795e-24
-0.49836764468750516	-1.5261591260011667e-24
-0.49830660953125516	-1.828600417468342e-24
-0.49824557437500516	-2.1299105369271287e-24
-0.49818453921875516	-2.4298554169264895e-24
-0.49812350406250516	-2.7281977296617845e-24
-0.49806246890625516	-3.0247085628656623e-24
-0.49800143375000516	-3.319163022513834e-24
-0.49794039859375516	-3.611327475380031e-24
-0.49787936343750516	-3.900968649316237e-24
-0.49781832828125516	-4.1878633625574534e-24
-0.49775729312500516	-4.471791939588908e-24
-0.49769625796875516	-4.7525312573878554e-24
-0.49763522281250516	-5.029857018330286e-24
-0.49757418765625516	-5.3035513762274374e-24
-0.49751315250000516	-5.573405147649527e-24
-0.49745211734375516	-5.839212477848507e-24
-0.49739108218750516	-6.100764963107343e-24
-0.49733004703125516	-6.357850338456356e-24
-0.49726901187500516	-6.610262887283956e-24
-0.49720797671875516	-6.857809656696945e-24
-0.49714694156250516	-7.100297067933784e-24
-0.49708590640625516	-7.337531963488333e-24
-0.49702487125000516	-7.569332147792238e-24
-0.49696383609375516	-7.795517982266976e-24
-0.49690280093750516	-8.015908062288802e-24
-0.49684176578125516	-8.23032314308331e-24
-0.49678073062500516	-8.438591709745871e-24
-0.49671969546875516	-8.640554852597931e-24
-0.49665866031250516	-8.836057409474273e-24
-0.49659762515625516	-9.024941106752338e-24
-0.49653659000000516	-9.20705175851584e-24
-0.49647555484375516	-9.382245437398501e-24
-0.49641451968750516	-9.550387394567657e-24
-0.49635348453125516	-9.711344327334489e-24
-0.49629244937500516	-9.864982133338111e-24
-0.49623141421875516	-1.0011175876467203e-23
-0.49617037906250516	-1.0149813327907305e-23
-0.49610934390625516	-1.0280787199253853e-23
-0.49604830875000516	-1.040398948008852e-23
-0.49598727359375516	-1.051931645473461e-23
-0.49592623843750516	-1.0626674440958459e-23
-0.49586520328125516	-1.0725977656938457e-23
-0.49580416812500516	-1.081714698796299e-23
-0.49574313296875516	-1.0900108436062539e-23
-0.49568209781250516	-1.097479184185704e-23
-0.49562106265625516	-1.1041134769612415e-23
-0.49556002750000516	-1.1099081772706671e-23
-0.49549899234375516	-1.1148582043314797e-23
-0.49543795718750516	-1.118959381444328e-23
-0.49537692203125516	-1.1222083283043634e-23
-0.49531588687500516	-1.1246020189298872e-23
-0.49525485171875516	-1.1261380594083346e-23
-0.49519381656250516	-1.1268148365016773e-23
-0.49513278140625516	-1.1266313706414779e-23
-0.49507174625000516	-1.1255873852925587e-23
-0.49501071109375516	-1.1236832971101235e-23
-0.49494967593750516	-1.1209201525595203e-23
-0.49488864078125516	-1.1172997405383683e-23
-0.49482760562500516	-1.112824470734919e-23
-0.49476657046875516	-1.1074972529989101e-23
-0.49470553531250516	-1.1013216627608588e-23
-0.49464450015625516	-1.0943020788141309e-23
-0.49458346500000516	-1.0864437288606182e-23
-0.49452242984375516	-1.0777523998389846e-23
-0.49446139468750516	-1.0682342863849617e-23
-0.49440035953125516	-1.0578962983916056e-23
-0.49433932437500516	-1.0467460548416106e-23
-0.49427828921875516	-1.0347917764074871e-23
-0.49421725406250516	-1.0220424081849455e-23
-0.49415621890625516	-1.008507412730088e-23
-0.49409518375000516	-9.941968071069464e-24
-0.49403414859375516	-9.791214079790267e-24
-0.49397311343750516	-9.632926330508592e-24
-0.49391207828125516	-9.46722456812668e-24
-0.49385104312500516	-9.294231016190914e-24
-0.49379000796875516	-9.114072363249863e-24
-0.49372897281250516	-8.926889549954156e-24
-0.49366793765625516	-8.732829421597387e-24
-0.49360690250000516	-8.532033855735777e-24
-0.49354586734375516	-8.324650921474762e-24
-0.49348483218750516	-8.110842499525093e-24
-0.49342379703125516	-7.890775058258497e-24
-0.49336276187500516	-7.664612640492082e-24
-0.49330172671875516	-7.432523127649962e-24
-0.49324069156250516	-7.194685395306623e-24
-0.49317965640625516	-6.951286074339696e-24
-0.49311862125000516	-6.702512988443146e-24
-0.49305758609375516	-6.448550689332707e-24
-0.49299655093750516	-6.189588764302357e-24
-0.49293551578125516	-5.925830536341107e-24
-0.49287448062500516	-5.65748191683675e-24
-0.49281344546875516	-5.384746929646387e-24
-0.49275241031250516	-5.107833450185632e-24
-0.49269137515625516	-4.8269528631267656e-24
-0.49263034000000516	-4.542320179481352e-24
-0.49256930484375516	-4.254153842327916e-24
-0.49250826968750516	-3.962678111250121e-24
-0.49244723453125516	-3.668121081899132e-24
-0.49238619937500516	-3.370706933875786e-24
-0.49232516421875516	-3.0706610505608918e-24
-0.49226412906250516	-2.7682118185336766e-24
-0.49220309390625516	-2.4635903673438686e-24
-0.49214205875000516	-2.157040292584532e-24
-0.49208102359375516	-1.8488053889850385e-24
-0.49201998843750516	-1.539114979060159e-24
-0.49195895328125516	-1.2281986667824464e-24
-0.49189791812500516	-9.163008728993344e-25
-0.49183688296875516	-6.036701515299718e-25
-0.49177584781250516	-2.9054598052023213e-25
-0.49171481265625516	2.2830409021122569e-26
-0.49165377750000516	3.3621707600219554e-25
-0.49159274234375516	6.493786346100228e-25
-0.49153170718750516	9.620683588164764e-25
-0.49147067203125516	1.2740339718070977e-24
-0.49140963687500516	1.5850389858064843e-24
-0.49134860171875516	1.8948533095913504e-24
-0.49128756656250516	2.203235647339608e-24
-0.49122653140625516	2.509935866787344e-24
-0.49116549625000516	2.814712494863636e-24
-0.49110446109375516	3.1173371088029404e-24
-0.49104342593750516	3.417581726388451e-24
-0.49098239078125516	3.7152124271655895e-24
-0.49092135562500516	4.0099944956117534e-24
-0.49086032046875516	4.301694741339421e-24
-0.49079928531250516	4.590082542633699e-24
-0.49073825015625516	4.874938423062296e-24
-0.49067721500000516	5.156049762085702e-24
-0.49061617984375516	5.433198053337836e-24
-0.49055514468750516	5.706160458781052e-24
-0.49049410953125516	5.9747194116301624e-24
-0.49043307437500516	6.2386707932628945e-24
-0.49037203921875516	6.4978173800800114e-24
-0.49031100406250516	6.751954845638003e-24
-0.49024996890625516	7.000877230802121e-24
-0.49018893375000516	7.24439214884223e-24
-0.49012789859375516	7.482318288008181e-24
-0.49006686343750516	7.714469056175287e-24
-0.49000582828125516	7.940654473030014e-24
-0.48994479312500516	8.160699453216339e-24
-0.48988375796875516	8.374441101842511e-24
-0.48982272281250516	8.581714110736736e-24
-0.48976168765625516	8.782353131837338e-24
-0.48970065250000516	8.976198191674091e-24
-0.48963961734375516	9.16309508515403e-24
-0.48957858218750516	9.342900401194115e-24
-0.48951754703125516	9.515479919411841e-24
-0.48945651187500516	9.680700062916745e-24
-0.48939547671875516	9.838429004866143e-24
-0.48933444156250516	9.988540917270406e-24
-0.48927340640625516	1.0130916993843789e-23
-0.48921237125000516	1.0265448459039706e-23
-0.48915133609375516	1.0392032011868821e-23
-0.48909030093750516	1.051056668469079e-23
-0.48902926578125516	1.0620961712165306e-23
-0.48896823062500516	1.07231337018301e-23
-0.48890719546875516	1.0816999961016615e-23
-0.48884616031250516	1.0902483641579127e-23
-0.48878512515625516	1.0979518631842653e-23
-0.48872409000000516	1.1048047990176825e-23
-0.48866305484375516	1.1108018960311217e-23
-0.48860201968750516	1.1159382821214353e-23
-0.48854098453125516	1.1202099518883655e-23
-0.48847994937500516	1.1236136617168383e-23
-0.48841891421875516	1.1261467213076835e-23
-0.48835787906250516	1.1278071208802562e-23
-0.48829684390625516	1.128593571878876e-23
-0.48823580875000516	1.1285054922221032e-23
-0.48817477359375516	1.1275429461125709e-23
-0.48811373843750516	1.1257067038944453e-23
-0.48805270328125516	1.1229982506728598e-23
-0.48799166812500516	1.119419719636245e-23
-0.48793063296875516	1.1149740928250511e-23
-0.48786959781250516	1.1096649723892704e-23
-0.48780856265625516	1.1034962556778427e-23
-0.48774752750000516	1.0964725598903598e-23
-0.48768649234375516	1.0885995137946106e-23
-0.48762545718750516	1.0798836086611118e-23
-0.48756442203125516	1.070331933511526e-23
-0.48750338687500516	1.059951904111524e-23
-0.48744235171875516	1.048751467721143e-23
-0.48738131656250516	1.0367393737141715e-23
-0.48732028140625516	1.0239251063843803e-23
-0.48725924625000516	1.0103188504417051e-23
-0.48719821109375516	9.95931352295013e-24
-0.48713717593750516	9.807739323359645e-24
-0.48707614078125516	9.64858675617088e-24
-0.48701510562500516	9.481982028032527e-24
-0.48695407046875516	9.308054431045628e-24
-0.48689303531250516	9.126939539729837e-24
-0.48683200015625516	8.93878164454291e-24
-0.48677096500000516	8.74373015533821e-24
-0.48670992984375516	8.541936889355168e-24
-0.48664889468750516	8.333561155922693e-24
-0.48658785953125516	8.118773702139276e-24
-0.48652682437500516	7.897745318485387e-24
-0.48646578921875516	7.670639815514981e-24
-0.48640475406250516	7.437631038366647e-24
-0.48634371890625516	7.19891091133144e-24
-0.48628268375000516	6.954676914611429e-24
-0.48622164859375516	6.70512339258001e-24
-0.48616061343750516	6.450440141023939e-24
-0.48609957828125516	6.19082233684804e-24
-0.48603854312500516	5.926477591015716e-24
-0.48597750796875516	5.657615857002434e-24
-0.48591647281250516	5.384449016464686e-24
-0.48585543765625516	5.1071985355094824e-24
-0.48579440250000516	4.826086796185209e-24
-0.48573336734375516	4.5413298285803875e-24
-0.48567233218750516	4.25314977159082e-24
-0.48561129703125516	3.961780276386523e-24
-0.48555026187500516	3.667452184666021e-24
-0.48548922671875516	3.370391233529893e-24
-0.48542819156250516	3.0708332917209553e-24
-0.48536715640625516	2.769022539904384e-24
-0.48530612125000516	2.4651984985566296e-24
-0.48524508609375516	2.1596001704951712e-24
-0.48518405093750516	1.8524698592278743e-24
-0.48512301578125516	1.5440501890923644e-24
-0.48506198062500516	1.2345828850494104e-24
-0.48500094546875516	9.243094005650725e-25
-0.48493991031250516	6.134799455911943e-25
-0.48487887515625516	3.0234905112481136e-25
-0.48481784000000516	-8.836745663398266e-27
-0.48475680484375516	-3.198370275517331e-25
-0.48469576968750516	-6.304116772205424e-25
-0.48463473453125516	-9.403099636930274e-25
-0.48457369937500516	-1.2492766309863994e-24
-0.48451266421875516	-1.5570683458289512e-24
-0.48445162906250516	-1.863445719113186e-24
-0.48439059390625516	-2.1681667181747874e-24
-0.48432955875000516	-2.470989630811581e-24
-0.48426852359375516	-2.7716703685621466e-24
-0.48420748843750516	-3.0699654737318767e-24
-0.48414645328125516	-3.3656396116272266e-24
-0.48408541812500516	-3.658462245682259e-24
-0.48402438296875516	-3.948201266391218e-24
-0.48396334781250516	-4.2346249201554946e-24
-0.48390231265625516	-4.5175027951946176e-24
-0.48384127750000516	-4.796607565076302e-24
-0.48378024234375516	-5.0717178430540674e-24
-0.48371920718750516	-5.342616929511107e-24
-0.48365817203125516	-5.609089254227093e-24
-0.48359713687500516	-5.870921306346814e-24
-0.48353610171875516	-6.1279070988655805e-24
-0.48347506656250516	-6.3798391562822175e-24
-0.48341403140625516	-6.626509744510367e-24
-0.48335299625000516	-6.86772810498902e-24
-0.48329196109375516	-7.103307324778402e-24
-0.48323092593750516	-7.333053776095133e-24
-0.48316989078125516	-7.556782904892709e-24
-0.48310885562500516	-7.774317438785566e-24
-0.48304782046875516	-7.985481303728694e-24
-0.48298678531250516	-8.190105541127302e-24
-0.48292575015625516	-8.388027075182821e-24
-0.48286471500000516	-8.579089126523967e-24
-0.48280367984375516	-8.763142354253415e-24
-0.48274264468750516	-8.94003854279923e-24
-0.48268160953125516	-9.109629528631767e-24
-0.48262057437500516	-9.271775311113017e-24
-0.48255953921875516	-9.426349651457502e-24
-0.48249850406250516	-9.573234603720748e-24
-0.48243746890625516	-9.712313903839911e-24
-0.48237643375000516	-9.84347300869736e-24
-0.48231539859375516	-9.966601152177157e-24
-0.48225436343750516	-1.008159651099949e-23
-0.48219332828125516	-1.0188370249796974e-23
-0.48213229312500516	-1.0286840746331753e-23
-0.48207125796875516	-1.0376927472685315e-23
-0.48201022281250516	-1.0458554595291543e-23
-0.48194918765625516	-1.0531655437427856e-23
-0.48188815250000516	-1.0596170908396291e-23
-0.48182711734375516	-1.0652048474646883e-23
-0.48176608218750516	-1.0699243371238422e-23
-0.48170504703125516	-1.073771699379488e-23
-0.48164401187500516	-1.0767436648146747e-23
-0.48158297671875516	-1.0788377516746291e-23
-0.48152194156250516	-1.0800521891486929e-23
-0.48146090640625516	-1.0803858859718424e-23
-0.48139987125000516	-1.0798384565488474e-23
-0.48133883609375516	-1.078410211758583e-23
-0.48127780093750516	-1.0761022040506855e-23
-0.48121676578125516	-1.0729161832223873e-23
-0.48115573062500516	-1.0688545124491143e-23
-0.48109469546875516	-1.063920260575895e-23
-0.48103366031250516	-1.0581174438403723e-23
-0.48097262515625516	-1.0514506611234991e-23
-0.48091159000000516	-1.0439247923627819e-23
-0.48085055484375516	-1.0355456832126821e-23
-0.48078951968750516	-1.0263203117892057e-23
-0.48072848453125516	-1.0162561000120456e-23
-0.48066744937500516	-1.0053606439377397e-23
-0.48060641421875516	-9.936422851905359e-24
-0.48054537906250516	-9.811105021822738e-24
-0.48048434390625516	-9.67775394485459e-24
-0.48042330875000516	-9.53647615079141e-24
-0.48036227359375516	-9.387384243635702e-24
-0.48030123843750516	-9.230592969699408e-24
-0.48024020328125516	-9.066225230302823e-24
-0.48017916812500516	-8.894416043339577e-24
-0.48011813296875516	-8.71530329611429e-24
-0.48005709781250516	-8.529025972422901e-24
-0.47999606265625516	-8.335732469212108e-24
-0.47993502750000516	-8.135581029583258e-24
-0.47987399234375516	-7.928731042755819e-24
-0.47981295718750516	-7.71534039197571e-24
-0.47975192203125516	-7.495577379903706e-24
-0.47969088687500516	-7.269626206283013e-24
-0.47962985171875516	-7.037673498666048e-24
-0.47956881656250516	-6.799900352200717e-24
-0.47950778140625516	-6.556489274399367e-24
-0.47944674625000516	-6.307632396720634e-24
-0.47938571109375516	-6.053530678169742e-24
-0.47932467593750516	-5.794391660315363e-24
-0.47926364078125516	-5.530429791734264e-24
-0.47920260562500516	-5.261857592742972e-24
-0.47914157046875516	-4.98888366782965e-24
-0.47908053531250516	-4.711720107522974e-24
-0.47901950015625516	-4.430587208468284e-24
-0.47895846500000516	-4.145717176722317e-24
-0.47889742984375516	-3.857344331947344e-24
-0.47883639468750516	-3.5657006078395814e-24
-0.47877535953125516	-3.2710204344663755e-24
-0.47871432437500516	-2.973535229026243e-24
-0.47865328921875516	-2.6734792142075114e-24
-0.47859225406250516	-2.3710961529622412e-24
-0.47853121890625516	-2.0666331583258774e-24
-0.47847018375000516	-1.7603393968463888e-24
-0.47840914859375516	-1.4524598266815863e-24
-0.47834811343750516	-1.1432367696548904e-24
-0.47828707828125516	-8.329210455467926e-25
-0.47822604312500516	-5.217647065632492e-25
-0.47816500796875516	-2.100183480425931e-25
-0.47810397281250516	1.0206203494988418e-25
-0.47804293765625516	4.142244279342345e-25
-0.47798190250000516	7.262269057045804e-25
-0.47792086734375516	1.0378212088334078e-24
-0.47785983218750516	1.3487447112800449e-24
-0.47779879703125516	1.6587358103297517e-24
-0.47773776187500516	1.967546898372417e-24
-0.47767672671875516	2.27494003856421e-24
-0.47761569156250516	2.5806707094990696e-24
-0.47755465640625516	2.8844850773327503e-24
-0.47749362125000516	3.1861311093943664e-24
-0.47743258609375516	3.485361617346962e-24
-0.47737155093750516	3.781936254022663e-24
-0.47731051578125516	4.075618580395627e-24
-0.47724948062500516	4.366169449607243e-24
-0.47718844546875516	4.653351287258357e-24
-0.47712741031250516	4.936931489303764e-24
-0.47706637515625516	5.216678996214931e-24
-0.47700534000000516	5.492362411957629e-24
-0.47694430484375516	5.7637557666582504e-24
-0.47688326968750516	6.030640049089554e-24
-0.47682223453125516	6.292799492133971e-24
-0.47676119937500516	6.5500238983513395e-24
-0.47670016421875516	6.802100881607317e-24
-0.47663912906250516	7.04881507401414e-24
-0.47657809390625516	7.28996541195979e-24
-0.47651705875000516	7.525359220539513e-24
-0.47645602359375516	7.754801362481211e-24
-0.47639498843750516	7.978106144790789e-24
-0.47633395328125516	8.195093454589161e-24
-0.47627291812500516	8.405579910057604e-24
-0.47621188296875516	8.60938863149429e-24
-0.47615084781250516	8.806350635819443e-24
-0.47608981265625516	8.996303874286469e-24
-0.47602877750000516	9.179093836557584e-24
-0.47596774234375516	9.354569126199565e-24
-0.47590670718750516	9.522583775315694e-24
-0.47584567203125516	9.68299796980443e-24
-0.47578463687500516	9.83567646645778e-24
-0.47572360171875516	9.980490494803946e-24
-0.47566256656250516	1.011731767152117e-23
-0.47560153140625516	1.0246042697658796e-23
-0.47554049625000516	1.0366558812124456e-23
-0.47547946109375516	1.047876555903945e-23
-0.47541842593750516	1.0582566144269103e-23
-0.47535739078125516	1.067786942357475e-23
-0.47529635562500516	1.076459278201138e-23
-0.47523532046875516	1.0842662541189546e-23
-0.47517428531250516	1.0912011917079944e-23
-0.47511325015625516	1.0972577846792334e-23
-0.47505221500000516	1.102430434011228e-23
-0.47499117984375516	1.1067145681375585e-23
-0.47493014468750516	1.1101062475245935e-23
-0.47486910953125516	1.1126020974852431e-23
-0.47480807437500516	1.1141995028205864e-23
-0.47474703921875516	1.1148965913777858e-23
-0.47468600406250516	1.1146921985616402e-23
-0.47462496890625516	1.1135858634512161e-23
-0.47456393375000516	1.1115779473681153e-23
-0.47450289859375516	1.1086695701978312e-23
-0.47444186343750516	1.10486243286768e-23
-0.47438082828125516	1.1001589743654647e-23
-0.47431979312500516	1.0945623861554649e-23
-0.47425875796875516	1.0880765333704397e-23
-0.47419772281250516	1.0807060237997035e-23
-0.47413668765625516	1.0724562187220613e-23
-0.47407565250000516	1.0633333293302924e-23
-0.47401461734375516	1.0533440865387813e-23
-0.47395358218750516	1.0424957273066038e-23
-0.47389254703125516	1.030796641551108e-23
-0.47383151187500516	1.0182558418273543e-23
-0.47377047671875516	1.0048823944343684e-23
-0.47370944156250516	9.906863750884429e-24
-0.47364840640625516	9.756789718138406e-24
-0.47358737125000516	9.598716477274866e-24
-0.47352633609375516	9.432766881857835e-24
-0.47346530093750516	9.259072917165132e-24
-0.47340426578125516	9.077765111211944e-24
-0.47334323062500516	8.888978127254986e-24
-0.47328219546875516	8.692861383927532e-24
-0.47322116031250516	8.489572004802128e-24
-0.47316012515625516	8.279266890222486e-24
-0.47309909000000516	8.062107408617535e-24
-0.47303805484375516	7.838264905089451e-24
-0.47297701968750516	7.607918886706982e-24
-0.47291598453125516	7.371248122603438e-24
-0.47285494937500516	7.128433835725965e-24
-0.47279391421875516	6.879669360276654e-24
-0.47273287906250516	6.62514862304272e-24
-0.47267184390625516	6.365067764610537e-24
-0.47261080875000516	6.0996398386288104e-24
-0.47254977359375516	5.8290802751035056e-24
-0.47248873843750516	5.553594917647754e-24
-0.47242770328125516	5.273396890222108e-24
-0.47236666812500516	4.988712884350597e-24
-0.47230563296875516	4.699766890405444e-24
-0.47224459781250516	4.4067824037047216e-24
