Time	Frequency
-0.5000228860312532	0.49684269726656227
-0.4999618508750032	0.4940395070599462
-0.4999008157187532	0.4911635151958681
-0.4998397805625032	0.4882261130776454
-0.4997787454062532	0.48525032541126656
-0.4997177102500032	0.4822557543325591
-0.4996566750937532	0.4792470756097757
-0.4995956399375032	0.47621280018509604
-0.4995346047812532	0.4731338662668301
-0.4994735696250032	0.4699957787639021
-0.4994125344687532	0.46679685191591413
-0.4993514993125032	0.46354820895884385
-0.4992904641562532	0.46026632296919867
-0.4992294290000032	0.45696316463128817
-0.4991683938437532	0.4536398510915261
-0.4991073586875032	0.45028698961888186
-0.4990463235312532	0.44689087162382224
-0.4989852883750032	0.44344165799841134
-0.4989242532187532	0.4399389733430941
-0.4988632180625032	0.43639195362419597
-0.4988021829062532	0.4328139017158389
-0.4987411477500032	0.4292146714689565
-0.4986801125937532	0.425595067010274
-0.4986190774375032	0.42194641661718385
-0.4985580422812532	0.41825574049531705
-0.4984970071250032	0.41451375644596117
-0.4984359719687532	0.4107210268452146
-0.4983749368125032	0.40688825276664264
-0.4983139016562532	0.403030055334925
-0.4982528665000032	0.39915584773906737
-0.4981918313437532	0.39526364939961883
-0.4981307961875032	0.3913410350766687
-0.4980697610312532	0.3873729872896482
-0.4980087258750032	0.38335198382006147
-0.4979476907187532	0.37928377368448324
-0.4978866555625032	0.37518452878809483
-0.4978256204062532	0.3710705898358367
-0.4977645852500032	0.36694742435434585
-0.4977035500937532	0.3628055134018459
-0.4976425149375032	0.35862639396419244
-0.4975814797812532	0.354395167365455
-0.4975204446250032	0.3501111399051843
-0.4974594094687532	0.34578917468112913
-0.4973983743125032	0.3414504701438295
-0.4973373391562532	0.33710857228894214
-0.4972763040000032	0.33275989295801395
-0.4972152688437532	0.32838559096769837
-0.4971542336875032	0.3239641934337209
-0.4970931985312532	0.3194865779463782
-0.4970321633750032	0.3149629127097223
-0.4969711282187532	0.3104165401798801
-0.4969100930625032	0.3058686447384283
-0.4968490579062532	0.30132394442931537
-0.4967880227500032	0.2967673286125336
-0.4967269875937532	0.29217403729183117
-0.4966659524375032	0.2875265663991212
-0.4966049172812532	0.2828268350469841
-0.4965438821250032	0.27809535732783847
-0.4964828469687532	0.2733578347367769
-0.4964218118125032	0.2686281017233976
-0.4963607766562532	0.26389903153849703
-0.4962997415000032	0.2591476415657141
-0.4962387063437532	0.2543508931745241
-0.4961776711875032	0.24950141521217728
-0.4961166360312532	0.24461254011349043
-0.4960556008750032	0.2397093376617776
-0.4959945657187532	0.23481180497506215
-0.4959335305625032	0.2299217899746746
-0.4958724954062532	0.22502250066788382
-0.4958114602500032	0.2200905629640243
-0.4957504250937532	0.21511218581037594
-0.4956893899375032	0.21009240791038444
-0.4956283547812532	0.20505129188350416
-0.4955673196250032	0.20001013742032095
-0.4955062844687532	0.19497742254893416
-0.4954452493125032	0.18994387561489587
-0.4953842141562532	0.18488969294593974
-0.4953231790000032	0.17979863826056783
-0.4952621438437532	0.17466922044687969
-0.4952011086875032	0.16951542283151166
-0.4951400735312532	0.1643567891063956
-0.4950790383750032	0.1592050734738646
-0.4950180032187532	0.15405679939799713
-0.4949569680625032	0.14889658638594855
-0.4948959329062532	0.14370855169968716
-0.4948348977500032	0.13848758320357907
-0.4947738625937532	0.13324265067739116
-0.4947128274375032	0.12799031101072475
-0.4946517922812532	0.12274336746750608
-0.4945907571250032	0.11750252031627854
-0.4945297219687532	0.11225655277068088
-0.4944686868125032	0.10699077800674313
-0.4944076516562532	0.10169767721529728
-0.4943466165000032	0.09638215611839286
-0.4942855813437532	0.09105798208143523
-0.4942245461875032	0.08573827194221144
-0.4941635110312532	0.08042676499111148
-0.4941024758750032	0.07511584030043894
-0.4940414407187532	0.06979246337921474
-0.4939804055625032	0.06444768480947179
-0.4939193704062532	0.05908301566586415
-0.4938583352500032	0.05370937625126704
-0.4937973000937532	0.04833952747053779
-0.4937362649375032	0.04297949287082747
-0.4936752297812532	0.03762497342538303
-0.4936141946250032	0.032265001825202956
-0.4935531594687532	0.026890068613366992
-0.4934921243125032	0.021498873200766815
-0.4934310891562532	0.016099087458190286
-0.4933700540000032	0.010702028401248688
-0.4933090188437532	0.00531511824457315
-0.4932479836875032	-6.275196453897894e-05
-0.4931869485312532	-0.005439796417282231
-0.4931259133750032	-0.010824994634552458
-0.4930648782187532	-0.016221530237510856
-0.4930038430625032	-0.02162459233740904
-0.4929428079062532	-0.027024804103728386
-0.4928817727500032	-0.032414617987365196
-0.4928207375937532	-0.03779308814580199
-0.4927597024375032	-0.043165848999508115
-0.4926986672812532	-0.04854063267793948
-0.4926376321250032	-0.053921553333019095
-0.4925765969687532	-0.059306071066380285
-0.4925155618125032	-0.06468670453892175
-0.4924545266562532	-0.07005616741631934
-0.4923934915000032	-0.07541216391951883
-0.4923324563437532	-0.08075847373128411
-0.4922714211875032	-0.0861017237148565
-0.4922103860312532	-0.09144632187171238
-0.4921493508750032	-0.09679119562001107
-0.4920883157187532	-0.10213046721280894
-0.4920272805625032	-0.10745734435390188
-0.4919662454062532	-0.11276848505985772
-0.4919052102500032	-0.11806594010726457
-0.4918441750937532	-0.12335530849243888
-0.4917831399375032	-0.12864144192677335
-0.4917221047812532	-0.13392483419394516
-0.4916610696250032	-0.1392010575184823
-0.4916000344687532	-0.14446354101914
-0.4915389993125032	-0.14970784158548678
-0.4914779641562532	-0.15493437024390688
-0.4914169290000032	-0.16014774588329894
-0.4913558938437532	-0.16535334964693474
-0.4912948586875032	-0.17055334616163456
-0.4912338235312532	-0.17574489074439548
-0.4911727883750032	-0.18092182564157147
-0.4911117532187532	-0.18607859587703288
-0.4910507180625032	-0.1912136286494938
-0.4909896829062532	-0.19632997679002348
-0.4909286477500032	-0.2014329467628706
-0.4908676125937532	-0.20652638988111596
-0.4908065774375032	-0.21160999097966454
-0.4907455422812532	-0.21667918460101546
-0.4906845071250032	-0.22172785317598134
-0.4906234719687532	-0.22675206635980377
-0.4905624368125032	-0.23175230743115527
-0.4905014016562532	-0.2367328055754857
-0.4904403665000032	-0.24169849500597435
-0.4903793313437532	-0.2466515716725209
-0.4903182961875032	-0.25158987764874785
-0.4902572610312532	-0.2565080930598771
-0.4901962258750032	-0.261400874692813
-0.4901351907187532	-0.26626597281577397
-0.4900741555625032	-0.2711054131566125
-0.4900131204062532	-0.27592387562769205
-0.4899520852500032	-0.28072529402526103
-0.4898910500937532	-0.28551008052229854
-0.4898300149375032	-0.29027476550200493
-0.4897689797812532	-0.29501409026607006
-0.4897079446250032	-0.29972414682574566
-0.4896469094687532	-0.30440458495657835
-0.4895858743125032	-0.30905847281726984
-0.4895248391562532	-0.3136899278736273
-0.4894638040000032	-0.3183011506610302
-0.4894027688437532	-0.3228908369255979
-0.4893417336875032	-0.32745492408608595
-0.4892806985312532	-0.33198905208645346
-0.4892196633750032	-0.33649109277301215
-0.4891586282187532	-0.34096220167095836
-0.4890975930625032	-0.34540576735459255
-0.4890365579062532	-0.34982488922947763
-0.4889755227500032	-0.35422006078265655
-0.4889144875937532	-0.35858867571921244
-0.4888534524375032	-0.3629266260648678
-0.4887924172812532	-0.3672308010033293
-0.4887313821250032	-0.37150083804277684
-0.4886703469687532	-0.375739070722243
-0.4886093118125032	-0.3799487099611132
-0.4885482766562532	-0.38413140580462035
-0.4884872415000032	-0.3882858778166024
-0.4884262063437532	-0.39240859776084747
-0.4883651711875032	-0.39649599180347034
-0.4883041360312532	-0.4005466182789814
-0.4882431008750032	-0.40456189033457784
-0.4881820657187532	-0.40854486631430664
-0.4881210305625032	-0.41249789115973906
-0.4880599954062532	-0.4164207294725939
-0.4879989602500032	-0.42031052657054635
-0.4879379250937532	-0.4241635997414748
-0.4878768899375032	-0.42797775415591816
-0.4878158547812532	-0.4317534833851429
-0.4877548196250032	-0.4354932948155436
-0.4876937844687532	-0.43919976762231994
-0.4876327493125032	-0.4428736838452878
-0.4875717141562532	-0.44651336056927543
-0.4875106790000032	-0.45011554178639995
-0.4874496438437532	-0.4536773163811108
-0.4873886086875032	-0.4571979021535243
-0.4873275735312532	-0.4606790507357677
-0.4872665383750032	-0.4641236387663989
-0.4872055032187532	-0.46753344561538107
-0.4871444680625032	-0.47090774433379207
-0.4870834329062532	-0.4742435906154166
-0.4870223977500032	-0.477537575318349
-0.4869613625937532	-0.48078793336830006
-0.4869003274375032	-0.48399558631649986
-0.4868392922812532	-0.48716337219128086
-0.4867782571250032	-0.4902939629097076
-0.4867172219687532	-0.49338785329576573
-0.4866561868125032	-0.49644278957279653
-0.4865951516562532	-0.49945506994993405
-0.4865341165000032	-0.5024218407090331
-0.4864730813437532	-0.505342840358244
-0.4864120461875032	-0.5082204786429603
-0.4863510110312532	-0.5110581363963924
-0.4862899758750032	-0.5138577017367436
-0.4862289407187532	-0.5166180310087055
-0.4861679055625032	-0.5193354512103275
-0.4861068704062532	-0.5220060465516233
-0.4860458352500032	-0.5246282317190137
-0.4859848000937532	-0.5272037792760165
-0.4859237649375032	-0.5297365246380283
-0.4858627297812532	-0.5322295939552384
-0.4858016946250032	-0.5346830124872446
-0.4857406594687532	-0.5370934078678461
-0.4856796243125032	-0.5394561350259245
-0.4856185891562532	-0.5417683741755857
-0.4855575540000032	-0.5440310106515516
-0.4854965188437532	-0.5462479630968811
-0.4854354836875032	-0.5484233750582971
-0.4853744485312532	-0.5505585629685871
-0.4853134133750032	-0.5526508676567502
-0.4852523782187532	-0.5546952974910504
-0.4851913430625032	-0.5566878638360128
-0.4851303079062532	-0.5586282643995387
-0.4850692727500032	-0.5605200353766326
-0.4850082375937532	-0.5623680280295564
-0.4849472024375032	-0.5641748922065142
-0.4848861672812532	-0.5659390524631636
-0.4848251321250032	-0.5676556754944425
-0.4847640969687532	-0.5693199454736071
-0.4847030618125032	-0.5709303046805833
-0.4846420266562532	-0.5724893880730906
-0.4845809915000032	-0.5740020627329169
-0.4845199563437532	-0.5754719832361918
-0.4844589211875032	-0.5768990230435344
-0.4843978860312532	-0.5782793034883681
-0.4843368508750032	-0.5796077568653115
-0.4842758157187532	-0.5808814679750566
-0.4842147805625032	-0.5821015478114402
-0.4841537454062532	-0.5832722890487355
-0.4840927102500032	-0.5843981939927936
-0.4840316750937532	-0.5854808684170673
-0.4839706399375032	-0.586517848056866
-0.4839096047812532	-0.5875041797749097
-0.4838485696250032	-0.5884357196057386
-0.4837875344687532	-0.5893118811850688
-0.4837264993125032	-0.5901359557247076
-0.4836654641562532	-0.5909128141189863
-0.4836044290000032	-0.591645546522314
-0.4835433938437532	-0.5923333052194902
-0.4834823586875032	-0.5929718257648169
-0.4834213235312532	-0.5935562847319823
-0.4833602883750032	-0.5940845615604536
-0.4832992532187532	-0.5945586640351465
-0.4832382180625032	-0.594983297571351
-0.4831771829062532	-0.5953625543066648
-0.4831161477500032	-0.5956970292450247
-0.4830551125937532	-0.5959833828435578
-0.4829940774375032	-0.5962166785066979
-0.4829330422812532	-0.5963938577259129
-0.4828720071250032	-0.5965158787710461
-0.4828109719687532	-0.5965869754275951
-0.4827499368125032	-0.596611569398628
-0.4826889016562532	-0.5965910948686657
-0.4826278665000032	-0.5965230116884767
-0.4825668313437532	-0.5964026624473793
-0.4825057961875032	-0.5962266380671274
-0.4824447610312532	-0.5959952411012677
-0.4823837258750032	-0.5957122298413727
-0.4823226907187532	-0.595382017113755
-0.4822616555625032	-0.5950064231585642
-0.4822006204062532	-0.5945833975896272
-0.4821395852500032	-0.5941086110666755
-0.4820785500937532	-0.5935787037083926
-0.4820175149375032	-0.5929937838445475
-0.4819564797812532	-0.592357310637574
-0.4818954446250032	-0.5916734708164734
-0.4818344094687532	-0.5909440662270157
-0.4817733743125032	-0.5901672410751091
-0.4817123391562532	-0.5893389727828475
-0.4816513040000032	-0.5884561918474671
-0.4815902688437532	-0.5875191431219136
-0.4815292336875032	-0.5865311599063091
-0.4814681985312532	-0.5854960717059366
-0.4814071633750032	-0.5844153365071827
-0.4813461282187532	-0.583287107196053
-0.4812850930625032	-0.5821078431827001
-0.4812240579062532	-0.580875115562177
-0.4811630227500032	-0.5795894293972731
-0.4811019875937532	-0.5782537539201491
-0.4810409524375032	-0.5768712382465303
-0.4809799172812532	-0.5754429178228373
-0.4809188821250032	-0.5739671299234993
-0.4808578469687532	-0.5724409965244249
-0.4807968118125032	-0.5708627504146505
-0.4807357766562532	-0.5692330959202494
-0.4806747415000032	-0.5675546306843646
-0.4806137063437532	-0.5658298447847329
-0.4805526711875032	-0.5640592865718835
-0.4804916360312532	-0.5622413564489908
-0.4804306008750032	-0.5603738146815428
-0.4803695657187532	-0.5584556872154228
-0.4803085305625032	-0.5564880582048677
-0.4802474954062532	-0.5544731884886419
-0.4801864602500032	-0.5524127413293959
-0.4801254250937532	-0.5503066220255505
-0.4800643899375032	-0.5481533200075094
-0.4800033547812532	-0.5459513602883704
-0.4799423196250032	-0.5437006364950486
-0.4798812844687532	-0.541402560054771
-0.4798202493125032	-0.5390590073564073
-0.4797592141562532	-0.5366709118449382
-0.4796981790000032	-0.5342375698855358
-0.4796371438437532	-0.5317573349026444
-0.4795761086875032	-0.5292292028124913
-0.4795150735312532	-0.5266539307203519
-0.4794540383750032	-0.5240337005522214
-0.4793930032187532	-0.5213705036336999
-0.4793319680625032	-0.5186645675643053
-0.4792709329062532	-0.5159142071986803
-0.4792098977500032	-0.5131172631616259
-0.4791488625937532	-0.5102730110216969
-0.4790878274375032	-0.5073830802144674
-0.4790267922812532	-0.5044505637710827
-0.4789657571250032	-0.501477830760799
-0.4789047219687532	-0.49846471223146993
-0.4788436868125032	-0.4954085805346286
-0.4787826516562532	-0.4923064124228428
-0.4787216165000032	-0.4891573266363648
-0.4786605813437532	-0.48596360605666095
-0.4785995461875032	-0.48272937525671983
-0.4785385110312532	-0.47945786469303886
-0.4784774758750032	-0.47614916799049745
-0.4784164407187532	-0.4728001108993181
-0.4783554055625032	-0.4694064961000787
-0.4782943704062532	-0.46596632227780094
-0.4782333352500032	-0.46248167818625446
-0.4781723000937532	-0.4589577390320864
-0.4781112649375032	-0.4553993834427845
-0.4780502297812532	-0.45180778710574426
-0.4779891946250032	-0.44817950009807744
-0.4779281594687532	-0.44450884388124257
-0.4778671243125032	-0.4407921102158022
-0.4778060891562532	-0.4370306590585258
-0.4777450540000032	-0.43323055963952634
-0.4776840188437532	-0.42939873027698955
-0.4776229836875032	-0.425538124574717
-0.4775619485312532	-0.4216454317277543
-0.4775009133750032	-0.41771325608683435
-0.4774398782187532	-0.41373556480973556
-0.4773788430625032	-0.4097125284970855
-0.4773178079062532	-0.4056510696234126
-0.4772567727500032	-0.4015604463382531
-0.4771957375937532	-0.3974458146144631
-0.4771347024375032	-0.3933043970932861
-0.4770736672812532	-0.38912725071702287
-0.4770126321250032	-0.3849056936671157
-0.4769515969687532	-0.38063801533305763
-0.4768905618125032	-0.3763315439687032
-0.4768295266562532	-0.3719981044230011
-0.4767684915000032	-0.3676456923266876
-0.4767074563437532	-0.3632724353674458
-0.4766464211875032	-0.3588676788130779
-0.4765853860312532	-0.35441978198517887
-0.4765243508750032	-0.3499250655267736
-0.4764633157187532	-0.34539129152990333
-0.4764022805625032	-0.34083275919906764
-0.4763412454062532	-0.3362601431278898
-0.4762802102500032	-0.331672478311885
-0.4762191750937532	-0.3270575634826341
-0.4761581399375032	-0.3224009432288032
-0.4760971047812532	-0.31769711807270234
-0.4760360696250032	-0.31295449350751425
-0.4759750344687532	-0.3081899048753403
-0.4759139993125032	-0.303416456609115
-0.4758529641562532	-0.29863362500242424
-0.4757919290000032	-0.29382727714205426
-0.4757308938437532	-0.28898020897689314
-0.4756698586875032	-0.28408563447359947
-0.4756088235312532	-0.27915320880527883
-0.4755477883750032	-0.27420251723888645
-0.4754867532187532	-0.26924866121982666
-0.4754257180625032	-0.26429086562200715
-0.4753646829062532	-0.25931285860847664
-0.4753036477500032	-0.2542950927893815
-0.4752426125937532	-0.24922992446127995
-0.4751815774375032	-0.24412815824916634
-0.4751205422812532	-0.23901166049190242
-0.4750595071250032	-0.23389734906272786
-0.4749984719687532	-0.2287845207940381
-0.4749374368125032	-0.22365522968969187
-0.4748764016562532	-0.21848778513657793
-0.4748153665000032	-0.21327349144863125
-0.4747543313437532	-0.20802394257939738
-0.4746932961875032	-0.20276299141302348
-0.4746322610312532	-0.19750921007440086
-0.4745712258750032	-0.19226208469771466
-0.4745101907187532	-0.1870024353703194
-0.4744491555625032	-0.18170687148643222
-0.4743881204062532	-0.17636560906553989
-0.4743270852500032	-0.17099037802940315
-0.4742660500937532	-0.16560631691291658
-0.4742050149375032	-0.1602337018323734
-0.4741439797812532	-0.15487313447981754
-0.4740829446250032	-0.1495052246961874
-0.4740219094687532	-0.1441050266736851
-0.4739608743125032	-0.13866067912745358
-0.4738998391562532	-0.1331825864546495
-0.4738388040000032	-0.12769633144019285
-0.4737777688437532	-0.12222439864438452
-0.4737167336875032	-0.1167700832470132
-0.4736556985312532	-0.11131539781593798
-0.4735946633750032	-0.10583440588337509
-0.4735336282187532	-0.100312244720583
-0.4734725930625032	-0.09475621575159583
-0.4734115579062532	-0.08919100062207799
-0.4733505227500032	-0.08364137040093908
-0.4732894875937532	-0.07811477255796848
-0.4732284524375032	-0.07259620280683493
-0.4731674172812532	-0.06705903254742152
-0.4731063821250032	-0.061484258898287104
-0.4730453469687532	-0.05587454510978392
-0.4729843118125032	-0.05025303123555479
-0.4729232766562532	-0.04464756361232439
-0.4728622415000032	-0.03907114262527395
-0.4728012063437532	-0.033512423767737005
-0.4727401711875032	-0.027943474021570953
-0.4726791360312532	-0.02233982271632514
-0.4726181008750032	-0.016698743008723836
-0.4725570657187532	-0.01104241068810363
-0.4724960305625032	-0.005403068600509569
-0.4724349954062532	0.00019982619829676202
-0.4723739602500032	0.005774216473354694
-0.4723129250937532	0.011350499373926515
-0.4722518899375032	0.016959549228794907
-0.4721908547812532	0.02260936035501251
-0.4721298196250032	0.028277787633794394
-0.4720687844687532	0.03392746038638138
-0.4720077493125032	0.03953265252260811
-0.4719467141562532	0.04509864627112897
-0.4718856790000032	0.050658844457625446
-0.4718246438437532	0.05625060318505293
-0.4717636086875032	0.06188680757336876
-0.4717025735312532	0.06754462987750753
-0.4716415383750032	0.07318093235072656
-0.4715805032187532	0.07876376160868466
-0.4715194680625032	0.0842966918406861
-0.4714584329062532	0.08981716761343586
-0.4713973977500032	0.09536896896810035
-0.4713363625937532	0.1009687353416851
-0.4712753274375032	0.10659187321372819
-0.4712142922812532	0.11218945361725252
-0.4711532571250032	0.11772435894795832
-0.4710922219687532	0.12319967129644174
-0.4710311868125032	0.12865733775180863
-0.4709701516562532	0.13414702543443197
-0.4709091165000032	0.13968794782529845
-0.4708480813437532	0.14525279641758873
-0.4707870461875032	0.15078683821752198
-0.4707260110312532	0.1562486433925259
-0.4706649758750032	0.16164186899210228
-0.4706039407187532	0.16701339044446928
-0.4705429055625032	0.17241827298911014
-0.4704818704062532	0.17787752279917451
-0.4704208352500032	0.1833607244110757
-0.4703598000937532	0.1888075339521972
-0.4702987649375032	0.19417261889813564
-0.4702377297812532	0.1994602338901936
-0.4701766946250032	0.20472185597618406
-0.4701156594687532	0.21001793747905426
-0.4700546243125032	0.21537198088666726
-0.4699935891562532	0.22075150429449159
-0.4699325540000032	0.2260908141691899
-0.4698715188437532	0.23133925903683542
-0.4698104836875032	0.23649923311579418
