Time	Frequency
-0.500045774593751	0.5807053131194659
-0.499984739437501	0.5810189709832179
-0.499923704281251	0.581284506490931
-0.499862669125001	0.5815136106350356
-0.499801633968751	0.5817080275769098
-0.499740598812501	0.5818582870268364
-0.499679563656251	0.581952327509724
-0.499618528500001	0.5819862716845456
-0.499557493343751	0.581967895974545
-0.499496458187501	0.5819098081660128
-0.499435423031251	0.5818182962843901
-0.499374387875001	0.5816875490506543
-0.499313352718751	0.5815043536723776
-0.499252317562501	0.5812593934192956
-0.499191282406251	0.5809555315852842
-0.499130247250001	0.5806058900901901
-0.499069212093751	0.5802230912500397
-0.499008176937501	0.5798085349101372
-0.498947141781251	0.5793507493368757
-0.498886106625001	0.5788344561035076
-0.498825071468751	0.5782530944650989
-0.498764036312501	0.5776145451058863
-0.498703001156251	0.576935203009783
-0.498641966000001	0.5762269784860946
-0.498580930843751	0.5754876135580909
-0.498519895687501	0.5747021924937896
-0.498458860531251	0.5738548277198475
-0.498397825375001	0.5729412998778695
-0.498336790218751	0.5719725711118807
-0.498275755062501	0.570966317069592
-0.498214719906251	0.5699331416775819
-0.498153684750001	0.5688683507131392
-0.498092649593751	0.5677557344850224
-0.498031614437501	0.5665803133263813
-0.497970579281251	0.5653400014018618
-0.497909544125001	0.5640471085898207
-0.497848508968751	0.5627186388244775
-0.497787473812501	0.5613631023967167
-0.497726438656251	0.5599742004020908
-0.497665403500001	0.5585361761371413
-0.497604368343751	0.5570363517949938
-0.497543333187501	0.5554748937326012
-0.497482298031251	0.553864326873884
-0.497421262875001	0.552219492721153
-0.497360227718751	0.550546059855229
-0.497299192562501	0.5488365827742775
-0.497238157406251	0.5470769142414055
-0.497177122250001	0.5452575945447042
-0.497116087093751	0.5433811304103494
-0.497055051937501	0.5414596235628109
-0.496994016781251	0.5395049957831927
-0.496932981625001	0.5375197735525958
-0.496871946468751	0.5354956309044686
-0.496810911312501	0.5334205197557111
-0.496749876156251	0.5312884537170097
-0.496688841000001	0.5291041219206629
-0.496627805843751	0.5268788575146315
-0.496566770687501	0.5246214948385585
-0.496505735531251	0.5223315825701307
-0.496444700375001	0.5200002374761128
-0.496383665218751	0.5176176678078241
-0.496322630062501	0.5151811712320534
-0.496261594906251	0.5126972167266882
-0.496200559750001	0.5101761168186459
-0.496139524593751	0.5076237935679806
-0.496078489437501	0.5050373207606635
-0.496017454281251	0.5024076934222711
-0.495956419125001	0.4997273822533735
-0.495895383968751	0.49699647767673955
-0.495834348812501	0.49422256498843625
-0.495773313656251	0.4914146108327797
-0.495712278500001	0.48857592320823345
-0.495651243343751	0.48570185677613453
-0.495590208187501	0.4827839408307706
-0.495529173031251	0.4798169051650712
-0.495468137875001	0.4768029350126833
-0.495407102718751	0.4737498980577399
-0.495346067562501	0.47066512775821184
-0.495285032406251	0.4675498345633717
-0.495223997250001	0.46439856566696985
-0.495162962093751	0.4612039498099258
-0.495101926937501	0.4579627699011277
-0.495040891781251	0.4546785020628559
-0.494979856625001	0.4513584656376755
-0.494918821468751	0.44800809034066247
-0.494857786312501	0.4446269590562474
-0.494796751156251	0.4412096655989216
-0.494735716000001	0.4377505645720741
-0.494674680843751	0.4342484228239027
-0.494613645687501	0.4307073052579221
-0.494552610531251	0.42713325445218153
-0.494491575375001	0.4235296356339926
-0.494430540218751	0.4198948969792657
-0.494369505062501	0.41622437628509207
-0.494308469906251	0.4125144533313392
-0.494247434750001	0.40876557346426556
-0.494186399593751	0.4049817988349563
-0.494125364437501	0.4011675122393639
-0.494064329281251	0.3973241248687016
-0.494003294125001	0.3934494170444224
-0.493942258968751	0.3895398938351724
-0.493881223812501	0.3855940045713855
-0.493820188656251	0.3816134644943198
-0.493759153500001	0.3776018097919466
-0.493698118343751	0.37356163425666605
-0.493637083187501	0.3694928034850134
-0.493576048031251	0.36539303659560274
-0.493515012875001	0.36126024283753927
-0.493453977718751	0.35709454576714483
-0.493392942562501	0.35289829566975894
-0.493331907406251	0.3486741865906694
-0.493270872250001	0.344423252105011
-0.493209837093751	0.340144429616509
-0.493148801937501	0.33583587229721273
-0.493087766781251	0.3314968195713394
-0.493026731625001	0.3271284634360008
-0.492965696468751	0.3227330968971932
-0.492904661312501	0.3183123719179001
-0.492843626156251	0.31386626801746864
-0.492782591000001	0.3093935849469685
-0.492721555843751	0.3048933499466574
-0.492660520687501	0.3003658729994166
-0.492599485531251	0.29581264930761614
-0.492538450375001	0.29123530688143096
-0.492477415218751	0.28663454441244474
-0.492416380062501	0.28200997137103345
-0.492355344906251	0.2773609143405894
-0.492294309750001	0.2726873575746389
-0.492233274593751	0.26799017267718334
-0.492172239437501	0.2632705303907186
-0.492111204281251	0.25852911196500233
-0.492050169125001	0.2537658733209663
-0.491989133968751	0.24898056223203754
-0.491928098812501	0.24417346232062334
-0.491867063656251	0.23934558620951712
-0.491806028500001	0.23449804620468076
-0.491744993343751	0.22963120164302214
-0.491683958187501	0.2247444993029376
-0.491622923031251	0.21983726590189437
-0.491561887875001	0.2149097683379104
-0.491500852718751	0.20996352526744227
-0.491439817562501	0.20500046735413183
-0.491378782406251	0.20002161618783168
-0.491317747250001	0.19502642325107747
-0.491256712093751	0.19001339063674338
-0.491195676937501	0.18498158321727037
-0.491134641781251	0.1799318587304984
-0.491073606625001	0.17486668517749376
-0.491012571468751	0.1697885083770119
-0.490951536312501	0.16469800967164047
-0.490890501156251	0.15959379801615586
-0.490829466000001	0.15447384482694942
-0.490768430843751	0.14933747420187357
-0.490707395687501	0.14418627456234642
-0.490646360531251	0.13902320299383122
-0.490585325375001	0.13385056676003215
-0.490524290218751	0.1286684874379607
-0.490463255062501	0.12347511096830942
-0.490402219906251	0.11826840673437956
-0.490341184750001	0.11304812640065069
-0.490280149593751	0.10781634335508355
-0.490219114437501	0.10257614971106536
-0.490158079281251	0.09732955365495416
-0.490097044125001	0.09207620359710922
-0.490036008968751	0.08681401021049406
-0.489974973812501	0.08154122523418098
-0.489913938656251	0.0762582092713009
-0.489852903500001	0.07096742026750337
-0.489791868343751	0.06567170237883235
-0.489730833187501	0.06037230828755416
-0.489669798031251	0.05506829934521291
-0.489608762875001	0.0497577924845335
-0.489547727718751	0.0444399112007473
-0.489486692562501	0.03911577244157902
-0.489425657406251	0.03378777304645817
-0.489364622250001	0.02845789325262747
-0.489303587093751	0.02312646840112586
-0.489242551937501	0.01779238767477202
-0.489181516781251	0.012454502493893432
-0.489120481625001	0.007113014941050922
-0.489059446468751	0.001769607582442178
-0.488998411312501	-0.0035737478020768077
-0.488937376156251	-0.008916171996480706
-0.488876341000001	-0.014258201326092424
-0.488815305843751	-0.019600810060408726
-0.488754270687501	-0.024944114281768192
-0.488693235531251	-0.03028693074885397
-0.488632200375001	-0.035627516957725335
-0.488571165218751	-0.040964802270312954
-0.488510130062501	-0.04629897774604704
-0.488449094906251	-0.051630887549587466
-0.488388059750001	-0.056960809796366446
-0.488327024593751	-0.06228776418840881
-0.488265989437501	-0.06760994335243427
-0.488204954281251	-0.07292594154686374
-0.488143919125001	-0.07823575751825197
-0.488082883968751	-0.08354052876967477
-0.488021848812501	-0.08884108724943796
-0.487960813656251	-0.09413668711100565
-0.487899778500001	-0.09942515617494908
-0.487838743343751	-0.1047044063839375
-0.487777708187501	-0.10997396840868473
-0.487716673031251	-0.11523513806974794
-0.487655637875001	-0.12048953514607046
-0.487594602718751	-0.1257372954190921
-0.487533567562501	-0.13097646119086956
-0.487472532406251	-0.13620416211740502
-0.487411497250001	-0.14141870421953687
-0.487350462093751	-0.14662079132307804
-0.487289426937501	-0.15181269328607344
-0.487228391781251	-0.15699597374384072
-0.487167356625001	-0.16216971572385547
-0.487106321468751	-0.16733077753101963
-0.487045286312501	-0.17247595531143275
-0.486984251156251	-0.17760435660283921
-0.486923216000001	-0.18271796119040679
-0.486862180843751	-0.1878197567515038
-0.486801145687501	-0.19291090590797713
-0.486740110531251	-0.1979892885815935
-0.486679075375001	-0.20305074220347089
-0.486618040218751	-0.20809210154009616
-0.486557005062501	-0.21311353230663985
-0.486495969906251	-0.2181181691303321
-0.486434934750001	-0.22310927636382177
-0.486373899593751	-0.228087211633892
-0.486312864437501	-0.23304870056146798
-0.486251829281251	-0.2379890858842711
-0.486190794125001	-0.24290578611531213
-0.486129758968751	-0.24780014571384662
-0.486068723812501	-0.25267608556826254
-0.486007688656251	-0.25753658956294306
-0.485946653500001	-0.2623808833854833
-0.485885618343751	-0.2672046582909632
-0.485824583187501	-0.2720032598352787
-0.485763548031251	-0.27677520908501163
-0.485702512875001	-0.28152308719745267
-0.485641477718751	-0.2862510792945077
-0.485580442562501	-0.29096119574113516
-0.485519407406251	-0.29565127547805864
-0.485458372250001	-0.3003164378668365
-0.485397337093751	-0.30495278111119767
-0.485336301937501	-0.30956028548648623
-0.485275266781251	-0.31414251159818585
-0.485214231625001	-0.3187033405572402
-0.485153196468751	-0.3232434616718337
-0.485092161312501	-0.32775949254381687
-0.485031126156251	-0.33224646564118065
-0.484970091000001	-0.33670161677198873
-0.484909055843751	-0.3411263281627899
-0.484848020687501	-0.3455246552884696
-0.484786985531251	-0.3498996598923541
-0.484725950375001	-0.3542505632721029
-0.484664915218751	-0.3585731102965245
-0.484603880062501	-0.3628628414062596
-0.484542844906251	-0.3671184946232086
-0.484481809750001	-0.37134270705144334
-0.484420774593751	-0.3755394747608055
-0.484359739437501	-0.3797105078648808
-0.484298704281251	-0.383853528525801
-0.484237669125001	-0.38796391896418336
-0.484176633968751	-0.3920383117619508
-0.484115598812501	-0.39607711645608673
-0.484054563656251	-0.4000838736784836
-0.483993528500001	-0.404061957188639
-0.483932493343751	-0.4080114138981194
-0.483871458187501	-0.41192866354468094
-0.483810423031251	-0.4158092859593785
-0.483749387875001	-0.4196514650155051
-0.483688352718751	-0.4234572043649418
-0.483627317562501	-0.4272303497056097
-0.483566282406251	-0.4309730654380862
-0.483505247250001	-0.4346837276500384
-0.483444212093751	-0.4383580364603118
-0.483383176937501	-0.4419923916251754
-0.483322141781251	-0.4455866608636969
-0.483261106625001	-0.4491440221137676
-0.483200071468751	-0.4526680269070638
-0.483139036312501	-0.4561593317628377
-0.483078001156251	-0.45961485556750437
-0.483016966000001	-0.46303013689504996
-0.482955930843751	-0.466402897461074
-0.482894895687501	-0.46973473773948043
-0.482833860531251	-0.47302952521658764
-0.482772825375001	-0.47628986343781043
-0.482711790218751	-0.4795146321300207
-0.482650755062501	-0.48269967953420023
-0.482589719906251	-0.4858410962456124
-0.482528684750001	-0.4889383163702062
-0.482467649593751	-0.49199439944415085
-0.482406614437501	-0.49501321689075
-0.482345579281251	-0.4979959210520024
-0.482284544125001	-0.5009397017327103
-0.482223508968751	-0.5038399262810479
-0.482162473812501	-0.5066938805378626
-0.482101438656251	-0.5095028924293309
-0.482040403500001	-0.5122710081905475
-0.481979368343751	-0.5150013507321283
-0.481918333187501	-0.5176932277993469
-0.481857298031251	-0.5203424633532947
-0.481796262875001	-0.5229447321113317
-0.481735227718751	-0.5254990806931622
-0.481674192562501	-0.5280086004789685
-0.481613157406251	-0.5304776340072066
-0.481552122250001	-0.5329078753759063
-0.481491087093751	-0.5352966902549868
-0.481430051937501	-0.5376391295608131
-0.481369016781251	-0.5399319656028165
-0.481307981625001	-0.54217630671018
-0.481246946468751	-0.5443765268038605
-0.481185911312501	-0.5465363795857469
-0.481124876156251	-0.5486556031679494
-0.481063841000001	-0.5507299390060758
-0.481002805843751	-0.5527545725950477
-0.480941770687501	-0.5547280838063361
-0.480880735531251	-0.556653539489062
-0.480819700375001	-0.5585357659730359
-0.480758665218751	-0.5603770925021826
-0.480697630062501	-0.5621751900986788
-0.480636594906251	-0.5639248821598064
-0.480575559750001	-0.565622408508756
-0.480514524593751	-0.5672685064859452
-0.480453489437501	-0.5688676706693814
-0.480392454281251	-0.5704242044658074
-0.480331419125001	-0.5719384203622839
-0.480270383968751	-0.5734062359676193
-0.480209348812501	-0.5748225308892901
-0.480148313656251	-0.5761854038268419
-0.480087278500001	-0.5774976762528624
-0.480026243343751	-0.5787643623076466
-0.479965208187501	-0.5799882836309714
-0.479904173031251	-0.5811675762623791
-0.479843137875001	-0.5822972103959543
-0.479782102718751	-0.5833732011536198
-0.479721067562501	-0.5843958972705214
-0.479660032406251	-0.585369558531332
-0.479598997250001	-0.5862986063691121
-0.479537962093751	-0.587183758797147
-0.479476926937501	-0.5880213629972586
-0.479415891781251	-0.588806493582745
-0.479354856625001	-0.5895371344713374
-0.479293821468751	-0.5902158285565454
-0.479232786312501	-0.5908473792535501
-0.479171751156251	-0.591434609435969
-0.479110716000001	-0.5919758593854468
-0.479049680843751	-0.5924663958506569
-0.478988645687501	-0.5929025021080239
-0.478927610531251	-0.5932846750261044
-0.478866575375001	-0.5936171354061036
-0.478805540218751	-0.5939040822291363
-0.478744505062501	-0.5941459667507522
-0.478683469906251	-0.5943390499193023
-0.478622434750001	-0.5944786465113693
-0.478561399593751	-0.5945632284852701
-0.478500364437501	-0.5945957786916194
-0.478439329281251	-0.5945811742884025
-0.478378294125001	-0.594521873200446
-0.478317258968751	-0.5944156966480177
-0.478256223812501	-0.5942576883576836
-0.478195188656251	-0.5940444589116348
-0.478134153500001	-0.5937772074734277
-0.478073118343751	-0.5934607345389938
-0.478012083187501	-0.5930992683839007
-0.477951048031251	-0.5926927389481546
-0.477890012875001	-0.5922367835996017
-0.477828977718751	-0.5917265255489043
-0.477767942562501	-0.5911608587085027
-0.477706907406251	-0.5905435128928463
-0.477645872250001	-0.5898799181927799
-0.477584837093751	-0.5891725141976691
-0.477523801937501	-0.5884185901374692
-0.477462766781251	-0.5876126120761888
-0.477401731625001	-0.5867510509509983
-0.477340696468751	-0.5858355145524057
-0.477279661312501	-0.5848714668264285
-0.477218626156251	-0.5838636112996273
-0.477157591000001	-0.582811874785638
-0.477096555843751	-0.5817114599001696
-0.477035520687501	-0.5805569794155735
-0.476974485531251	-0.5793471609572854
-0.476913450375001	-0.5780860741497853
-0.476852415218751	-0.5767797762381304
-0.476791380062501	-0.5754312021366716
-0.476730344906251	-0.574037676716514
-0.476669309750001	-0.572593225587251
-0.476608274593751	-0.5710937532015111
-0.476547239437501	-0.5695406646367618
-0.476486204281251	-0.5679398069308945
-0.476425169125001	-0.5662966080312829
-0.476364133968751	-0.5646115414203047
-0.476303098812501	-0.5628797708465074
-0.476242063656251	-0.5610953158348218
-0.476181028500001	-0.5592562672705279
-0.476119993343751	-0.5573666155329119
-0.476058958187501	-0.5554330430333765
-0.475997923031251	-0.553459350922043
-0.475936887875001	-0.5514432926635321
-0.475875852718751	-0.5493785508817731
-0.475814817562501	-0.5472602047110073
-0.475753782406251	-0.5450890891720231
-0.475692747250001	-0.54287132328383
-0.475631712093751	-0.5406133085556902
-0.475570676937501	-0.5383164066636957
-0.475509641781251	-0.5359758373406066
-0.475448606625001	-0.5335847956352541
-0.475387571468751	-0.5311403906642517
-0.475326536312501	-0.5286463648484963
-0.475265501156251	-0.5261101879551939
-0.475204466000001	-0.5235369026206574
-0.475143430843751	-0.5209249007340452
-0.475082395687501	-0.5182673040175036
-0.475021360531251	-0.5155579501893018
-0.474960325375001	-0.5127969226150115
-0.474899290218751	-0.5099907955906634
-0.474838255062501	-0.5071473001022474
-0.474777219906251	-0.5042689186700131
-0.474716184750001	-0.5013508402452542
-0.474655149593751	-0.49838508501286977
-0.474594114437501	-0.49536743410320944
-0.474533079281251	-0.49230131730496823
-0.474472044125001	-0.4891952722462217
-0.474411008968751	-0.48605602016935806
-0.474349973812501	-0.48288292305565245
-0.474288938656251	-0.47966853181942803
-0.474227903500001	-0.47640496321008774
-0.474166868343751	-0.47309084408554014
-0.474105833187501	-0.4697328676831432
-0.474044798031251	-0.4663405279304867
-0.473983762875001	-0.4629184109490091
-0.473922727718751	-0.45946247235085386
-0.473861692562501	-0.45596345750508116
-0.473800657406251	-0.45241477365316596
-0.473739622250001	-0.4488183237695773
-0.473678587093751	-0.44518335652029783
-0.473617551937501	-0.4415191847058388
-0.473556516781251	-0.4378277063292891
-0.473495481625001	-0.43410186644605253
-0.473434446468751	-0.43033146314490983
-0.473373411312501	-0.42651173534516906
-0.473312376156251	-0.4226477308054465
-0.473251341000001	-0.41875070818020665
-0.473190305843751	-0.41482932382787585
-0.473129270687501	-0.41088271992523995
-0.473068235531251	-0.4069012014471173
-0.473007200375001	-0.4028741275610688
-0.472946165218751	-0.3987988066726384
-0.472885130062501	-0.3946832129299249
-0.472824094906251	-0.3905401164766038
-0.472763059750001	-0.3863771224768611
-0.472702024593751	-0.3821905975703373
-0.472640989437501	-0.3779685221365397
-0.472579954281251	-0.37370019761796114
-0.472518919125001	-0.36938520224812643
-0.472457883968751	-0.3650344008178211
-0.472396848812501	-0.3606618875277827
-0.472335813656251	-0.35627398184412995
-0.472274778500001	-0.35186405595317327
-0.472213743343751	-0.3474176317357403
-0.472152708187501	-0.34292409659613804
-0.472091673031251	-0.3383858398968078
-0.472030637875001	-0.3338172369914299
-0.471969602718751	-0.32923382857576194
-0.471908567562501	-0.32464002817214327
-0.471847532406251	-0.32002524312016656
-0.471786497250001	-0.3153719871495059
-0.471725462093751	-0.3106700991859576
-0.471664426937501	-0.30592586869694843
-0.471603391781251	-0.3011582482604235
-0.471542356625001	-0.2963843744703931
-0.471481321468751	-0.2916055707287581
-0.471420286312501	-0.28680545712368666
-0.471359251156251	-0.28196266345863547
-0.471298216000001	-0.27706863356151235
-0.471237180843751	-0.2721360696946773
-0.471176145687501	-0.26719029066388633
-0.471115110531251	-0.26224933133341566
-0.471054075375001	-0.25730850661735283
-0.470993040218751	-0.2523428199651787
-0.470932005062501	-0.2473267483390281
-0.470870969906251	-0.24225621161539732
-0.470809934750001	-0.2371542666852395
-0.470748899593751	-0.23205418762966085
-0.470687864437501	-0.2269723166059423
-0.470626829281251	-0.22189296588663113
-0.470565794125001	-0.2167793787879249
-0.470504758968751	-0.21160370134219647
-0.470443723812501	-0.20637198107113547
-0.470382688656251	-0.20112232771642777
-0.470321653500001	-0.1958954300916108
-0.470260618343751	-0.1907002491196965
-0.470199583187501	-0.18550390880132187
-0.470138548031251	-0.1802566425691958
-0.470077512875001	-0.17493340969500734
-0.470016477718751	-0.16955780688836955
-0.469955442562501	-0.16418629146970906
-0.469894407406251	-0.15886303124523213
-0.469833372250001	-0.15358159599843388
-0.469772337093751	-0.148286710811989
-0.469711301937501	-0.14291777790143903
-0.469650266781251	-0.13746036848766113
-0.469589231625001	-0.13196245740233867
-0.469528196468751	-0.12649894909337994
-0.469467161312501	-0.12111076695132815
-0.469406126156251	-0.11576818583255488
-0.469345091000001	-0.11039108443437058
-0.469284055843751	-0.10491302994676487
-0.469223020687501	-0.09933828271357054
-0.469161985531251	-0.09374344392193912
-0.469100950375001	-0.08821880128344516
-0.469039915218751	-0.08279450054412728
-0.468978880062501	-0.07741211432887346
-0.468917844906251	-0.07196803421132571
-0.468856809750001	-0.0663968539058993
