Time	Frequency
-0.5000309930312525	-0.35206774143713876
-0.49996995787500254	-0.3479075679335707
-0.49990892271875254	-0.34375349636680574
-0.49984788756250254	-0.3395685054244381
-0.49978685240625254	-0.33531978063486906
-0.49972581725000254	-0.3309955740036529
-0.49966478209375254	-0.32660978903854354
-0.49960374693750254	-0.3221928091139813
-0.49954271178125254	-0.31777442061286515
-0.49948167662500254	-0.31336843579810775
-0.49942064146875254	-0.30896703217905563
-0.49935960631250254	-0.30454702081574647
-0.49929857115625254	-0.3000837468264214
-0.49923753600000254	-0.29556462446561954
-0.49917650084375254	-0.2909950036956076
-0.49911546568750254	-0.28639372895631643
-0.49905443053125254	-0.28178170685010695
-0.49899339537500254	-0.2771703532536793
-0.49893236021875254	-0.2725562915760219
-0.49887132506250254	-0.2679247951457027
-0.49881028990625254	-0.2632593981659825
-0.49874925475000254	-0.2585518146628029
-0.49868821959375254	-0.25380647990575783
-0.49862718443750254	-0.24903737520557284
-0.49856614928125254	-0.2442593189169296
-0.49850511412500254	-0.23947904744455592
-0.49844407896875254	-0.23469147739436827
-0.49838304381250254	-0.22988327923614396
-0.49832200865625254	-0.22504141911099848
-0.49826097350000254	-0.2201615408493521
-0.49819993834375254	-0.21525118694722103
-0.49813890318750254	-0.21032579818531358
-0.49807786803125254	-0.20539978112529594
-0.49801683287500254	-0.2004779055219497
-0.49795579771875254	-0.19555208765134677
-0.49789476256250254	-0.19060565545933406
-0.49783372740625254	-0.1856229481250112
-0.49777269225000254	-0.18059881151809648
-0.49771165709375254	-0.17554248011549003
-0.49765062193750254	-0.17047345947523418
-0.49758958678125254	-0.16541133135508235
-0.49752855162500254	-0.16036489126580455
-0.49746751646875254	-0.15532677378219725
-0.49740648131250254	-0.15027686609364888
-0.49734544615625254	-0.14519295606080954
-0.49728441100000254	-0.14006301397948503
-0.49722337584375254	-0.13489246353554932
-0.49716234068750254	-0.12970230013729545
-0.49710130553125254	-0.12451870098580464
-0.49704027037500254	-0.11935941200603421
-0.49697923521875254	-0.11422416737656188
-0.49691820006250254	-0.10909444808287946
-0.49685716490625254	-0.10394292565076137
-0.49679612975000254	-0.09874776171797674
-0.49673509459375254	-0.09350437405145016
-0.49667405943750254	-0.08822849636682387
-0.49661302428125254	-0.08294871934384362
-0.49655198912500254	-0.0776921596914423
-0.49649095396875254	-0.07247062045505888
-0.49642991881250254	-0.06727445844059883
-0.49636888365625254	-0.062077439704554385
-0.49630784850000254	-0.05685022284213853
-0.49624681334375254	-0.0515755925337848
-0.49618577818750254	-0.04625757324628432
-0.49612474303125254	-0.040919713617061974
-0.49606370787500254	-0.03559340093463771
-0.49600267271875254	-0.03030216737538505
-0.49594163756250254	-0.0250499797777923
-0.49588060240625254	-0.019819434642401868
-0.49581956725000254	-0.014580829958884961
-0.49575853209375254	-0.009307530453716073
-0.49569749693750254	-0.003989653233888576
-0.49563646178125254	0.0013609486757195936
-0.49557542662500254	0.006716750009279435
-0.49551439146875254	0.012048384365953966
-0.49545335631250254	0.01733916684744412
-0.49539232115625254	0.02259301042580196
-0.49533128600000254	0.027831892288472774
-0.49527025084375254	0.03308430287329145
-0.49520921568750254	0.03837058757073754
-0.49514818053125254	0.043692663434472576
-0.49508714537500254	0.04903326420408545
-0.49502611021875254	0.054364853939417514
-0.49496507506250254	0.059663497228008976
-0.49490403990625254	0.06492060201281559
-0.49484300475000254	0.07014660583811136
-0.49478196959375254	0.0753649136431043
-0.49472093443750254	0.08059949443098628
-0.49465989928125254	0.08586263161078202
-0.49459886412500254	0.09114892783549973
-0.49453782896875254	0.09643837314924972
-0.49447679381250254	0.10170670751492876
-0.49441575865625254	0.10693758839991857
-0.49435472350000254	0.11213030890535525
-0.49429368834375254	0.11729934932967438
-0.49423265318750254	0.12246628681748933
-0.49417161803125254	0.12764842099505738
-0.49411058287500254	0.13285000918807155
-0.49404954771875254	0.13806041942855776
-0.49398851256250254	0.14325984837584904
-0.49392747740625254	0.14842945690609652
-0.49386644225000254	0.15356062598508827
-0.49380540709375254	0.1586586904345165
-0.49374437193750254	0.16373950415502211
-0.49368333678125254	0.168820804391694
-0.49362230162500254	0.17391292572854838
-0.49356126646875254	0.17901363520487712
-0.49350023131250254	0.1841095522794709
-0.49343919615625254	0.18918317637824902
-0.49337816100000254	0.19422173862992234
-0.49331712584375254	0.1992232741605594
-0.49325609068750254	0.20419690337164997
-0.49319505553125254	0.20915748033176298
-0.49313402037500254	0.21411764629979477
-0.49307298521875254	0.21908136960649247
-0.49301195006250254	0.22404211631340878
-0.49295091490625254	0.22898642415170178
-0.49288987975000254	0.23390083592821703
-0.49282884459375254	0.23877846584618204
-0.49276780943750254	0.2436219098479179
-0.49270677428125254	0.2484412516244533
-0.49264573912500254	0.25324839658120957
-0.49258470396875254	0.2580507994172307
-0.49252366881250254	0.2628477862802256
-0.49246263365625254	0.2676311447207242
-0.49240159850000254	0.2723895016367534
-0.49234056334375254	0.27711405849114745
-0.49227952818750254	0.28180259680090297
-0.49221849303125254	0.28645987591477595
-0.49215745787500254	0.29109456447621945
-0.49209642271875254	0.2957144793394305
-0.49203538756250254	0.3003225807540951
-0.49197435240625254	0.30491567812177384
-0.49191331725000254	0.3094863276593223
-0.49185228209375254	0.31402671980511176
-0.49179124693750254	0.3185324481882262
-0.49173021178125254	0.3230042300549573
-0.49166917662500254	0.3274468192674075
-0.49160814146875254	0.3318659705078284
-0.49154710631250254	0.3362652518890581
-0.49148607115625254	0.3406443189599924
-0.49142503600000254	0.3449993727876326
-0.49136400084375254	0.34932537494321314
-0.49130296568750254	0.35361864844992774
-0.49124193053125254	0.35787839497898183
-0.49118089537500254	0.36210645580077616
-0.49111986021875254	0.36630569569407856
-0.49105882506250254	0.3704780932992206
-0.49099778990625254	0.37462361507558634
-0.49093675475000254	0.37874038954980405
-0.49087571959375254	0.38282594244954715
-0.49081468443750254	0.3868786273046694
-0.49075364928125254	0.39089836976244197
-0.49069261412500254	0.3948863290696309
-0.49063157896875254	0.3988436851268534
-0.49057054381250254	0.4027703932707187
-0.49050950865625254	0.40666486490175036
-0.49044847350000254	0.4105248009458161
-0.49038743834375254	0.4143485958584416
-0.49032640318750254	0.41813641662737355
-0.49026536803125254	0.4218901972359
-0.49020433287500254	0.42561242114821035
-0.49014329771875254	0.42930436580089415
-0.49008226256250254	0.43296487549298607
-0.49002122740625254	0.436590511444241
-0.48996019225000254	0.44017713154363924
-0.48989915709375254	0.4437220528791084
-0.48983812193750254	0.44722560173727677
-0.48977708678125254	0.4506911229794256
-0.48971605162500254	0.45412324037240237
-0.48965501646875254	0.4575251822035161
-0.48959398131250254	0.46089666828146303
-0.48953294615625254	0.4642336234224358
-0.48947191100000254	0.46753000047960946
-0.48941087584375254	0.4707808012158543
-0.48934984068750254	0.4739846888709717
-0.48928880553125254	0.47714476742821615
-0.48922777037500254	0.4802670051026246
-0.48916673521875254	0.4833570384111421
-0.48910570006250254	0.48641700391007814
-0.48904466490625254	0.48944408856221183
-0.48898362975000254	0.49243168048171737
-0.48892259459375254	0.4953726219461392
-0.48886155943750254	0.4982628609449172
-0.48880052428125254	0.5011035514567042
-0.48873948912500254	0.5039004536103662
-0.48867845396875254	0.5066608892595832
-0.48861741881250254	0.5093897910124653
-0.48855638365625254	0.51208689301516
-0.48849534850000254	0.5147466192840126
-0.48843431334375254	0.517360831228059
-0.48837327818750254	0.5199229934223794
-0.48831224303125254	0.522431523964153
-0.48825120787500254	0.5248905529707913
-0.48819017271875254	0.5273076808222699
-0.48812913756250254	0.5296898739425687
-0.48806810240625254	0.5320396491640313
-0.48800706725000254	0.5343536135719145
-0.48794603209375254	0.5366241512126404
-0.48788499693750254	0.5388433439638276
-0.48782396178125254	0.5410070514540682
-0.48776292662500254	0.5431169859104494
-0.48770189146875254	0.5451796837936979
-0.48764085631250254	0.5472029392260879
-0.48757982115625254	0.5491915945012766
-0.48751878600000254	0.5511448992054272
-0.48745775084375254	0.5530568241531815
-0.48739671568750254	0.5549191786918488
-0.48733568053125254	0.55672587832893
-0.48727464537500254	0.5584760748177644
-0.48721361021875254	0.5601744894121952
-0.48715257506250254	0.5618287883415063
-0.48709153990625254	0.563445406267993
-0.48703050475000254	0.5650260531784106
-0.48696946959375254	0.5665667668929778
-0.48690843443750254	0.5680600000205392
-0.48684739928125254	0.5694985904939918
-0.48678636412500254	0.5708794709539119
-0.48672532896875254	0.5722051717166496
-0.48666429381250254	0.573482361052589
-0.48660325865625254	0.5747182131719522
-0.48654222350000254	0.5759165455735373
-0.48648118834375254	0.5770757788928604
-0.48642015318750254	0.5781897754631845
-0.48635911803125254	0.5792510722084214
-0.48629808287500254	0.5802547694474495
-0.48623704771875254	0.5812010252733406
-0.48617601256250254	0.5820948663667943
-0.48611497740625254	0.5829434440393331
-0.48605394225000254	0.583752201611366
-0.48599290709375254	0.5845219830867141
-0.48593187193750254	0.5852486029016415
-0.48587083678125254	0.585925072010789
-0.48580980162500254	0.5865452667156444
-0.48574876646875254	0.5871070906181222
-0.48568773131250254	0.5876134764322093
-0.48562669615625254	0.5880707374512083
-0.48556566100000254	0.5884851824245115
-0.48550462584375254	0.5888597949794295
-0.48544359068750254	0.5891927050411933
-0.48538255553125254	0.5894782181556886
-0.48532152037500254	0.5897098310082268
-0.48526048521875254	0.5898836314446523
-0.48519945006250254	0.5900002921592059
-0.48513841490625254	0.5900646286871754
-0.48507737975000254	0.5900829909810648
-0.48501634459375254	0.5900598966324095
-0.48495530943750254	0.5899956880782852
-0.48489427428125254	0.5898864168709017
-0.48483323912500254	0.5897259744312529
-0.48477220396875254	0.5895093340394909
-0.48471116881250254	0.5892351969638343
-0.48465013365625254	0.5889066331058945
-0.48458909850000254	0.5885293843637043
-0.48452806334375254	0.5881087764318413
-0.48446702818750254	0.5876469085643816
-0.48440599303125254	0.5871416030674442
-0.48434495787500254	0.5865876404120443
-0.48428392271875254	0.5859795964834603
-0.48422288756250254	0.5853147653741544
-0.48416185240625254	0.5845946054084904
-0.48410081725000254	0.5838239304247949
-0.48403978209375254	0.5830082944730051
-0.48397874693750254	0.5821510086134077
-0.48391771178125254	0.5812514044405569
-0.48385667662500254	0.5803052650268843
-0.48379564146875254	0.5793071860073732
-0.48373460631250254	0.57825356819578
-0.48367357115625254	0.5771446090661244
-0.48361253600000254	0.5759842248200744
-0.48355150084375254	0.574777927056313
-0.48349046568750254	0.5735298172006725
-0.48342943053125254	0.5722403759934723
-0.48336839537500254	0.5709062545741435
-0.48330736021875254	0.5695221703467195
-0.48324632506250254	0.5680838796764767
-0.48318528990625254	0.5665906026259029
-0.48312425475000254	0.565045532632454
-0.48306321959375254	0.5634541268016287
-0.48300218443750254	0.5618211516061409
-0.48294114928125254	0.5601481083329649
-0.48288011412500254	0.5584324274577384
-0.48281907896875254	0.5566689164612483
-0.48275804381250254	0.5548527084561382
-0.48269700865625254	0.5529820660228894
-0.48263597350000254	0.5510594708084205
-0.48257493834375254	0.5490903941516969
-0.48251390318750254	0.5470803716807544
-0.48245286803125254	0.5450319576041911
-0.48239183287500254	0.5429433175171051
-0.48233079771875254	0.5408092856948068
-0.48226976256250254	0.5386242798872022
-0.48220872740625254	0.5363855103946529
-0.48214769225000254	0.5340947279763503
-0.48208665709375254	0.5317574425282586
-0.48202562193750254	0.5293799868743378
-0.48196458678125254	0.5269660677467002
-0.48190355162500254	0.5245147296417387
-0.48184251646875254	0.5220208992786817
-0.48178148131250254	0.5194782593541036
-0.48172044615625254	0.516882874857458
-0.48165941100000254	0.5142355614037114
-0.48159837584375254	0.5115416536125119
-0.48153734068750254	0.5088082278330991
-0.48147630553125254	0.5060402893319684
-0.48141527037500254	0.503238057095159
-0.48135423521875254	0.5003968730404488
-0.48129320006250254	0.4975098370646112
-0.48123216490625254	0.494571742693721
-0.48117112975000254	0.49158214684937424
-0.48111009459375254	0.48854583694698084
-0.48104905943750254	0.48547034151847995
-0.48098802428125254	0.48236187485887166
-0.48092698912500254	0.4792220240114048
-0.48086595396875254	0.47604698168464155
-0.48080491881250254	0.47282973338374606
-0.48074388365625254	0.4695640445399764
-0.48068284850000254	0.4662480852982102
-0.48062181334375254	0.4628856516237978
-0.48056077818750254	0.45948423362677004
-0.48049974303125254	0.45605101782638846
-0.48043870787500254	0.45258907412534904
-0.48037767271875254	0.44909578572905884
-0.48031663756250254	0.445564406046845
-0.48025560240625254	0.4419879494147705
-0.48019456725000254	0.4383632284163146
-0.48013353209375254	0.43469278014159857
-0.48007249693750254	0.430983635148923
-0.48001146178125254	0.4272436004866563
-0.47995042662500254	0.42347711169817037
-0.47988939146875254	0.4196829335599693
-0.47982835631250254	0.41585497902652535
-0.47976732115625254	0.41198585381144903
-0.47970628600000254	0.408071168881678
-0.47964525084375254	0.4041121529287356
-0.47958421568750254	0.4001151077363868
-0.47952318053125254	0.39608805494996285
-0.47946214537500254	0.39203645404177895
-0.47940111021875254	0.3879603941288151
-0.47934007506250254	0.38385479491431407
-0.47927903990625254	0.3797124374850659
-0.47921800475000254	0.3755281470993724
-0.47915696959375254	0.37130180895712706
-0.47909593443750254	0.3670385444917432
-0.47903489928125254	0.3627460451081486
-0.47897386412500254	0.35843055038958305
-0.47891282896875254	0.35409360993188677
-0.47885179381250254	0.34973142295234666
-0.47879075865625254	0.3453371494522293
-0.47872972350000254	0.3409049140691361
-0.47866868834375254	0.3364332735261921
-0.47860765318750254	0.3319262000620986
-0.47854661803125254	0.32739104820372433
-0.47848558287500254	0.3228346742617137
-0.47842454771875254	0.31825985456402317
-0.47836351256250254	0.3136639486634665
-0.47830247740625254	0.30904056914977635
-0.47824144225000254	0.3043833616159848
-0.47818040709375254	0.2996897531954649
-0.47811937193750254	0.294962561328345
-0.47805833678125254	0.29020862455128293
-0.47799730162500254	0.2854352559065147
-0.47793626646875254	0.28064644034596964
-0.47787523131250254	0.27584082785195213
-0.47781419615625254	0.2710126521145912
-0.47775316100000254	0.26615512852682366
-0.47769212584375254	0.2612644619326614
-0.47763109068750254	0.25634221299884613
-0.47757005553125254	0.2513946959177921
-0.47750902037500254	0.24642972722781914
-0.47744798521875254	0.24145251985304564
-0.47738695006250254	0.23646299675662474
-0.47732591490625254	0.23145598801684894
-0.47726487975000254	0.22642423290742572
-0.47720384459375254	0.2213626276180927
-0.47714280943750254	0.2162713597051783
-0.47708177428125254	0.21115611333352927
-0.47702073912500254	0.20602522282600205
-0.47695970396875254	0.20088533042967813
-0.47689866881250254	0.19573789662066562
-0.47683763365625254	0.1905785162918719
-0.47677659850000254	0.18539950589012769
-0.47671556334375254	0.1801943531377343
-0.47665452818750254	0.1749615661013163
-0.47659349303125254	0.16970582896298284
-0.47653245787500254	0.16443579862313473
-0.47647142271875254	0.15915966784744448
-0.47641038756250254	0.1538808867676412
-0.47634935240625254	0.148596386452113
-0.47628831725000254	0.14329831553210334
-0.47622728209375254	0.1379784523536354
-0.47616624693750254	0.13263298048238534
-0.47610521178125254	0.12726501231524412
-0.47604417662500254	0.12188337250903182
-0.47598314146875254	0.1164981493650058
-0.47592210631250254	0.11111537529255291
-0.47586107115625254	0.10573379506266227
-0.47580003600000254	0.10034557656248796
-0.47573900084375254	0.0949406783187191
-0.47567796568750254	0.08951256783503694
-0.47561693053125254	0.08406217300625937
-0.47555589537500254	0.0785978540319876
-0.47549486021875254	0.07313130515526164
-0.47543382506250254	0.06767151042964871
-0.47537278990625254	0.06221998708654906
-0.47531175475000254	0.05676994450381419
-0.47525071959375254	0.05130996878700485
-0.47518968443750254	0.04583036126638679
-0.47512864928125254	0.04032870682649736
-0.47506761412500254	0.03481163067060366
-0.47500657896875254	0.02929176200791135
-0.47494554381250254	0.02378139736845057
-0.47488450865625254	0.018286092296915957
-0.47482347350000254	0.012801690397608095
-0.47476243834375254	0.007316563072996908
-0.47470140318750254	0.001817905416804269
-0.47464036803125254	-0.003701209972167384
-0.47457933287500254	-0.009237736069218903
-0.47451829771875254	-0.014779787362905071
-0.47445726256250254	-0.02031249469614149
-0.47439622740625254	-0.025825575614499614
-0.47433519225000254	-0.03131869946986822
-0.47427415709375254	-0.036801708617134214
-0.47421312193750254	-0.042289382165286465
-0.47415208678125254	-0.04779340711534921
-0.47409105162500254	-0.05331583770969294
-0.47403001646875254	-0.058847580336091616
-0.47396898131250254	-0.06437272607089498
-0.47390794615625254	-0.06987652862912182
-0.47384691100000254	-0.07535295416958619
-0.47378587584375254	-0.08080776951542654
-0.47372484068750254	-0.08625543947107026
-0.47366380553125254	-0.09171147039629014
-0.47360277037500254	-0.09718412453590435
-0.47354173521875254	-0.10266973367219473
-0.47348070006250254	-0.10815414755888927
-0.47341966490625254	-0.1136196827916054
-0.47335862975000254	-0.11905402626676001
-0.47329759459375254	-0.1244565105043796
-0.47323655943750254	-0.12983843240318352
-0.47317552428125254	-0.13521714646733635
-0.47311448912500254	-0.1406069492378191
-0.47305345396875254	-0.1460114155026392
-0.47299241881250254	-0.15142110096087474
-0.47293138365625254	-0.15681789790132772
-0.47287034850000254	-0.16218396929566797
-0.47280931334375254	-0.16751071398151626
-0.47274827818750254	-0.17280318233767095
-0.47268724303125254	-0.17807763007010308
-0.47262620787500254	-0.18335320804767605
-0.47256517271875254	-0.18864189182944266
-0.47250413756250254	-0.19394182993493633
-0.47244310240625254	-0.19923758212891782
-0.47238206725000254	-0.20450741258901586
-0.47232103209375254	-0.20973421712763107
-0.47225999693750254	-0.21491443043932904
-0.47219896178125254	-0.22006011435768263
-0.47213792662500254	-0.22519299340110682
-0.47207689146875254	-0.23033325701303695
-0.47201585631250254	-0.2354886493749243
-0.47195482115625254	-0.24064956243027336
-0.47189378600000254	-0.2457930776254353
-0.47183275084375254	-0.25089430645262556
-0.47177171568750254	-0.25593931501200406
-0.47171068053125254	-0.2609327772190953
-0.47164964537500254	-0.26589608333138837
-0.47158861021875254	-0.2708564665036639
-0.47152757506250254	-0.27583250134253484
-0.47146653990625254	-0.28082358690714315
-0.47140550475000254	-0.2858091638619762
-0.47134446959375254	-0.29075849432587586
-0.47128343443750254	-0.29564638440533103
-0.47122239928125254	-0.30046675979705606
-0.47116136412500254	-0.30523663495252706
-0.47110032896875254	-0.3099878683631975
-0.47103929381250254	-0.3147505658889571
-0.47097825865625254	-0.319536584477358
-0.47091722350000254	-0.32433196875994574
-0.47085618834375254	-0.32910291884629334
-0.47079515318750254	-0.333812776705833
-0.47073411803125254	-0.33844138666921536
-0.47067308287500254	-0.3429966128279251
-0.47061204771875254	-0.34751144921879606
-0.47055101256250254	-0.352027416533725
-0.47048997740625254	-0.3565724210941945
-0.47042894225000254	-0.3611447187461713
-0.47036790709375254	-0.3657119441295534
-0.47030687193750254	-0.37022656627850853
-0.47024583678125254	-0.37465041928364756
