Time	Frequency
-0.5000305159687457	-0.5917816968477148
-0.4999694808124957	-0.5958545276247204
-0.4999084456562457	-0.5998533235621982
-0.4998474104999957	-0.6037784390048783
-0.4997863753437457	-0.6076279777064011
-0.4997253401874957	-0.611398683676159
-0.4996643050312457	-0.6150879230951173
-0.4996032698749957	-0.618695344789514
-0.4995422347187457	-0.6222229314987974
-0.4994811995624957	-0.625673251367779
-0.4994201644062457	-0.6290471401017711
-0.4993591292499957	-0.6323425899719473
-0.4992980940937457	-0.6355557532117168
-0.4992370589374957	-0.6386834218262947
-0.4991760237812457	-0.641725202990299
-0.4991149886249957	-0.6446836791513388
-0.4990539534687457	-0.6475622731344239
-0.4989929183124957	-0.6503623354909805
-0.4989318831562457	-0.6530816808044249
-0.4988708479999957	-0.6557157854099113
-0.4988098128437457	-0.6582608485749968
-0.4987487776874957	-0.6607164641607789
-0.4986877425312457	-0.6630858430015054
-0.4986267073749957	-0.6653732667373086
-0.4985656722187457	-0.6675805787495502
-0.4985046370624957	-0.6697053908154107
-0.4984436019062457	-0.6717424814305514
-0.4983825667499957	-0.6736874494024113
-0.4983215315937457	-0.6755399102530114
-0.4982604964374957	-0.6773037642916847
-0.4981994612812457	-0.6789841995183244
-0.4981384261249957	-0.680583570798539
-0.4980773909687457	-0.6820992673406107
-0.4980163558124957	-0.6835253132412524
-0.4979553206562457	-0.6848566423893754
-0.4978942854999957	-0.6860928665397684
-0.4978332503437457	-0.6872386194265985
-0.4977722151874957	-0.6883000765062132
-0.4977111800312457	-0.6892801571109146
-0.4976501448749957	-0.690176027151508
-0.4975891097187457	-0.6909809147815177
-0.4975280745624957	-0.691689026379181
-0.4974670394062457	-0.6922999144651738
-0.4974060042499957	-0.6928189320935221
-0.4973449690937457	-0.6932532887859642
-0.4972839339374957	-0.6936065601975057
-0.4972228987812457	-0.6938757755821258
-0.4971618636249957	-0.6940533874651508
-0.4971008284687457	-0.6941327951949982
-0.4970397933124957	-0.6941133460796335
-0.4969787581562457	-0.6940009999981899
-0.4969177229999957	-0.6938040203065632
-0.4968566878437457	-0.6935267964652843
-0.4967956526874957	-0.6931664059057652
-0.4967346175312457	-0.6927146003756387
-0.4966735823749957	-0.6921638820971893
-0.4966125472187457	-0.6915132060630227
-0.4965515120624957	-0.6907689954219235
-0.4964904769062457	-0.6899405653392143
-0.4964294417499957	-0.6890332478034189
-0.4963684065937457	-0.6880443423925026
-0.4963073714374957	-0.6869650220840161
-0.4962463362812457	-0.685786888965442
-0.4961853011249957	-0.6845083562961567
-0.4961242659687457	-0.6831360823010287
-0.4960632308124957	-0.6816802682424592
-0.4960021956562457	-0.6801472138488703
-0.4959411604999957	-0.6785346612309705
-0.4958801253437457	-0.6768334632479918
-0.4958190901874957	-0.6750344402414277
-0.4957580550312457	-0.6731353836781925
-0.4956970198749957	-0.6711429547999096
-0.4956359847187457	-0.6690679836931888
-0.4955749495624957	-0.6669176415046312
-0.4955139144062457	-0.6646902896115083
-0.4954528792499957	-0.6623768204984324
-0.4953918440937457	-0.6599675451391355
-0.4953308089374957	-0.6574595510112717
-0.4952697737812457	-0.6548590796475638
-0.4952087386249957	-0.6521771704666278
-0.4951477034687457	-0.6494217832485717
-0.4950866683124957	-0.6465922048032632
-0.4950256331562457	-0.6436798478512515
-0.4949645979999957	-0.6406748196610157
-0.4949035628437457	-0.6375734071240428
-0.4948425276874957	-0.6343810097641653
-0.4947814925312457	-0.6311084430683591
-0.4947204573749957	-0.627764352516311
-0.4946594222187457	-0.6243492549425574
-0.4945983870624957	-0.620855527235698
-0.4945373519062457	-0.6172733043799203
-0.4944763167499957	-0.6135979252833067
-0.4944152815937457	-0.6098335131594421
-0.4943542464374957	-0.6059902188244
-0.4942932112812457	-0.6020772627639163
-0.4942321761249957	-0.5980967722111852
-0.4941711409687457	-0.5940427293954498
-0.4941101058124957	-0.5899057017389103
-0.4940490706562457	-0.5856798775458691
-0.4939880354999957	-0.5813674062652362
-0.4939270003437457	-0.5769771683594396
-0.4938659651874957	-0.5725189526755127
-0.4938049300312457	-0.5679970493566571
-0.4937438948749957	-0.563407670023698
-0.4936828597187457	-0.5587419606171474
-0.4936218245624957	-0.5539925236066738
-0.4935607894062457	-0.5491589612926681
-0.4934997542499957	-0.5442485951465935
-0.4934387190937457	-0.5392719166880627
-0.4933776839374957	-0.5342359124661493
-0.4933166487812457	-0.529139674112391
-0.4932556136249957	-0.5239752298066899
-0.4931945784687457	-0.5187332262119416
-0.4931335433124957	-0.5134097954706466
-0.4930725081562457	-0.5080099274523442
-0.4930114729999957	-0.5025448749498672
-0.4929504378437457	-0.4970251187557609
-0.4928894026874957	-0.49145350629956913
-0.4928283675312457	-0.48582331016549823
-0.4927673323749957	-0.4801228619217863
-0.4927062972187457	-0.47434398222156077
-0.4926452620624957	-0.4684885555906033
-0.4925842269062457	-0.4625684267226917
-0.4925231917499957	-0.45659820141805946
-0.4924621565937457	-0.450585551194304
-0.4924011214374957	-0.44452571286879483
-0.4923400862812457	-0.4384044720833308
-0.4922790511249957	-0.43220825021176007
-0.4922180159687457	-0.42593463027167927
-0.4921569808124957	-0.4195956294142241
-0.4920959456562457	-0.4132106646695112
-0.4920349104999957	-0.40679355857186883
-0.4919738753437457	-0.4003425894928371
-0.4919128401874957	-0.3938410839263081
-0.4918518050312457	-0.3872690179380116
-0.4917907698749957	-0.38061804353107914
-0.4917297347187457	-0.37389921244017865
-0.4916686995624957	-0.3671371022035967
-0.4916076644062457	-0.36035349937534233
-0.4915466292499957	-0.35355181641347583
-0.4914855940937457	-0.3467137914347193
-0.4914245589374957	-0.33981182783668185
-0.4913635237812457	-0.3328291048357968
-0.4913024886249957	-0.3257733649751274
-0.4912414534687457	-0.31867381061332556
-0.4911804183124957	-0.3115620466833266
-0.4911193831562457	-0.3044498237915719
-0.4910583479999957	-0.2973196772910382
-0.4909973128437457	-0.2901362815123186
-0.4909362776874957	-0.28287165567912226
-0.4908752425312457	-0.27552667733530195
-0.4908142073749957	-0.26813297404469677
-0.4907531722187457	-0.2607326368291713
-0.4906921370624957	-0.2533491297319922
-0.4906311019062457	-0.24596994609414724
-0.4905700667499957	-0.23855428564495157
-0.4905090315937457	-0.23106160573118248
-0.4904479964374957	-0.22348146430566188
-0.4903869612812457	-0.2158431402675239
-0.4903259261249957	-0.20819717745510377
-0.4902648909687457	-0.20058091225447894
-0.4902038558124957	-0.1929920978877445
-0.4901428206562457	-0.18538983557956867
-0.4900817854999957	-0.1777230178487382
-0.4900207503437457	-0.16996687521899279
-0.4899597151874957	-0.16214188528786252
-0.4898986800312457	-0.15430104185881627
-0.4898376448749957	-0.14649379851962124
-0.4897766097187457	-0.13873199871203135
-0.4897155745624957	-0.13098198284676965
-0.4896545394062457	-0.12318861303325476
-0.4895935042499957	-0.11531445324409072
-0.4895324690937457	-0.10736653613536531
-0.4894714339374957	-0.09939188144626424
-0.4894103987812457	-0.09144513982051052
-0.4893493636249957	-0.083551342720124
-0.4892883284687457	-0.07568982480581092
-0.4892272933124957	-0.067810183590238
-0.4891662581562457	-0.059868579659756525
-0.4891052229999957	-0.05185854541891791
-0.4890441878437457	-0.04381491211208838
-0.4889831526874957	-0.03578905274586869
-0.4889221175312457	-0.02781366572041736
-0.4888610823749957	-0.019881835010335684
-0.4888000472187457	-0.011954292745080187
-0.4887390120624957	-0.003988658888756012
-0.4886779769062457	0.004030618933699142
-0.4886169417499957	0.012082340109099393
-0.4885559065937457	0.020124409908937005
-0.4884948714374957	0.02812319074766562
-0.4884338362812457	0.036075358619178426
-0.4883728011249957	0.04400755966207442
-0.4883117659687457	0.05195543228935428
-0.4882507308124957	0.05993778295088564
-0.4881896956562457	0.06794408605393881
-0.4881286604999957	0.07594306143585065
-0.4880676253437457	0.08390494770979008
-0.4880065901874957	0.0918211508530455
-0.4879455550312457	0.09970787712191898
-0.4878845198749957	0.10759236147185552
-0.4878234847187457	0.11549246773306153
-0.4877624495624957	0.12340430238628775
-0.4877014144062457	0.13130593230426715
-0.4876403792499957	0.1391733913869233
-0.4875793440937457	0.14699676925989077
-0.4875183089374957	0.1547851773884077
-0.4874572737812457	0.16255808329494342
-0.4873962386249957	0.170330133528373
-0.4873352034687457	0.1781005862415424
-0.4872741683124957	0.1858544217790928
-0.4872131331562457	0.19357338064884827
-0.4871520979999957	0.20124833354402658
-0.4870910628437457	0.20888421327540407
-0.4870300276874957	0.21649461376284587
-0.4869689925312457	0.22409067508030195
-0.4869079573749957	0.23167266282526577
-0.4868469222187457	0.23923003722067565
-0.4867858870624957	0.24674921670202787
-0.4867248519062457	0.2542228188980971
-0.4866638167499957	0.261653646281581
-0.4866027815937457	0.2690510524606141
-0.4865417464374957	0.2764229313387387
-0.4864807112812457	0.2837693969395168
-0.4864196761249957	0.2910826490885821
-0.4863586409687457	0.29835267363511037
-0.4862976058124957	0.3055740581936352
-0.4862365706562457	0.31274882301229145
-0.4861755354999957	0.31988357815024837
-0.4861145003437457	0.32698355979380794
-0.4860534651874957	0.33404815674612914
-0.4859924300312457	0.3410711182857082
-0.4859313948749957	0.34804495351685333
-0.4858703597187457	0.3549659510583859
-0.4858093245624957	0.3618360279136214
-0.4857482894062457	0.36866020434662683
-0.4856872542499957	0.3754418398771562
-0.4856262190937457	0.38217940041582166
-0.4855651839374957	0.3888671924856814
-0.4855041487812457	0.39549930018351936
-0.4854431136249957	0.4020735281110938
-0.4853820784687457	0.4085923037161732
-0.4853210433124957	0.4150599672259406
-0.4852600081562457	0.42147863759745285
-0.4851989729999957	0.42784584723970065
-0.4851379378437457	0.4341557768826038
-0.4850769026874957	0.4404031418873556
-0.4850158675312457	0.44658670395165145
-0.4849548323749957	0.45270968706065545
-0.4848937972187457	0.4587767398153461
-0.4848327620624957	0.46478969357033806
-0.4847717269062457	0.47074536697266794
-0.4847106917499957	0.47663719900936236
-0.4846496565937457	0.4824595392652643
-0.4845886214374957	0.4882113897089426
-0.4845275862812457	0.4938968002718185
-0.4844665511249957	0.4995214857693815
-0.4844055159687457	0.5050880056354401
-0.4843444808124957	0.5105931042959544
-0.4842834456562457	0.5160293210104958
-0.4842224104999957	0.521389780597885
-0.4841613753437457	0.5266727033188872
-0.4841003401874957	0.5318823595358253
-0.4840393050312457	0.5370256902199324
-0.4839782698749957	0.5421068739921474
-0.4839172347187457	0.5471237034919643
-0.4838561995624957	0.552068471087007
-0.4837951644062457	0.5569328272028876
-0.4837341292499957	0.5617132056652163
-0.4836730940937457	0.5664130047746272
-0.4836120589374957	0.5710399279078586
-0.4835510237812457	0.5756002175855297
-0.4834899886249957	0.5800937664174037
-0.4834289534687457	0.5845136064298619
-0.4833679183124957	0.5888502462309672
-0.4833068831562457	0.5930978554137704
-0.4832458479999957	0.5972579639599971
-0.4831848128437457	0.601338084067266
-0.4831237776874957	0.605346158352562
-0.4830627425312457	0.609284647143915
-0.4830017073749957	0.6131483846447036
-0.4829406722187457	0.616927728905249
-0.4828796370624957	0.6206148361878755
-0.4828186019062457	0.6242087268696715
-0.4827575667499957	0.6277156372288145
-0.4826965315937457	0.6311443878470252
-0.4826354964374957	0.6344999616342265
-0.4825744612812457	0.6377797470996088
-0.4825134261249957	0.6409750374466469
-0.4824523909687457	0.6440767303647869
-0.4823913558124957	0.6470812911837749
-0.4823303206562457	0.649992856807485
-0.4822692854999957	0.6528200333457056
-0.4822082503437457	0.6555696543850816
-0.4821472151874957	0.6582418459351966
-0.4820861800312457	0.6608297587858964
-0.4820251448749957	0.6633240914439894
-0.4819641097187457	0.6657192563286486
-0.4819030745624957	0.6680169213153148
-0.4818420394062457	0.6702245109050686
-0.4817810042499957	0.6723497865868286
-0.4817199690937457	0.6743953015921109
-0.4816589339374957	0.6763565429083926
-0.4815978987812457	0.6782249853311348
-0.4815368636249957	0.6799938490377265
-0.4814758284687457	0.6816625151268502
-0.4814147933124957	0.6832366005107438
-0.4813537581562457	0.6847237631506525
-0.4812927229999957	0.6861282333218209
-0.4812316878437457	0.6874478720964308
-0.4811706526874957	0.6886757100073778
-0.4811096175312457	0.689804761338572
-0.4810485823749957	0.6908326904981043
-0.4809875472187457	0.6917631265397344
-0.4809265120624957	0.6926028381968641
-0.4808654769062457	0.6933568580728834
-0.4808044417499957	0.6940249917053538
-0.4807434065937457	0.6946020777583266
-0.4806823714374957	0.6950816839445269
-0.4806213362812457	0.6954605484031786
-0.4805603011249957	0.695740653803327
-0.4804992659687457	0.6959275754591563
-0.4804382308124957	0.696026394503515
-0.4803771956562457	0.6960381335545426
-0.4803161604999957	0.6959591990077661
-0.4802551253437457	0.6957841029374944
-0.4801940901874957	0.6955094068247978
-0.4801330550312457	0.6951360471266947
-0.4800720198749957	0.6946684828141931
-0.4800109847187457	0.6941114145321022
-0.4799499495624957	0.6934664813860832
-0.4798889144062457	0.6927312647283072
-0.4798278792499957	0.6919012221060166
-0.4797668440937457	0.6909730663706422
-0.4797058089374957	0.6899471266749828
-0.4796447737812457	0.6888270395448379
-0.4795837386249957	0.6876170985751117
-0.4795227034687457	0.6863192664171212
-0.4794616683124957	0.6849319793404856
-0.4794006331562457	0.6834515037098986
-0.4793395979999957	0.6818747994432401
-0.4792785628437457	0.6802017979730449
-0.4792175276874957	0.6784354706372556
-0.4791564925312457	0.6765797317500937
-0.4790954573749957	0.674636767047889
-0.4790344222187457	0.6726057013089336
-0.4789733870624957	0.6704835113429821
-0.4789123519062457	0.668267453004458
-0.4788513167499957	0.6659572003521694
-0.4787902815937457	0.6635551903920538
-0.4787292464374957	0.6610649896569329
-0.4786682112812457	0.6584889122254945
-0.4786071761249957	0.6558266358902943
-0.4785461409687457	0.6530757732967347
-0.4784851058124957	0.6502339109949244
-0.4784240706562457	0.6473005875090095
-0.4783630354999957	0.6442777924577519
-0.4783020003437457	0.6411687189082383
-0.4782409651874957	0.6379757124776367
-0.4781799300312457	0.6346988774916251
-0.4781188948749957	0.6313363728517971
-0.4780578597187457	0.6278861649586049
-0.4779968245624957	0.6243478509210875
-0.4779357894062457	0.6207231846788926
-0.4778747542499957	0.6170150319694471
-0.4778137190937457	0.6132256109991543
-0.4777526839374957	0.6093552582982822
-0.4776916487812457	0.6054025808436053
-0.4776306136249957	0.6013658946992709
-0.4775695784687457	0.597244841932808
-0.4775085433124957	0.5930409776674751
-0.4774475081562457	0.5887569709960324
-0.4773864729999957	0.5843950441961435
-0.4773254378437457	0.5799557803728802
-0.4772644026874957	0.5754381676388659
-0.4772033675312457	0.5708408250916845
-0.4771423323749957	0.5661634533701819
-0.4770812972187457	0.5614074376305106
-0.4770202620624957	0.5565752344156986
-0.4769592269062457	0.5516690388576969
-0.4768981917499957	0.5466896768848836
-0.4768371565937457	0.5416364781569929
-0.4767761214374957	0.5365082214213801
-0.4767150862812457	0.531304497515611
-0.4766540511249957	0.5260265000453341
-0.4765930159687457	0.5206766618862366
-0.4765319808124957	0.5152573974188358
-0.4764709456562457	0.5097698519852082
-0.4764099104999957	0.5042135910252944
-0.4763488753437457	0.4985874825466022
-0.4762878401874957	0.4928910688281845
-0.4762268050312457	0.48712538977407643
-0.4761657698749957	0.4812927416975014
-0.4761047347187457	0.4753955889681953
-0.4760436995624957	0.4694353788202475
-0.4759826644062457	0.4634120831674562
-0.4759216292499957	0.45732477818107314
-0.4758605940937457	0.45117286085300545
-0.4757995589374957	0.44495705202961855
-0.4757385237812457	0.4386794665294522
-0.4756774886249957	0.4323427023381413
-0.4756164534687457	0.42594858755401865
-0.4755554183124957	0.41949747125904563
-0.4754943831562457	0.41298858897213614
-0.4754333479999957	0.4064212285952646
-0.4753723128437457	0.39979582416580384
-0.4753112776874957	0.39311423014339836
-0.4752502425312457	0.3863790311626084
-0.4751892073749957	0.37959237841800025
-0.4751281722187457	0.3727551575108308
-0.4750671370624957	0.365867024354856
-0.4750061019062457	0.35892726135263947
-0.4749450667499957	0.3519359070677091
-0.4748840315937457	0.34489437062615136
-0.4748229964374957	0.33780506751919803
-0.4747619612812457	0.3306703853888513
-0.4747009261249957	0.32349171347218203
-0.4746398909687457	0.3162691518961929
-0.4745788558124957	0.3090021377411448
-0.4745178206562457	0.3016905565870699
-0.4744567854999957	0.2943354521829374
-0.4743957503437457	0.286938867445627
-0.4743347151874957	0.2795030906995213
-0.4742736800312457	0.27202984812915487
-0.4742126448749957	0.2645198842499141
-0.4741516097187457	0.2569731675595312
-0.4740905745624957	0.2493896036905266
-0.4740295394062457	0.2417697527922833
-0.4739685042499957	0.2341150778649459
-0.4739074690937457	0.2264276336667685
-0.4738464339374957	0.21870938071717413
-0.4737853987812457	0.21096153255590896
-0.4737243636249957	0.20318443410845316
-0.4736633284687457	0.19537810325009375
-0.4736022933124957	0.18754299544086392
-0.4735412581562457	0.17968037911877258
-0.4734802229999957	0.17179210457557248
-0.4734191878437457	0.16388002370496554
-0.4733581526874957	0.15594549946662165
-0.4732971175312457	0.14798928181665164
-0.4732360823749957	0.14001174837051258
-0.4731750472187457	0.13201336251711032
-0.4731140120624957	0.1239950770989072
-0.4730529769062457	0.11595841599886039
-0.4729919417499957	0.10790514143432198
-0.4729309065937457	0.09983672110877771
-0.4728698714374957	0.09175409395740616
-0.4728088362812457	0.08365787749213677
-0.4727478011249957	0.07554870031848444
-0.4726867659687457	0.06742749572496123
-0.4726257308124957	0.05929563639814778
-0.4725646956562457	0.051154724300714695
-0.4725036604999957	0.04300619291451092
-0.4724426253437457	0.034851077622871235
-0.4723815901874957	0.026690083978687128
-0.4723205550312457	0.018523889029722518
-0.4722595198749957	0.010353493767369956
-0.4721984847187457	0.002180334063636222
-0.4721374495624957	-0.005993991346140442
-0.4720764144062457	-0.014168165038619446
-0.4720153792499957	-0.022341348684067563
-0.4719543440937457	-0.030512924441585234
-0.4718933089374957	-0.03868204802260017
-0.4718322737812457	-0.04684743219696078
-0.4717712386249957	-0.05500750097348611
-0.4717102034687457	-0.06316074833248936
-0.4716491683124957	-0.07130602935480684
-0.4715881331562457	-0.07944259572563758
-0.4715270979999957	-0.08756985117243507
-0.4714660628437457	-0.09568697614035533
-0.4714050276874957	-0.10379270047364689
-0.4713439925312457	-0.1118854160849795
-0.4712829573749957	-0.119963532627923
-0.4712219222187457	-0.12802582785729977
-0.4711608870624957	-0.13607155602522678
-0.4710998519062457	-0.14410019667313542
-0.4710388167499957	-0.15211102299277185
-0.4709777815937457	-0.1601028117164625
-0.4709167464374957	-0.16807390307986264
-0.4708557112812457	-0.1760226203327642
-0.4707946761249957	-0.1839477367005472
-0.4707336409687457	-0.19184857146764292
-0.4706726058124957	-0.19972466944415695
-0.4706115706562457	-0.20757536211532243
-0.4705505354999957	-0.21539949346970355
-0.4704895003437457	-0.22319547091475017
-0.4704284651874957	-0.23096163013608048
-0.4703674300312457	-0.23869665006029023
-0.4703063948749957	-0.24639970656685578
-0.4702453597187457	-0.2540702874573991
-0.4701843245624957	-0.26170781216131367
-0.4701232894062457	-0.2693113187257292
-0.4700622542499957	-0.27687943404425197
-0.4700012190937457	-0.28441060212742497
-0.4699401839374957	-0.2919034177113887
-0.4698791487812457	-0.29935688012417594
-0.4698181136249957	-0.3067703914455739
-0.4697570784687457	-0.3141434720957633
-0.4696960433124957	-0.32147534515411774
-0.4696350081562457	-0.3287647257343708
-0.4695739729999957	-0.3360100297039751
-0.4695129378437457	-0.3432098026064582
-0.4694519026874957	-0.35036303227703314
