Time	Frequency
-0.5000610335000033	5.805025237320998e-23
-0.4999999983437533	5.631792449639689e-23
-0.4999389631875033	5.458637772918886e-23
-0.4998779280312533	5.287046343665028e-23
-0.4998168928750033	5.1175627303748183e-23
-0.4997558577187533	4.949638106300163e-23
-0.4996948225625033	4.781939096275003e-23
-0.4996337874062533	4.6129606668934155e-23
-0.4995727522500033	4.441668397801094e-23
-0.4995117170937533	4.2678982523623323e-23
-0.4994506819375033	4.092362623825443e-23
-0.4993896467812533	3.9162896446797464e-23
-0.4993286116250033	3.74087533932448e-23
-0.4992675764687533	3.566793715507254e-23
-0.4992065413125033	3.3939672709472915e-23
-0.4991455061562533	3.221673064807513e-23
-0.4990844710000033	3.0489108073906744e-23
-0.4990234358437533	2.87485501227762e-23
-0.4989624006875033	2.699191617131396e-23
-0.4989013655312533	2.5222059592003763e-23
-0.4988403303750033	2.3446067999878557e-23
-0.4987792952187533	2.1671852493129357e-23
-0.4987182600625033	1.9904716506898812e-23
-0.4986572249062533	1.814540244140732e-23
-0.4985961897500033	1.6390331732632296e-23
-0.4985351545937533	1.46337358465672e-23
-0.4984741194375033	1.287056214407233e-23
-0.4984130842812533	1.1098765423858602e-23
-0.4983520491250033	9.31997282219272e-24
-0.4982910139687533	7.538361199551211e-24
-0.4982299788125033	5.758443338151118e-24
-0.4981689436562533	3.9828953774983956e-24
-0.4981079085000033	2.2114655224205178e-24
-0.4980468733437533	4.414305463576827e-25
-0.4979858381875033	-1.3307302858887416e-24
-0.4979248030312533	-3.1073432925500257e-24
-0.4978637678750033	-4.88823329758932e-24
-0.4978027327187533	-6.670757761326201e-24
-0.4977416975625033	-8.451156177306307e-24
-0.4976806624062533	-1.0226507663864221e-23
-0.4976196272500033	-1.1996294628978364e-23
-0.4975585920937533	-1.3762763910416946e-23
-0.4974975569375033	-1.5529856119289035e-23
-0.4974365217812533	-1.730118877423187e-23
-0.4973754866250033	-1.9078074332516915e-23
-0.4973144514687533	-2.0858569334827883e-23
-0.4972534163125033	-2.2638075999691847e-23
-0.4971923811562533	-2.4411292770385406e-23
-0.4971313460000033	-2.6174658025632077e-23
-0.4970703108437533	-2.7928152014159924e-23
-0.4970092756875033	-2.9675553287653823e-23
-0.4969482405312533	-3.1422907858240117e-23
-0.4968872053750033	-3.317581569495371e-23
-0.4968261702187533	-3.493674448195885e-23
-0.4967651350625033	-3.67036184513057e-23
-0.4967040999062533	-3.8470392358364723e-23
-0.4966430647500033	-4.022943838561986e-23
-0.4965820295937533	-4.197476856501639e-23
-0.4965209944375033	-4.370472451427959e-23
-0.4964599592812533	-4.5422904555239486e-23
-0.4963989241250033	-4.713681226172031e-23
-0.4963378889687533	-4.8854729082668876e-23
-0.4962768538125033	-5.058210027743803e-23
-0.4962158186562533	-5.231897204341885e-23
-0.4961547835000033	-5.405964338395365e-23
-0.4960937483437533	-5.579479609051455e-23
-0.4960327131875033	-5.751528874469801e-23
-0.4959716780312533	-5.921601382187367e-23
-0.4959106428750033	-6.089815047519092e-23
-0.4958496077187533	-6.256882742456825e-23
-0.4957885725625033	-6.423825764999462e-23
-0.4957275374062533	-6.591546529782554e-23
-0.4956665022500033	-6.76043922627388e-23
-0.4956054670937533	-6.930204671551034e-23
-0.4955444319375033	-7.09995088766108e-23
-0.4954833967812533	-7.26854429199104e-23
-0.4954223616250033	-7.435070785408429e-23
-0.4953613264687533	-7.599215320002049e-23
-0.4953002913125033	-7.761398942210181e-23
-0.4952392561562533	-7.922612647413188e-23
-0.4951782210000033	-8.084013090145664e-23
-0.4951171858437533	-8.246442264120227e-23
-0.4950561506875033	-8.410067914413044e-23
-0.4949951155312533	-8.574299331443974e-23
-0.4949340803750033	-8.738017595897408e-23
-0.4948730452187533	-8.900023738439119e-23
-0.4948120100625033	-9.05952294170075e-23
-0.4947509749062533	-9.216448801185982e-23
-0.4946899397500033	-9.371490289327409e-23
-0.4946289045937533	-9.525807195671625e-23
-0.4945678694375033	-9.680552268044492e-23
-0.4945068342812533	-9.83639629073481e-23
-0.4944457991250033	-9.993249727144648e-23
-0.4943847639687533	-1.0150294989556897e-22
-0.4943237288125033	-1.0306314991521851e-22
-0.4942626936562533	-1.0460182404153136e-22
-0.4942016585000033	-1.0611311235603077e-22
-0.4941406233437533	-1.0759886750758955e-22
-0.4940795881875033	-1.090677961371241e-22
-0.4940185530312533	-1.1053182283136376e-22
-0.4939575178750033	-1.120011852889382e-22
-0.4938964827187533	-1.1348025707678413e-22
-0.4938354475625033	-1.1496579332882063e-22
-0.4937744124062533	-1.1644829602284168e-22
-0.4937133772500033	-1.1791590085333026e-22
-0.4936523420937533	-1.193591675346297e-22
-0.4935913069375033	-1.207748080296813e-22
-0.4935302717812533	-1.2216684162778168e-22
-0.4934692366250033	-1.2354476574889394e-22
-0.4934082014687533	-1.249195627704337e-22
-0.4933471663125033	-1.2629919336365148e-22
-0.4932861311562533	-1.2768540297644015e-22
-0.4932250960000033	-1.2907311934220314e-22
-0.4931640608437533	-1.3045262964107911e-22
-0.4931030256875033	-1.3181357491837433e-22
-0.4930419905312533	-1.3314909766183244e-22
-0.4929809553750033	-1.3445847083825791e-22
-0.4929199202187533	-1.357471726196526e-22
-0.4928588850625033	-1.3702443494485812e-22
-0.4927978499062533	-1.3829934888462722e-22
-0.4927368147500033	-1.3957715558390017e-22
-0.4926757795937533	-1.4085720833042628e-22
-0.4926147444375033	-1.4213338234099462e-22
-0.4925537092812533	-1.4339669494315912e-22
-0.4924926741250033	-1.4463899614176009e-22
-0.4924316389687533	-1.4585619900943136e-22
-0.4923706038125033	-1.4704975551914182e-22
-0.4923095686562533	-1.4822582398074994e-22
-0.4922485335000033	-1.4939254760618939e-22
-0.4921874983437533	-1.505566333074961e-22
-0.4921264631875033	-1.5172064182684833e-22
-0.4920654280312533	-1.5288206040993362e-22
-0.4920043928750033	-1.5403448483867835e-22
-0.4919433577187533	-1.5517035015829253e-22
-0.4918823225625033	-1.5628402192338733e-22
-0.4918212874062533	-1.5737396903254964e-22
-0.4917602522500033	-1.5844317106892011e-22
-0.4916992170937533	-1.5949766953817841e-22
-0.4916381819375033	-1.6054393553419022e-22
-0.4915771467812533	-1.6158617869132656e-22
-0.4915161116250033	-1.626246944382212e-22
-0.4914550764687533	-1.6365587626166342e-22
-0.4913940413125033	-1.6467382564148739e-22
-0.4913330061562533	-1.6567283882259163e-22
-0.4912719710000033	-1.6664969604225478e-22
-0.4912109358437533	-1.6760481722029657e-22
-0.4911499006875033	-1.6854187765358206e-22
-0.4910888655312533	-1.694661113505189e-22
-0.4910278303750033	-1.7038205977753579e-22
-0.4909667952187533	-1.7129172779432675e-22
-0.4909057600625033	-1.7219386981110663e-22
-0.4908447249062533	-1.7308462735488112e-22
-0.4907836897500033	-1.7395920410934199e-22
-0.4907226545937533	-1.7481385098290436e-22
-0.4906616194375033	-1.7564731476952578e-22
-0.4906005842812533	-1.7646117479061997e-22
-0.4905395491250033	-1.7725900201511823e-22
-0.4904785139687533	-1.7804475640895535e-22
-0.4904174788125033	-1.788211184388321e-22
-0.4903564436562533	-1.7958843989021375e-22
-0.4902954085000033	-1.8034471089748516e-22
-0.4902343733437533	-1.8108650595974742e-22
-0.4901733381875033	-1.8181045996167123e-22
-0.4901123030312533	-1.8251462126918697e-22
-0.4900512678750033	-1.8319912957160283e-22
-0.4899902327187533	-1.8386598549087723e-22
-0.4899291975625033	-1.84518065289647e-22
-0.4898681624062533	-1.851578417504049e-22
-0.4898071272500033	-1.857863673233951e-22
-0.4897460920937533	-1.8640292530852877e-22
-0.4896850569375033	-1.8700544638464662e-22
-0.4896240217812533	-1.8759145902603772e-22
-0.4895629866250033	-1.8815913436728214e-22
-0.4895019514687533	-1.8870797762623345e-22
-0.4894409163125033	-1.8923889678506657e-22
-0.4893798811562533	-1.897536674080202e-22
-0.4893188460000033	-1.9025407551677592e-22
-0.4892578108437533	-1.9074113349556269e-22
-0.4891967756875033	-1.9121469963594607e-22
-0.4891357405312533	-1.9167363544476994e-22
-0.4890747053750033	-1.9211638624898866e-22
-0.4890136702187533	-1.9254169017369477e-22
-0.4889526350625033	-1.9294909293460116e-22
-0.4888915999062533	-1.933390554771749e-22
-0.4888305647500033	-1.937126335995224e-22
-0.4887695295937533	-1.9407090762767964e-22
-0.4887084944375033	-1.9441444801610214e-22
-0.4886474592812533	-1.9474306881339425e-22
-0.4885864241250033	-1.9505596865400768e-22
-0.4885253889687533	-1.953521651162821e-22
-0.4884643538125033	-1.956309905497053e-22
-0.4884033186562533	-1.9589240400686086e-22
-0.4883422835000033	-1.9613697834584529e-22
-0.4882812483437533	-1.9636557788481123e-22
-0.4882202131875033	-1.9657888699751958e-22
-0.4881591780312533	-1.967770268814465e-22
-0.4880981428750033	-1.969594568947966e-22
-0.4880371077187533	-1.9712521504256079e-22
-0.4879760725625033	-1.9727338587146993e-22
-0.4879150374062533	-1.9740356944535458e-22
-0.4878540022500033	-1.9751611656932994e-22
-0.4877929670937533	-1.976120028870111e-22
-0.4877319319375033	-1.9769238665470762e-22
-0.4876708967812533	-1.9775804844297082e-22
-0.4876098616250033	-1.9780897484189194e-22
-0.4875488264687533	-1.9784429425945864e-22
-0.4874877913125033	-1.978626186358733e-22
-0.4874267561562533	-1.9786265388715878e-22
-0.4873657210000033	-1.978438072925915e-22
-0.4873046858437533	-1.9780650942684987e-22
-0.4872436506875033	-1.9775208608322812e-22
-0.4871826155312533	-1.9768221268965628e-22
-0.4871215803750033	-1.9759817790909404e-22
-0.4870605452187533	-1.9750028152120901e-22
-0.4869995100625033	-1.9738764366891446e-22
-0.4869384749062533	-1.9725853249100603e-22
-0.4868774397500033	-1.9711109202408632e-22
-0.4868164045937533	-1.9694416100830281e-22
-0.4867553694375033	-1.9675781804124676e-22
-0.4866943342812533	-1.965534040566129e-22
-0.4866332991250033	-1.9633299369545851e-22
-0.4865722639687533	-1.9609852502606005e-22
-0.4865112288125033	-1.9585095791508018e-22
-0.4864501936562533	-1.9558983069004906e-22
-0.4863891585000033	-1.9531342045117213e-22
-0.4863281233437533	-1.9501945699081575e-22
-0.4862670881875033	-1.9470609618460622e-22
-0.4862060530312533	-1.943727334489454e-22
-0.4861450178750033	-1.9402029838239509e-22
-0.4860839827187533	-1.936508938691166e-22
-0.4860229475625033	-1.9326692594280699e-22
-0.4859619124062533	-1.9287009501840447e-22
-0.4859008772500033	-1.9246068082188053e-22
-0.4858398420937533	-1.9203742128135561e-22
-0.4857788069375033	-1.915980387433179e-22
-0.4857177717812533	-1.9114020553100022e-22
-0.4856567366250033	-1.906625461494954e-22
-0.4855957014687533	-1.9016524379002563e-22
-0.4855346663125033	-1.8964998545782556e-22
-0.4854736311562533	-1.891192636734723e-22
-0.4854125960000033	-1.8857533276269798e-22
-0.4853515608437533	-1.8801927405184146e-22
-0.4852905256875033	-1.874505713481009e-22
-0.4852294905312533	-1.8686735930557778e-22
-0.4851684553750033	-1.862672298987737e-22
-0.4851074202187533	-1.8564826837571233e-22
-0.4850463850625033	-1.8500987754271498e-22
-0.4849853499062533	-1.8435303053271337e-22
-0.4849243147500033	-1.8367985743620998e-22
-0.4848632795937533	-1.8299275579006507e-22
-0.4848022444375033	-1.8229340227833066e-22
-0.4847412092812533	-1.815820850321015e-22
-0.4846801741250033	-1.8085763347802986e-22
-0.4846191389687533	-1.8011795858798253e-22
-0.4845581038125033	-1.7936096929886914e-22
-0.4844970686562533	-1.7858547601196714e-22
-0.4844360335000033	-1.777916952167927e-22
-0.4843749983437533	-1.7698115053022986e-22
-0.4843139631875033	-1.761560242221634e-22
-0.4842529280312533	-1.753182475847999e-22
-0.4841918928750033	-1.7446872712291055e-22
-0.4841308577187533	-1.7360702355125112e-22
-0.4840698225625033	-1.7273160062197245e-22
-0.4840087874062533	-1.7184053089102179e-22
-0.4839477522500033	-1.7093235230190414e-22
-0.4838867170937533	-1.7000670212398768e-22
-0.4838256819375033	-1.6906446066448146e-22
-0.4837646467812533	-1.6810736475122837e-22
-0.4837036116250033	-1.671372792304498e-22
-0.4836425764687533	-1.6615543966780629e-22
-0.4835815413125033	-1.6516198227336212e-22
-0.4835205061562533	-1.641559624453996e-22
-0.4834594710000033	-1.6313583929256929e-22
-0.4833984358437533	-1.6210018802482919e-22
-0.4833374006875033	-1.6104832867067642e-22
-0.4832763655312533	-1.5998061361179367e-22
-0.4832153303750033	-1.5889826276416462e-22
-0.4831542952187533	-1.578028415159088e-22
-0.4830932600625033	-1.5669562083973778e-22
-0.4830322249062533	-1.5557708937204416e-22
-0.4829711897500033	-1.5444682337234104e-22
-0.4829101545937533	-1.5330375596689444e-22
-0.4828491194375033	-1.521467033574534e-22
-0.4827880842812533	-1.5097491380786954e-22
-0.4827270491250033	-1.497884060284658e-22
-0.4826660139687533	-1.4858795328385217e-22
-0.4826049788125033	-1.473747420168485e-22
-0.4825439436562533	-1.4614987710244866e-22
-0.4824829085000033	-1.4491395444670723e-22
-0.4824218733437533	-1.4366688645087612e-22
-0.4823608381875033	-1.424080392940301e-22
-0.4822998030312533	-1.4113659696893514e-22
-0.4822387678750033	-1.3985197935075278e-22
-0.4821777327187533	-1.3855412133533964e-22
-0.4821166975625033	-1.37243496491523e-22
-0.4820556624062533	-1.359208976761522e-22
-0.4819946272500033	-1.3458709399550582e-22
-0.4819335920937533	-1.332425325351073e-22
-0.4818725569375033	-1.3188722325304025e-22
-0.4818115217812533	-1.3052084642367217e-22
-0.4817504866250033	-1.2914300030046234e-22
-0.4816894514687533	-1.2775345571853347e-22
-0.4816284163125033	-1.2635230665763765e-22
-0.4815673811562533	-1.2493994055760163e-22
-0.4815063460000033	-1.2351684691011928e-22
-0.4814453108437533	-1.2208339464096639e-22
-0.4813842756875033	-1.2063969879761597e-22
-0.4813232405312533	-1.191856281324836e-22
-0.4812622053750033	-1.1772096019823588e-22
-0.4812011702187533	-1.1624561308086663e-22
-0.4811401350625033	-1.1475980364442268e-22
-0.4810790999062533	-1.1326401269391448e-22
-0.4810180647500033	-1.1175878286523238e-22
-0.4809570295937533	-1.1024447542438618e-22
-0.4808959944375033	-1.0872110228377308e-22
-0.4808349592812533	-1.071883260215586e-22
-0.4807739241250033	-1.0564566128151857e-22
-0.4807128889687533	-1.0409279144465234e-22
-0.4806518538125033	-1.0252983545369581e-22
-0.4805908186562533	-1.0095741476668862e-22
-0.4805297835000033	-9.937646608349097e-23
-0.4804687483437533	-9.778787225840509e-23
-0.4804077131875033	-9.619207966342944e-23
-0.4803466780312533	-9.458889393445811e-23
-0.4802856428750033	-9.297756952643411e-23
-0.4802246077187533	-9.135718035191262e-23
-0.4801635725625033	-8.972711897324386e-23
-0.4801025374062533	-8.808747754241388e-23
-0.4800415022500033	-8.643912281402448e-23
-0.4799804670937533	-8.478341664231714e-23
-0.4799194319375033	-8.312168174388385e-23
-0.4798583967812533	-8.145464310528247e-23
-0.4797973616250033	-7.97820972369185e-23
-0.4797363264687533	-7.810299607075725e-23
-0.4796752913125033	-7.641595607823526e-23
-0.4796142561562533	-7.471995574764997e-23
-0.4795532210000033	-7.30148906189403e-23
-0.4794921858437533	-7.130174038734498e-23
-0.4794311506875033	-6.958225175326586e-23
-0.4793701155312533	-6.785823898270829e-23
-0.4793090803750033	-6.613080940562431e-23
-0.4792480452187533	-6.439988595179083e-23
-0.4791870100625033	-6.266425300133089e-23
-0.4791259749062533	-6.092211924616556e-23
-0.4790649397500033	-5.917197696357924e-23
-0.4790039045937533	-5.741337755408268e-23
-0.4789428694375033	-5.564724869564946e-23
-0.4788818342812533	-5.387558890080546e-23
-0.4788207991250033	-5.2100674695314763e-23
-0.4787597639687533	-5.0324124890570985e-23
-0.4786987288125033	-4.8546203262914606e-23
-0.4786376936562533	-4.6765685775635706e-23
-0.4785766585000033	-4.498042448866635e-23
-0.4785156233437533	-4.318837114588736e-23
-0.4784545881875033	-4.138857422907785e-23
-0.4783935530312533	-3.958171146517231e-23
-0.4783325178750033	-3.7769917999621314e-23
-0.4782714827187533	-3.5955939761983735e-23
-0.4782104475625033	-3.414197153594063e-23
-0.4781494124062533	-3.232872208739126e-23
-0.4780883772500033	-3.0515121548143805e-23
-0.4780273420937533	-2.8698807049045947e-23
-0.4779663069375033	-2.687721089535934e-23
-0.4779052717812533	-2.5048782908982514e-23
-0.4778442366250033	-2.3213795631014526e-23
-0.4777832014687533	-2.1374349500871357e-23
-0.4777221663125033	-1.9533548823659797e-23
-0.4776611311562533	-1.769421305670976e-23
-0.4776000960000033	-1.5857671702046013e-23
-0.4775390608437533	-1.402317304925483e-23
-0.4774780256875033	-1.2188221140854833e-23
-0.4774169905312533	-1.034971879284954e-23
-0.4773559553750033	-8.505422084419841e-24
-0.4772949202187533	-6.655066312302892e-24
-0.4772338850625033	-4.800624402999432e-24
-0.4771728499062533	-2.945543817990201e-24
-0.4771118147500033	-1.09329178089889e-24
-0.4770507795937533	7.541410246016706e-25
-0.4769897444375033	2.5971061501688878e-24
-0.4769287092812533	4.438134148218282e-24
-0.4768676741250033	6.28079518754504e-24
-0.4768066389687533	8.128065460101282e-24
-0.4767456038125033	9.980896683568977e-24
-0.4766845686562533	1.1837631476605104e-23
-0.4766235335000033	1.369458543186236e-23
-0.4765624983437533	1.5547585128433364e-23
-0.4765014631875033	1.739377287727643e-23
-0.4764404280312533	1.923285800013514e-23
-0.4763793928750033	2.106725755179444e-23
-0.4763183577187533	2.290104427241313e-23
-0.4762573225625033	2.473810651701366e-23
-0.4761962874062533	2.658030359246199e-23
-0.4761352522500033	2.8426478918345026e-23
-0.4760742170937533	3.0272816124449003e-23
-0.4760131819375033	3.211439289719862e-23
-0.4759521467812533	3.3947268170512424e-23
-0.4758911116250033	3.577021155740701e-23
-0.4758300764687533	3.758529296588232e-23
-0.4757690413125033	3.9397004510547606e-23
-0.4757080061562533	4.1210261126474704e-23
-0.4756469710000033	4.3028155933093066e-23
-0.4755859358437533	4.48504543954426e-23
-0.4755249006875033	4.6673513777619484e-23
-0.4754638655312533	4.849171378568387e-23
-0.4754028303750033	5.0299808360188467e-23
-0.4753417952187533	5.2095188963238526e-23
-0.4752807600625033	5.387906652580097e-23
-0.4752197249062533	5.565600414090996e-23
-0.4751586897500033	5.743193566458392e-23
-0.4750976545937533	5.92115200422044e-23
-0.4750366194375033	6.099599952166871e-23
-0.4749755842812533	6.278248889388297e-23
-0.4749145491250033	6.456503439153518e-23
-0.4748535139687533	6.633705881145212e-23
-0.4747924788125033	6.809416127848789e-23
-0.4747314436562533	6.983602877657513e-23
-0.4746704085000033	7.156660914832339e-23
-0.4746093733437533	7.329244647349022e-23
-0.4745483381875033	7.501985479634532e-23
-0.4744873030312533	7.675211894296137e-23
-0.4744262678750033	7.848792504019481e-23
-0.4743652327187533	8.022173558349992e-23
-0.4743041975625033	8.194601640041629e-23
-0.4742431624062533	8.365438647174186e-23
-0.4741821272500033	8.534432560406293e-23
-0.4741210920937533	8.701827942712057e-23
-0.4740600569375033	8.868266956382737e-23
-0.4739990217812533	9.034516682776942e-23
-0.4739379866250033	9.20113480642432e-23
-0.4738769514687533	9.368217669241205e-23
-0.4738159163125033	9.535342413539377e-23
-0.4737548811562533	9.701731551649603e-23
-0.4736938460000033	9.866572406179507e-23
-0.4736328108437533	1.0029358067195736e-22
-0.4735717756875033	1.019010535663175e-22
-0.4735107405312533	1.0349353876167308e-22
-0.4734497053750033	1.050794102805839e-22
-0.4733886702187533	1.0666644150430672e-22
-0.4733276350625033	1.0825840943023913e-22
-0.4732665999062533	1.0985333672082634e-22
-0.4732055647500033	1.1144414659660348e-22
-0.4731445295937533	1.1302150347479483e-22
-0.4730834944375033	1.1457767882265232e-22
-0.4730224592812533	1.1610982941071929e-22
-0.4729614241250033	1.1762128874429782e-22
-0.4729003889687533	1.191202534453091e-22
-0.4728393538125033	1.2061634463205206e-22
-0.4727783186562533	1.221164663024109e-22
-0.4727172835000033	1.2362172076255657e-22
-0.4726562483437533	1.251267294999608e-22
-0.4725952131875033	1.26621703249153e-22
-0.4725341780312533	1.2809645139435896e-22
-0.4724731428750033	1.2954468920983255e-22
-0.4724121077187533	1.3096680360402145e-22
-0.4723510725625033	1.3236982279014793e-22
-0.4722900374062533	1.3376452675223947e-22
-0.4722290022500033	1.3516087571236212e-22
-0.4721679670937533	1.3656365229093638e-22
-0.4721069319375033	1.3797017532223706e-22
-0.4720458967812533	1.3937115799215748e-22
-0.4719848616250033	1.4075446450092556e-22
-0.4719238264687533	1.421102185224988e-22
