Time	Frequency
-0.5000152567499967	0.424769125444194
-0.4999542215937467	0.42902507649032817
-0.4998931864374967	0.4332403591744277
-0.4998321512812467	0.4374153028269
-0.4997711161249967	0.44155167925335587
-0.4997100809687467	0.4456482360683721
-0.4996490458124967	0.449702396217567
-0.4995880106562467	0.45371464977294285
-0.4995269754999967	0.4576867825500573
-0.4994659403437467	0.4616175370977496
-0.4994049051874967	0.46550442812776266
-0.4993438700312467	0.46934798046535586
-0.4992828348749967	0.47314983900449925
-0.4992217997187467	0.4769087032086053
-0.4991607645624967	0.48062227074491065
-0.4990997294062467	0.48429110484493265
-0.4990386942499967	0.48791674434285615
-0.4989776590937467	0.4914979606088067
-0.4989166239374967	0.4950324564305832
-0.4988555887812467	0.49852066860930855
-0.4987945536249967	0.5019643931164026
-0.4987335184687467	0.5053627379279273
-0.4986724833124967	0.5087130888208599
-0.4986114481562467	0.5120154853606126
-0.4985504129999967	0.5152720794326079
-0.4984893778437467	0.5184823418807158
-0.4984283426874967	0.5216431218717434
-0.4983673075312467	0.5247540094739879
-0.4983062723749967	0.5278179103083067
-0.4982452372187467	0.530835065119611
-0.4981842020624967	0.533801722665342
-0.4981231669062467	0.5367166628814368
-0.4980621317499967	0.5395832986719112
-0.4980010965937467	0.5424026043064486
-0.4979400614374967	0.5451702231680445
-0.4978790262812467	0.5478842337002614
-0.4978179911249967	0.5505489067648084
-0.4977569559687467	0.5531660664091345
-0.4976959208124967	0.555730377679337
-0.4976348856562467	0.5582390774052137
-0.4975738504999967	0.5606977387411181
-0.4975128153437467	0.5631091603526274
-0.4974517801874967	0.565466374138623
-0.4973907450312467	0.5677653986195526
-0.4973297098749967	0.5700137345535463
-0.4972686747187467	0.5722157548688303
-0.4972076395624967	0.574362338166828
-0.4971466044062467	0.5764475890736696
-0.4970855692499967	0.5784815625948927
-0.4970245340937467	0.5804711136510792
-0.4969634989374967	0.5824041833267112
-0.4969024637812467	0.5842717588390326
-0.4968414286249967	0.5860873891348143
-0.4967803934687467	0.5878619911082961
-0.4967193583124967	0.5895794932591171
-0.4966583231562467	0.5912256632585691
-0.4965972879999967	0.5928185851378639
-0.4965362528437467	0.5943759275634528
-0.4964752176874967	0.5958767875248409
-0.4964141825312467	0.5972983479795119
-0.4963531473749967	0.5986636287788286
-0.4962921122187467	0.6000012883634672
-0.4962310770624967	0.6012859833286871
-0.4961700419062467	0.6024810503929201
-0.4961090067499967	0.6036125794408186
-0.4960479715937467	0.604726417359329
-0.4959869364374967	0.6057972550422709
-0.4959259012812467	0.6067681266123924
-0.4958648661249967	0.6076596493783272
-0.4958038309687467	0.6085397775400958
-0.4957427958124967	0.609396918671804
-0.4956817606562467	0.6101535951411345
-0.4956207254999967	0.6108066935255517
-0.4955596903437467	0.6114378633129277
-0.4954986551874967	0.6120686575383737
-0.4954376200312467	0.6126209887611579
-0.4953765848749967	0.6130540044250055
-0.4953155497187467	0.6134326037940945
-0.4952545145624967	0.6138122066958184
-0.4951934794062467	0.6141482861412678
-0.4951324442499967	0.6143794522897504
-0.4950714090937467	0.6145271578758262
-0.4950103739374967	0.6146484031333251
-0.4949493387812467	0.6147413170178943
-0.4948883036249967	0.614760972333604
-0.4948272684687467	0.6146968933227177
-0.4947662333124967	0.614578610438529
-0.4947051981562467	0.6144206578274055
-0.4946441629999967	0.6142075353674934
-0.4945831278437467	0.613926985440198
-0.4945220926874967	0.6135846090635768
-0.4944610575312467	0.6131870890803353
-0.4944000223749967	0.6127338813408463
-0.4943389872187467	0.6122244199832892
-0.4942779520624967	0.6116584092972598
-0.4942169169062467	0.611031883759035
-0.4941558817499967	0.6103435131670466
-0.4940948465937467	0.6095995756324305
-0.4940338114374967	0.6088041157612323
-0.4939727762812467	0.6079510685277449
-0.4939117411249967	0.6070343640170787
-0.4938507059687467	0.6060584800761095
-0.4937896708124967	0.6050304589237183
-0.4937286356562467	0.6039481965366631
-0.4936676004999967	0.6028053605636382
-0.4936065653437467	0.6016024261413143
-0.4935455301874967	0.6003444653917633
-0.4934844950312467	0.5990321017734168
-0.4934234598749967	0.597662099848386
-0.4933624247187467	0.5962340413467088
-0.4933013895624967	0.5947501492229936
-0.4932403544062467	0.5932105404016647
-0.4931793192499967	0.5916138101503192
-0.4931182840937467	0.5899606487524306
-0.4930572489374967	0.5882526883208484
-0.4929962137812467	0.5864893409962293
-0.4929351786249967	0.5846691626349239
-0.4928741434687467	0.5827928192736945
-0.4928131083124967	0.5808618892917397
-0.4927520731562467	0.5788762380473634
-0.4926910379999967	0.5768351115509547
-0.4926300028437467	0.5747392126971748
-0.4925689676874967	0.5725892389766638
-0.4925079325312467	0.5703841864874256
-0.4924468973749967	0.5681236079120788
-0.4923858622187467	0.5658095461189795
-0.4923248270624967	0.5634435685841045
-0.4922637919062467	0.561023943947239
-0.4922027567499967	0.5585486230317757
-0.4921417215937467	0.5560191675713413
-0.4920806864374967	0.5534385935759604
-0.4920196512812467	0.5508066953337031
-0.4919586161249967	0.5481209464581139
-0.4918975809687467	0.5453812486071112
-0.4918365458124967	0.5425901917969626
-0.4917755106562467	0.5397487960167413
-0.4917144754999967	0.5368554335255553
-0.4916534403437467	0.5339093342259943
-0.4915924051874967	0.5309121823384795
-0.4915313700312467	0.5278654201107102
-0.4914703348749967	0.5247683229133671
-0.4914092997187467	0.5216199312545708
-0.4913482645624967	0.5184211348520529
-0.4912872294062467	0.5151734325261565
-0.4912261942499967	0.5118768946306964
-0.4911651590937467	0.5085308041872034
-0.4911041239374967	0.5051354609920468
-0.4910430887812467	0.5016919814652477
-0.4909820536249967	0.498200738622489
-0.4909210184687467	0.4946612349594584
-0.4908599833124967	0.4910735667690259
-0.4907989481562467	0.4874389368883718
-0.4907379129999967	0.4837582079140671
-0.4906768778437467	0.4800308762896261
-0.4906158426874967	0.4762564168450034
-0.4905548075312467	0.47243583768489295
-0.4904937723749967	0.46857056831810984
-0.4904327372187467	0.46466044245742993
-0.4903717020624967	0.4607044907535239
-0.4903106669062467	0.45670341749827276
-0.4902496317499967	0.45265925071496144
-0.4901885965937467	0.44857241625503025
-0.4901275614374967	0.44444144508307093
-0.4900665262812467	0.4402662171089981
-0.4900054911249967	0.43604901706400545
-0.4899444559687467	0.431791123797373
-0.4898834208124967	0.42749093755053735
-0.4898223856562467	0.42314741356284297
-0.4897613504999967	0.41876286957057485
-0.4897003153437467	0.4143397221070093
-0.4896392801874967	0.40987666731110495
-0.4895782450312467	0.4053715758411126
-0.4895172098749967	0.4008263069219922
-0.4894561747187467	0.39624439418811486
-0.4893951395624967	0.3916252262236766
-0.4893341044062467	0.3869654680489498
-0.4892730692499967	0.38226588434235403
-0.4892120340937467	0.37753120723317646
-0.4891509989374967	0.37276247328348794
-0.4890899637812467	0.3679555324631232
-0.4890289286249967	0.3631091328839862
-0.4889678934687467	0.35822827641787125
-0.4889068583124967	0.3533163656094004
-0.4888458231562467	0.3483697368306307
-0.4887847879999967	0.34338455783686883
-0.4887237528437467	0.3383645453149513
-0.4886627176874967	0.3333157403394756
-0.4886016825312467	0.3282367744596142
-0.4885406473749967	0.32312161749001833
-0.4884796122187467	0.31797054442455636
-0.4884185770624967	0.3127906095876978
-0.4883575419062467	0.30758471573469803
-0.4882965067499967	0.3023476816773674
-0.4882354715937467	0.2970757401253041
-0.4881744364374967	0.29177340286179126
-0.4881134012812467	0.2864465249530677
-0.4880523661249967	0.28109360931821
-0.4879913309687467	0.2757095047924876
-0.4879302958124967	0.2702945478644071
-0.4878692606562467	0.2648542496046727
-0.4878082254999967	0.2593911178244707
-0.4877471903437467	0.2539020406191774
-0.4876861551874967	0.24838442328714755
-0.4876251200312467	0.24284072122005462
-0.4875640848749967	0.2372748473918746
-0.4875030497187467	0.23168702376868652
-0.4874420145624967	0.22607483751932808
-0.4873809794062467	0.22043781368764104
-0.4873199442499967	0.21477842640223013
-0.4872589090937467	0.20909891846777032
-0.4871978739374967	0.20339909958261915
-0.4871368387812467	0.19767776812187474
-0.4870758036249967	0.19193506445254613
-0.4870147684687467	0.18617264646323375
-0.4869537333124967	0.18039208536004714
-0.4868926981562467	0.17459369874085226
-0.4868316629999967	0.16877689991297595
-0.4867706278437467	0.16294159311580173
-0.4867095926874967	0.15708904708683336
-0.4866485575312467	0.1512209757669796
-0.4865875223749967	0.145337965283347
-0.4865264872187467	0.13943947273727061
-0.4864654520624967	0.13352532268348005
-0.4864044169062467	0.1275966439038992
-0.4863433817499967	0.12165506749760681
-0.4862823465937467	0.11570122516043527
-0.4862213114374967	0.10973467096007754
-0.4861602762812467	0.10375537267247471
-0.4860992411249967	0.09776447630129578
-0.4860382059687467	0.09176333700723947
-0.4859771708124967	0.08575247479913614
-0.4859161356562467	0.07973180150536796
-0.4858551004999967	0.07370151137296507
-0.4857940653437467	0.067662515351132
-0.4857330301874967	0.06161598845496858
-0.4856719950312467	0.05556258381399238
-0.4856109598749967	0.049502330903840326
-0.4855499247187467	0.04343534521045089
-0.4854888895624967	0.03736242788818582
-0.4854278544062467	0.03128474593456913
-0.4853668192499967	0.025202985510836978
-0.4853057840937467	0.01911716945235093
-0.4852447489374967	0.013027460291154489
-0.4851837137812467	0.006934835164328514
-0.4851226786249967	0.0008404793702183742
-0.4850616434687467	-0.005255272270733028
-0.4850006083124967	-0.011352526535644399
-0.4849395731562467	-0.017450575274209533
-0.4848785379999967	-0.02354811071738932
-0.4848175028437467	-0.029644479150154886
-0.4847564676874967	-0.03573977837708833
-0.4846954325312467	-0.04183376861429129
-0.4846343973749967	-0.04792535570859466
-0.4845733622187467	-0.05401340340475379
-0.4845123270624967	-0.060097630797328896
-0.4844512919062467	-0.06617819276558369
-0.4843902567499967	-0.07225452683088672
-0.4843292215937467	-0.07832527233741346
-0.4842681864374967	-0.08438950972709573
-0.4842071512812467	-0.09044734753250767
-0.4841461161249967	-0.09649875350205075
-0.4840850809687467	-0.10254254552337375
-0.4840240458124967	-0.1085774075483986
-0.4839630106562467	-0.11460324256455069
-0.4839019754999967	-0.12062043994453013
-0.4838409403437467	-0.12662829107072104
-0.4837799051874967	-0.13262522499374851
-0.4837188700312467	-0.13861043001042028
-0.4836578348749967	-0.14458421334300023
-0.4835967997187467	-0.15054647499189003
-0.4835357645624967	-0.15649580898367388
-0.4834747294062467	-0.1624309374051974
-0.4834136942499967	-0.1683520365658127
-0.4833526590937467	-0.17425942586586263
-0.4832916239374967	-0.18015203435051474
-0.4832305887812467	-0.1860284527591106
-0.4831695536249967	-0.19188840820357442
-0.4831085184687467	-0.19773209549110066
-0.4830474833124967	-0.20355886416052396
-0.4829864481562467	-0.20936747938460662
-0.4829254129999967	-0.21515725574797245
-0.4828643778437467	-0.22092811338333831
-0.4828033426874967	-0.22667976097344938
-0.4827423075312467	-0.23241144129660551
-0.4826812723749967	-0.2381222856407299
-0.4826202372187467	-0.24381169686327372
-0.4825592020624967	-0.2494794541127465
-0.4824981669062467	-0.2551253095888691
-0.4824371317499967	-0.26074851754942474
-0.4823760965937467	-0.26634802615593467
-0.4823150614374967	-0.27192310309698253
-0.4822540262812467	-0.27747364954137577
-0.4821929911249967	-0.2829997362430263
-0.4821319559687467	-0.28850068979270727
-0.4820709208124967	-0.2939752400556859
-0.4820098856562467	-0.29942275142641983
-0.4819488504999967	-0.30484339389073256
-0.4818878153437467	-0.31023697214241536
-0.4818267801874967	-0.31560240637477804
-0.4817657450312467	-0.3209386294235211
-0.4817047098749967	-0.32624541011390007
-0.4816436747187467	-0.3315228742524099
-0.4815826395624967	-0.33677057685108985
-0.4815216044062467	-0.34198745272338477
-0.4814605692499967	-0.34717256803935725
-0.4813995340937467	-0.35232568645760654
-0.4813384989374967	-0.35744693817517786
-0.4812774637812467	-0.3625359433242725
-0.4812164286249967	-0.36759165330225263
-0.4811553934687467	-0.3726131794925041
-0.4810943583124967	-0.37760034140590226
-0.4810333231562467	-0.38255318304274477
-0.4809722879999967	-0.3874711917297367
-0.4809112528437467	-0.39235336176780394
-0.4808502176874967	-0.3971990534564571
-0.4807891825312467	-0.4020081974690726
-0.4807281473749967	-0.4067804999803989
-0.4806671122187467	-0.41151519515361895
-0.4806060770624967	-0.41621166574544466
-0.4805450419062467	-0.42086967398610575
-0.4804840067499967	-0.42548899503034515
-0.4804229715937467	-0.43006910781781693
-0.4803619364374967	-0.4346092758575116
-0.4803009012812467	-0.43910896632271096
-0.4802398661249967	-0.4435679898936172
-0.4801788309687467	-0.44798607612421537
-0.4801177958124967	-0.4523626215750164
-0.4800567606562467	-0.4566969885662101
-0.4799957254999967	-0.4609888121147226
-0.4799346903437467	-0.4652378749789524
-0.4798736551874967	-0.4694437584154729
-0.4798126200312467	-0.4736058428792939
-0.4797515848749967	-0.47772372598863483
-0.4796905497187467	-0.4817972870474341
-0.4796295145624967	-0.48582616672330825
-0.4795684794062467	-0.48980962926024907
-0.4795074442499967	-0.4937471366281399
-0.4794464090937467	-0.49763857869404765
-0.4793853739374967	-0.5014837153955267
-0.4793243387812467	-0.5052819166958115
-0.4792633036249967	-0.5090327290382982
-0.4792022684687467	-0.5127360691922108
-0.4791412333124967	-0.5163916092282448
-0.4790801981562467	-0.5199986731910278
-0.4790191629999967	-0.5235568753799217
-0.4789581278437467	-0.527066203020786
-0.4788970926874967	-0.530526364657154
-0.4788360575312467	-0.5339366286322278
-0.4787750223749967	-0.5372964973181938
-0.4787139872187467	-0.5406059632792062
-0.4786529520624967	-0.5438648692691548
-0.4785919169062467	-0.547072646682439
-0.4785308817499967	-0.5502288471943533
-0.4784698465937467	-0.5533333471377844
-0.4784088114374967	-0.5563859518368779
-0.4783477762812467	-0.5593862307686789
-0.4782867411249967	-0.5623337956300176
-0.4782257059687467	-0.565228441641901
-0.4781646708124967	-0.5680699211934319
-0.4781036356562467	-0.570857853813993
-0.4780426004999967	-0.5735919369454107
-0.4779815653437467	-0.5762719306830789
-0.4779205301874967	-0.578897506338635
-0.4778594950312467	-0.5814684106664536
-0.4777984598749967	-0.5839845287310979
-0.4777374247187467	-0.5864455709038906
-0.4776763895624967	-0.5888510550014133
-0.4776153544062467	-0.5912007305938696
-0.4775543192499967	-0.5934946419748811
-0.4774932840937467	-0.5957326539552398
-0.4774322489374967	-0.5979142223341257
-0.4773712137812467	-0.6000388414516526
-0.4773101786249967	-0.6021065592734884
-0.4772491434687467	-0.604117655066576
-0.4771881083124967	-0.6060718114946698
-0.4771270731562467	-0.6079681989357948
-0.4770660379999967	-0.6098065250710827
-0.4770050028437467	-0.611587254397398
-0.4769439676874967	-0.6133104644334544
-0.4768829325312467	-0.6149753432027794
-0.4768218973749967	-0.6165813161156098
-0.4767608622187467	-0.6181287634209196
-0.4766998270624967	-0.6196180115520291
-0.4766387919062467	-0.6210484699651957
-0.4765777567499967	-0.622419446441559
-0.4765167215937467	-0.6237310658233636
-0.4764556864374967	-0.6249836685013153
-0.4763946512812467	-0.6261769564575504
-0.4763336161249967	-0.6273104253734367
-0.4762725809687467	-0.6283840676097655
-0.4762115458124967	-0.6293980407365577
-0.4761505106562467	-0.6303521457264938
-0.4760894754999967	-0.6312460925788786
-0.4760284403437467	-0.6320798153747614
-0.4759674051874967	-0.632853250724626
-0.4759063700312467	-0.6335662600122198
-0.4758453348749967	-0.6342188795255985
-0.4757842997187467	-0.6348111727919866
-0.4757232645624967	-0.6353428374287157
-0.4756622294062467	-0.6358135142364135
-0.4756011942499967	-0.6362234028347894
-0.4755401590937467	-0.6365728583169717
-0.4754791239374967	-0.6368615464651103
-0.4754180887812467	-0.6370888979479612
-0.4753570536249967	-0.6372551588936658
-0.4752960184687467	-0.6373609202029362
-0.4752349833124967	-0.6374058711630239
-0.4751739481562467	-0.6373892607309042
-0.4751129129999967	-0.6373113264003373
-0.4750518778437467	-0.6371728691891773
-0.4749908426874967	-0.6369736998949108
-0.4749298075312467	-0.6367130011217085
-0.4748687723749967	-0.6363909374796023
-0.4748077372187467	-0.6360083588532478
-0.4747467020624967	-0.6355651523869627
-0.4746856669062467	-0.6350604686265414
-0.4746246317499967	-0.6344943876650757
-0.4745635965937467	-0.6338677493533508
-0.4745025614374967	-0.6331805402947794
-0.4744415262812467	-0.632432099752207
-0.4743804911249967	-0.6316226193115168
-0.4743194559687467	-0.630752821098222
-0.4742584208124967	-0.6298225735462895
-0.4741973856562467	-0.6288313274783965
-0.4741363504999967	-0.6277794255049708
-0.4740753153437467	-0.6266675553066109
-0.4740142801874967	-0.6254954550037526
-0.4739532450312467	-0.6242625860050319
-0.4738922098749967	-0.6229694434483894
-0.4738311747187467	-0.6216167567750362
-0.4737701395624967	-0.6202041865633137
-0.4737091044062467	-0.618731242888915
-0.4736480692499967	-0.6171985651141995
-0.4735870340937467	-0.6156069177654747
-0.4735259989374967	-0.6139559142187221
-0.4734649637812467	-0.6122450288718684
-0.4734039286249967	-0.6104748780524433
-0.4733428934687467	-0.608646285856111
-0.4732818583124967	-0.6067590056883841
-0.4732208231562467	-0.6048125377005702
-0.4731597879999967	-0.6028074106232157
-0.4730987528437467	-0.6007444410100258
-0.4730377176874967	-0.598623449114035
-0.4729766825312467	-0.5964440041905403
-0.4729156473749967	-0.594206696481637
-0.4728546122187467	-0.5919123040466505
-0.4727935770624967	-0.5895605199270062
-0.4727325419062467	-0.587150964220164
-0.4726715067499967	-0.5846845338739529
-0.4726104715937467	-0.5821622197824275
-0.4725494364374967	-0.5795835697156788
-0.4724884012812467	-0.5769478770648095
-0.4724273661249967	-0.5742559615335768
-0.4723663309687467	-0.5715091061787385
-0.4723052958124967	-0.5687070439040378
-0.4722442606562467	-0.5658488310255861
-0.4721832254999967	-0.5629350648435212
-0.4721221903437467	-0.559967312198504
-0.4720611551874967	-0.5569457167538742
-0.4720001200312467	-0.5538691238354879
-0.4719390848749967	-0.550737601007769
-0.4718780497187467	-0.5475529544399225
-0.4718170145624967	-0.5443162371619855
-0.4717559794062467	-0.5410264604818601
-0.4716949442499967	-0.5376827604486285
-0.4716339090937467	-0.5342863237493237
-0.4715728739374967	-0.5308388067627883
-0.4715118387812467	-0.5273400007975727
-0.4714508036249967	-0.5237887352681905
-0.4713897684687467	-0.5201854904993407
-0.4713287333124967	-0.5165321649904495
-0.4712676981562467	-0.5128293244125487
-0.4712066629999967	-0.509075823243819
-0.4711456278437467	-0.5052715009308911
-0.4710845926874967	-0.5014180336841348
-0.4710235575312467	-0.4975164343427479
-0.4709625223749967	-0.4935658806009083
-0.4709014872187467	-0.4895659553701522
-0.4708404520624967	-0.4855180328800167
-0.4707794169062467	-0.48142335065490927
-0.4707183817499967	-0.47728150060138524
-0.4706573465937467	-0.4730920286378704
-0.4705963114374967	-0.46885599103519704
-0.4705352762812467	-0.46457457670417474
-0.4704742411249967	-0.46024752590045087
-0.4704132059687467	-0.4558744866711157
-0.4703521708124967	-0.4514566554239959
-0.4702911356562467	-0.44699528195855104
-0.4702301004999967	-0.4424898721467425
-0.4701690653437467	-0.43793984010547876
-0.4701080301874967	-0.4333465606939225
-0.4700469950312467	-0.4287116714396229
-0.4699859598749967	-0.42403476499132
-0.4699249247187467	-0.4193149594647102
-0.4698638895624967	-0.41455337989333435
-0.4698028544062467	-0.40975177118170675
-0.4697418192499967	-0.4049098891484694
-0.4696807840937467	-0.40002684003322947
-0.4696197489374967	-0.39510379606348833
-0.4695587137812467	-0.3901425434333302
-0.4694976786249967	-0.3851427401871754
-0.4694366434687467	-0.3801035776567294
