Time	Frequency
-0.5000534041874971	0.5771364666844474
-0.4999923690312471	0.5749419848507341
-0.4999313338749971	0.5727333053887426
-0.4998702987187471	0.5704876817169281
-0.4998092635624971	0.5681783023334837
-0.4997482284062471	0.5657787222072619
-0.4996871932499971	0.5632673273262077
-0.4996261580937471	0.560631093242531
-0.4995651229374971	0.557867990676485
-0.4995040877812471	0.5549876128667944
-0.4994430526249971	0.5520098864058511
-0.4993820174687471	0.5489620269899878
-0.4993209823124971	0.5458742066201225
-0.4992599471562471	0.5427746349013247
-0.4991989119999971	0.5396848648983983
-0.4991378768437471	0.5366161064992178
-0.4990768416874971	0.5335671697836235
-0.4990158065312471	0.5305244143942129
-0.4989547713749971	0.5274637751931603
-0.4988937362187471	0.5243545821363264
-0.4988327010624971	0.5211645636765416
-0.4987716659062471	0.5178652159346071
-0.4987106307499971	0.5144366698474259
-0.4986495955937471	0.5108712510118195
-0.4985885604374971	0.5071751025635204
-0.4985275252812471	0.5033675505168853
-0.4984664901249971	0.4994782631942051
-0.4984054549687471	0.4955426205617282
-0.4983444198124971	0.4915960226200701
-0.4982833846562471	0.4876680729028366
-0.4982223494999971	0.4837776158071343
-0.4981613143437471	0.4799294504367015
-0.4981002791874971	0.4761132718678939
-0.4980392440312471	0.47230507492985024
-0.4979782088749971	0.46847086033648416
-0.4979171737187471	0.4645720816076253
-0.4978561385624971	0.4605719745681024
-0.4977951034062471	0.4564417423751922
-0.4977340682499971	0.45216556971950284
-0.4976730330937471	0.44774360394116514
-0.4976119979374971	0.44319235504582094
-0.4975509627812471	0.4385424157434589
-0.4974899276249971	0.4338338319658235
-0.4974288924687471	0.4291098056281599
-0.4973678573124971	0.42440971268107336
-0.4973068221562471	0.41976258085056767
-0.4972457869999971	0.415182139256148
-0.4971847518437471	0.4106642947742319
-0.4971237166874971	0.4061874676667672
-0.4970626815312471	0.4017158008535517
-0.4970016463749971	0.397204817194161
-0.4969406112187471	0.3926086313459644
-0.4968795760624971	0.38788753052915864
-0.4968185409062471	0.38301470016145256
-0.4967575057499971	0.37798099503494553
-0.4966964705937471	0.3727969116668199
-0.4966354354374971	0.36749136259752485
-0.4965744002812471	0.36210741784609024
-0.4965133651249971	0.3566956606106249
-0.4964523299687471	0.35130616161975836
-0.4963912948124971	0.3459803521154872
-0.4963302596562471	0.34074414914211404
-0.4962692244999971	0.3356034621146727
-0.4962081893437471	0.3305428536386813
-0.4961471541874971	0.3255276886286681
-0.4960861190312471	0.32050948288974884
-0.4960250838749971	0.31543360031489454
-0.4959640487187471	0.31024811261968505
-0.4959030135624971	0.3049124169231209
-0.4958419784062471	0.2994041929412723
-0.4957809432499971	0.2937235256599902
-0.4957199080937471	0.2878934465501249
-0.4956588729374971	0.28195673260320986
-0.4955978377812471	0.27596942921496986
-0.4955368026249971	0.2699920882700086
-0.4954757674687471	0.2640800893701845
-0.4954147323124971	0.258274604329625
-0.4953536971562471	0.2525957081798866
-0.4952926619999971	0.24703880579477777
-0.4952316268437471	0.2415750045197518
-0.4951705916874971	0.23615543797933605
-0.4951095565312471	0.23071890712077195
-0.4950485213749971	0.22520166013541815
-0.4949874862187471	0.21954778167909395
-0.4949264510624971	0.21371850444603852
-0.4948654159062471	0.2076988840056819
-0.4948043807499971	0.20150073531300144
-0.4947433455937471	0.19516131933179426
-0.4946823104374971	0.1887378778968544
-0.4946212752812471	0.18229880497154596
-0.4945602401249971	0.17591286208431986
-0.4944992049687471	0.1696381587956844
-0.4944381698124971	0.1635126720873294
-0.4943771346562471	0.1575478847542226
-0.4943160994999971	0.1517266067645735
-0.4942550643437471	0.14600536691226398
-0.4941940291874971	0.1403210857641105
-0.4941329940312471	0.13460105394675057
-0.4940719588749971	0.12877462884805535
-0.4940109237187471	0.12278475045170037
-0.4939498885624971	0.11659742702371836
-0.4938888534062471	0.11020764392007706
-0.4938278182499971	0.103640688227741
-0.4937667830937471	0.09694861507470862
-0.4937057479374971	0.09020234948092619
-0.4936447127812471	0.08348064351700658
-0.4935836776249971	0.0768576391864121
-0.4935226424687471	0.07039098920636926
-0.4934616073124971	0.06411244617857949
-0.4934005721562471	0.058022518156051285
-0.4933395369999971	0.05209012413692624
-0.4932785018437471	0.04625732679332429
-0.4932174666874971	0.040448417453623556
-0.4931564315312471	0.03458195295916556
-0.4930953963749971	0.028583840930344783
-0.4930343612187471	0.022399390230275568
-0.4929733260624971	0.01600239824598945
-0.4929122909062471	0.009399759773486099
-0.4928512557499971	0.00263077172373493
-0.4927902205937471	-0.004238775319835228
-0.4927291854374971	-0.011126771096008454
-0.4926681502812471	-0.017947651175046948
-0.4926071151249971	-0.024625935432599413
-0.4925460799687471	-0.031108283607684434
-0.4924850448124971	-0.03737212239815831
-0.4924240096562471	-0.04342939411389992
-0.4923629744999971	-0.04932478201556972
-0.4923019393437471	-0.05512868280081158
-0.4922409041874971	-0.06092601497753321
-0.4921798690312471	-0.06680264627129119
-0.4921188338749971	-0.07283162456441587
-0.4920577987187471	-0.07906137907120106
-0.4919967635624971	-0.08550776674113575
-0.4919357284062471	-0.09215128728165416
-0.4918746932499971	-0.0989399298496764
-0.4918136580937471	-0.10579720593417946
-0.4917526229374971	-0.11263413824294626
-0.4916915877812471	-0.11936329393595412
-0.4916305526249971	-0.12591259149332232
-0.4915695174687471	-0.13223671030800352
-0.4915084823124971	-0.13832428481408837
-0.4914474471562471	-0.1441996663500333
-0.4913864119999971	-0.14991897138371404
-0.4913253768437471	-0.15556110142425209
-0.4912643416874971	-0.1612151514500666
-0.4912033065312471	-0.16696617177263823
-0.4911422713749971	-0.17288155912224004
-0.4910812362187471	-0.17900025546265816
-0.4910202010624971	-0.18532647992648638
-0.4909591659062471	-0.19182900236639186
-0.4908981307499971	-0.19844605275826108
-0.4908370955937471	-0.20509506576147132
-0.4907760604374971	-0.21168570721695482
-0.4907150252812471	-0.2181340994777671
-0.4906539901249971	-0.224375993427944
-0.4905929549687471	-0.23037679956804802
-0.4905319198124971	-0.2361368713004907
-0.4904708846562471	-0.24169122471239707
-0.4904098494999971	-0.24710377056971314
-0.4903488143437471	-0.2524569782715893
-0.4902877791874971	-0.2578386339889067
-0.4902267440312471	-0.26332782456829107
-0.4901657088749971	-0.2689823752234553
-0.4901046737187471	-0.27482972457232646
-0.4900436385624971	-0.2808626692530201
-0.4899826034062471	-0.28704062782622186
-0.4899215682499971	-0.293296185122552
-0.4898605330937471	-0.2995458395902555
-0.4897994979374971	-0.30570322394266053
-0.4897384627812471	-0.31169268035926717
-0.4896774276249971	-0.31746103801503306
-0.4896163924687471	-0.32298575801981755
-0.4895553573124971	-0.32827816978510277
-0.4894943221562471	-0.33338129926527466
-0.4894332869999971	-0.3383626815027093
-0.4893722518437471	-0.34330335865191713
-0.4893112166874971	-0.3482848628217263
-0.4892501815312471	-0.3533762556572101
-0.4891891463749971	-0.3586232496619351
-0.4891281112187471	-0.3640411292967521
-0.4890670760624971	-0.3696125736410414
-0.4890060409062471	-0.3752906607900825
-0.4889450057499971	-0.38100651520644413
-0.4888839705937471	-0.3866803394646953
-0.4888229354374971	-0.39223406175489683
-0.4887619002812471	-0.39760358590850237
-0.4887008651249971	-0.4027486758366629
-0.4886398299687471	-0.4076589258702828
-0.4885787948124971	-0.41235494709117937
-0.4885177596562471	-0.4168846453623798
-0.4884567244999971	-0.42131522922686915
-0.4883956893437471	-0.4257222608307433
-0.4883346541874971	-0.43017751317132696
-0.4882736190312471	-0.4347375742963943
-0.4882125838749971	-0.4394350176046437
-0.4881515487187471	-0.44427351242335206
-0.4880905135624971	-0.4492275730280371
-0.4880294784062471	-0.45424691673639006
-0.4879684432499971	-0.4592646986630194
-0.4879074080937471	-0.4642082649217064
-0.4878463729374971	-0.46901066887032766
-0.4877853377812471	-0.47362111171148374
-0.4877243026249971	-0.4780126668418738
-0.4876632674687471	-0.4821861013404271
-0.4876022323124971	-0.4861692543009978
-0.4875411971562471	-0.4900121437992326
-0.4874801619999971	-0.4937786381191497
-0.4874191268437471	-0.49753604736531637
-0.4873580916874971	-0.5013443153097926
-0.4872970565312471	-0.5052465541650479
-0.4872360213749971	-0.5092624092964289
-0.4871749862187471	-0.5133852536876395
-0.4871139510624971	-0.5175836025378981
-0.4870529159062471	-0.5218064545771286
-0.4869918807499971	-0.5259916425905545
-0.4869308455937471	-0.5300758304160337
-0.4868698104374971	-0.5340045415565272
-0.4868087752812471	-0.5377406086112367
-0.4867477401249971	-0.541269724739058
-0.4866867049687471	-0.5446022663669878
-0.4866256698124971	-0.5477711572219915
-0.4865646346562471	-0.5508261807131106
-0.4865035994999971	-0.5538257082778651
-0.4864425643437471	-0.5568272050934462
-0.4863815291874971	-0.5598780443733962
-0.4863204940312471	-0.5630080839248217
-0.4862594588749971	-0.5662251576192102
-0.4861984237187471	-0.5695141564434343
-0.4861373885624971	-0.572839786598422
-0.4860763534062471	-0.5761525002915617
-0.4860153182499971	-0.5793965979812732
-0.4859542830937471	-0.5825191715543719
-0.4858932479374971	-0.5854784492042578
-0.4858322127812471	-0.5882502171421048
-0.4857711776249971	-0.590831318775748
-0.4857101424687471	-0.5932397327633705
-0.4856491073124971	-0.5955112844367582
-0.4855880721562471	-0.5976935629324335
-0.4855270369999971	-0.5998380604385606
-0.4854660018437471	-0.6019918252321411
-0.4854049666874971	-0.6041899712301534
-0.4853439315312471	-0.6064502306073619
-0.4852828963749971	-0.6087703891638937
-0.4852218612187471	-0.6111289609348859
-0.4851608260624971	-0.6134889356771835
-0.4850997909062471	-0.615803946851766
-0.4850387557499971	-0.6180258270340119
-0.4849777205937471	-0.6201123162218344
-0.4849166854374971	-0.6220336903874305
-0.4848556502812471	-0.6237772656902693
-0.4847946151249971	-0.6253490918305916
-0.4847335799687471	-0.6267726152242814
-0.4846725448124971	-0.6280845789946466
-0.4846115096562471	-0.6293288639197497
-0.4845504744999971	-0.630549294567581
-0.4844894393437471	-0.6317825844013184
-0.4844284041874971	-0.633052548135075
-0.4843673690312471	-0.634366484302991
-0.4843063338749971	-0.635714272490777
-0.4842452987187471	-0.6370702840316387
-0.4841842635624971	-0.638397748347743
-0.4841232284062471	-0.6396548319507924
-0.4840621932499971	-0.6408014243501662
-0.4840011580937471	-0.641805527903643
-0.4839401229374971	-0.6426482326013829
-0.4838790877812471	-0.6433265021114174
-0.4838180526249971	-0.6438533634092981
-0.4837570174687471	-0.6442555158860658
-0.4836959823124971	-0.6445687881706692
-0.4836349471562471	-0.6448322091244817
-0.4835739119999971	-0.6450816700086681
-0.4835128768437471	-0.6453442031904042
-0.4834518416874971	-0.6456337851682262
-0.4833908065312471	-0.6459493119350562
-0.4833297713749971	-0.6462750329770734
-0.4832687362187471	-0.6465833305602747
-0.4832077010624971	-0.6468393590008104
-0.4831466659062471	-0.6470067659750447
-0.4830856307499971	-0.6470535558754188
-0.4830245955937471	-0.6469571503683618
-0.4829635604374971	-0.6467078481916888
-0.4829025252812471	-0.646310156410107
-0.4828414901249971	-0.6457818167021888
-0.4827804549687471	-0.6451507261513431
-0.4827194198124971	-0.644450283525406
-0.4826583846562471	-0.643713934112968
-0.4825973494999971	-0.6429698041930345
-0.4825363143437471	-0.6422362836118366
-0.4824752791874971	-0.641519247657629
-0.4824142440312471	-0.6408113424646725
-0.4823532088749971	-0.6400934131669364
-0.4822921737187471	-0.6393377936292489
-0.4822311385624971	-0.6385128982327465
-0.4821701034062471	-0.6375883719911715
-0.4821090682499971	-0.6365399582335789
-0.4820480330937471	-0.6353532959861188
-0.4819869979374971	-0.63402606085657
-0.4819259627812471	-0.6325681397830137
-0.4818649276249971	-0.6309998450991302
-0.4818038924687471	-0.6293484905748633
-0.4817428573124971	-0.6276439112408114
-0.4816818221562471	-0.6259136638886513
-0.4816207869999971	-0.6241786776240349
-0.4815597518437471	-0.6224500414665388
-0.4814987166874971	-0.6207274300760048
-0.4814376815312471	-0.6189993938596523
-0.4813766463749971	-0.6172454238971309
-0.4813156112187471	-0.6154394192604089
-0.4812545760624971	-0.613553981265692
-0.4811935409062471	-0.6115648440579804
-0.4811325057499971	-0.6094547275681141
-0.4810714705937471	-0.607215998222394
-0.4810104354374971	-0.6048517413865392
-0.4809494002812471	-0.6023751078441302
-0.4808883651249971	-0.5998070623729415
-0.4808273299687471	-0.5971729253796542
-0.4807662948124971	-0.5944982855998838
-0.4807052596562471	-0.5918049509751534
-0.4806442244999971	-0.5891075910638418
-0.4805831893437471	-0.5864115813782108
-0.4805221541874971	-0.5837123545898597
-0.4804611190312471	-0.5809963478744299
-0.4804000838749971	-0.578243382297365
-0.4803390487187471	-0.5754300610427815
-0.4802780135624971	-0.5725336088900491
-0.4802169784062471	-0.5695355234098097
-0.4801559432499971	-0.5664244689638465
-0.4800949080937471	-0.5631979781909182
-0.4800338729374971	-0.5598627115018057
-0.4799728377812471	-0.5564332604622898
-0.4799118026249971	-0.5529297138884725
-0.4798507674687471	-0.5493744067676908
-0.4797897323124971	-0.5457883937893905
-0.4797286971562471	-0.54218819731481
-0.4796676619999971	-0.5385833298916989
-0.4796066268437471	-0.5349749820137092
-0.4795455916874971	-0.531356069975577
-0.4794845565312471	-0.5277126061574454
-0.4794235213749971	-0.5240261357461296
-0.4793624862187471	-0.5202768135860634
-0.4793014510624971	-0.516446612641999
-0.4792404159062471	-0.5125221763050446
-0.4791793807499971	-0.5084968898542195
-0.4791183455937471	-0.5043718369929145
-0.4790573104374971	-0.5001555048091727
-0.4789962752812471	-0.4958623254964659
-0.4789352401249971	-0.4915103122632091
-0.4788742049687471	-0.4871182031424982
-0.4788131698124971	-0.48270258377669745
-0.4787521346562471	-0.47827540989221246
-0.4786910994999971	-0.4738422952400699
-0.4786300643437471	-0.46940184484185044
-0.4785690291874971	-0.46494614095822
-0.4785079940312471	-0.46046224830831756
-0.4784469588749971	-0.45593443727978306
-0.4783859237187471	-0.4513467783683998
-0.4783248885624971	-0.446685710384626
-0.4782638534062471	-0.44194217000781855
-0.4782028182499971	-0.4371129644208511
-0.4781417830937471	-0.4322011849267016
-0.4780807479374971	-0.4272156014678369
-0.4780197127812471	-0.4221691771943568
-0.4779586776249971	-0.41707699467280446
-0.4778976424687471	-0.411953931968026
-0.4778366073124971	-0.4068124423705325
-0.4777755721562471	-0.4016607890224757
-0.4777145369999971	-0.39650199281149506
-0.4776535018437471	-0.3913336122345575
-0.4775924666874971	-0.3861483671028079
-0.4775314315312471	-0.3809355049217235
-0.4774703963749971	-0.37568267552485285
-0.4774093612187471	-0.3703779785587461
-0.4773483260624971	-0.36501183579299595
-0.4772872909062471	-0.35957843729933825
-0.4772262557499971	-0.35407658683891835
-0.4771652205937471	-0.34850980702741285
-0.4771041854374971	-0.34288570171503585
-0.4770431502812471	-0.3372147252021754
-0.4769821151249971	-0.331508572504793
-0.4769210799687471	-0.32577844554538654
-0.4768600448124971	-0.3200334624765458
-0.4767990096562471	-0.31427944156694354
-0.4767379744999971	-0.3085182385184779
-0.4766769393437471	-0.30274773021191337
-0.4766159041874971	-0.29696240113985245
-0.4765548690312471	-0.2911543973803381
-0.4764938338749971	-0.2853148893269661
-0.4764327987187471	-0.2794355295148181
-0.4763717635624971	-0.2735097579455746
-0.4763107284062471	-0.26753376680044877
-0.4762496932499971	-0.26150702168453255
-0.4761886580937471	-0.2554322832682329
-0.4761276229374971	-0.24931512512387577
-0.4760665877812471	-0.24316305452168271
-0.4760055526249971	-0.23698441833462824
-0.4759445174687471	-0.23078725825474547
-0.4758834823124971	-0.22457825849425161
-0.4758224471562471	-0.21836193753339697
-0.4757614119999971	-0.21214020765684297
-0.4757003768437471	-0.20591234014864848
-0.4756393416874971	-0.1996753004870443
-0.4755783065312471	-0.19342438507840337
-0.4755172713749971	-0.18715405159372275
-0.4754562362187471	-0.18085880868304832
-0.4753952010624971	-0.17453405169934624
-0.4753341659062471	-0.16817674074450314
-0.4752731307499971	-0.1617858149181013
-0.4752120955937471	-0.15536230232461626
-0.4751510604374971	-0.14890915442540092
-0.4750900252812471	-0.14243084777747503
-0.4750289901249971	-0.13593282378138238
-0.4749679549687471	-0.1294208388348035
-0.4749069198124971	-0.1229002902215942
-0.4748458846562471	-0.11637561728276045
-0.4747848494999971	-0.10984986768195337
-0.4747238143437471	-0.1033244630400511
-0.4746627791874971	-0.09679916272840838
-0.4746017440312471	-0.09027221468024411
-0.4745407088749971	-0.08374067207186503
-0.4744796737187471	-0.07720084807711271
-0.4744186385624971	-0.070648862092804
-0.4743576034062471	-0.06408121101762775
-0.4742965682499971	-0.057495305194043986
-0.4742355330937471	-0.050889881768596004
-0.4741744979374971	-0.044265227893439694
-0.4741134627812471	-0.03762323475604131
-0.4740524276249971	-0.030967290152834854
-0.4739913924687471	-0.02430197669998316
-0.4739303573124971	-0.017632596855066893
-0.4738693221562471	-0.010964592309554608
-0.4738082869999971	-0.0043029222260592736
-0.4737472518437471	0.0023485341194751253
-0.4736862166874971	0.008987462113786763
-0.4736251815312471	0.015613395652276124
-0.4735641463749971	0.022227767159061527
-0.4735031112187471	0.02883370988000621
-0.4734420760624971	0.035435592889987697
-0.4733810409062471	0.04203834404962289
-0.4733200057499971	0.048646663240045136
-0.4732589705937471	0.05526421971808066
-0.4731979354374971	0.06189296226309791
-0.4731369002812471	0.06853266733721386
-0.4730758651249971	0.07518077792321642
-0.4730148299687471	0.08183256518176145
-0.4729537948124971	0.08848164313072401
-0.4728927596562471	0.09512077035637229
-0.4728317244999971	0.10174280352667772
-0.4727706893437471	0.10834168116386034
-0.4727096541874971	0.11491329784462975
-0.4726486190312471	0.12145611590179296
-0.4725875838749971	0.12797140041474125
-0.4725265487187471	0.13446303460124365
-0.4724655135624971	0.14093692556788676
-0.4724044784062471	0.14740005046253438
-0.4723434432499971	0.15385928389892756
-0.4722824080937471	0.16032020449387976
-0.4722213729374971	0.16678606907148985
-0.4721603377812471	0.17325711019762355
-0.4720993026249971	0.17973027340743955
-0.4720382674687471	0.18619947357889902
-0.4719772323124971	0.1926563611709653
-0.4719161971562471	0.19909148844729532
-0.4718551619999971	0.20549569475374643
-0.4717941268437471	0.21186147630877908
-0.4717330916874971	0.218184122332346
-0.4716720565312471	0.22446245215870297
-0.4716110213749971	0.23069901997380735
-0.4715499862187471	0.23689971312913916
-0.4714889510624971	0.24307277818021042
-0.4714279159062471	0.24922742726920663
-0.4713668807499971	0.25537226068520585
-0.4713058455937471	0.2615137580583509
-0.4712448104374971	0.2676550647183863
-0.4711837752812471	0.2737952755754975
-0.4711227401249971	0.2799293696669142
-0.4710617049687471	0.2860488266758497
-0.4710006698124971	0.2921428329621469
-0.4709396346562471	0.29819991003204116
-0.4708785994999971	0.304209699371614
-0.4708175643437471	0.31016457551939525
-0.4707565291874971	0.31606083666524876
-0.4706954940312471	0.3218993080944785
-0.4706344588749971	0.32768522659080324
-0.4705734237187471	0.333427375209466
-0.4705123885624971	0.3391365959995423
-0.4704513534062471	0.3448239262395908
-0.4703903182499971	0.35049866655703943
-0.4703292830937471	0.35616670578177095
-0.4702682479374971	0.36182938052390157
-0.4702072127812471	0.36748305777516366
-0.4701461776249971	0.37311953560051475
-0.4700851424687471	0.37872722720625207
-0.4700241073124971	0.3842929384991879
-0.4699630721562471	0.3898039489940329
-0.4699020369999971	0.3952500559570475
-0.4698410018437471	0.400625227576349
-0.4697799666874971	0.405928571878841
-0.4697189315312471	0.41116445804084345
-0.4696578963749971	0.416341778637286
