Time	Frequency
-0.5000610329375021	-0.4092249067753768
-0.49999999778125215	-0.40570286913783443
-0.49993896262500215	-0.402150543554391
-0.49987792746875215	-0.39856664048399437
-0.49981689231250215	-0.3949498498374908
-0.49975585715625215	-0.391299175047488
-0.49969482200000215	-0.3876142706183061
-0.49963378684375215	-0.38389574609770705
-0.49957275168750215	-0.38014526374246443
-0.49951171653125215	-0.37636523518469406
-0.49945068137500215	-0.37255806713102035
-0.49938964621875215	-0.36872517677230526
-0.49932861106250215	-0.3648662525375886
-0.49926757590625215	-0.36097925117510826
-0.49920654075000215	-0.3570612969342092
-0.49914550559375215	-0.35311016002030265
-0.49908447043750215	-0.34912561555115285
-0.49902343528125215	-0.3451099342737162
-0.49896240012500215	-0.3410671280105982
-0.49890136496875215	-0.33700121785156123
-0.49884032981250215	-0.33291435076354325
-0.49877929465625215	-0.32880573063808805
-0.49871825950000215	-0.32467197412878795
-0.49865722434375215	-0.3205088292484278
-0.49859618918750215	-0.3163134826285758
-0.49853515403125215	-0.3120862632530289
-0.49847411887500215	-0.30783077478254045
-0.49841308371875215	-0.30355232497792783
-0.49835204856250215	-0.2992554266177689
-0.49829101340625215	-0.2949416244020535
-0.49822997825000215	-0.290608785798462
-0.49816894309375215	-0.2862522808341841
-0.49810790793750215	-0.2818674849616538
-0.49804687278125215	-0.2774523277796106
-0.49798583762500215	-0.273008572377899
-0.49792480246875215	-0.26854115208659984
-0.49786376731250215	-0.2640558621903172
-0.49780273215625215	-0.25955656083237005
-0.49774169700000215	-0.25504332941963015
-0.49768066184375215	-0.25051257378790726
-0.49761962668750215	-0.2459590426452665
-0.49755859153125215	-0.24137870904502262
-0.49749755637500215	-0.23677102665014457
-0.49743652121875215	-0.23213941801957694
-0.49737548606250215	-0.2274897123488892
-0.49731445090625215	-0.22282731244065324
-0.49725341575000215	-0.21815458017687048
-0.49719238059375215	-0.2134698030170196
-0.49713134543750215	-0.20876826655548275
-0.49707031028125215	-0.2040448865170358
-0.49700927512500215	-0.19929703919246458
-0.49694823996875215	-0.19452610809249954
-0.49688720481250215	-0.1897369409058181
-0.49682616965625215	-0.1849355117181303
-0.49676513450000215	-0.18012602385230864
-0.49670409934375215	-0.17530895458726864
-0.49664306418750215	-0.17048102590459582
-0.49658202903125215	-0.1656371034507327
-0.49652099387500215	-0.1607730376071528
-0.49645995871875215	-0.15588797906946783
-0.49639892356250215	-0.1509850018871075
-0.49633788840625215	-0.14606972522441672
-0.49627685325000215	-0.14114761461884986
-0.49621581809375215	-0.13622134942644662
-0.49615478293750215	-0.1312896405652928
-0.49609374778125215	-0.1263481123971662
-0.49603271262500215	-0.1213917806464408
-0.49597167746875215	-0.11641782228663097
-0.49591064231250215	-0.1114271966902705
-0.49584960715625215	-0.10642431898227911
-0.49578857200000215	-0.10141498494946026
-0.49572753684375215	-0.09640360592535041
-0.49566650168750215	-0.09139116734709986
-0.49560546653125215	-0.08637495977847162
-0.49554443137500215	-0.08135019883462298
-0.49548339621875215	-0.07631267410101437
-0.49542236106250215	-0.07126107422226027
-0.49536132590625215	-0.06619783053624945
-0.49530029075000215	-0.06112805270368315
-0.49523925559375215	-0.056057098351644415
-0.49517822043750215	-0.05098805458715679
-0.49511718528125215	-0.04592042002894956
-0.49505615012500215	-0.04085061275541853
-0.49499511496875215	-0.03577401218673932
-0.49493407981250215	-0.03068748932194073
-0.49487304465625215	-0.02559115965499034
-0.49481200950000215	-0.02048848728511423
-0.49475097434375215	-0.015384699193884884
-0.49468993918750215	-0.010284348836931214
-0.49462890403125215	-0.0051892616564095445
-0.49456786887500215	-9.786469408294967e-05
-0.49450683371875215	0.004993767874897841
-0.49444579856250215	0.010089714645583312
-0.49438476340625215	0.015191988356185172
-0.49432372825000215	0.020299380369252624
-0.49426269309375215	0.025407926581387887
-0.49420165793750215	0.030512727066905276
-0.49414062278125215	0.03561017116190742
-0.49407958762500215	0.04069948385637201
-0.49401855246875215	0.04578285225277281
-0.49395751731250215	0.05086408736530787
-0.49389648215625215	0.055946522922888785
-0.49383544700000215	0.06103119286325191
-0.49377441184375215	0.0661161663410272
-0.49371337668750215	0.07119736743103501
-0.49365234153125215	0.0762704432337545
-0.49359130637500215	0.08133270151158449
-0.49353027121875215	0.08638416846454179
-0.49346923606250215	0.09142730437013441
-0.49340820090625215	0.09646554882280406
-0.49334716575000215	0.10150142230301464
-0.49328613059375215	0.10653512933076119
-0.49322509543750215	0.1115643305804826
-0.49316406028125215	0.11658516109710143
-0.49310302512500215	0.12159396850864751
-0.49304198996875215	0.12658889110402438
-0.49298095481250215	0.13157050599153927
-0.49291991965625215	0.13654127416316839
-0.49285888450000215	0.14150408748408613
-0.49279784934375215	0.1464606406308966
-0.49273681418750215	0.15141044025182035
-0.49267577903125215	0.15635093504084985
-0.49261474387500215	0.1612786585167077
-0.49255370871875215	0.16619077039605726
-0.49249267356250215	0.1710862252869049
-0.49243163840625215	0.1759660226476773
-0.49237060325000215	0.18083244414777644
-0.49230956809375215	0.185687687240126
-0.49224853293750215	0.19053261088822052
-0.49218749778125215	0.19536618302113265
-0.49212646262500215	0.2001858449867114
-0.49206542746875215	0.20498862577467858
-0.49200439231250215	0.20977245094164335
-0.49194335715625215	0.21453695934634034
-0.49188232200000215	0.2192834412793913
-0.49182128684375215	0.22401395252430853
-0.49176025168750215	0.22873004096190117
-0.49169921653125215	0.2334317605993758
-0.49163818137500215	0.2381175036895765
-0.49157714621875215	0.24278469028197236
-0.49151611106250215	0.24743092021466165
-0.49145507590625215	0.25205501180736295
-0.49139404075000215	0.25665740742872384
-0.49133300559375215	0.2612397270616062
-0.49127197043750215	0.2658036947275413
-0.49121093528125215	0.27035002570500855
-0.49114990012500215	0.2748778745335053
-0.49108886496875215	0.27938510102049785
-0.49102782981250215	0.28386921313439945
-0.49096679465625215	0.28832851049725183
-0.49090575950000215	0.29276279926363785
-0.49084472434375215	0.29717329609301896
-0.49078368918750215	0.30156179598532046
-0.49072265403125215	0.30592952520335304
-0.49066161887500215	0.31027627070974484
-0.49060058371875215	0.31460027502516
-0.49053954856250215	0.31889897860961697
-0.49047851340625215	0.32317021805988255
-0.49041747825000215	0.3274132225372276
-0.49035644309375215	0.3316288600952575
-0.49029540793750215	0.33581900530115544
-0.49023437278125215	0.3399853606720381
-0.49017333762500215	0.3441283449353624
-0.49011230246875215	0.3482466415647085
-0.49005126731250215	0.3523376768613086
-0.48999023215625215	0.3563988103672972
-0.48992919700000215	0.3604286072695685
-0.48986816184375215	0.3644274798334546
-0.48980712668750215	0.3683973277526564
-0.48974609153125215	0.3723403572823002
-0.48968505637500215	0.37625770211451326
-0.48962402121875215	0.38014859535171397
-0.48956298606250215	0.3840105651624912
-0.48950195090625215	0.38784057142944695
-0.48944091575000215	0.39163647381201766
-0.48937988059375215	0.39539804286992986
-0.48931884543750215	0.39912697169830785
-0.48925781028125215	0.4028258458830378
-0.48919677512500215	0.40649658649190684
-0.48913573996875215	0.4101392124196058
-0.48907470481250215	0.4137516192686171
-0.48901366965625215	0.41733051269138
-0.48895263450000215	0.4208729979541134
-0.48889159934375215	0.4243779874888807
-0.48883056418750215	0.4278466906685127
-0.48876952903125215	0.43128188406971757
-0.48870849387500215	0.43468628959165756
-0.48864745871875215	0.4380609257468287
-0.48858642356250215	0.4414043461236507
-0.48852538840625215	0.44471320041259144
-0.48846435325000215	0.44798385512400557
-0.48840331809375215	0.451214220837637
-0.48834228293750215	0.45440478351136265
-0.48828124778125215	0.4575582633516977
-0.48822021262500215	0.46067805580568455
-0.48815917746875215	0.46376626155630857
-0.48809814231250215	0.46682236363106233
-0.48803710715625215	0.4698432904409701
-0.48797607200000215	0.472824874946807
-0.48791503684375215	0.4757639628329687
-0.48785400168750215	0.47866002823607334
-0.48779296653125215	0.4815153920377318
-0.48773193137500215	0.4843339005761679
-0.48767089621875215	0.4871187490844559
-0.48760986106250215	0.48987059641863623
-0.48754882590625215	0.492586999090392
-0.48748779075000215	0.49526352325922557
-0.48742675559375215	0.49789598668255536
-0.48736572043750215	0.5004826306128093
-0.48730468528125215	0.5030250252504616
-0.48724365012500215	0.5055271820173411
-0.48718261496875215	0.5079933103990685
-0.48712157981250215	0.5104254075029292
-0.48706054465625215	0.512821996924057
-0.48699950950000215	0.5151787407229304
-0.48693847434375215	0.5174906303089228
-0.48687743918750215	0.5197545867902703
-0.48681640403125215	0.5219710696201054
-0.48675536887500215	0.5241438037868551
-0.48669433371875215	0.5262777244705417
-0.48663329856250215	0.5283762166029585
-0.48657226340625215	0.5304391367127669
-0.48651122825000215	0.5324627085640866
-0.48645019309375215	0.5344413994031626
-0.48638915793750215	0.5363708041649645
-0.48632812278125215	0.5382499809264875
-0.48626708762500215	0.5400819482060041
-0.48620605246875215	0.541872037297837
-0.48614501731250215	0.5436249492162627
-0.48608398215625215	0.5453420855467227
-0.48602294700000215	0.547020622967991
-0.48596191184375215	0.5486548837777238
-0.48590087668750215	0.5502392990347932
-0.48583984153125215	0.5517713769221747
-0.48577880637500215	0.5532530548923037
-0.48571777121875215	0.5546896604315342
-0.48565673606250215	0.5560869965903844
-0.48559570090625215	0.5574481056967556
-0.48553466575000215	0.5587714762220947
-0.48547363059375215	0.560051704472392
-0.48541259543750215	0.5612822991381263
-0.48535156028125215	0.5624591458520405
-0.48529052512500215	0.5635827576784505
-0.48522948996875215	0.5646580464216852
-0.48516845481250215	0.5656916739390908
-0.48510741965625215	0.5666883807295816
-0.48504638450000215	0.5676482860479535
-0.48498534934375215	0.5685666612750065
-0.48492431418750215	0.5694363566007807
-0.48486327903125215	0.5702516170652219
-0.48480224387500215	0.5710112311797426
-0.48474120871875215	0.5717192661955114
-0.48468017356250215	0.5723829264145837
-0.48461913840625215	0.5730086381473978
-0.48455810325000215	0.5735984625378328
-0.48449706809375215	0.5741488133022264
-0.48443603293750215	0.5746522455586774
-0.48437499778125215	0.575101413316377
-0.48431396262500215	0.5754930775204932
-0.48425292746875215	0.5758299659651064
-0.48419189231250215	0.5761194077511568
-0.48413085715625215	0.5763694065151139
-0.48406982200000215	0.5765842424902604
-0.48400878684375215	0.5767620066706654
-0.48394775168750215	0.576895468607241
-0.48388671653125215	0.5769758865307637
-0.48382568137500215	0.5769977486973118
-0.48376464621875215	0.5769618708386596
-0.48370361106250215	0.5768751063170423
-0.48364257590625215	0.576746739313849
-0.48358154075000215	0.5765834539298786
-0.48352050559375215	0.576385603813883
-0.48345947043750215	0.5761468591390266
-0.48339843528125215	0.5758575038890734
-0.48333740012500215	0.5755096695125619
-0.48327636496875215	0.5751016919619483
-0.48321532981250215	0.5746391854267902
-0.48315429465625215	0.574132160527814
-0.48309325950000215	0.5735896657737434
-0.48303222434375215	0.573014829926647
-0.48297118918750215	0.5724030304409465
-0.48291015403125215	0.5717442566309884
-0.48284911887500215	0.5710284699432852
-0.48278808371875215	0.5702511073904598
-0.48272704856250215	0.5694157258950179
-0.48266601340625215	0.5685322707888906
-0.48260497825000215	0.5676118106614609
-0.48254394309375215	0.5666605434828756
-0.48248290793750215	0.5656763439775698
-0.48242187278125215	0.5646497857816978
-0.48236083762500215	0.5635691668015926
-0.48229980246875215	0.5624268905590182
-0.48223876731250215	0.5612237467606426
-0.48217773215625215	0.559968690486529
-0.48211669700000215	0.5586741513890716
-0.48205566184375215	0.5573493584058008
-0.48199462668750215	0.5559952819379149
-0.48193359153125215	0.5546039884490027
-0.48187255637500215	0.5531628572264855
-0.48181152121875215	0.5516614496666394
-0.48175048606250215	0.550097322310203
-0.48168945090625215	0.5484775763434941
-0.48162841575000215	0.5468152127606808
-0.48156738059375215	0.5451221968911408
-0.48150634543750215	0.5434029569251124
-0.48144531028125215	0.5416518717080627
-0.48138427512500215	0.5398562085063234
-0.48132323996875215	0.5380030245424091
-0.48126220481250215	0.5360863362098884
-0.48120116965625215	0.5341106230319934
-0.48114013450000215	0.5320886660916139
-0.48107909934375215	0.5300347924166313
-0.48101806418750215	0.5279571262935581
-0.48095702903125215	0.5258530761327428
-0.48089599387500215	0.5237106116411466
-0.48083495871875215	0.5215147487039783
-0.48077392356250215	0.5192557913868936
-0.48071288840625215	0.5169348588592276
-0.48065185325000215	0.5145636131875294
-0.48059081809375215	0.5121582012033481
-0.48052978293750215	0.5097305911115493
-0.48046874778125215	0.5072819980095791
-0.48040771262500215	0.5048020606180823
-0.48034667746875215	0.5022743512700366
-0.48028564231250215	0.49968534487598565
-0.48022460715625215	0.49703201961716825
-0.48016357200000215	0.49432389297169155
-0.48010253684375215	0.49157823190900657
-0.48004150168750215	0.48881088281559903
-0.47998046653125215	0.4860276405679994
-0.47991943137500215	0.4832209160610702
-0.47985839621875215	0.48037367553037497
-0.47979736106250215	0.47746866678635475
-0.47973632590625215	0.47449799618186356
-0.47967529075000215	0.47146782811335536
-0.47961425559375215	0.46839550992110407
-0.47955322043750215	0.4653004873074516
-0.47949218528125215	0.46219381888348227
-0.47943115012500215	0.4590720018073692
-0.47937011496875215	0.4559186231939038
-0.47930907981250215	0.45271315263963113
-0.47924804465625215	0.44944223694608154
-0.47918700950000215	0.4461073619583267
-0.47912597434375215	0.4427245846961728
-0.47906493918750215	0.4393162618676389
-0.47900390403125215	0.4358990815531376
-0.47894286887500215	0.4324748780929476
-0.47888183371875215	0.42902936700005206
-0.47882079856250215	0.42553970073155173
-0.47875976340625215	0.42198693865393105
-0.47869872825000215	0.418366725618339
-0.47863769309375215	0.41469223756781204
-0.47857665793750215	0.41098756065455283
-0.47851562278125215	0.40727490636742736
-0.47845458762500215	0.4035624988963895
-0.47839355246875215	0.3998397990828641
-0.47833251731250215	0.3960829353397004
-0.47827148215625215	0.3922676502406679
-0.47821044700000215	0.3883828284407542
-0.47814941184375215	0.3844371652490752
-0.47808837668750215	0.3804550963564308
-0.47802734153125215	0.3764639231603538
-0.47796630637500215	0.37247899958680225
-0.47790527121875215	0.3684950958301566
-0.47784423606250215	0.3644888635372772
-0.47778320090625215	0.3604313757414251
-0.47772216575000215	0.3563041402211358
-0.47766113059375215	0.3521098264336166
-0.47760009543750215	0.3478715837052067
-0.47753906028125215	0.3436210030156547
-0.47747802512500215	0.3393810642323954
-0.47741698996875215	0.3351533365215996
-0.47735595481250215	0.3309166424335881
-0.47729491965625215	0.32663827857436006
-0.47723388450000215	0.32229196155091183
-0.47717284934375215	0.31787278330628665
-0.47711181418750215	0.3134008070603792
-0.47705077903125215	0.3089109494701757
-0.47698974387500215	0.3044343027169375
-0.47692870871875215	0.29998095608412095
-0.47686767356250215	0.29553390155811593
-0.47680663840625215	0.29105777071669653
-0.47674560325000215	0.28651803342890786
-0.47668456809375215	0.2819003619933793
-0.47662353293750215	0.2772194330800832
-0.47656249778125215	0.2725119492418381
-0.47650146262500215	0.26781725204673656
-0.47644042746875215	0.2631558403417551
-0.47637939231250215	0.2585175896450839
-0.47631835715625215	0.2538665213163913
-0.47625732200000215	0.24916002836473766
-0.47619628684375215	0.24437240695396648
-0.47613525168750215	0.23950986243520517
-0.47607421653125215	0.234608433260765
-0.47601318137500215	0.2297153820200748
-0.47595214621875215	0.22486372368599972
-0.47589111106250215	0.2200536968792701
-0.47583007590625215	0.21525164810947003
-0.47576904075000215	0.21040754925978825
-0.47570800559375215	0.20548214794452635
-0.47564697043750215	0.20046917313158627
-0.47558593528125215	0.1954002445821977
-0.47552490012500215	0.1903291806296037
-0.47546386496875215	0.18530355581827324
-0.47540282981250215	0.18033859746630598
-0.47534179465625215	0.17540778765218423
-0.47528075950000215	0.17045594569941946
-0.47521972434375215	0.16542847470476757
-0.47515868918750215	0.1603014193534545
-0.47509765403125215	0.15509600025337142
-0.47503661887500215	0.14986910977449666
-0.47497558371875215	0.1446840111638829
-0.47491454856250215	0.13957640729673573
-0.47485351340625215	0.13453410154627674
-0.47479247825000215	0.12950182012700126
-0.47473144309375215	0.12440961503190036
-0.47467040793750215	0.11921038465681595
-0.47460937278125215	0.11390654625934842
-0.47454833762500215	0.10855104834242472
-0.47448730246875215	0.10322117381675056
-0.47442626731250215	0.09797812895928289
-0.47436523215625215	0.09283357224556951
-0.47430419700000215	0.08774140429613697
-0.47424316184375215	0.08262029600466254
-0.47418212668750215	0.07739608944454679
-0.47412109153125215	0.07204212650352732
-0.47406005637500215	0.06659580911118936
-0.47399902121875215	0.06114155765743862
-0.47393798606250215	0.05576793813318956
-0.47387695090625215	0.05052080880375572
-0.47381591575000215	0.045377295595781054
-0.47375488059375215	0.040255286118843395
-0.47369384543750215	0.03505481235845612
-0.47363281028125215	0.02971061381988401
-0.47357177512500215	0.02422841135420752
-0.47351073996875215	0.018685003879721614
-0.47344970481250215	0.013190773142329642
-0.47338866965625215	0.00783301391667155
-0.47332763450000215	0.0026292691951282335
-0.47326659934375215	-0.0024843726951101004
-0.47320556418750215	-0.007622583289308175
-0.47314452903125215	-0.012892304143963357
-0.47308349387500215	-0.01833621038084769
-0.47302245871875215	-0.023907879036175368
-0.47296142356250215	-0.029492707269136748
-0.47290038840625215	-0.034965110352211955
-0.47283935325000215	-0.04025330410994905
-0.47277831809375215	-0.045378110921519735
-0.47271728293750215	-0.05044476551573664
-0.47265624778125215	-0.05559063432263554
-0.47259521262500215	-0.06091481977756315
-0.47253417746875215	-0.06642571652093382
-0.47247314231250215	-0.07203415880832555
-0.47241210715625215	-0.07759678832607018
-0.47235107200000215	-0.08298834365890866
-0.47229003684375215	-0.08816615244768752
-0.47222900168750215	-0.09319340412873144
-0.47216796653125215	-0.09820846098729376
-0.47210693137500215	-0.10335509569004539
-0.47204589621875215	-0.10870891430786207
-0.47198486106250215	-0.11423768962384387
-0.47192382590625215	-0.11981635542032004
-0.47186279075000215	-0.1252895643234315
-0.47180175559375215	-0.13055022468328223
-0.47174072043750215	-0.1355939475004573
-0.47167968528125215	-0.14052144442436806
-0.47161865012500215	-0.14548747929451153
-0.47155761496875215	-0.15062230556728815
-0.47149657981250215	-0.15596561028204378
-0.47143554465625215	-0.1614465738818951
-0.47137450950000215	-0.16692002795124317
-0.47131347434375215	-0.1722400328752284
-0.47125243918750215	-0.17733323755615873
-0.47119140403125215	-0.18223480254823768
-0.47113036887500215	-0.1870690717454652
-0.47106933371875215	-0.19198546659642934
-0.47100829856250215	-0.19708271479291545
-0.47094726340625215	-0.2023599491175564
-0.47088622825000215	-0.20771892657307528
-0.47082519309375215	-0.2130152643834516
-0.47076415793750215	-0.2181317790737908
-0.47070312278125215	-0.22303639786105517
-0.47064208762500215	-0.22779578295283798
-0.47058105246875215	-0.23253891773573854
-0.47052001731250215	-0.2373903792893181
-0.47045898215625215	-0.2424078013088969
-0.47039794700000215	-0.2475549176754931
-0.47033691184375215	-0.2527226720888817
-0.47027587668750215	-0.2577862138669548
-0.47021484153125215	-0.26266787972321365
