Time	Frequency
-0.5000305492812487	0.43926235828974747
-0.4999695141249987	0.44544222006572026
-0.4999084789687487	0.4515675329294165
-0.4998474438124987	0.4576378796017119
-0.4997864086562487	0.4636506031433344
-0.4997253734999987	0.4696019614374982
-0.4996643383437487	0.47548908788576044
-0.4996033031874987	0.48131143398571813
-0.4995422680312487	0.4870706731637667
-0.4994812328749987	0.49276909439231126
-0.4994201977187487	0.4984075368471309
-0.4993591625624987	0.5039842437727917
-0.4992981274062487	0.5094954560689074
-0.4992370922499987	0.5149374117309952
-0.4991760570937487	0.520308410810384
-0.4991150219374987	0.5256095225972636
-0.4990539867812487	0.5308434251539443
-0.4989929516249987	0.5360121278966157
-0.4989319164687487	0.5411151060292435
-0.4988708813124987	0.5461491242250361
-0.4988098461562487	0.5511098968533968
-0.4987488109999987	0.5559945125742488
-0.4986877758437487	0.5608030032005423
-0.4986267406874987	0.565537933218737
-0.4985657055312487	0.5702022382250749
-0.4985046703749987	0.5747967879427827
-0.4984436352187487	0.5793193248812826
-0.4983826000624987	0.5837655085592097
-0.4983215649062487	0.5881314116396543
-0.4982605297499987	0.5924157959075035
-0.4981994945937487	0.5966206013692468
-0.4981384594374987	0.6007492839512422
-0.4980774242812487	0.6048040840761717
-0.4980163891249987	0.6087840748372871
-0.4979553539687487	0.6126853621844778
-0.4978943188124987	0.616503331906847
-0.4978332836562487	0.6202354288458161
-0.4977722484999987	0.6238825839973619
-0.4977112133437487	0.627448281918418
-0.4976501781874987	0.6309358482542542
-0.4975891430312487	0.6343458038423146
-0.4975281078749987	0.6376751377156281
-0.4974670727187487	0.6409190296434795
-0.4974060375624987	0.644073849571854
-0.4973450024062487	0.6471393696694921
-0.4972839672499987	0.6501186439180975
-0.4972229320937487	0.6530156152884123
-0.4971618969374987	0.6558320945584193
-0.4971008617812487	0.6585661986842717
-0.4970398266249987	0.6612133542071386
-0.4969787914687487	0.6637692035009408
-0.4969177563124987	0.6662324025487676
-0.4968567211562487	0.6686053448070259
-0.4967956859999987	0.6708922654724111
-0.4967346508437487	0.6730960232571723
-0.4966736156874987	0.6752158292054316
-0.4966125805312487	0.6772475516853084
-0.4965515453749987	0.6791864145251375
-0.4964905102187487	0.6810301955369238
-0.4964294750624987	0.6827806425499705
-0.4963684399062487	0.6844420661495612
-0.4963074047499987	0.6860180795772668
-0.4962463695937487	0.6875088051998167
-0.4961853344374987	0.688910569570485
-0.4961242992812487	0.6902183536332906
-0.4960632641249987	0.6914292789938813
-0.4960022289687487	0.6925446110679978
-0.4959411938124987	0.6935687779231505
-0.4958801586562487	0.6945060552181798
-0.4958191234999987	0.6953572958423988
-0.4957580883437487	0.6961191094123985
-0.4956970531874987	0.6967861599020088
-0.4956360180312487	0.6973549756435784
-0.4955749828749987	0.6978265035075111
-0.4955139477187487	0.6982054784445596
-0.4954529125624987	0.6984969688012904
-0.4953918774062487	0.6987025542824957
-0.4953308422499987	0.6988189568389833
-0.4952698070937487	0.6988402430679795
-0.4952087719374987	0.6987621132092844
-0.4951477367812487	0.6985851821261334
-0.4950867016249987	0.698314766909543
-0.4950256664687487	0.697957159851915
-0.4949646313124987	0.6975149779969297
-0.4949035961562487	0.6969850116087679
-0.4948425609999987	0.6963603080031735
-0.4947815258437487	0.6956351732668729
-0.4947204906874987	0.694809548418716
-0.4946594555312487	0.6938894729180439
-0.4945984203749987	0.6928830480936526
-0.4945373852187487	0.6917946210191899
-0.4944763500624987	0.6906213917066613
-0.4944153149062487	0.6893550969618819
-0.4943542797499987	0.6879878473060818
-0.4942932445937487	0.6865180902628523
-0.4942322094374987	0.6849523172373547
-0.4941711742812487	0.6833009793312373
-0.4941101391249987	0.6815712334055692
-0.4940491039687487	0.6797616108708233
-0.4939880688124987	0.6778626251628224
-0.4939270336562487	0.6758632831294932
-0.4938659984999987	0.6737591593235177
-0.4938049633437487	0.6715562638254402
-0.4937439281874987	0.6692676163490631
-0.4936828930312487	0.6669045222162507
-0.4936218578749987	0.664468489496765
-0.4935608227187487	0.6619496485521517
-0.4934997875624987	0.6593332568263027
-0.4934387524062487	0.6566101643784904
-0.4933777172499987	0.6537840101554325
-0.4933166820937487	0.6508697896661314
-0.4932556469374987	0.6478842176973074
-0.4931946117812487	0.6448341929274015
-0.4931335766249987	0.6417114571207597
-0.4930725414687487	0.6384976529078301
-0.4930115063124987	0.6351768998049003
-0.4929504711562487	0.631747519000651
-0.4928894359999987	0.6282245419768357
-0.4928284008437487	0.6246305880634069
-0.4927673656874987	0.6209807743876659
-0.4927063305312487	0.6172718765108723
-0.4926452953749987	0.6134836329697175
-0.4925842602187487	0.6095920964978108
-0.4925232250624987	0.605586485029374
-0.4924621899062487	0.6014779785404072
-0.4924011547499987	0.5972937952695746
-0.4923401195937487	0.5930597190947381
-0.4922790844374987	0.5887824575082615
-0.4922180492812487	0.5844440562495137
-0.4921570141249987	0.5800130506182701
-0.4920959789687487	0.5754657138180377
-0.4920349438124987	0.5708033505368322
-0.4919739086562487	0.5660534649463329
-0.4919128734999987	0.561252973392906
-0.4918518383437487	0.5564238825054257
-0.4917908031874987	0.5515576990318234
-0.4917297680312487	0.5466197822330863
-0.4916687328749987	0.5415718182685493
-0.4916076977187487	0.536398124433528
-0.4915466625624987	0.5311180706528847
-0.4914856274062487	0.5257753888774993
-0.4914245922499987	0.5204104099206625
-0.4913635570937487	0.5150331583135155
-0.4913025219374987	0.5096154987810884
-0.4912414867812487	0.5041085787640287
-0.4911804516249987	0.49847506541142805
-0.4911194164687487	0.49271514862267257
-0.4910583813124987	0.4868685529334274
-0.4909973461562487	0.4809902521856798
-0.4909363109999987	0.4751150810323669
-0.4908752758437487	0.469234385375884
-0.4908142406874987	0.463300724058321
-0.4907532055312487	0.45725846580207524
-0.4906921703749987	0.4510807200533028
-0.4906311352187487	0.44478829577780943
-0.4905701000624987	0.43843771910577717
-0.4905090649062487	0.43208552308060943
-0.4904480297499987	0.42575187037589557
-0.4903869945937487	0.41940742321754226
-0.4903259594374987	0.4129924026655386
-0.4902649242812487	0.40645570255065105
-0.4902038891249987	0.3997886251727663
-0.4901428539687487	0.39303116433445767
-0.4900818188124987	0.386246695886708
-0.4900207836562487	0.37948159835745143
-0.4899597484999987	0.37273607335052844
-0.4898987133437487	0.36596502210464876
-0.4898376781874987	0.35910817560728786
-0.4897766430312487	0.35212962337585224
-0.4897156078749987	0.34504098786508947
-0.4896545727187487	0.33789355138784144
-0.4895935375624987	0.3307450896660681
-0.4895325024062487	0.32362336619019927
-0.4894714672499987	0.31650984259846254
-0.4894104320937487	0.30935354249110125
-0.4893493969374987	0.3021053059472003
-0.4892883617812487	0.2947497696658486
-0.4892273266249987	0.28731454438242127
-0.4891662914687487	0.2798514920030838
-0.4891052563124987	0.2724032198607735
-0.4890442211562487	0.2649769073073099
-0.4889831859999987	0.2575419303682207
-0.4889221508437487	0.25005179247394826
-0.4888611156874987	0.2424752587736064
-0.4888000805312487	0.23481627892081602
-0.4887390453749987	0.2271103869102995
-0.4886780102187487	0.21940099378363712
-0.4886169750624987	0.21171176673051803
-0.4885559399062487	0.20403309046898152
-0.4884949047499987	0.19633066591359788
-0.4884338695937487	0.18856955225170147
-0.4883728344374987	0.1807373854230006
-0.4883117992812487	0.17285185701317693
-0.4882507641249987	0.16494835156630908
-0.4881897289687487	0.15705675247495457
-0.4881286938124987	0.14918306374201423
-0.4880676586562487	0.1413075140481092
-0.4880066234999987	0.1333994937290016
-0.4879455883437487	0.12543873736295363
-0.4878845531874987	0.11742864303994692
-0.4878235180312487	0.10939346782680413
-0.4877624828749987	0.10136207728982842
-0.4877014477187487	0.093349555128481
-0.4876404125624987	0.08534878170147672
-0.4875793774062487	0.07733697030431223
-0.4875183422499987	0.06929212182934291
-0.4874573070937487	0.06120812141607729
-0.4873962719374987	0.0530986761594784
-0.4873352367812487	0.04498805343690852
-0.4872742016249987	0.036895291586685794
-0.4872131664687487	0.028822585952974305
-0.4871521313124987	0.020755367012545888
-0.4870910961562487	0.012673465981660857
-0.4870300609999987	0.004565434706143341
-0.4869690258437487	-0.0035635641616188706
-0.4869079906874987	-0.01169519311940729
-0.4868469555312487	-0.019809946763857812
-0.4867859203749987	-0.027899429574842052
-0.4867248852187487	-0.03597073661126717
-0.4866638500624987	-0.04404034959550435
-0.4866028149062487	-0.05212206778692412
-0.4865417797499987	-0.06021721694348358
-0.4864807445937487	-0.06831350957223752
-0.4864197094374987	-0.07639300337170223
-0.4863586742812487	-0.08444353419526833
-0.4862976391249987	-0.09246588692044751
-0.4862366039687487	-0.10047210678803926
-0.4861755688124987	-0.10847636451360194
-0.4861145336562487	-0.11648468647224468
-0.4860534984999987	-0.12449046300806885
-0.4859924633437487	-0.13247854787590585
-0.4859314281874987	-0.14043489174523965
-0.4858703930312487	-0.14835513698591346
-0.4858093578749987	-0.15624654590162274
-0.4857483227187487	-0.16412214436965417
-0.4856872875624987	-0.17199115235046514
-0.4856262524062487	-0.17985219676792252
-0.4855652172499987	-0.1876937765484412
-0.4855041820937487	-0.19550147005165197
-0.4854431469374987	-0.20326688895482095
-0.4853821117812487	-0.2109923868742405
-0.4853210766249987	-0.21868854343733593
-0.4852600414687487	-0.22636627781468605
-0.4851990063124987	-0.2340289267069774
-0.4851379711562487	-0.2416695209522131
-0.4850769359999987	-0.2492749196398336
-0.4850159008437487	-0.2568339130457135
-0.4849548656874987	-0.26434388530455644
-0.4848938305312487	-0.27181167739000356
-0.4848327953749987	-0.2792482104334724
-0.4847717602187487	-0.2866605539223619
-0.4847107250624987	-0.294046694703429
-0.4846496899062487	-0.30139637637366085
-0.4845886547499987	-0.30869732141303385
-0.4845276195937487	-0.31594263753245105
-0.4844665844374987	-0.3231345590114276
-0.4844055492812487	-0.3302821648757859
-0.4843445141249987	-0.3373946809222802
-0.4842834789687487	-0.3444748377670289
-0.4842224438124987	-0.3515166114505255
-0.4841614086562487	-0.3585086911919722
-0.4841003734999987	-0.3654412883062308
-0.4840393383437487	-0.3723118120611546
-0.4839783031874987	-0.3791257619387688
-0.4839172680312487	-0.3858923705811074
-0.4838562328749987	-0.3926179468136417
-0.4837951977187487	-0.3993012914944015
-0.4837341625624987	-0.405934091183942
-0.4836731274062487	-0.4125058572502586
-0.4836120922499987	-0.41901010141712663
-0.4835510570937487	-0.4254477894759655
-0.4834900219374987	-0.4318259352291145
-0.4834289867812487	-0.4381523685039531
-0.4833679516249987	-0.4444301586231056
-0.4833069164687487	-0.45065527182466003
-0.4832458813124987	-0.4568188377695512
-0.4831848461562487	-0.46291240800384764
-0.4831238109999987	-0.46893275134171664
-0.4830627758437487	-0.47488316815350984
-0.4830017406874987	-0.4807706210887142
-0.4829407055312487	-0.4866006533366241
-0.4828796703749987	-0.4923734221120181
-0.4828186352187487	-0.4980833276536754
-0.4827576000624987	-0.5037223026569108
-0.4826965649062487	-0.5092845181218828
-0.4826355297499987	-0.5147694595659538
-0.4825744945937487	-0.5201815033558839
-0.4825134594374987	-0.5255264462955608
-0.4824524242812487	-0.5308073177343244
-0.4823913891249987	-0.53602214238332
-0.4823303539687487	-0.5411649813338623
-0.4822693188124987	-0.5462294260906279
-0.4822082836562487	-0.551212200343072
-0.4821472484999987	-0.5561145948159318
-0.4820862133437487	-0.5609409636754575
-0.4820251781874987	-0.5656953841842256
-0.4819641430312487	-0.5703786743295096
-0.4819031078749987	-0.5749876467850027
-0.4818420727187487	-0.5795169570979818
-0.4817810375624987	-0.5839622224775416
-0.4817200024062487	-0.5883223444036785
-0.4816589672499987	-0.5925995874016655
-0.4815979320937487	-0.5967975067005287
-0.4815368969374987	-0.6009182099076981
-0.4814758617812487	-0.6049607529660516
-0.4814148266249987	-0.6089216019193172
-0.4813537914687487	-0.6127967159856399
-0.4812927563124987	-0.6165838140610862
-0.4812317211562487	-0.620283354617866
-0.4811706859999987	-0.6238976851611489
-0.4811096508437487	-0.6274290463877408
-0.4810486156874987	-0.6308777994666522
-0.4809875805312487	-0.6342420078818934
-0.4809265453749987	-0.6375185569054128
-0.4808655102187487	-0.6407049778550794
-0.4808044750624987	-0.6438007313837462
-0.4807434399062487	-0.6468071242689789
-0.4806824047499987	-0.6497260022796836
-0.4806213695937487	-0.6525581871470654
-0.4805603344374987	-0.6553027233876731
-0.4804992992812487	-0.6579573703685262
-0.4804382641249987	-0.6605199225231935
-0.4803772289687487	-0.6629894415780777
-0.4803161938124987	-0.66536658630194
-0.4802551586562487	-0.6676528443249592
-0.4801941234999987	-0.6698492287685389
-0.4801330883437487	-0.6719553613331808
-0.4800720531874987	-0.6739695609140306
-0.4800110180312487	-0.6758898382710332
-0.4799499828749987	-0.6777150847832484
-0.4798889477187487	-0.6794456311326391
-0.4798279125624987	-0.681082801627281
-0.4797668774062487	-0.6826277951650582
-0.4797058422499987	-0.6840806825864025
-0.4796448070937487	-0.6854402098519449
-0.4795837719374987	-0.6867045273587197
-0.4795227367812487	-0.6878723311615407
-0.4794617016249987	-0.6889436295615495
-0.4794006664687487	-0.6899196109030233
-0.4793396313124987	-0.6908017069352056
-0.4792785961562487	-0.6915904983080406
-0.4792175609999987	-0.692285215401184
-0.4791565258437487	-0.6928841766300963
-0.4790954906874987	-0.6933858615255453
-0.4790344555312487	-0.6937898832765771
-0.4789734203749987	-0.6940971981290476
-0.4789123852187487	-0.6943094058835688
-0.4788513500624987	-0.6944276113858713
-0.4787903149062487	-0.6944516301922942
-0.4787292797499987	-0.6943800901391974
-0.4786682445937487	-0.6942113501121879
-0.4786072094374987	-0.693944603133872
-0.4785461742812487	-0.6935804223399158
-0.4784851391249987	-0.6931203829338107
-0.4784241039687487	-0.6925660144325025
-0.4783630688124987	-0.691917798079654
-0.4783020336562487	-0.6911748873498034
-0.4782409984999987	-0.6903357273750371
-0.4781799633437487	-0.6893991542243016
-0.4781189281874987	-0.6883652418676057
-0.4780578930312487	-0.6872353227677469
-0.4779968578749987	-0.686011164340098
-0.4779358227187487	-0.6846938650938539
-0.4778747875624987	-0.6832832217068672
-0.4778137524062487	-0.6817779864131639
-0.4777527172499987	-0.6801768351358719
-0.4776916820937487	-0.6784793908725776
-0.4776306469374987	-0.676686596099691
-0.4775696117812487	-0.6748001894113972
-0.4775085766249987	-0.6728216761471256
-0.4774475414687487	-0.6707514905780292
-0.4773865063124987	-0.6685888939816245
-0.4773254711562487	-0.6663326716815827
-0.4772644359999987	-0.663982144198216
-0.4772034008437487	-0.6615378003937216
-0.4771423656874987	-0.6590011453445022
-0.4770813305312487	-0.656373882599401
-0.4770202953749987	-0.6536569831662669
-0.4769592602187487	-0.6508502737728595
-0.4768982250624987	-0.6479528234863093
-0.4768371899062487	-0.6449638416065753
-0.4767761547499987	-0.6418834538097653
-0.4767151195937487	-0.638712849897988
-0.4766540844374987	-0.6354537347752496
-0.4765930492812487	-0.6321074561884633
-0.4765320141249987	-0.6286743968787807
-0.4764709789687487	-0.6251540449428534
-0.4764099438124987	-0.6215456783162013
-0.4763489086562487	-0.6178491757950757
-0.4762878734999987	-0.6140653919666836
-0.4762268383437487	-0.6101958562278293
-0.4761658031874987	-0.6062420454972313
-0.4761047680312487	-0.6022047429211393
-0.4760437328749987	-0.5980838985353181
-0.4759826977187487	-0.5938790732198068
-0.4759216625624987	-0.5895901367732757
-0.4758606274062487	-0.5852177218814876
-0.4757995922499987	-0.5807631469478457
-0.4757385570937487	-0.5762278765045579
-0.4756775219374987	-0.5716128969308848
-0.4756164867812487	-0.5669184685159473
-0.4755554516249987	-0.5621444213684373
-0.4754944164687487	-0.5572907456716448
-0.4754333813124987	-0.5523580512347791
-0.4753723461562487	-0.5473475843174552
-0.4753113109999987	-0.5422607926461269
-0.4752502758437487	-0.5370987542925987
-0.4751892406874987	-0.5318618814760481
-0.4751282055312487	-0.5265501235950165
-0.4750671703749987	-0.5211635400215271
-0.4750061352187487	-0.515702800888613
-0.4749451000624987	-0.5101692359315919
-0.4748840649062487	-0.5045644072232707
-0.4748230297499987	-0.49888949367863095
-0.4747619945937487	-0.49314495136803044
-0.4747009594374987	-0.4873307378149453
-0.4746399242812487	-0.4814469098148377
-0.4745788891249987	-0.4754941515831268
-0.4745178539687487	-0.4694738808537655
-0.4744568188124987	-0.46338783604535655
-0.4743957836562487	-0.4572374074078287
-0.4743347484999987	-0.4510232028909405
-0.4742737133437487	-0.4447451843549918
-0.4742126781874987	-0.4384032853366064
-0.4741516430312487	-0.43199807457963624
-0.4740906078749987	-0.42553099439633546
-0.4740295727187487	-0.419003996827153
-0.4739685375624987	-0.4124188153916517
-0.4739075024062487	-0.4057763431707499
-0.4738464672499987	-0.39907656608445213
-0.4737854320937487	-0.3923191772064281
-0.4737243969374987	-0.38550445103402725
-0.4736633617812487	-0.37863371837647036
-0.4736023266249987	-0.37170910714580846
-0.4735412914687487	-0.3647327385823191
-0.4734802563124987	-0.35770591644904465
-0.4734192211562487	-0.35062886177322916
-0.4733581859999987	-0.34350120207759016
-0.4732971508437487	-0.3363228851371993
-0.4732361156874987	-0.32909486911101377
-0.4731750805312487	-0.32181914333223666
-0.4731140453749987	-0.3144980946185049
-0.4730530102187487	-0.30713359655530875
-0.4729919750624987	-0.29972640004878653
-0.4729309399062487	-0.29227626688367375
-0.4728699047499987	-0.2847827744031409
-0.4728088695937487	-0.27724627358112064
-0.4727478344374987	-0.2696683820535049
-0.4726867992812487	-0.26205163385056585
-0.4726257641249987	-0.25439849089052674
-0.4725647289687487	-0.24671039575024073
-0.4725036938124987	-0.23898748908194756
-0.4724426586562487	-0.23122919428105998
-0.4723816234999987	-0.22343531244757775
-0.4723205883437487	-0.21560689164248606
-0.4722595531874987	-0.2077462423117112
-0.4721985180312487	-0.19985607755476703
-0.4721374828749987	-0.19193842937474379
-0.4720764477187487	-0.18399406576320076
-0.4720154125624987	-0.17602271026728672
-0.4719543774062487	-0.16802393102478408
-0.4718933422499987	-0.15999816726422028
-0.4718323070937487	-0.1519471834419563
-0.4717712719374987	-0.14387361733882456
-0.4717102367812487	-0.135779940212413
-0.4716492016249987	-0.1276675432930759
-0.4715881664687487	-0.11953657736738546
-0.4715271313124987	-0.11138662408631302
-0.4714660961562487	-0.1032177234375579
-0.4714050609999987	-0.09503109852945912
-0.4713440258437487	-0.08682908381501785
-0.4712829906874987	-0.07861429439497909
-0.4712219555312487	-0.07038864516581082
-0.4711609203749987	-0.06215286444217451
-0.4710998852187487	-0.053906772034882366
-0.4710388500624987	-0.045650167141557806
-0.4709778149062487	-0.03738373580154844
-0.4709167797499987	-0.029109331070660677
-0.4708557445937487	-0.020829464381322868
-0.4707947094374987	-0.012546375882570992
-0.4707336742812487	-0.004261318822862294
-0.4706726391249987	0.004025465102145121
-0.4706116039687487	0.012314103095395695
-0.4705505688124987	0.02060423393584772
-0.4704895336562487	0.028894501183109537
-0.4704284984999987	0.03718270466811708
-0.4703674633437487	0.04546650209774577
-0.4703064281874987	0.0537442269538
-0.4702453930312487	0.0620152513958078
-0.4701843578749987	0.07027960390133857
-0.4701233227187487	0.07853713828532494
-0.4700622875624987	0.08678686153954891
-0.4700012524062487	0.09502686101792608
-0.4699402172499987	0.10325485383643841
-0.4698791820937487	0.11146894653646613
-0.4698181469374987	0.11966808366004895
-0.4697571117812487	0.12785195791075712
-0.4696960766249987	0.13602046544368226
-0.4696350414687487	0.1441730148872203
-0.4695740063124987	0.15230815035846668
-0.4695129711562487	0.16042378154117407
-0.4694519359999987	0.16851786100731458
