Time	Frequency
-0.5000396538124932	-0.28950308965715843
-0.49997861865624316	-0.29558174485571836
-0.49991758349999316	-0.3016352809648088
-0.49985654834374316	-0.3076592138870049
-0.49979551318749316	-0.3136477695091474
-0.49973447803124316	-0.3195955952129397
-0.49967344287499316	-0.32549941771928975
-0.49961240771874316	-0.33135907057888736
-0.49955137256249316	-0.33717749894619115
-0.49949033740624316	-0.34295967319901177
-0.49942930224999316	-0.34871071235839224
-0.49936826709374316	-0.3544338414418714
-0.49930723193749316	-0.360128912841035
-0.49924619678124316	-0.36579204542096083
-0.49918516162499316	-0.37141657215342194
-0.49912412646874316	-0.37699503332834083
-0.49906309131249316	-0.3825215618614217
-0.49900205615624316	-0.38799384123703257
-0.49894102099999316	-0.39341391459154856
-0.49887998584374316	-0.3987874767731936
-0.49881895068749316	-0.4041218152553812
-0.49875791553124316	-0.4094230691874787
-0.49869688037499316	-0.4146937479835255
-0.49863584521874316	-0.41993141490480884
-0.49857481006249316	-0.4251290782327483
-0.49851377490624316	-0.430277245106972
-0.49845273974999316	-0.4353670010198566
-0.49839170459374316	-0.44039305408837476
-0.49833066943749316	-0.44535562092192366
-0.49826963428124316	-0.45026042245583187
-0.49820859912499316	-0.45511670687863454
-0.49814756396874316	-0.4599339003916562
-0.49808652881249316	-0.46471801721854333
-0.49802549365624316	-0.4694691168181678
-0.49796445849999316	-0.4741807896883319
-0.49790342334374316	-0.4788419583125513
-0.49784238818749316	-0.4834404451967052
-0.49778135303124316	-0.4879671145136715
-0.49772031787499316	-0.49241913278730115
-0.49765928271874316	-0.49680111785033765
-0.49759824756249316	-0.5011236469480015
-0.49753721240624316	-0.505399541324031
-0.49747617724999316	-0.5096391702369016
-0.49741514209374316	-0.5138464179904608
-0.49735410693749316	-0.51801680139344
-0.49729307178124316	-0.522138527257415
-0.49723203662499316	-0.5261962340001234
-0.49717100146874316	-0.5301761800765961
-0.49710996631249316	-0.534071099517969
-0.49704893115624316	-0.5378829743033888
-0.49698789599999316	-0.541622601976666
-0.49692686084374316	-0.5453059509620393
-0.49686582568749316	-0.5489484843471719
-0.49680479053124316	-0.5525594137268971
-0.49674375537499316	-0.5561379424307724
-0.49668272021874316	-0.5596729361890027
-0.49662168506249316	-0.5631463013644521
-0.49656064990624316	-0.5665390291021745
-0.49649961474999316	-0.5698378518532516
-0.49643857959374316	-0.5730401414239464
-0.49637754443749316	-0.5761552036055388
-0.49631650928124316	-0.5792013509295452
-0.49625547412499316	-0.5821996205174995
-0.49619443896874316	-0.5851662240457693
-0.49613340381249316	-0.5881063725487733
-0.49607236865624316	-0.5910117619748494
-0.49601133349999316	-0.59386279297484
-0.49595029834374316	-0.5966349495747789
-0.49588926318749316	-0.599307242109249
-0.49582822803124316	-0.6018697809692035
-0.49576719287499316	-0.6043277334514516
-0.49570615771874316	-0.6067000801734145
-0.49564512256249316	-0.6090133681339931
-0.49558408740624316	-0.6112924649850083
-0.49552305224999316	-0.6135514822427983
-0.49546201709374316	-0.6157881174297317
-0.49540098193749316	-0.6179835996812997
-0.49533994678124316	-0.6201085183133015
-0.49527891162499316	-0.6221327243941918
-0.49521787646874316	-0.6240359673854547
-0.49515684131249316	-0.6258155098656841
-0.49509580615624316	-0.62748786078339
-0.49503477099999316	-0.6290837344611581
-0.49497373584374316	-0.6306377153620347
-0.49491270068749316	-0.6321760594075032
-0.49485166553124316	-0.6337068836480269
-0.49479063037499316	-0.6352163450344145
-0.49472959521874316	-0.6366724456554684
-0.49466856006249316	-0.6380354661649719
-0.49460752490624316	-0.6392716323508494
-0.49454648974999316	-0.6403653177441146
-0.49448545459374316	-0.6413253884580916
-0.49442441943749316	-0.6421831725692432
-0.49436338428124316	-0.6429823874743353
-0.49430234912499316	-0.643764219584159
-0.49424131396874316	-0.6445526110650347
-0.49418027881249316	-0.6453449624988697
-0.49411924365624316	-0.6461117797317952
-0.49405820849999316	-0.646805792370884
-0.49399717334374316	-0.647377751814644
-0.49393613818749316	-0.6477936388601163
-0.49387510303124316	-0.6480472852721149
-0.49381406787499316	-0.64816376896923
-0.49375303271874316	-0.6481919876369646
-0.49369199756249316	-0.6481885517181006
-0.49363096240624316	-0.648198280462661
-0.49356992724999316	-0.6482379993316739
-0.49350889209374316	-0.6482894568562164
-0.49344785693749316	-0.6483042182327103
-0.49338682178124316	-0.6482193056686897
-0.49332578662499316	-0.6479785451506127
-0.49326475146874316	-0.6475523922041163
-0.49320371631249316	-0.6469492615543934
-0.49314268115624316	-0.6462140850764014
-0.49308164599999316	-0.6454141211901023
-0.49302061084374316	-0.644616488411273
-0.49295957568749316	-0.6438649415216091
-0.49289854053124316	-0.6431639357831491
-0.49283750537499316	-0.6424757609391881
-0.49277647021874316	-0.6417321687831411
-0.49271543506249316	-0.6408569271816634
-0.49265439990624316	-0.6397918369899344
-0.49259336474999316	-0.6385173220998154
-0.49253232959374316	-0.6370603127901759
-0.49247129443749316	-0.6354863398687917
-0.49241025928124316	-0.6338781463370864
-0.49234922412499316	-0.6323078460369872
-0.49228818896874316	-0.6308120669826145
-0.49222715381249316	-0.6293787004058057
-0.49216611865624316	-0.6279500502079383
-0.49210508349999316	-0.6264416355020509
-0.49204404834374316	-0.624770498126157
-0.49198301318749316	-0.6228834768826754
-0.49192197803124316	-0.6207757688115221
-0.49186094287499316	-0.6184932916685956
-0.49179990771874316	-0.616117826173905
-0.49173887256249316	-0.6137398045946535
-0.49167783740624316	-0.611427902495321
-0.49161680224999316	-0.6092057730825013
-0.49155576709374316	-0.6070438909417798
-0.49149473193749316	-0.6048693530474354
-0.49143369678124316	-0.6025903753040086
-0.49137266162499316	-0.600127208806632
-0.49131162646874316	-0.5974390029019917
-0.49125059131249316	-0.594537516471211
-0.49118955615624316	-0.5914830595790536
-0.49112852099999316	-0.5883641115048178
-0.49106748584374316	-0.5852676074808812
-0.49100645068749316	-0.5822499940578825
-0.49094541553124316	-0.5793187966161392
-0.49088438037499316	-0.5764307964357942
-0.49082334521874316	-0.5735072399620496
-0.49076231006249316	-0.5704607374227577
-0.49070127490624316	-0.5672246362592108
-0.49064023974999316	-0.5637749684102326
-0.49057920459374316	-0.5601377286177742
-0.49051816943749316	-0.5563793114833016
-0.49045713428124316	-0.5525836576256006
-0.49039609912499316	-0.5488240496887834
-0.49033506396874316	-0.5451391208875067
-0.49027402881249316	-0.5415210206008747
-0.49021299365624316	-0.5379194111313504
-0.49015195849999316	-0.5342595413740672
-0.49009092334374316	-0.5304679595222468
-0.49002988818749316	-0.5264970511905629
-0.48996885303124316	-0.5223402207752191
-0.48990781787499316	-0.5180329060029297
-0.48984678271874316	-0.5136395298146573
-0.48978574756249316	-0.5092312057571226
-0.48972471240624316	-0.5048619593023047
-0.48966367724999316	-0.5005514830904138
-0.48960264209374316	-0.496279975144956
-0.48954160693749316	-0.4919963621805629
-0.48948057178124316	-0.487636682769477
-0.48941953662499316	-0.4831461082486652
-0.48935850146874316	-0.4784970908071884
-0.48929746631249316	-0.4736976844662175
-0.48923643115624316	-0.46878760255484664
-0.48917539599999316	-0.46382381212600865
-0.48911436084374316	-0.45886090705336047
-0.48905332568749316	-0.45393305338833245
-0.48899229053124316	-0.44904353321633506
-0.48893125537499316	-0.44416511223189153
-0.48887022021874316	-0.4392506618235637
-0.48880918506249316	-0.4342500420710253
-0.48874814990624316	-0.42912730384636655
-0.48868711474999316	-0.42387239213291966
-0.48862607959374316	-0.4185036286700011
-0.48856504443749316	-0.4130605080708264
-0.48850400928124316	-0.40758963578534413
-0.48844297412499316	-0.40212886210171384
-0.48838193896874316	-0.3966950575303124
-0.48832090381249316	-0.3912794977963819
-0.48825986865624316	-0.3858521144705789
-0.48819883349999316	-0.38037282231988
-0.48813779834374316	-0.37480576783089004
-0.48807676318749316	-0.3691315326665809
-0.48801572803124316	-0.3633532442353119
-0.48795469287499316	-0.35749474698345496
-0.48789365771874316	-0.3515917905898479
-0.48783262256249316	-0.34567956620235896
-0.48777158740624316	-0.3397809713364064
-0.48771055224999316	-0.33389955160614954
-0.48764951709374316	-0.32801935201139526
-0.48758848193749316	-0.3221114225871084
-0.48752744678124316	-0.31614446082961406
-0.48746641162499316	-0.3100958198847878
-0.48740537646874316	-0.3039591206029628
-0.48734434131249316	-0.29774598210918324
-0.48728330615624316	-0.2914815199927024
-0.48722227099999316	-0.28519541485810584
-0.48716123584374316	-0.2789117843685725
-0.48710020068749316	-0.27264138812792565
-0.48703916553124316	-0.26637874798861855
-0.48697813037499316	-0.26010494339850454
-0.48691709521874316	-0.2537948885493975
-0.48685606006249316	-0.24742644544692435
-0.48679502490624316	-0.24098816604513096
-0.48673398974999316	-0.23448302373747884
-0.48667295459374316	-0.227927016884496
-0.48661191943749316	-0.22134336754322628
-0.48655088428124316	-0.21475448911186365
-0.48648984912499316	-0.20817455260485992
-0.48642881396874316	-0.20160520179182953
-0.48636777881249316	-0.19503577854659349
-0.48630674365624316	-0.18844776413684716
-0.48624570849999316	-0.1818217284890279
-0.48618467334374316	-0.17514432151130316
-0.48612363818749316	-0.16841288701620705
-0.48606260303124316	-0.16163618714946526
-0.48600156787499316	-0.1548311575027374
-0.48594053271874316	-0.14801697825212556
-0.48587949756249316	-0.14120861828085607
-0.48581846240624316	-0.1344121035306898
-0.48575742724999316	-0.12762306000649992
-0.48569639209374316	-0.1208289131352139
-0.48563535693749316	-0.11401385844613719
-0.48557432178124316	-0.10716474712537988
-0.48551328662499316	-0.10027578663881538
-0.48545225146874316	-0.09335049921754705
-0.48539121631249316	-0.0864003851004336
-0.48533018115624316	-0.07944087611266876
-0.48526914599999316	-0.07248608685756945
-0.48520811084374316	-0.06554423384414998
-0.48514707568749316	-0.058615284153742134
-0.48508604053124316	-0.05169156707810087
-0.48502500537499316	-0.04476103300363967
-0.48496397021874316	-0.03781191195435284
-0.48490293506249316	-0.030837076942121684
-0.48484189990624316	-0.023836614851649084
-0.48478086474999316	-0.01681778401055352
-0.48471982959374316	-0.009792463040639406
-0.48465879443749316	-0.00277308377605593
-0.48459775928124316	0.004231461617378748
-0.48453672412499316	0.011218515121346171
-0.48447568896874316	0.018192071015297025
-0.48441465381249316	0.025160846914502523
-0.48435361865624316	0.03213476543161412
-0.48429258349999316	0.03912114943239767
-0.48423154834374316	0.04612197340594026
-0.48417051318749316	0.05313309713885811
-0.48410947803124316	0.060145675103762904
-0.48404844287499316	0.06714915431095399
-0.48398740771874316	0.07413476012091304
-0.48392637256249316	0.08109823535200308
-0.48386533740624316	0.08804089182325148
-0.48380430224999316	0.0949686663233554
-0.48374326709374316	0.10188958756233557
-0.48368223193749316	0.10881061434267744
-0.48362119678124316	0.11573497529393072
-0.48356016162499316	0.12266089925542974
-0.48349912646874316	0.12958213012787453
-0.48343809131249316	0.13648999836708964
-0.48337705615624316	0.14337627262116015
-0.48331602099999316	0.15023576110232334
-0.48325498584374316	0.15706774776466936
-0.48319395068749316	0.16387580681101135
-0.48313291553124316	0.17066612873641707
-0.48307188037499316	0.17744497888827
-0.48301084521874316	0.1842162199431679
-0.48294981006249316	0.19097978830298118
-0.48288877490624316	0.19773159998242648
-0.48282773974999316	0.2044648552233116
-0.48276670459374316	0.2111722585068933
-0.48270566943749316	0.21784834371893483
-0.48264463428124316	0.22449105518319548
-0.48258359912499316	0.2311020478534199
-0.48252256396874316	0.23768567568050905
-0.48246152881249316	0.24424708714531515
-0.48240049365624316	0.25079012502370407
-0.48233945849999316	0.2573157726630509
-0.48227842334374316	0.2638216665573214
-0.48221738818749316	0.270302805587163
-0.48215635303124316	0.2767531680181059
-0.48209531787499316	0.2831676326890779
-0.48203428271874316	0.2895434998482617
-0.48197324756249316	0.2958810773568415
-0.48191221240624316	0.3021831817083444
-0.48185117724999316	0.3084537777002694
-0.48179014209374316	0.31469624522754336
-0.48172910693749316	0.3209119141071162
-0.48166807178124316	0.3270994094932069
-0.48160703662499316	0.33325500934163127
-0.48154600146874316	0.33937383524209225
-0.48148496631249316	0.34545141518259365
-0.48142393115624316	0.3514850457084653
-0.48136289599999316	0.35747446360251917
-0.48130186084374316	0.36342159825311626
-0.48124082568749316	0.3693295332290944
-0.48117979053124316	0.37520108917344397
-0.48111875537499316	0.3810375454372005
-0.48105772021874316	0.38683795149189715
-0.48099668506249316	0.39259927579387444
-0.48093564990624316	0.39831732745995524
-0.48087461474999316	0.40398808207862996
-0.48081357959374316	0.40960891755365464
-0.48075254443749316	0.4151793278244297
-0.48069150928124316	0.42070085927106343
-0.48063047412499316	0.426176288173307
-0.48056943896874316	0.4316083476169751
-0.48050840381249316	0.43699848412498543
-0.48044736865624316	0.4423460999597169
-0.48038633349999316	0.4476485462490461
-0.48032529834374316	0.45290186423951223
-0.48026426318749316	0.4581019982463261
-0.48020322803124316	0.46324604136284103
-0.48014219287499316	0.4683330784730369
-0.48008115771874316	0.4733643129798475
-0.48002012256249316	0.4783424195027457
-0.47995908740624316	0.48327037233082215
-0.47989805224999316	0.4881501820222369
-0.47983701709374316	0.49298198077812877
-0.47977598193749316	0.4977637678725039
-0.47971494678124316	0.5024919111219665
-0.47965391162499316	0.507162232856502
-0.47959287646874316	0.5117712842476803
-0.47953184131249316	0.5163173615482821
-0.47947080615624316	0.520800914858369
-0.47940977099999316	0.5252241927854275
-0.47934873584374316	0.529590256131117
-0.47928770068749316	0.533901728809616
-0.47922666553124316	0.5381597165640837
-0.47916563037499316	0.5423632640113618
-0.47910459521874316	0.5465095386976424
-0.47904356006249316	0.5505946685790731
-0.47898252490624316	0.5546149288995009
-0.47892148974999316	0.5585678527519589
-0.47886045459374316	0.5624528854085089
-0.47879941943749316	0.566271375887079
-0.47873838428124316	0.5700259162548035
-0.47867734912499316	0.5737192616959874
-0.47861631396874316	0.577353219532504
-0.47855527881249316	0.580927902684696
-0.47849424365624316	0.584441598710023
-0.47843320849999316	0.5878912715741578
-0.47837217334374316	0.5912735024256924
-0.47831113818749316	0.594585544007476
-0.47825010303124316	0.5978261138032517
-0.47818906787499316	0.6009956460514309
-0.47812803271874316	0.6040959366853292
-0.47806699756249316	0.6071293309502016
-0.47800596240624316	0.6100977535040923
-0.47794492724999316	0.613001922688358
-0.47788389209374316	0.6158410215853887
-0.47782285693749316	0.618612930784079
-0.47776182178124316	0.6213149130382638
-0.47770078662499316	0.623944488638556
-0.47763975146874316	0.6265001896342135
-0.47757871631249316	0.6289819270787953
-0.47751768115624316	0.6313908521500977
-0.47745664599999316	0.6337287812720688
-0.47739561084374316	0.6359974073724726
-0.47733457568749316	0.6381975884593954
-0.47727354053124316	0.6403289673490739
-0.47721250537499316	0.6423900461232454
-0.47715147021874316	0.6443786737248518
-0.47709043506249316	0.6462927612294941
-0.47702939990624316	0.6481309586747749
-0.47696836474999316	0.6498930441535518
-0.47690732959374316	0.6515798889469034
-0.47684629443749316	0.6531930242837398
-0.47678525928124316	0.6547339790765
-0.47672422412499316	0.6562036365305952
-0.47666318896874316	0.657601846111333
-0.47660215381249316	0.6589274284049242
-0.47654111865624316	0.6601785631138065
-0.47648008349999316	0.6613534089862653
-0.47641904834374316	0.6624507227354337
-0.47635801318749316	0.663470250863248
-0.47629697803124316	0.6644127549468827
-0.47623594287499316	0.665279666625894
-0.47617490771874316	0.6660725048263267
-0.47611387256249316	0.6667922719178326
-0.47605283740624316	0.6674390495207428
-0.47599180224999316	0.6680119398425763
-0.47593076709374316	0.6685093693895534
-0.47586973193749316	0.668929638469919
-0.47580869678124316	0.6692715128319454
-0.47574766162499316	0.6695346407222754
-0.47568662646874316	0.6697196458818132
-0.47562559131249316	0.6698278686284643
-0.47556455615624316	0.6698608534372253
-0.47550352099999316	0.6698197722703939
-0.47544248584374316	0.6697049965195064
-0.47538145068749316	0.6695159706207114
-0.47532041553124316	0.6692514240822659
-0.47525938037499316	0.6689098379682763
-0.47519834521874316	0.6684899971201281
-0.47513731006249316	0.6679914284916166
-0.47507627490624316	0.6674145647467952
-0.47501523974999316	0.6667605807708833
-0.47495420459374316	0.6660309723883303
-0.47489316943749316	0.6652270310041958
-0.47483213428124316	0.6643494053050631
-0.47477109912499316	0.663397910003682
-0.47471006396874316	0.6623716437531771
-0.47464902881249316	0.6612693596882434
-0.47458799365624316	0.660089947638981
-0.47452695849999316	0.6588328615420733
-0.47446592334374316	0.6574983393784432
-0.47440488818749316	0.6560873321261613
-0.47434385303124316	0.6546011843354699
-0.47428281787499316	0.6530411967895858
-0.47422178271874316	0.6514082227431922
-0.47416074756249316	0.6497024380950864
-0.47409971240624316	0.6479233615975752
-0.47403867724999316	0.6460701082844414
-0.47397764209374316	0.64414177897778
-0.47391660693749316	0.6421378419454985
-0.47385557178124316	0.6400583749648873
-0.47379453662499316	0.6379040850982051
-0.47373350146874316	0.635676103491195
-0.47367246631249316	0.633375643813796
-0.47361143115624316	0.6310036537346027
-0.47355039599999316	0.6285605777919061
-0.47348936084374316	0.6260463136239686
-0.47342832568749316	0.62346037242639
-0.47336729053124316	0.6208021669916007
-0.47330625537499316	0.6180713155989324
-0.47324522021874316	0.6152678632449732
-0.47318418506249316	0.6123923436261471
-0.47312314990624316	0.6094456629271139
-0.47306211474999316	0.6064288613556593
-0.47300107959374316	0.6033428453069564
-0.47294004443749316	0.6001881914919696
-0.47287900928124316	0.5969650937997244
-0.47281797412499316	0.5936734499278022
-0.47275693896874316	0.590313038329417
-0.47269590381249316	0.5868837207157817
-0.47263486865624316	0.583385599811045
-0.47257383349999316	0.5798190870231809
-0.47251279834374316	0.5761848691894629
-0.47245176318749316	0.5724837880858569
-0.47239072803124316	0.5687166717037588
-0.47232969287499316	0.5648841855756326
-0.47226865771874316	0.5609867647281727
-0.47220762256249316	0.5570246345338694
-0.47214658740624316	0.5529978991902168
-0.47208555224999316	0.5489066687574042
-0.47202451709374316	0.5447511746187598
-0.47196348193749316	0.5405318230129638
-0.47190244678124316	0.5362491773287217
-0.47184141162499316	0.5319038987952238
-0.47178037646874316	0.5274966692947108
-0.47171934131249316	0.5230281126928269
-0.47165830615624316	0.5184987572600146
-0.47159727099999316	0.5139090613539877
-0.47153623584374316	0.5092594632334118
-0.47147520068749316	0.5045504132240692
-0.47141416553124316	0.49978238559146726
-0.47135313037499316	0.49495587698370413
-0.47129209521874316	0.4900713881474797
-0.47123106006249316	0.4851294042134135
-0.47117002490624316	0.48013039979546906
-0.47110898974999316	0.47507486519768044
-0.47104795459374316	0.4699633404550235
-0.47098691943749316	0.4647964563671722
-0.47092588428124316	0.459574959592594
-0.47086484912499316	0.4542996744794423
-0.47080381396874316	0.4489714012125894
-0.47074277881249316	0.44359081337262735
-0.47068174365624316	0.43815839949998947
-0.47062070849999316	0.43267446187498065
-0.47055967334374316	0.4271391962350376
-0.47049863818749316	0.4215528419935363
-0.47043760303124316	0.4159158348312833
-0.47037656787499316	0.41022890243967614
-0.47031553271874316	0.40449306608720487
-0.47025449756249316	0.398709524302428
-0.47019346240624316	0.3928794616563976
-0.47013242724999316	0.38700386153802413
