Time	Frequency
-0.5000190711875021	5.0392097264918116e-23
-0.4999580360312521	5.1776281412777355e-23
-0.4998970008750021	5.315538377064206e-23
-0.4998359657187521	5.452944869055803e-23
-0.4997749305625021	5.589824401438884e-23
-0.4997138954062521	5.726144031784242e-23
-0.4996528602500021	5.861896133280862e-23
-0.4995918250937521	5.99708594123544e-23
-0.4995307899375021	6.131696532082809e-23
-0.4994697547812521	6.265695440781436e-23
-0.4994087196250021	6.399068490880435e-23
-0.4993476844687521	6.531818520347454e-23
-0.4992866493125021	6.663934652026295e-23
-0.4992256141562521	6.795389936493085e-23
-0.4991645790000021	6.926167508454173e-23
-0.4991035438437521	7.056264851507481e-23
-0.4990425086875021	7.185672094910701e-23
-0.4989814735312521	7.314366593106667e-23
-0.4989204383750021	7.442331004926519e-23
-0.4988594032187521	7.569559505093844e-23
-0.4987983680625021	7.696042801006574e-23
-0.4987373329062521	7.821762201030173e-23
-0.4986762977500021	7.946702329165795e-23
-0.4986152625937521	8.070855491048748e-23
-0.4985542274375021	8.19420985817611e-23
-0.4984931922812521	8.316747572161763e-23
-0.4984321571250021	8.438456789324071e-23
-0.4983711219687521	8.559330052220848e-23
-0.4983100868125021	8.679350879968646e-23
-0.4982490516562521	8.798499584821788e-23
-0.4981880165000021	8.916770469742846e-23
-0.4981269813437521	9.034163130289365e-23
-0.4980659461875021	9.150658994961192e-23
-0.4980049110312521	9.266230007303703e-23
-0.4979438758750021	9.380868806893877e-23
-0.4978828407187521	9.494582204517289e-23
-0.4978218055625021	9.607354873667101e-23
-0.4977607704062521	9.719153271041522e-23
-0.4976997352500021	9.829967840824886e-23
-0.4976387000937521	9.93981257667879e-23
-0.4975776649375021	1.0048676930260753e-22
-0.4975166297812521	1.0156519812230621e-22
-0.4974555946250021	1.0263323463434371e-22
-0.4973945594687521	1.0369109659429935e-22
-0.4973335243125021	1.0473881140644588e-22
-0.4972724891562521	1.0577592450750251e-22
-0.4972114540000021	1.0680211150951735e-22
-0.4971504188437521	1.0781761947569077e-22
-0.4970893836875021	1.0882265425910612e-22
-0.4970283485312521	1.0981676875649946e-22
-0.4969673133750021	1.1079943451366674e-22
-0.4969062782187521	1.1177084019694498e-22
-0.4968452430625021	1.127314167811159e-22
-0.4967842079062521	1.1368084963394253e-22
-0.4967231727500021	1.146184066777337e-22
-0.4966621375937521	1.1554410382502536e-22
-0.4966011024375021	1.1645856655802659e-22
-0.4965400672812521	1.1736171002106322e-22
-0.4964790321250021	1.1825263543402542e-22
-0.4964179969687521	1.1913107107141296e-22
-0.4963569618125021	1.1999778100536203e-22
-0.4962959266562521	1.2085305320586362e-22
-0.4962348915000021	1.2169592740454951e-22
-0.4961738563437521	1.2252570875563256e-22
-0.4961128211875021	1.2334314533127172e-22
-0.4960517860312521	1.2414899779546213e-22
-0.4959907508750021	1.249424347578531e-22
-0.4959297157187521	1.2572227988306028e-22
-0.4958686805625021	1.2648904377236756e-22
-0.4958076454062521	1.272439710008857e-22
-0.4957466102500021	1.279865998455577e-22
-0.4956855750937521	1.2871530568523635e-22
-0.4956245399375021	1.2943011325571121e-22
-0.4955635047812521	1.301326838523786e-22
-0.4955024696250021	1.3082319381011056e-22
-0.4954414344687521	1.3149969005908277e-22
-0.4953803993125021	1.3216141993191191e-22
-0.4953193641562521	1.3281025597935281e-22
-0.4952583290000021	1.334473016589018e-22
-0.4951972938437521	1.340705740606612e-22
-0.4951362586875021	1.3467827616484085e-22
-0.4950752235312521	1.3527209903295768e-22
-0.4950141883750021	1.358543044359349e-22
-0.4949531532187521	1.3642338610252132e-22
-0.4948921180625021	1.369763520805202e-22
-0.4948310829062521	1.375140874456453e-22
-0.4947700477500021	1.3804002886968885e-22
-0.4947090125937521	1.385538710533059e-22
-0.4946479774375021	1.3905158503553517e-22
-0.4945869422812521	1.3953245595457695e-22
-0.4945259071250021	1.4000073073032823e-22
-0.4944648719687521	1.4045814026603215e-22
-0.4944038368125021	1.409002439454286e-22
-0.4943428016562521	1.4132389603052325e-22
-0.4942817665000021	1.4173318889633567e-22
-0.4942207313437521	1.4213261015691999e-22
-0.4941596961875021	1.425186660335763e-22
-0.4940986610312521	1.4288533796866887e-22
-0.4940376258750021	1.4323481649009173e-22
-0.4939765907187521	1.4357429808234342e-22
-0.4939155555625021	1.4390327655154588e-22
-0.4938545204062521	1.442136225599241e-22
-0.4937934852500021	1.445035193388216e-22
-0.4937324500937521	1.4478122805121527e-22
-0.4936714149375021	1.450510431057177e-22
-0.4936103797812521	1.4530529393862665e-22
-0.4935493446250021	1.455370937078426e-22
-0.4934883094687521	1.4575244553708629e-22
-0.4934272743125021	1.4596028710004215e-22
-0.4933662391562521	1.4615702008298156e-22
-0.4933052040000021	1.4633236497816927e-22
-0.4932441688437521	1.4648686764292737e-22
-0.4931831336875021	1.4663096933116064e-22
-0.4931220985312521	1.4676717935787978e-22
-0.4930610633750021	1.4688594384382184e-22
-0.4930000282187521	1.4698201007927252e-22
-0.4929389930625021	1.4706302965160634e-22
-0.4928779579062521	1.4713616790128594e-22
-0.4928169227500021	1.4719619885201136e-22
-0.4927558875937521	1.4723493946706843e-22
-0.4926948524375021	1.4725497654700373e-22
-0.4926338172812521	1.4726453888791714e-22
-0.4925727821250021	1.4726344224154332e-22
-0.4925117469687521	1.472441425755971e-22
-0.4924507118125021	1.4720485255876174e-22
-0.4923896766562521	1.4715190884918035e-22
-0.4923286415000021	1.4708849532919755e-22
-0.4922676063437521	1.4700973262296046e-22
-0.4922065711875021	1.4691161069506013e-22
-0.4921455360312521	1.4679751924017234e-22
-0.4920845008750021	1.4667181189012866e-22
-0.4920234657187521	1.465325000928853e-22
-0.4919624305625021	1.4637530822665994e-22
-0.4919013954062521	1.4620106089687258e-22
-0.4918403602500021	1.4601371562303998e-22
-0.4917793250937521	1.4581340876155474e-22
-0.4917182899375021	1.4559671995334358e-22
-0.4916572547812521	1.4536286162631884e-22
-0.4915962196250021	1.4511471107519947e-22
-0.4915351844687521	1.4485355480554235e-22
-0.4914741493125021	1.445771385424561e-22
-0.4914131141562521	1.4428394071297088e-22
-0.4913520790000021	1.4397571593021295e-22
-0.4912910438437521	1.4365417469925955e-22
-0.4912300086875021	1.4331810595254691e-22
-0.4911689735312521	1.4296582054917313e-22
-0.4911079383750021	1.425981675317824e-22
-0.4910469032187521	1.4221686956313054e-22
-0.4909858680625021	1.4182150890953264e-22
-0.4909248329062521	1.4141050684690662e-22
-0.4908637977500021	1.4098403027608802e-22
-0.4908027625937521	1.4054361177775696e-22
-0.4907417274375021	1.400894362825866e-22
-0.4906806922812521	1.3962020943297704e-22
-0.4906196571250021	1.391356088352158e-22
-0.4905586219687521	1.386368370271185e-22
-0.4904975868125021	1.3812447890345828e-22
-0.4904365516562521	1.3759762002524488e-22
-0.4903755165000021	1.3705565705231914e-22
-0.4903144813437521	1.364994143061113e-22
-0.4902534461875021	1.3592966761617558e-22
-0.4901924110312521	1.353458742515078e-22
-0.4901313758750021	1.3474732545645085e-22
-0.4900703407187521	1.3413450524270211e-22
-0.4900093055625021	1.3350824474874019e-22
-0.4899482704062521	1.328683297083209e-22
-0.4898872352500021	1.3221406610265127e-22
-0.4898262000937521	1.3154566246271666e-22
-0.4897651649375021	1.3086391042247527e-22
-0.4897041297812521	1.3016884279835694e-22
-0.4896430946250021	1.2945983398231238e-22
-0.4895820594687521	1.2873688023945457e-22
-0.4895210243125021	1.2800070167646291e-22
-0.4894599891562521	1.2725154300996043e-22
-0.4893989540000021	1.2648888333597956e-22
-0.4893379188437521	1.2571253225822667e-22
-0.4892768836875021	1.2492308719655703e-22
-0.4892158485312521	1.241209619403954e-22
-0.4891548133750021	1.2330578879956495e-22
-0.4890937782187521	1.2247724891820487e-22
-0.4890327430625021	1.216357871905106e-22
-0.4889717079062521	1.2078193818353299e-22
-0.4889106727500021	1.1991551953394054e-22
-0.4888496375937521	1.190361354124838e-22
-0.4887886024375021	1.1814403501749245e-22
-0.4887275672812521	1.1723978367084874e-22
-0.4886665321250021	1.1632339476004165e-22
-0.4886054969687521	1.1539449335915582e-22
-0.4885444618125021	1.1445317078184324e-22
-0.4884834266562521	1.1349997324837568e-22
-0.4884223915000021	1.1253507433803914e-22
-0.4883613563437521	1.1155814020404175e-22
-0.4883003211875021	1.1056910969771587e-22
-0.4882392860312521	1.095684730022726e-22
-0.4881782508750021	1.085565636439644e-22
-0.4881172157187521	1.075331438887564e-22
-0.4880561805625021	1.0649801527855349e-22
-0.4879951454062521	1.0545155282193467e-22
-0.4879341102500021	1.0439420572045415e-22
-0.4878730750937521	1.0332587030589352e-22
-0.4878120399375021	1.0224627672565703e-22
-0.4877510047812521	1.0115567019374323e-22
-0.4876899696250021	1.0005455024382243e-22
-0.4876289344687521	9.894297441597693e-23
-0.4875678993125021	9.782066932571797e-23
-0.4875068641562521	9.668771742359502e-23
-0.4874458290000021	9.554459891775773e-23
-0.4873847938437521	9.439152779606597e-23
-0.4873237586875021	9.322827589464541e-23
-0.4872627235312521	9.205479401483387e-23
-0.4872016883750021	9.087150237778905e-23
-0.4871406532187521	8.967873928739372e-23
-0.4870796180625021	8.847636812035276e-23
-0.4870185829062521	8.726424148393288e-23
-0.4869575477500021	8.60426912870222e-23
-0.4868965125937521	8.481216550303045e-23
-0.4868354774375021	8.357264608851622e-23
-0.4867744422812521	8.232388494442659e-23
-0.4867134071250021	8.106605634978067e-23
-0.4866523719687521	7.979967600134537e-23
-0.4865913368125021	7.852491874148843e-23
-0.4865303016562521	7.724153290920399e-23
-0.4864692665000021	7.594950789767236e-23
-0.4864082313437521	7.464932819056272e-23
-0.4863471961875021	7.334136414100307e-23
-0.4862861610312521	7.20254492938628e-23
-0.4862251258750021	7.070138286133591e-23
-0.4861640907187521	6.9369505089937e-23
-0.4861030555625021	6.803035432065037e-23
-0.4860420204062521	6.668398742958678e-23
-0.4859809852500021	6.533011502028213e-23
-0.4859199500937521	6.39688078202586e-23
-0.4858589149375021	6.260059285216931e-23
-0.4857978797812521	6.122580237183383e-23
-0.4857368446250021	5.984426004069565e-23
-0.4856758094687521	5.84558113197607e-23
-0.4856147743125021	5.706081360995874e-23
-0.4855537391562521	5.565977618317603e-23
-0.4854927040000021	5.425275292517215e-23
-0.4854316688437521	5.283949175318294e-23
-0.4853706336875021	5.142008151233893e-23
-0.4853095985312521	4.99950314609247e-23
-0.4852485633750021	4.85646730900398e-23
-0.4851875282187521	4.7128871015850225e-23
-0.4851264930625021	4.568749488254435e-23
-0.4850654579062521	4.42408616821273e-23
-0.4850044227500021	4.2789430292810024e-23
-0.4849433875937521	4.133327722220819e-23
-0.4848823524375021	3.987223289633588e-23
-0.4848213172812521	3.840642828869481e-23
-0.4847602821250021	3.693632202664398e-23
-0.4846992469687521	3.5462181449405995e-23
-0.4846382118125021	3.398389998326332e-23
-0.4845771766562521	3.250143333436728e-23
-0.4845161415000021	3.1015109040252e-23
-0.4844551063437521	2.952531997744198e-23
-0.4843940711875021	2.8032134193384953e-23
-0.4843330360312521	2.6535451161155416e-23
-0.4842720008750021	2.5035415328117388e-23
-0.4842109657187521	2.3532403244554958e-23
-0.4841499305625021	2.2026640679207166e-23
-0.4840888954062521	2.0518099683589745e-23
-0.4840278602500021	1.9006827663932004e-23
-0.4839668250937521	1.7493130404838317e-23
-0.4839057899375021	1.5977299784698564e-23
-0.4838447547812521	1.445937939035383e-23
-0.4837837196250021	1.2939368884590883e-23
-0.4837226844687521	1.1417494532041072e-23
-0.4836616493125021	9.894086520359031e-24
-0.4836006141562521	8.369279111841382e-24
-0.4835395790000021	6.84304642991979e-24
-0.4834785438437521	5.315513732026214e-24
-0.4834175086875021	3.787003092274154e-24
-0.4833564735312521	2.2577428418039036e-24
-0.4832954383750021	7.277552207824587e-25
-0.4832344032187521	-8.028965188473257e-25
-0.4831733680625021	-2.3339362585206074e-24
-0.4831123329062521	-3.8650715764497444e-24
-0.4830512977500021	-5.3962389905911895e-24
-0.4829902625937521	-6.927468600191327e-24
-0.4829292274375021	-8.458563098352457e-24
-0.4828681922812521	-9.989157168871719e-24
-0.4828071571250021	-1.1519071178610452e-23
-0.4827461219687521	-1.3048333019946275e-23
-0.4826850868125021	-1.4576851623099942e-23
-0.4826240516562521	-1.6104311901659767e-23
-0.4825630165000021	-1.763043756334273e-23
-0.4825019813437521	-1.9155181643825718e-23
-0.4824409461875021	-2.0678544951340242e-23
-0.4823799110312521	-2.2200317880561423e-23
-0.4823188758750021	-2.3720173928241464e-23
-0.4822578407187521	-2.523795763047499e-23
-0.4821968055625021	-2.675367565913399e-23
-0.4821357704062521	-2.826721361999051e-23
-0.4820747352500021	-2.977826010063934e-23
-0.4820137000937521	-3.1286558900491454e-23
-0.4819526649375021	-3.279207711106698e-23
-0.4818916297812521	-3.429481244320009e-23
-0.4818305946250021	-3.579454461266759e-23
-0.4817695594687521	-3.7290941704854766e-23
-0.4817085243125021	-3.8783846603437564e-23
-0.4816474891562521	-4.027327101880235e-23
-0.4815864540000021	-4.1759116770126276e-23
-0.4815254188437521	-4.3241082557824057e-23
-0.4814643836875021	-4.4718904779118253e-23
-0.4814033485312521	-4.619253646170423e-23
-0.4813423133750021	-4.7661977661070364e-23
-0.4812812782187521	-4.912703306327853e-23
-0.4812202430625021	-5.058737519598348e-23
-0.4811592079062521	-5.204282273223523e-23
-0.4810981727500021	-5.349338885668067e-23
-0.4810371375937521	-5.493899365967683e-23
-0.4809761024375021	-5.637932972600544e-23
-0.4809150672812521	-5.781413728827044e-23
-0.4808540321250021	-5.924340923419506e-23
-0.4807929969687521	-6.066715661457202e-23
-0.4807319618125021	-6.20851343075475e-23
-0.4806709266562521	-6.349700045547264e-23
-0.4806098915000021	-6.490264104191663e-23
-0.4805488563437521	-6.630210452812604e-23
-0.4804878211875021	-6.769526233320482e-23
-0.4804267860312521	-6.908177891992228e-23
-0.4803657508750021	-7.046143653725947e-23
-0.4803047157187521	-7.183426161059618e-23
-0.4802436805625021	-7.320024010065626e-23
-0.4801826454062521	-7.455910680524454e-23
-0.4801216102500021	-7.591056356755186e-23
-0.4800605750937521	-7.725453416412534e-23
-0.4799995399375021	-7.85910250325129e-23
-0.4799385047812521	-7.991985982067671e-23
-0.4798774696250021	-8.124074552631045e-23
-0.4798164344687521	-8.255354157619036e-23
-0.4797553993125021	-8.385826452550849e-23
-0.4796943641562521	-8.515482612459555e-23
-0.4796333290000021	-8.644295806792958e-23
-0.4795722938437521	-8.772243888376855e-23
-0.4795112586875021	-8.899322549601971e-23
-0.4794502235312521	-9.025528455648802e-23
-0.4793891883750021	-9.150842846588026e-23
-0.4793281532187521	-9.275242295086937e-23
-0.4792671180625021	-9.39871602168453e-23
-0.4792060829062521	-9.52126043804843e-23
-0.4791450477500021	-9.642862406955717e-23
-0.4790840125937521	-9.763500189026418e-23
-0.4790229774375021	-9.883159077581343e-23
-0.4789619422812521	-1.0001834168500526e-22
-0.4789009071250021	-1.0119516483783459e-22
-0.4788398719687521	-1.0236187417814308e-22
-0.4787788368125021	-1.0351830255273087e-22
-0.4787178016562521	-1.0466437838027493e-22
-0.4786567665000021	-1.0580003073259879e-22
-0.4785957313437521	-1.0692509278769842e-22
-0.4785346961875021	-1.0803938136547597e-22
-0.4784736610312521	-1.0914280770452764e-22
-0.4784126258750021	-1.1023531201882502e-22
-0.4783515907187521	-1.1131675432489814e-22
-0.4782905555625021	-1.1238696686614972e-22
-0.4782295204062521	-1.1344585419712244e-22
-0.4781684852500021	-1.1449335493731958e-22
-0.4781074500937521	-1.1552934342998149e-22
-0.4780464149375021	-1.1655365761205605e-22
-0.4779853797812521	-1.175662020965161e-22
-0.4779243446250021	-1.1856691994542016e-22
-0.4778633094687521	-1.1955568840892813e-22
-0.4778022743125021	-1.2053235223440926e-22
-0.4777412391562521	-1.2149682131874847e-22
-0.4776802040000021	-1.224490372262467e-22
-0.4776191688437521	-1.2338888377556968e-22
-0.4775581336875021	-1.2431621308930025e-22
-0.4774970985312521	-1.2523093083508865e-22
-0.4774360633750021	-1.261329823660758e-22
-0.4773750282187521	-1.2702226751293548e-22
-0.4773139930625021	-1.2789864453905887e-22
-0.4772529579062521	-1.2876202303748323e-22
-0.4771919227500021	-1.2961236337723298e-22
-0.4771308875937521	-1.3044956747904185e-22
-0.4770698524375021	-1.3127347738780614e-22
-0.4770088172812521	-1.3208400258603415e-22
-0.4769477821250021	-1.3288113355025918e-22
-0.4768867469687521	-1.336647994958471e-22
-0.4768257118125021	-1.3443482827799206e-22
-0.4767646766562521	-1.3519109792450602e-22
-0.4767036415000021	-1.3593360829499466e-22
-0.4766426063437521	-1.3666233088617131e-22
-0.4765815711875021	-1.3737710894587848e-22
-0.4765205360312521	-1.3807779697502742e-22
-0.4764595008750021	-1.3876439099225863e-22
-0.4763984657187521	-1.3943690532040445e-22
-0.4763374305625021	-1.4009520594326308e-22
-0.4762763954062521	-1.4073910868372997e-22
-0.4762153602500021	-1.4136857933921615e-22
-0.4761543250937521	-1.4198367133045266e-22
-0.4760932899375021	-1.425843039341697e-22
-0.4760322547812521	-1.4317028349659302e-22
-0.4759712196250021	-1.4374153316003568e-22
-0.4759101844687521	-1.442981115325075e-22
-0.4758491493125021	-1.4483998790898534e-22
-0.4757881141562521	-1.4536698668203234e-22
-0.4757270790000021	-1.4587899614735773e-22
-0.4756660438437521	-1.4637605832634577e-22
-0.4756050086875021	-1.4685818252308582e-22
-0.4755439735312521	-1.4732522660783931e-22
-0.4754829383750021	-1.477770619920851e-22
-0.4754219032187521	-1.4821371496766866e-22
-0.4753608680625021	-1.4863522051362717e-22
-0.4752998329062521	-1.4904146180817535e-22
-0.4752387977500021	-1.4943229513220172e-22
-0.4751777625937521	-1.4980772971299447e-22
-0.4751167274375021	-1.5016783051172559e-22
-0.4750556922812521	-1.5051251755104233e-22
-0.4749946571250021	-1.5084162978077332e-22
-0.4749336219687521	-1.5115514493009224e-22
-0.4748725868125021	-1.5145315369117676e-22
-0.4748115516562521	-1.5173562752786493e-22
-0.4747505165000021	-1.5200240189867448e-22
-0.4746894813437521	-1.522534113001523e-22
-0.4746284461875021	-1.5248875113264655e-22
-0.4745674110312521	-1.5270844959404086e-22
-0.4745063758750021	-1.5291236185742906e-22
-0.4744453407187521	-1.5310038172156168e-22
-0.4743843055625021	-1.5327258756208854e-22
-0.4743232704062521	-1.5342905541307346e-22
-0.4742622352500021	-1.5356967865163187e-22
-0.4742012000937521	-1.5369432440177417e-22
-0.4741401649375021	-1.5380304057061625e-22
-0.4740791297812521	-1.5389593416379213e-22
-0.4740180946250021	-1.5397294599391784e-22
-0.4739570594687521	-1.5403393342084272e-22
-0.4738960243125021	-1.5407890619462676e-22
-0.4738349891562521	-1.5410798492544328e-22
-0.4737739540000021	-1.5412116182399625e-22
-0.4737129188437521	-1.5411830379575703e-22
-0.4736518836875021	-1.540993899038666e-22
-0.4735908485312521	-1.5406454249842705e-22
-0.4735298133750021	-1.5401379280427013e-22
-0.4734687782187521	-1.5394701488381475e-22
-0.4734077430625021	-1.5386415586703507e-22
-0.4733467079062521	-1.5376534165122937e-22
-0.4732856727500021	-1.5365065706384733e-22
-0.4732246375937521	-1.5351999795360429e-22
-0.4731636024375021	-1.533732711011518e-22
-0.4731025672812521	-1.5321058183868418e-22
-0.4730415321250021	-1.5303206293807873e-22
-0.4729804969687521	-1.528376522928447e-22
-0.4729194618125021	-1.526272284904255e-22
-0.4728584266562521	-1.5240086372122218e-22
-0.4727973915000021	-1.5215872875330224e-22
-0.4727363563437521	-1.519008131668179e-22
-0.4726753211875021	-1.5162697373948352e-22
-0.4726142860312521	-1.5133723581777865e-22
-0.4725532508750021	-1.5103179853335638e-22
-0.4724922157187521	-1.5071072098862525e-22
-0.4724311805625021	-1.5037386134785065e-22
-0.4723701454062521	-1.5002118759768764e-22
-0.4723091102500021	-1.496528907834052e-22
-0.4722480750937521	-1.4926909133486636e-22
-0.4721870399375021	-1.4886967785842873e-22
-0.4721260047812521	-1.4845457920589762e-22
-0.4720649696250021	-1.4802396979682893e-22
-0.4720039344687521	-1.4757802185411692e-22
-0.4719428993125021	-1.4711665814541276e-22
-0.4718818641562521	-1.4663976589440925e-22
-0.4718208290000021	-1.4614748251412838e-22
-0.4717597938437521	-1.456400278739958e-22
-0.4716987586875021	-1.4511738570049978e-22
