Time	Frequency
-0.5000354406874976	0.31630770988515133
-0.4999744055312476	0.32118799524231606
-0.4999133703749976	0.32604036280620236
-0.4998523352187476	0.33086437144752073
-0.4997913000624976	0.33565957708781885
-0.4997302649062476	0.3404255507795461
-0.4996692297499976	0.34516191184944706
-0.4996081945937476	0.3498682098797874
-0.4995471594374976	0.3545439046941582
-0.4994861242812476	0.3591885656846646
-0.4994250891249976	0.3638018742345813
-0.4993640539687476	0.3683834337525166
-0.4993030188124976	0.37293275119169905
-0.4992419836562476	0.37744938761374613
-0.4991809484999976	0.3819329556111887
-0.4991199133437476	0.38638302993476875
-0.4990588781874976	0.39079916563309164
-0.4989978430312476	0.3951809426735614
-0.4989368078749976	0.39952799129310734
-0.4988757727187476	0.40383994843683696
-0.4988147375624976	0.4081164429104935
-0.4987537024062476	0.41235712431589144
-0.4986926672499976	0.41656157965890506
-0.4986316320937476	0.42072932769946986
-0.4985705969374976	0.42485995478867045
-0.4985095617812476	0.4289531198841921
-0.4984485266249976	0.4330084573159608
-0.4983874914687476	0.4370255974853233
-0.4983264563124976	0.44100420157288994
-0.4982654211562476	0.4449438972887579
-0.4982043859999976	0.4488442876516023
-0.4981433508437476	0.4527049868178184
-0.4980823156874976	0.4565256136290839
-0.4980212805312476	0.46030582993973335
-0.4979602453749976	0.4640453281641736
-0.4978992102187476	0.46774378698514274
-0.4978381750624976	0.47140086891990973
-0.4977771399062476	0.47501622017301515
-0.4977161047499976	0.4785894730669524
-0.4976550695937476	0.4821202429725654
-0.4975940344374976	0.4856081860170694
-0.4975329992812476	0.48905303266512873
-0.4974719641249976	0.49245448740376163
-0.4974109289687476	0.49581221985530527
-0.4973498938124976	0.49912590841558624
-0.4972888586562476	0.5023952146086846
-0.4972278234999976	0.5056198307904188
-0.4971667883437476	0.5087994915392176
-0.4971057531874976	0.5119339245719784
-0.4970447180312476	0.5150228475958049
-0.4969836828749976	0.51806594771974
-0.4969226477187476	0.5210628827550293
-0.4968616125624976	0.5240133441111574
-0.4968005774062476	0.526917088261952
-0.4967395422499976	0.5297738858462316
-0.4966785070937476	0.5325834618846226
-0.4966174719374976	0.5353455118140729
-0.4965564367812476	0.5380597698753491
-0.4964954016249976	0.5407260014926305
-0.4964343664687476	0.5433439436909155
-0.4963733313124976	0.5459133404566892
-0.4963122961562476	0.5484339724600652
-0.4962512609999976	0.5509055864760234
-0.4961902258437476	0.553327904357172
-0.4961291906874976	0.5557007132412802
-0.4960681555312476	0.5580238152106537
-0.4960071203749976	0.5602969560870191
-0.4959460852187476	0.5625199037357091
-0.4958850500624976	0.5646924837738778
-0.4958240149062476	0.5668144921319218
-0.4957629797499976	0.5688856865400094
-0.4957019445937476	0.5709058714504437
-0.4956409094374976	0.572874871177665
-0.4955798742812476	0.5747924836426623
-0.4955188391249976	0.5766585256018395
-0.4954578039687476	0.5784728233610421
-0.4953967688124976	0.5802351850386728
-0.4953357336562476	0.5819454291190703
-0.4952746984999976	0.5836033907740338
-0.4952136633437476	0.5852089021658997
-0.4951526281874976	0.5867617981856273
-0.4950915930312476	0.5882619256596524
-0.4950305578749976	0.5897091455046963
-0.4949695227187476	0.591103321900165
-0.4949084875624976	0.5924443030392602
-0.4948474524062476	0.5937319418872097
-0.4947864172499976	0.5949661205325216
-0.4947253820937476	0.5961467169960692
-0.4946643469374976	0.5972735795780947
-0.4946033117812476	0.5983465920370948
-0.4945422766249976	0.5993656726893789
-0.4944812414687476	0.6003306999078328
-0.4944202063124976	0.6012415564765513
-0.4943591711562476	0.602098156211262
-0.4942981359999976	0.6029004082416072
-0.4942371008437476	0.6036482267363077
-0.4941760656874976	0.604341524422489
-0.4941150305312476	0.6049802177412158
-0.4940539953749976	0.605564249756249
-0.4939929602187476	0.6060935543003212
-0.4939319250624976	0.606568046225577
-0.4938708899062476	0.6069876633891982
-0.4938098547499976	0.6073523619258443
-0.4937488195937476	0.6076620995190525
-0.4936877844374976	0.6079168314642197
-0.4936267492812476	0.6081165158672975
-0.4935657141249976	0.6082611214543123
-0.4935046789687476	0.6083506119033322
-0.4934436438124976	0.6083849678893106
-0.4933826086562476	0.6083641847413853
-0.4933215734999976	0.608288227674779
-0.4932605383437476	0.6081570789123577
-0.4931995031874976	0.6079707600179697
-0.4931384680312476	0.6077292649402536
-0.4930774328749976	0.6074325755399071
-0.4930163977187476	0.6070807050187037
-0.4929553625624976	0.6066736879676073
-0.4928943274062476	0.6062115707988752
-0.4928332922499976	0.6056943835937593
-0.4927722570937476	0.6051221372865578
-0.4927112219374976	0.6044948459305978
-0.4926501867812476	0.6038125328100602
-0.4925891516249976	0.6030752430910099
-0.4925281164687476	0.6022830349349081
-0.4924670813124976	0.6014359874862936
-0.4924060461562476	0.6005341905317211
-0.4923450109999976	0.5995776936780105
-0.4922839758437476	0.5985665472739692
-0.4922229406874976	0.597500834894739
-0.4921619055312476	0.596380633785039
-0.4921008703749976	0.5952060240354754
-0.4920398352187476	0.5939771017648833
-0.4919788000624976	0.5926939758569708
-0.4919177649062476	0.5913567479069575
-0.4918567297499976	0.5899654862517979
-0.4917956945937476	0.588520295168378
-0.4917346594374976	0.5870213361638186
-0.4916736242812476	0.5854687301119375
-0.4916125891249976	0.5838625774823573
-0.4915515539687476	0.5822030265967757
-0.4914905188124976	0.5804902210701969
-0.4914294836562476	0.5787242684876024
-0.4913684484999976	0.5769053045565418
-0.4913074133437476	0.575033516077584
-0.4912463781874976	0.5731090495041189
-0.4911853430312476	0.5711320196437858
-0.4911243078749976	0.56910261904608
-0.4910632727187476	0.5670210676956962
-0.4910022375624976	0.5648875340513766
-0.4909412024062476	0.5627021691731343
-0.4908801672499976	0.560465127150898
-0.4908191320937476	0.5581765773100996
-0.4907580969374976	0.5558367420645248
-0.4906970617812476	0.5534458316808178
-0.4906360266249976	0.5510039988694677
-0.4905749914687476	0.5485114530208733
-0.4905139563124976	0.545968452581697
-0.4904529211562476	0.5433752309932781
-0.4903918859999976	0.5407320333619314
-0.4903308508437476	0.5380390805710403
-0.4902698156874976	0.535296577124525
-0.4902087805312476	0.5325047982342141
-0.4901477453749976	0.5296639860690345
-0.4900867102187476	0.5267742817511153
-0.4900256750624976	0.5238358975913546
-0.4899646399062476	0.5208491364508121
-0.4899036047499976	0.5178142830310374
-0.4898425695937476	0.5147316258000979
-0.4897815344374976	0.5116014216073637
-0.4897204992812476	0.508423873988853
-0.4896594641249976	0.5051992462200795
-0.4895984289687476	0.5019278718329452
-0.4895373938124976	0.4986100598758991
-0.4894763586562476	0.4952461228133468
-0.4894153234999976	0.49183640010767843
-0.4893542883437476	0.4883811627699865
-0.4892932531874976	0.4848806232504046
-0.4892322180312476	0.48133503787690407
-0.4891711828749976	0.47774473274805274
-0.4891101477187476	0.4741100456565803
-0.4890491125624976	0.4704313150470484
-0.4889880774062476	0.4667089268088431
-0.4889270422499976	0.46294324030549727
-0.4888660070937476	0.45913452375558284
-0.4888049719374976	0.45528306646458927
-0.4887439367812476	0.4513892236691478
-0.4886829016249976	0.4474533581780921
-0.4886218664687476	0.4434758334588021
-0.4885608313124976	0.4394569692795002
-0.4884997961562476	0.4353970788633036
-0.4884387609999976	0.43129654933690315
-0.4883777258437476	0.4271557409321222
-0.4883166906874976	0.4229749768651309
-0.4882556555312476	0.41875464476855856
-0.4881946203749976	0.4144951610368211
-0.4881335852187476	0.41019691603094144
-0.4880725500624976	0.40586029974939475
-0.4880115149062476	0.4014857264608039
-0.4879504797499976	0.39707356327277243
-0.4878894445937476	0.3926241149587657
-0.4878284094374976	0.388137754591977
-0.4877673742812476	0.3836149279442843
-0.4877063391249976	0.3790561003469752
-0.4876453039687476	0.3744617343716581
-0.4875842688124976	0.36983213961217337
-0.4875232336562476	0.3651675627446033
-0.4874621984999976	0.3604684879974417
-0.4874011633437476	0.3557354900325347
-0.4873401281874976	0.35096896766802105
-0.4872790930312476	0.34616926770330475
-0.4872180578749976	0.34133685533489694
-0.4871570227187476	0.33647224021947203
-0.4870959875624976	0.33157576811828343
-0.4870349524062476	0.3266477373699597
-0.4869739172499976	0.32168868657782446
-0.4869128820937476	0.31669922188978333
-0.4868518469374976	0.3116797907209595
-0.4867908117812476	0.3066307828848293
-0.4867297766249976	0.3015526058609232
-0.4866687414687476	0.29644567452891263
-0.4866077063124976	0.2913104249232639
-0.4865466711562476	0.286147322232952
-0.4864856359999976	0.28095685521051517
-0.4864246008437476	0.27573949994567526
-0.4863635656874976	0.2704956871008159
-0.4863025305312476	0.26522591923309746
-0.4862414953749976	0.2599307821283754
-0.4861804602187476	0.2546107101245648
-0.4861194250624976	0.24926608160245467
-0.4860583899062476	0.24389738281028164
-0.4859973547499976	0.2385050674291441
-0.4859363195937476	0.23308965900180809
-0.4858752844374976	0.22765179155048704
-0.4858142492812476	0.22219193429408363
-0.4857532141249976	0.21671043166267848
-0.4856921789687476	0.21120776972896008
-0.4856311438124976	0.2056845641950186
-0.4855701086562476	0.20014134056939625
-0.4855090734999976	0.194578462169511
-0.4854480383437476	0.1889963417178172
-0.4853870031874976	0.18339556934241402
-0.4853259680312476	0.177776762926002
-0.4852649328749976	0.1721404786784501
-0.4852038977187476	0.16648721471939618
-0.4851428625624976	0.16081741594838517
-0.4850818274062476	0.1551315180579753
-0.4850207922499976	0.1494300220675894
-0.4849597570937476	0.1437135184367818
-0.4848987219374976	0.13798257542441697
-0.4848376867812476	0.13223767006327594
-0.4847766516249976	0.1264792788908748
-0.4847156164687476	0.1207079587658293
-0.4846545813124976	0.11492425967273756
-0.4845935461562476	0.10912866800622155
-0.4845325109999976	0.10332171085536719
-0.4844714758437476	0.09750397255336138
-0.4844104406874976	0.0916759892464029
-0.4843494055312476	0.08583821667315314
-0.4842883703749976	0.07999112860973565
-0.4842273352187476	0.07413529946769498
-0.4841663000624976	0.06827133440135251
-0.4841052649062476	0.062399757070275
-0.4840442297499976	0.056521058102888655
-0.4839831945937476	0.05063581045991813
-0.4839221594374976	0.04474461922477239
-0.4838611242812476	0.03884801401123019
-0.4838000891249976	0.03294646062650133
-0.4837390539687476	0.02704044070627069
-0.4836780188124976	0.021130506467041725
-0.4836169836562476	0.015217270600097242
-0.4835559484999976	0.00930132241460392
-0.4834949133437476	0.003383165124797139
-0.4834338781874976	-0.0025367154993677834
-0.4833728430312476	-0.008457760710161267
-0.4833118078749976	-0.014379402518126434
-0.4832507727187476	-0.02030114340001215
-0.4831897375624976	-0.02622246418072695
-0.4831287024062476	-0.03214279308338862
-0.4830676672499976	-0.03806158588740755
-0.4830066320937476	-0.04397829218473308
-0.4829455969374976	-0.0498923419270841
-0.4828845617812476	-0.055803222365725824
-0.4828235266249976	-0.061710405397815374
-0.4827624914687476	-0.06761324001323402
-0.4827014563124976	-0.07351114583354519
-0.4826404211562476	-0.07940371868357397
-0.4825793859999976	-0.08529047017555645
-0.4825183508437476	-0.09117075874244918
-0.4824573156874976	-0.09704401850063533
-0.4823962805312476	-0.10290981100992938
-0.4823352453749976	-0.10876760695487497
-0.4822742102187476	-0.11461675029902223
-0.4822131750624976	-0.12045666831589867
-0.4821521399062476	-0.126286919731842
-0.4820911047499976	-0.13210705616854457
-0.4820300695937476	-0.13791646727289258
-0.4819690344374976	-0.1437144596204171
-0.4819079992812476	-0.14950049665468582
-0.4818469641249976	-0.15527415341767553
-0.4817859289687476	-0.16103496627026165
-0.4817248938124976	-0.16678241375589303
-0.4816638586562476	-0.17251592266866053
-0.4816028234999976	-0.17823494630549702
-0.4815417883437476	-0.18393896876950422
-0.4814807531874976	-0.18962743947760174
-0.4814197180312476	-0.19529979537421474
-0.4813586828749976	-0.2009554621084369
-0.4812976477187476	-0.20659390400290462
-0.4812366125624976	-0.21221469885174207
-0.4811755774062476	-0.21781740008131667
-0.4811145422499976	-0.22340145349912272
-0.4810535070937476	-0.22896629227989476
-0.4809924719374976	-0.23451133687298037
-0.4809314367812476	-0.24003607334998242
-0.4808704016249976	-0.24554008626330995
-0.4808093664687476	-0.2510228758469882
-0.4807483313124976	-0.2564839025718314
-0.4806872961562476	-0.26192269658772127
-0.4806262609999976	-0.267338718900503
-0.4805652258437476	-0.27273133980314496
-0.4805041906874976	-0.2781000132916414
-0.4804431555312476	-0.2834443320564502
-0.4803821203749976	-0.288763889336181
-0.4803210852187476	-0.2940581657190358
-0.4802600500624976	-0.29932660409973655
-0.4801990149062476	-0.30456873824340125
-0.4801379797499976	-0.3097841653526381
-0.4800769445937476	-0.31497236917328536
-0.4800159094374976	-0.3201327250025145
-0.4799548742812476	-0.32526473182714044
-0.4798938391249976	-0.33036800584451836
-0.4798328039687476	-0.33544208826420774
-0.4797717688124976	-0.34048648614867366
-0.4797107336562476	-0.3455007834538718
-0.4796496984999976	-0.3504845435118385
-0.4795886633437476	-0.35543724414188266
-0.4795276281874976	-0.3603583525657881
-0.4794665930312476	-0.3652473718950816
-0.4794055578749976	-0.37010386576053594
-0.4793445227187476	-0.3749273916324856
-0.4792834875624976	-0.37971748370685643
-0.4792224524062476	-0.3844737470909878
-0.4791614172499976	-0.38919580690839767
-0.4791003820937476	-0.3938832168403581
-0.4790393469374976	-0.39853545230656134
-0.4789783117812476	-0.4031519946030342
-0.4789172766249976	-0.40773239067207206
-0.4788562414687476	-0.4122762295231943
-0.4787952063124976	-0.4167831724049038
-0.4787341711562476	-0.4212528740346965
-0.4786731359999976	-0.42568485884243806
-0.4786121008437476	-0.43007859230644
-0.4785510656874976	-0.4344336352390417
-0.4784900305312476	-0.4387496373761327
-0.4784289953749976	-0.4430262097591329
-0.4783679602187476	-0.4472629555414167
-0.4783069250624976	-0.45145950132888363
-0.4782458899062476	-0.45561542392734045
-0.4781848547499976	-0.45973028063729693
-0.4781238195937476	-0.46380369131949933
-0.4780627844374976	-0.4678353158680177
-0.4780017492812476	-0.4718247665561957
-0.4779407141249976	-0.4757716110340762
-0.4778796789687476	-0.4796754410204199
-0.4778186438124976	-0.4835359037178476
-0.4777576086562476	-0.4873526513618337
-0.4776965734999976	-0.49112531766441586
-0.4776355383437476	-0.4948535557814709
-0.4775745031874976	-0.4985370112213817
-0.4775134680312476	-0.5021753380038776
-0.4774524328749976	-0.5057681866329361
-0.4773913977187476	-0.5093151567638945
-0.4773303625624976	-0.5128159184408609
-0.4772693274062476	-0.5162702105397253
-0.4772082922499976	-0.5196776752957278
-0.4771472570937476	-0.5230379152886523
-0.4770862219374976	-0.526350610705186
-0.4770251867812476	-0.5296154796990016
-0.4769641516249976	-0.5328322372306525
-0.4769031164687476	-0.5360005548435632
-0.4768420813124976	-0.5391200754037282
-0.4767810461562476	-0.5421905031863118
-0.4767200109999976	-0.5452115778742785
-0.4766589758437476	-0.5481830139225176
-0.4765979406874976	-0.5511045195090476
-0.4765369055312476	-0.5539758143144847
-0.4764758703749976	-0.5567966095680111
-0.4764148352187476	-0.5595666001450315
-0.4763538000624976	-0.5622855049349134
-0.4762927649062476	-0.564953058793589
-0.4762317297499976	-0.5675689844700107
-0.4761706945937476	-0.5701330333606319
-0.4761096594374976	-0.5726449925339328
-0.4760486242812476	-0.5751046316464535
-0.4759875891249976	-0.5775116823650308
-0.4759265539687476	-0.5798658933338715
-0.4758655188124976	-0.5821670477668203
-0.4758044836562476	-0.5844149083724098
-0.4757434484999976	-0.5866092386088841
-0.4756824133437476	-0.5887498270885636
-0.4756213781874976	-0.5908364496923889
-0.4755603430312476	-0.5928688921827165
-0.4754993078749976	-0.5948469679049865
-0.4754382727187476	-0.5967704844260496
-0.4753772375624976	-0.5986392403892542
-0.4753162024062476	-0.6004530378999419
-0.4752551672499976	-0.6022117080662149
-0.4751941320937476	-0.603915089719419
-0.4751330969374976	-0.6055629864982771
-0.4750720617812476	-0.6071552167237193
-0.4750110266249976	-0.6086916239387973
-0.4749499914687476	-0.610172044273015
-0.4748889563124976	-0.6115963277105176
-0.4748279211562476	-0.6129643349584801
-0.4747668859999976	-0.6142759138541102
-0.4747058508437476	-0.6155309023490563
-0.4746448156874976	-0.6167291675811036
-0.4745837805312476	-0.6178706148179198
-0.4745227453749976	-0.6189551281615856
-0.4744617102187476	-0.6199825564260141
-0.4744006750624976	-0.6209527679784217
-0.4743396399062476	-0.6218656732574819
-0.4742786047499976	-0.6227211829520672
-0.4742175695937476	-0.6235191880268676
-0.4741565344374976	-0.6242595862731745
-0.4740954992812476	-0.6249422963957236
-0.4740344641249976	-0.6255672494474693
-0.4739734289687476	-0.6261343759661226
-0.4739123938124976	-0.6266436015472683
-0.4738513586562476	-0.6270948470249141
-0.4737903234999976	-0.6274880547052393
-0.4737292883437476	-0.6278231904813939
-0.4736682531874976	-0.6281001973689405
-0.4736072180312476	-0.628319008994794
-0.4735461828749976	-0.6284795992382085
-0.4734851477187476	-0.6285819735897443
-0.4734241125624976	-0.628626113494557
-0.4733630774062476	-0.6286119665398593
-0.4733020422499976	-0.6285394997407066
-0.4732410070937476	-0.6284087101075193
-0.4731799719374976	-0.6282195931002241
-0.4731189367812476	-0.6279721384551904
-0.4730579016249976	-0.6276663566930587
-0.4729968664687476	-0.6273022700531002
-0.4729358313124976	-0.6268798813896483
-0.4728747961562476	-0.6263992196912582
-0.4728137609999976	-0.6258603376922993
-0.4727527258437476	-0.6252632468569116
-0.4726916906874976	-0.6246079700988036
-0.4726306555312476	-0.6238945778598657
-0.4725696203749976	-0.6231231359435161
-0.4725085852187476	-0.6222936862124188
-0.4724475500624976	-0.6214062704604622
-0.4723865149062476	-0.6204609663650889
-0.4723254797499976	-0.6194578438856144
-0.4722644445937476	-0.6183969379196405
-0.4722034094374976	-0.6172783095569583
-0.4721423742812476	-0.6161020692862655
-0.4720813391249976	-0.6148683615314271
-0.4720203039687476	-0.6135772798971175
-0.4719592688124976	-0.6122288637869704
-0.4718982336562476	-0.6108232369483343
-0.4718371984999976	-0.6093605663979806
-0.4717761633437476	-0.6078409476583154
-0.4717151281874976	-0.6062644637333701
-0.4716540930312476	-0.6046312521860174
-0.4715930578749976	-0.6029414737361434
-0.4715320227187476	-0.6011952947253537
-0.4714709875624976	-0.5993928692322043
-0.4714099524062476	-0.5975343046010023
-0.4713489172499976	-0.5956197476951781
-0.4712878820937476	-0.5936494128120055
-0.4712268469374976	-0.5916234616061684
-0.4711658117812476	-0.5895420326194615
-0.4711047766249976	-0.587405335440195
-0.4710437414687476	-0.5852135817731824
-0.4709827063124976	-0.5829669393068596
-0.4709216711562476	-0.5806655816057265
-0.4708606359999976	-0.5783096816034031
-0.4707996008437476	-0.5758994299251796
-0.4707385656874976	-0.5734350732157245
-0.4706775305312476	-0.5709168484589621
-0.4706164953749976	-0.5683449622501587
-0.4705554602187476	-0.5657196306871906
-0.4704944250624976	-0.5630410401378223
-0.4704333899062476	-0.5603093789666646
-0.4703723547499976	-0.5575249110485324
-0.4703113195937476	-0.5546879072008857
-0.4702502844374976	-0.5517986154971753
-0.4701892492812476	-0.5488572822703056
-0.4701282141249976	-0.5458641346086177
-0.4700671789687476	-0.5428194210432431
-0.4700061438124976	-0.5397234073608654
-0.4699451086562476	-0.5365763557006363
-0.4698840734999976	-0.533378582429477
-0.4698230383437476	-0.5301304128029335
-0.4697620031874976	-0.526832111674212
-0.4697009680312476	-0.523483953169988
-0.4696399328749976	-0.520086240259473
-0.4695788977187476	-0.5166392660970233
-0.4695178625624976	-0.5131433542054206
-0.4694568274062476	-0.5095988410641474
-0.4693957922499976	-0.506006019769725
