Time	Frequency
-0.5000464715312489	-8.304921535586606e-23
-0.4999854363749989	-8.446896080862109e-23
-0.4999244012187489	-8.58813976618114e-23
-0.4998633660624989	-8.728628383957944e-23
-0.4998023309062489	-8.868355364401126e-23
-0.4997412957499989	-9.00731010151428e-23
-0.4996802605937489	-9.145469876057907e-23
-0.4996192254374989	-9.282829997813874e-23
-0.4995581902812489	-9.41937348941733e-23
-0.4994971551249989	-9.555083919837977e-23
-0.4994361199687489	-9.68996281631283e-23
-0.4993750848124989	-9.823985887032831e-23
-0.4993140496562489	-9.957139755313148e-23
-0.4992530144999989	-1.0089427395711737e-22
-0.4991919793437489	-1.0220817160785224e-22
-0.4991309441874989	-1.0351299676844838e-22
-0.4990699090312489	-1.0480876193590872e-22
-0.4990088738749989	-1.060951345387229e-22
-0.4989478387187489	-1.0737215014656846e-22
-0.4988868035624989	-1.0863977216383104e-22
-0.4988257684062489	-1.098976124315423e-22
-0.4987647332499989	-1.1114580615219841e-22
-0.4987036980937489	-1.123842252173268e-22
-0.4986426629374989	-1.1361247854027657e-22
-0.4985816277812489	-1.148308095270341e-22
-0.4985205926249989	-1.1603893814027984e-22
-0.4984595574687489	-1.172365260891907e-22
-0.4983985223124989	-1.184239372582013e-22
-0.4983374871562489	-1.196007003383266e-22
-0.4982764519999989	-1.2076660495003095e-22
-0.4982154168437489	-1.2192212506860348e-22
-0.4981543816874989	-1.2306654893836388e-22
-0.4980933465312489	-1.241998386308506e-22
-0.4980323113749989	-1.253225015653577e-22
-0.4979712762187489	-1.2643356800588852e-22
-0.4979102410624989	-1.2753330740995845e-22
-0.4978492059062489	-1.2862217487442519e-22
-0.4977881707499989	-1.2969887870054817e-22
-0.4977271355937489	-1.3076413484298688e-22
-0.4976661004374989	-1.3181830268543027e-22
-0.4976050652812489	-1.328597163092074e-22
-0.4975440301249989	-1.338895893032506e-22
-0.4974829949687489	-1.3490815724283744e-22
-0.4974219598124989	-1.3591341311325933e-22
-0.4973609246562489	-1.3690701888874144e-22
-0.4972998894999989	-1.3788907659785158e-22
-0.4972388543437489	-1.388573882264566e-22
-0.4971778191874989	-1.3981388222142918e-22
-0.4971167840312489	-1.407584860951196e-22
-0.4970557488749989	-1.4168907242938795e-22
-0.4969947137187489	-1.4260762993776888e-22
-0.4969336785624989	-1.4351386770398252e-22
-0.4968726434062489	-1.444059805378963e-22
-0.4968116082499989	-1.452858225303602e-22
-0.4967505730937489	-1.4615288189625167e-22
-0.4966895379374989	-1.4700582702135106e-22
-0.4966285027812489	-1.478461996897774e-22
-0.4965674676249989	-1.4867331575204828e-22
-0.4965064324687489	-1.494863926229291e-22
-0.4964453973124989	-1.5028658133641855e-22
-0.4963843621562489	-1.510730665546877e-22
-0.4963233269999989	-1.5184552819809597e-22
-0.4962622918437489	-1.5260475044557227e-22
-0.4962012566874989	-1.5334993241644355e-22
-0.4961402215312489	-1.5408109890858275e-22
-0.4960791863749989	-1.5479868127586546e-22
-0.4960181512187489	-1.5550197458637542e-22
-0.4959571160624989	-1.561912112169835e-22
-0.4958960809062489	-1.568665133384363e-22
-0.4958350457499989	-1.5752732607415947e-22
-0.4957740105937489	-1.581739830548933e-22
-0.4957129754374989	-1.5880638555588043e-22
-0.4956519402812489	-1.5942416617283443e-22
-0.4955909051249989	-1.6002765823166937e-22
-0.4955298699687489	-1.606166012988375e-22
-0.4954688348124989	-1.6119081688039908e-22
-0.4954077996562489	-1.6175058424127678e-22
-0.4953467644999989	-1.6229554697780884e-22
-0.4952857293437489	-1.6282569069053053e-22
-0.4952246941874989	-1.633412129143514e-22
-0.4951636590312489	-1.6384172167199947e-22
-0.4951026238749989	-1.6432733158002934e-22
-0.4950415887187489	-1.647981416706205e-22
-0.4949805535624989	-1.652537577195457e-22
-0.4949195184062489	-1.6569438512233423e-22
-0.4948584832499989	-1.6612003988388112e-22
-0.4947974480937489	-1.6653035734735606e-22
-0.4947364129374989	-1.6692558812176776e-22
-0.4946753777812489	-1.6730568787744342e-22
-0.4946143426249989	-1.6767035108203197e-22
-0.4945533074687489	-1.680198277069365e-22
-0.4944922723124989	-1.6835401597525373e-22
-0.4944312371562489	-1.686726759529391e-22
-0.4943702019999989	-1.6897604634764444e-22
-0.4943091668437489	-1.6926400383997526e-22
-0.4942481316874989	-1.6953636644633305e-22
-0.4941870965312489	-1.6979333396203374e-22
-0.4941260613749989	-1.700347854614587e-22
-0.4940650262187489	-1.7026059214694364e-22
-0.4940039910624989	-1.7047089668919195e-22
-0.4939429559062489	-1.7066559807852902e-22
-0.4938819207499989	-1.7084462550822545e-22
-0.4938208855937489	-1.7100805866032791e-22
-0.4937598504374989	-1.7115580681059572e-22
-0.4936988152812489	-1.7128784567020133e-22
-0.4936377801249989	-1.7140421777215314e-22
-0.4935767449687489	-1.7150485917020194e-22
-0.4935157098124989	-1.715897733190106e-22
-0.4934546746562489	-1.7165896196659565e-22
-0.4933936394999989	-1.717123790920519e-22
-0.4933326043437489	-1.7175004816924694e-22
-0.4932715691874989	-1.7177194700069715e-22
-0.4932105340312489	-1.7177804459668747e-22
-0.4931494988749989	-1.7176837982999673e-22
-0.4930884637187489	-1.7174292699451423e-22
-0.4930274285624989	-1.7170167104521162e-22
-0.4929663934062489	-1.7164464904382658e-22
-0.4929053582499989	-1.7157182765925226e-22
-0.4928443230937489	-1.7148320612753619e-22
-0.4927832879374989	-1.713788228439716e-22
-0.4927222527812489	-1.7125864872650691e-22
-0.4926612176249989	-1.711226952212785e-22
-0.4926001824687489	-1.709709946526499e-22
-0.4925391473124989	-1.7080352744220115e-22
-0.4924781121562489	-1.7062032394512444e-22
-0.4924170769999989	-1.7042140527555257e-22
-0.4923560418437489	-1.7020674140827635e-22
-0.4922950066874989	-1.699763777758287e-22
-0.4922339715312489	-1.6973035099311554e-22
-0.4921729363749989	-1.694686297360638e-22
-0.4921119012187489	-1.691912547831389e-22
-0.4920508660624989	-1.6889827242750436e-22
-0.4919898309062489	-1.6858966911094256e-22
-0.4919287957499989	-1.68265493149916e-22
-0.4918677605937489	-1.6792577805468992e-22
-0.4918067254374989	-1.6757049683531559e-22
-0.4917456902812489	-1.671997198614425e-22
-0.4916846551249989	-1.6681351086743568e-22
-0.4916236199687489	-1.664118317572587e-22
-0.4915625848124989	-1.6599473284590516e-22
-0.4915015496562489	-1.6556229038744765e-22
-0.4914405144999989	-1.651144877587434e-22
-0.4913794793437489	-1.6465137798744015e-22
-0.4913184441874989	-1.641730298374051e-22
-0.4912574090312489	-1.6367942450585216e-22
-0.4911963738749989	-1.6317062825020135e-22
-0.4911353387187489	-1.626467297414048e-22
-0.4910743035624989	-1.6210771151856288e-22
-0.4910132684062489	-1.615536290081578e-22
-0.4909522332499989	-1.6098457029700415e-22
-0.4908911980937489	-1.6040053356635397e-22
-0.4908301629374989	-1.5980158644452137e-22
-0.4907691277812489	-1.5918780766577299e-22
-0.4907080926249989	-1.5855919654402124e-22
-0.4906470574687489	-1.5791583092000482e-22
-0.4905860223124989	-1.5725778320390856e-22
-0.4905249871562489	-1.5658507053175224e-22
-0.4904639519999989	-1.55897797690114e-22
-0.4904029168437489	-1.5519602959285933e-22
-0.4903418816874989	-1.544797798793634e-22
-0.4902808465312489	-1.537491462293713e-22
-0.4902198113749989	-1.530041773340384e-22
-0.4901587762187489	-1.5224490671390002e-22
-0.4900977410624989	-1.514714458015675e-22
-0.4900367059062489	-1.506838355240308e-22
-0.4899756707499989	-1.498821287564333e-22
-0.4899146355937489	-1.49066458518957e-22
-0.4898536004374989	-1.482368564690735e-22
-0.4897925652812489	-1.4739335738195255e-22
-0.4897315301249989	-1.4653610477657443e-22
-0.4896704949687489	-1.456651624193365e-22
-0.4896094598124989	-1.4478056393154911e-22
-0.4895484246562489	-1.438824230362809e-22
-0.4894873894999989	-1.4297081023456944e-22
-0.4894263543437489	-1.4204578673814305e-22
-0.4893653191874989	-1.4110746694422841e-22
-0.4893042840312489	-1.4015592660410243e-22
-0.4892432488749989	-1.3919122719812587e-22
-0.4891822137187489	-1.3821345382236855e-22
-0.4891211785624989	-1.372226893242381e-22
-0.4890601434062489	-1.3621903970170683e-22
-0.4889991082499989	-1.352026096390414e-22
-0.4889380730937489	-1.341734829048603e-22
-0.4888770379374989	-1.3313175358508269e-22
-0.4888160027812489	-1.3207750451621102e-22
-0.4887549676249989	-1.3101081874661695e-22
-0.4886939324687489	-1.2993179784161675e-22
-0.4886328973124989	-1.288405330307208e-22
-0.4885718621562489	-1.2773712757766624e-22
-0.4885108269999989	-1.2662167859231977e-22
-0.4884497918437489	-1.2549426117698593e-22
-0.4883887566874989	-1.243550030409878e-22
-0.4883277215312489	-1.2320403357057106e-22
-0.4882666863749989	-1.2204142584261097e-22
-0.4882056512187489	-1.2086727890765662e-22
-0.4881446160624989	-1.1968170120309385e-22
-0.4880835809062489	-1.184847933122032e-22
-0.4880225457499989	-1.1727668905700683e-22
-0.4879615105937489	-1.160574940691038e-22
-0.4879004754374989	-1.1482730423127562e-22
-0.4878394402812489	-1.1358623844197338e-22
-0.4877784051249989	-1.1233438029426302e-22
-0.4877173699687489	-1.1107185159401163e-22
-0.4876563348124989	-1.0979879046449134e-22
-0.4875952996562489	-1.0851525923009727e-22
-0.4875342644999989	-1.07221401968341e-22
-0.4874732293437489	-1.0591740499138494e-22
-0.4874121941874989	-1.0460333259971301e-22
-0.4873511590312489	-1.0327928810235532e-22
-0.4872901238749989	-1.019454158726965e-22
-0.4872290887187489	-1.0060179143325544e-22
-0.4871680535624989	-9.924856358938625e-23
-0.4871070184062489	-9.788589423073875e-23
-0.4870459832499989	-9.651384841091641e-23
-0.4869849480937489	-9.513256073840527e-23
-0.4869239129374989	-9.374219705453312e-23
-0.4868628777812489	-9.234285391645354e-23
-0.4868018426249989	-9.093467093068878e-23
-0.4867408074687489	-8.951777377488562e-23
-0.4866797723124989	-8.809225209416104e-23
-0.4866187371562489	-8.665827376459051e-23
-0.4865577019999989	-8.5215970544069e-23
-0.4864966668437489	-8.376543501352973e-23
-0.4864356316874989	-8.230684230972382e-23
-0.4863745965312489	-8.084032332211883e-23
-0.4863135613749989	-7.93659761013463e-23
-0.4862525262187489	-7.788397758286615e-23
-0.4861914910624989	-7.639446332328302e-23
-0.4861304559062489	-7.489753780004273e-23
-0.4860694207499989	-7.339336538207314e-23
-0.4860083855937489	-7.18820770235753e-23
-0.4859473504374989	-7.036378397604345e-23
-0.4858863152812489	-6.883865847380319e-23
-0.4858252801249989	-6.730685260429632e-23
-0.4857642449687489	-6.576848623160127e-23
-0.4857032098124989	-6.422369681099496e-23
-0.4856421746562489	-6.267259072221513e-23
-0.4855811394999989	-6.111530879826442e-23
-0.4855201043437489	-5.955206482187177e-23
-0.4854590691874989	-5.798298674914299e-23
-0.4853980340312489	-5.640816237887927e-23
-0.4853369988749989	-5.482777630657136e-23
-0.4852759637187489	-5.324200614851841e-23
-0.4852149285624989	-5.165097162516406e-23
-0.4851538934062489	-5.00547975689405e-23
-0.4850928582499989	-4.8453622095090804e-23
-0.4850318230937489	-4.684760434932318e-23
-0.4849707879374989	-4.523690354604641e-23
-0.4849097527812489	-4.362165791649455e-23
-0.4848487176249989	-4.20020294677728e-23
-0.4847876824687489	-4.037818668938539e-23
-0.4847266473124989	-3.875025164092072e-23
-0.4846656121562489	-3.7118360264909497e-23
-0.4846045769999989	-3.5482689274324614e-23
-0.4845435418437489	-3.3843393921853467e-23
-0.4844825066874989	-3.2200628647735277e-23
-0.4844214715312489	-3.0554549975205126e-23
-0.4843604363749989	-2.890526873820159e-23
-0.4842994012187489	-2.7252908499615764e-23
-0.4842383660624989	-2.559765574743039e-23
-0.4841773309062489	-2.3939704650089174e-23
-0.4841162957499989	-2.227920920080559e-23
-0.4840552605937489	-2.061630545323568e-23
-0.4839942254374989	-1.8951143203379112e-23
-0.4839331902812489	-1.7283870939686106e-23
-0.4838721551249989	-1.5614626867153276e-23
-0.4838111199687489	-1.394355327332288e-23
-0.4837500848124989	-1.2270814412805811e-23
-0.4836890496562489	-1.0596599662882154e-23
-0.4836280144999989	-8.92107724287323e-24
-0.4835669793437489	-7.244388418200988e-24
-0.4835059441874989	-5.5666931384367914e-24
-0.4834449090312489	-3.888152649495949e-24
-0.4833838738749989	-2.2089128808855e-24
-0.4833228387187489	-5.291211904456228e-25
-0.4832618035624989	1.1510904416443957e-24
-0.4832007684062489	2.8315847272481256e-24
-0.4831397332499989	4.5121676313735804e-24
-0.4830786980937489	6.1926343284683575e-24
-0.4830176629374989	7.872849320030164e-24
-0.4829566277812489	9.55270029666368e-24
-0.4828955926249989	1.12320217093714e-23
-0.4828345574687489	1.2910638582204221e-23
-0.4827735223124989	1.4588399689676293e-23
-0.4827124871562489	1.6265151973266158e-23
-0.4826514519999989	1.7940748181933782e-23
-0.4825904168437489	1.9615027476629014e-23
-0.4825293816874989	2.1287803673287422e-23
-0.4824683465312489	2.295891878207865e-23
-0.4824073113749989	2.462823546352395e-23
-0.4823462762187489	2.6295597903696495e-23
-0.4822852410624989	2.796085705402607e-23
-0.4822242059062489	2.962387114257932e-23
-0.4821631707499989	3.1284473510465356e-23
-0.4821021355937489	3.2942479920185024e-23
-0.4820411004374989	3.4597733320986544e-23
-0.4819800652812489	3.625010759510934e-23
-0.4819190301249989	3.789945396505513e-23
-0.4818579949687489	3.954561328010198e-23
-0.4817969598124989	4.118843065667098e-23
-0.4817359246562489	4.2827725868749014e-23
-0.4816748894999989	4.446334280980279e-23
-0.4816138543437489	4.609515851313646e-23
-0.4815528191874989	4.772301282337849e-23
-0.4814917840312489	4.9346738283057115e-23
-0.4814307488749989	5.096620236002158e-23
-0.4813697137187489	5.2581254595290566e-23
-0.4813086785624989	5.419172649277372e-23
-0.4812476434062489	5.579745958784419e-23
-0.4811866082499989	5.739828990116939e-23
-0.4811255730937489	5.89940791433257e-23
-0.4810645379374989	6.058470072739191e-23
-0.4810035027812489	6.216999814621235e-23
-0.4809424676249989	6.374981903667106e-23
-0.4808814324687489	6.532401090204128e-23
-0.4808203973124989	6.689241918874021e-23
-0.4807593621562489	6.845490826985046e-23
-0.4806983269999989	7.001132178800989e-23
-0.4806372918437489	7.156148533159053e-23
-0.4805762566874989	7.310525989232586e-23
-0.4805152215312489	7.464253009121983e-23
-0.4804541863749989	7.617315951448714e-23
-0.4803931512187489	7.769699114330183e-23
-0.4803321160624989	7.921387396393256e-23
-0.4802710809062489	8.072366328116716e-23
-0.4802100457499989	8.222620503066218e-23
-0.4801490105937489	8.372134484404248e-23
-0.4800879754374989	8.520894609147906e-23
-0.4800269402812489	8.668888941818766e-23
-0.4799659051249989	8.816103997215769e-23
-0.4799048699687489	8.962523458871685e-23
-0.4798438348124989	9.108134242758921e-23
-0.4797827996562489	9.252925215738594e-23
-0.4797217644999989	9.396879933872688e-23
-0.4796607293437489	9.539982955724675e-23
-0.4795996941874989	9.68222309817099e-23
-0.4795386590312489	9.823586007166903e-23
-0.4794776238749989	9.964057412983928e-23
-0.4794165887187489	1.0103625805120112e-22
-0.4793555535624989	1.0242277256486517e-22
-0.4792945184062489	1.0379998496384512e-22
-0.4792334832499989	1.0516777584329636e-22
-0.4791724480937489	1.0652599184418238e-22
-0.4791114129374989	1.078744923744568e-22
-0.4790503777812489	1.092131705776311e-22
-0.4789893426249989	1.1054190146206897e-22
-0.4789283074687489	1.118605541474599e-22
-0.4788672723124989	1.1316899292554918e-22
-0.4788062371562489	1.1446706999697457e-22
-0.4787452019999989	1.1575468035248785e-22
-0.4786841668437489	1.1703172186675146e-22
-0.4786231316874989	1.182980548656574e-22
-0.4785620965312489	1.1955357004229122e-22
-0.4785010613749989	1.2079814963746435e-22
-0.4784400262187489	1.2203163939501872e-22
-0.4783789910624989	1.232539284150456e-22
-0.4783179559062489	1.244649135264928e-22
-0.4782569207499989	1.2566447365064744e-22
-0.4781958855937489	1.2685250737152352e-22
-0.4781348504374989	1.2802888511777223e-22
-0.4780738152812489	1.2919348020682013e-22
-0.4780127801249989	1.3034620968280888e-22
-0.4779517449687489	1.3148695366221496e-22
-0.4778907098124989	1.3261558701144554e-22
-0.4778296746562489	1.337320187637247e-22
-0.4777686394999989	1.3483612260768295e-22
-0.4777076043437489	1.359277846918235e-22
-0.4776465691874989	1.37006925512645e-22
-0.4775855340312489	1.3807343138199932e-22
-0.4775244988749989	1.3912719733638101e-22
-0.4774634637187489	1.4016812078450794e-22
-0.4774024285624989	1.411960803054953e-22
-0.4773413934062489	1.422109981899371e-22
-0.4772803582499989	1.432127814914381e-22
-0.4772193230937489	1.4420130873683834e-22
-0.4771582879374989	1.4517650046841955e-22
-0.4770972527812489	1.4613825941035748e-22
-0.4770362176249989	1.470864768032745e-22
-0.4769751824687489	1.48021081474399e-22
-0.4769141473124989	1.48941973115666e-22
-0.4768531121562489	1.498490482349282e-22
-0.4767920769999989	1.507422353715492e-22
-0.4767310418437489	1.5162143509650109e-22
-0.4766700066874989	1.5248656415062912e-22
-0.4766089715312489	1.5333755199346822e-22
-0.4765479363749989	1.541742880592221e-22
-0.4764869012187489	1.5499670678588827e-22
-0.4764258660624989	1.558047442108766e-22
-0.4763648309062489	1.5659828092217286e-22
-0.4763037957499989	1.5737725254895072e-22
-0.4762427605937489	1.5814159574593192e-22
-0.4761817254374989	1.5889121822152998e-22
-0.4761206902812489	1.5962606958061872e-22
-0.4760596551249989	1.6034605254445034e-22
-0.4759986199687489	1.6105107451702336e-22
-0.4759375848124989	1.6174110813131612e-22
-0.4758765496562489	1.6241606672617854e-22
-0.4758155144999989	1.630758715546e-22
-0.4757544793437489	1.6372048046461555e-22
-0.4756934441874989	1.6434980468501828e-22
-0.4756324090312489	1.649637906027496e-22
-0.4755713738749989	1.655623838469979e-22
-0.4755103387187489	1.661454983528021e-22
-0.4754493035624989	1.66713105840413e-22
-0.4753882684062489	1.672651420426105e-22
-0.4753272332499989	1.6780151937792982e-22
-0.4752661980937489	1.6832221855577692e-22
-0.4752051629374989	1.6882717811644744e-22
-0.4751441277812489	1.6931633050827128e-22
-0.4750830926249989	1.6978965175057203e-22
-0.4750220574687489	1.7024706658910192e-22
-0.4749610223124989	1.7068853195837785e-22
-0.4748999871562489	1.7111403255346662e-22
-0.4748389519999989	1.7152349248923147e-22
-0.4747779168437489	1.7191688159242662e-22
-0.4747168816874989	1.7229417037802237e-22
-0.4746558465312489	1.7265528514095453e-22
-0.4745948113749989	1.7300021950249749e-22
-0.4745337762187489	1.7332893306800014e-22
-0.4744727410624989	1.7364135107187882e-22
-0.4744117059062489	1.7393747958599709e-22
-0.4743506707499989	1.742172734164747e-22
-0.4742896355937489	1.7448067215233282e-22
-0.4742286004374989	1.7472768775622746e-22
-0.4741675652812489	1.7495827179328198e-22
-0.4741065301249989	1.7517238678584487e-22
-0.4740454949687489	1.7537003921187044e-22
-0.4739844598124989	1.7555117587425653e-22
-0.4739234246562489	1.757157859035541e-22
-0.4738623894999989	1.7586386782498375e-22
-0.4738013543437489	1.7599536722490792e-22
-0.4737403191874989	1.7611029057620594e-22
-0.4736792840312489	1.76208625498933e-22
-0.4736182488749989	1.7629033260891347e-22
-0.4735572137187489	1.7635543836141625e-22
-0.4734961785624989	1.7640391275873344e-22
-0.4734351434062489	1.7643572172160326e-22
-0.4733741082499989	1.7645090810868537e-22
-0.4733130730937489	1.7644944213290167e-22
-0.4732520379374989	1.7643129805199104e-22
-0.4731910027812489	1.7639651573871615e-22
-0.4731299676249989	1.7634506229385273e-22
-0.4730689324687489	1.7627692998629126e-22
-0.4730078973124989	1.7619216350885571e-22
-0.4729468621562489	1.7609073246241178e-22
-0.4728858269999989	1.7597263948634587e-22
-0.4728247918437489	1.7583791983115253e-22
-0.4727637566874989	1.7568654572238868e-22
-0.4727027215312489	1.7551853954795904e-22
-0.4726416863749989	1.7533393597267846e-22
-0.4725806512187489	1.7513271189885002e-22
-0.4725196160624989	1.7491489984189656e-22
-0.4724585809062489	1.7468052951689898e-22
-0.4723975457499989	1.744295824362332e-22
-0.4723365105937489	1.7416209588643037e-22
-0.4722754754374989	1.7387810275995323e-22
-0.4722144402812489	1.735776045862921e-22
-0.4721534051249989	1.73260640819591e-22
-0.4720923699687489	1.7292722987170839e-22
-0.4720313348124989	1.7257738437483703e-22
-0.4719702996562489	1.7221116258208567e-22
-0.4719092644999989	1.7182858979486878e-22
-0.4718482293437489	1.7142968276813767e-22
