Time	Frequency
-0.5000457747499993	1.3881061417860088e-22
-0.49998473959374934	1.4015183531944484e-22
-0.49992370443749934	1.4148280561586382e-22
-0.49986266928124934	1.4280428484314352e-22
-0.49980163412499934	1.4411519470941376e-22
-0.49974059896874934	1.4541349999374527e-22
-0.49967956381249934	1.4669865137301913e-22
-0.49961852865624934	1.4797248189920098e-22
-0.49955749349999934	1.4923711992224005e-22
-0.49949645834374934	1.5049222541802677e-22
-0.49943542318749934	1.5173496612067573e-22
-0.49937438803124934	1.5296307093305477e-22
-0.49931335287499934	1.541775093008917e-22
-0.49925231771874934	1.5538147406699313e-22
-0.49919128256249934	1.565766023554794e-22
-0.49913024740624934	1.5776082674133973e-22
-0.49906921224999934	1.589305402159594e-22
-0.49900817709374934	1.600846607035047e-22
-0.49894714193749934	1.6122583708544652e-22
-0.49888610678124934	1.6235732635846562e-22
-0.49882507162499934	1.6347912085708516e-22
-0.49876403646874934	1.6458783136823237e-22
-0.49870300131249934	1.656804975859581e-22
-0.49864196615624934	1.6675790950814765e-22
-0.49858093099999934	1.678235674735725e-22
-0.49851989584374934	1.6887949662810552e-22
-0.49845886068749934	1.6992381070361495e-22
-0.49839782553124934	1.7095284948968155e-22
-0.49833679037499934	1.7196535808101734e-22
-0.49827575521874934	1.7296381962848825e-22
-0.49821472006249934	1.7395141300375862e-22
-0.49815368490624934	1.7492818709350956e-22
-0.49809264974999934	1.7589093528516348e-22
-0.49803161459374934	1.7683690094791409e-22
-0.49797057943749934	1.777669351639506e-22
-0.49790954428124934	1.7868437290790348e-22
-0.49784850912499934	1.7959098316664876e-22
-0.49778747396874934	1.804848110081387e-22
-0.49772643881249934	1.8136242906981996e-22
-0.49766540365624934	1.822228803745792e-22
-0.49760436849999934	1.8306867640001518e-22
-0.49754333334374934	1.83902744221444e-22
-0.49748229818749934	1.8472493968452085e-22
-0.49742126303124934	1.8553218282869627e-22
-0.49736022787499934	1.8632198751117865e-22
-0.49729919271874934	1.8709523063893893e-22
-0.49723815756249934	1.8785499131673714e-22
-0.49717712240624934	1.886028954752587e-22
-0.49711608724999934	1.8933722902102725e-22
-0.49705505209374934	1.9005492299641304e-22
-0.49699401693749934	1.9075501154183085e-22
-0.49693298178124934	1.9143957680303897e-22
-0.49687194662499934	1.9211121011759303e-22
-0.49681091146874934	1.9277001612802654e-22
-0.49674987631249934	1.9341355739021735e-22
-0.49668884115624934	1.9403964061275072e-22
-0.49662780599999934	1.9464867386027308e-22
-0.49656677084374934	1.9524298800840847e-22
-0.49650573568749934	1.9582406462992845e-22
-0.49644470053124934	1.9639092399206204e-22
-0.49638366537499934	1.969413764810446e-22
-0.49632263021874934	1.9747446703142481e-22
-0.49626159506249934	1.9799130995503304e-22
-0.49620055990624934	1.9849360112745592e-22
-0.49613952474999934	1.9898168715557277e-22
-0.49607848959374934	1.9945432674720304e-22
-0.49601745443749934	1.9991018539337295e-22
-0.49595641928124934	2.0034921568405885e-22
-0.49589538412499934	2.00772456003722e-22
-0.49583434896874934	2.011807121278826e-22
-0.49577331381249934	2.0157372584730495e-22
-0.49571227865624934	2.019506309438082e-22
-0.49565124349999934	2.0231094800950795e-22
-0.49559020834374934	2.0265493766192981e-22
-0.49552917318749934	2.0298308833027301e-22
-0.49546813803124934	2.0329551660929696e-22
-0.49540710287499934	2.0359195816809206e-22
-0.49534606771874934	2.0387217182419136e-22
-0.49528503256249934	2.0413615155300924e-22
-0.49522399740624934	2.0438396056660698e-22
-0.49516296224999934	2.0461554642245e-22
-0.49510192709374934	2.0483082915168672e-22
-0.49504089193749934	2.0502987896011689e-22
-0.49497985678124934	2.052128486751098e-22
-0.49491882162499934	2.0537971101849312e-22
-0.49485778646874934	2.0553019372956967e-22
-0.49479675131249934	2.0566407122367157e-22
-0.49473571615624934	2.0578146364746332e-22
-0.49467468099999934	2.058827245360734e-22
-0.49461364584374934	2.0596799854387808e-22
-0.49455261068749934	2.0603698915417334e-22
-0.49449157553124934	2.06089273377061e-22
-0.49443054037499934	2.0612481493383528e-22
-0.49436950521874934	2.061440286679023e-22
-0.49430847006249934	2.0614727985932946e-22
-0.49424743490624934	2.061344190272679e-22
-0.49418639974999934	2.0610493834973637e-22
-0.49412536459374934	2.06058583078173e-22
-0.49406432943749934	2.0599567569422642e-22
-0.49400329428124934	2.059167392292569e-22
-0.49394225912499934	2.0582185997015156e-22
-0.49388122396874934	2.0571056388880693e-22
-0.49382018881249934	2.055823780786442e-22
-0.49375915365624934	2.0543741668581328e-22
-0.49369811849999934	2.052762714587562e-22
-0.49363708334374934	2.0509931424633548e-22
-0.49357604818749934	2.0490625408759065e-22
-0.49351501303124934	2.046964937437274e-22
-0.49345397787499934	2.0446985223883506e-22
-0.49339294271874934	2.0422679171752954e-22
-0.49333190756249934	2.0396788757065047e-22
-0.49327087240624934	2.0369316636545234e-22
-0.49320983724999934	2.034020952402362e-22
-0.49314880209374934	2.0309423652579353e-22
-0.49308776693749934	2.0276978254385133e-22
-0.49302673178124934	2.0242933484442315e-22
-0.49296569662499934	2.020732117823712e-22
-0.49290466146874934	2.01701127072761e-22
-0.49284362631249934	2.0131259287189412e-22
-0.49278259115624934	2.0090751377543775e-22
-0.49272155599999934	2.0048627869672782e-22
-0.49266052084374934	2.0004931311428995e-22
-0.49259948568749934	1.9959664465483644e-22
-0.49253845053124934	1.9912796098749825e-22
-0.49247741537499934	1.9864304246727443e-22
-0.49241638021874934	1.9814201748577837e-22
-0.49235534506249934	1.9762517415801224e-22
-0.49229430990624934	1.9709264194706803e-22
-0.49223327474999934	1.9654434210078526e-22
-0.49217223959374934	1.9598019773271247e-22
-0.49211120443749934	1.954002776071939e-22
-0.49205016928124934	1.948047030102063e-22
-0.49198913412499934	1.941935043752713e-22
-0.49192809896874934	1.9356664254203527e-22
-0.49186706381249934	1.929241500301659e-22
-0.49180602865624934	1.9226618905023518e-22
-0.49174499349999934	1.9159291367797567e-22
-0.49168395834374934	1.9090429430039152e-22
-0.49162292318749934	1.902001765810693e-22
-0.49156188803124934	1.8948054449724426e-22
-0.49150085287499934	1.887456424973501e-22
-0.49143981771874934	1.8799576870108174e-22
-0.49137878256249934	1.8723096658112862e-22
-0.49131774740624934	1.8645099795230261e-22
-0.49125671224999934	1.856556794998356e-22
-0.49119567709374934	1.848452106478278e-22
-0.49113464193749934	1.8402005107100211e-22
-0.49107360678124934	1.8318042616360784e-22
-0.49101257162499934	1.8232608912767043e-22
-0.49095153646874934	1.8145668978578524e-22
-0.49089050131249934	1.805722830645002e-22
-0.49082946615624934	1.7967334938692814e-22
-0.49076843099999934	1.7876031336382632e-22
-0.49070739584374934	1.7783312160153763e-22
-0.49064636068749934	1.7689138314980192e-22
-0.49058532553124934	1.7593491028242061e-22
-0.49052429037499934	1.7496402356673149e-22
-0.49046325521874934	1.7397925974288896e-22
-0.49040222006249934	1.7298081638677813e-22
-0.49034118490624934	1.71968407859381e-22
-0.49028014974999934	1.7094170427237782e-22
-0.49021911459374934	1.6990081941122215e-22
-0.49015807943749934	1.6884627020720684e-22
-0.49009704428124934	1.6777844186230461e-22
-0.49003600912499934	1.6669720800276054e-22
-0.48997497396874934	1.6560218481718866e-22
-0.48991393881249934	1.6449330487294227e-22
-0.48985290365624934	1.6337100913444064e-22
-0.48979186849999934	1.622358180810877e-22
-0.48973083334374934	1.6108780502093115e-22
-0.48966979818749934	1.5992661703793517e-22
-0.48960876303124934	1.5875201014109646e-22
-0.48954772787499934	1.575642524281673e-22
-0.48948669271874934	1.5636390390270526e-22
-0.48942565756249934	1.5515124547437485e-22
-0.48936462240624934	1.53926065864517e-22
-0.48930358724999934	1.5268803327869215e-22
-0.48924255209374934	1.5143718868889004e-22
-0.48918151693749934	1.5017400069351013e-22
-0.48912048178124934	1.4889891965243787e-22
-0.48905944662499934	1.4761196768039544e-22
-0.48899841146874934	1.463128602857862e-22
-0.48893737631249934	1.4500147190323398e-22
-0.48887634115624934	1.4367807417493602e-22
-0.48881530599999934	1.4234311818562915e-22
-0.48875427084374934	1.4099683121345426e-22
-0.48869323568749934	1.3963907337761014e-22
-0.48863220053124934	1.3826964547167355e-22
-0.48857116537499934	1.3688867241682897e-22
-0.48851013021874934	1.3549655243377645e-22
-0.48844909506249934	1.3409356717453118e-22
-0.48838805990624934	1.326796826340959e-22
-0.48832702474999934	1.3125476231960738e-22
-0.48826598959374934	1.2981888351126557e-22
-0.48820495443749934	1.2837236789621943e-22
-0.48814391928124934	1.2691551694202614e-22
-0.48808288412499934	1.2544837756642417e-22
-0.48802184896874934	1.239708221429098e-22
-0.48796081381249934	1.2248285441661048e-22
-0.48789977865624934	1.209847618309463e-22
-0.48783874349999934	1.1947690221743773e-22
-0.48777770834374934	1.1795937489968019e-22
-0.48771667318749934	1.1643203581883952e-22
-0.48765563803124934	1.1489485734622102e-22
-0.48759460287499934	1.1334812405054438e-22
-0.48753356771874934	1.117922256690359e-22
-0.48747253256249934	1.1022733833491854e-22
-0.48741149740624934	1.0865335300019339e-22
-0.48735046224999934	1.0707012818479592e-22
-0.48728942709374934	1.0547780206798219e-22
-0.48722839193749934	1.0387678653789644e-22
-0.48716735678124934	1.0226742037876467e-22
-0.48710632162499934	1.0064971009078976e-22
-0.48704528646874934	9.90234860338126e-23
-0.48698425131249934	9.738877807976355e-23
-0.48692321615624934	9.574595056288928e-23
-0.48686218099999934	9.409541850792108e-23
-0.48680114584374934	9.243728454663812e-23
-0.48674011068749934	9.077135936965121e-23
-0.48667907553124934	8.909755038167775e-23
-0.48661804037499934	8.741614134116149e-23
-0.48655700521874934	8.572761689178055e-23
-0.48649597006249934	8.403223375928311e-23
-0.48643493490624934	8.232987226024773e-23
-0.48637389974999934	8.062036155416413e-23
-0.48631286459374934	7.890385843269782e-23
-0.48625182943749934	7.718080642956776e-23
-0.48619079428124934	7.545155213572274e-23
-0.48612975912499934	7.371609603512529e-23
-0.48606872396874934	7.197424959411277e-23
-0.48600768881249934	7.022601313388235e-23
-0.48594665365624934	6.847174314001635e-23
-0.48588561849999934	6.671189432375782e-23
-0.48582458334374934	6.494666156332499e-23
-0.48576354818749934	6.31759457248805e-23
-0.48570251303124934	6.13996343380742e-23
-0.48564147787499934	5.961787876324728e-23
-0.48558044271874934	5.78310672596319e-23
-0.48551940756249934	5.60395323969653e-23
-0.48545837240624934	5.424335518846383e-23
-0.48539733724999934	5.2442457874735335e-23
-0.48533630209374934	5.063684481794147e-23
-0.48527526693749934	4.882675016076808e-23
-0.48521423178124934	4.7012531928504227e-23
-0.48515319662499934	4.519443033317257e-23
-0.48509216146874934	4.337246630468326e-23
-0.48503112631249934	4.154658055398465e-23
-0.48497009115624934	3.9716881730466203e-23
-0.48490905599999934	3.7883696103702127e-23
-0.48484802084374934	3.604733238749115e-23
-0.48478698568749934	3.420790361982525e-23
-0.48472595053124934	3.236539176743282e-23
-0.48466491537499934	3.051981387734242e-23
-0.48460388021874934	2.867134512456887e-23
-0.48454284506249934	2.6820297061691845e-23
-0.48448180990624934	2.496695051625574e-23
-0.48442077474999934	2.3111422623227625e-23
-0.48435973959374934	2.1253720694607945e-23
-0.48429870443749934	1.9393890471384254e-23
-0.48423766928124934	1.753210288145626e-23
-0.48417663412499934	1.5668633607596747e-23
-0.48411559896874934	1.3803732799662838e-23
-0.48405456381249934	1.1937509180553071e-23
-0.48399352865624934	1.0069990976255865e-23
-0.48393249349999934	8.20125764531441e-24
-0.48387145834374934	6.331483139101782e-24
-0.48381042318749934	4.460925409417928e-24
-0.48374938803124934	2.5898507090909487e-24
-0.48368835287499934	7.1840251715541675e-25
-0.48362731771874934	-1.1534139054956038e-24
-0.48356628256249934	-3.025578397730996e-24
-0.48350524740624934	-4.897904299786819e-24
-0.48344421224999934	-6.770055850394274e-24
-0.48338317709374934	-8.641734819573751e-24
-0.48332214193749934	-1.0512875053999888e-23
-0.48326110678124934	-1.2383591695660474e-23
-0.48320007162499934	-1.4253873041643924e-23
-0.48313903646874934	-1.612339597763311e-23
-0.48307800131249934	-1.7991707283891537e-23
-0.48301696615624934	-1.9858549601856914e-23
-0.48295593099999934	-2.1723974611396296e-23
-0.48289489584374934	-2.35881236902557e-23
-0.48283386068749934	-2.5450902833262558e-23
-0.48277282553124934	-2.731191904300304e-23
-0.48271179037499934	-2.917076358500436e-23
-0.48265075521874934	-3.10273152165171e-23
-0.48258972006249934	-3.288171284272645e-23
-0.48252868490624934	-3.4734028677504967e-23
-0.48246764974999934	-3.6583994098632753e-23
-0.48240661459374934	-3.843109296338843e-23
-0.48234557943749934	-4.0274982171532726e-23
-0.48228454428124934	-4.2115760798371074e-23
-0.48222350912499934	-4.39536860273451e-23
-0.48216247396874934	-4.578867137435964e-23
-0.48210143881249934	-4.7620228168493463e-23
-0.48204040365624934	-4.944788361125832e-23
-0.48197936849999934	-5.1271538582603684e-23
-0.48191833334374934	-5.309137671351661e-23
-0.48185729818749934	-5.490746172353283e-23
-0.48179626303124934	-5.671951933887354e-23
-0.48173522787499934	-5.852712823422731e-23
-0.48167419271874934	-6.033001792445155e-23
-0.48161315756249934	-6.212815688682141e-23
-0.48155212240624934	-6.392161862378265e-23
-0.48149108724999934	-6.571036186136311e-23
-0.48143005209374934	-6.749412981362201e-23
-0.48136901693749934	-6.927259198275033e-23
-0.48130798178124934	-7.104554316458507e-23
-0.48124694662499934	-7.281292462221989e-23
-0.48118591146874934	-7.457471111528784e-23
-0.48112487631249934	-7.633080867005192e-23
-0.48106384115624934	-7.808102692251554e-23
-0.48100280599999934	-7.982512325623581e-23
-0.48094177084374934	-8.15628706566206e-23
-0.48088073568749934	-8.329412539651139e-23
-0.48081970053124934	-8.501886063163489e-23
-0.48075866537499934	-8.673708747706845e-23
-0.48069763021874934	-8.84486915487914e-23
-0.48063659506249934	-9.015337053162835e-23
-0.48057555990624934	-9.185078426749406e-23
-0.48051452474999934	-9.35407681217108e-23
-0.48045348959374934	-9.522337559480958e-23
-0.48039245443749934	-9.689869378816796e-23
-0.48033141928124934	-9.856659983914712e-23
-0.48027038412499934	-1.0022671766063917e-22
-0.48020934896874934	-1.01878658751133e-22
-0.48014831381249934	-1.0352230625012808e-22
-0.48008727865624934	-1.0515781477740734e-22
-0.48002624349999934	-1.0678529264512385e-22
-0.47996520834374934	-1.0840451377763546e-22
-0.47990417318749934	-1.1001500988885554e-22
-0.47984313803124934	-1.116164509802563e-22
-0.47978210287499934	-1.132088803814193e-22
-0.47972106771874934	-1.1479252559104873e-22
-0.47966003256249934	-1.1636738163403331e-22
-0.47959899740624934	-1.1793305792177528e-22
-0.47953796224999934	-1.1948908302167003e-22
-0.47947692709374934	-1.210352907691143e-22
-0.47941589193749934	-1.225718315025825e-22
-0.47935485678124934	-1.2409884110473207e-22
-0.47929382162499934	-1.256161716405349e-22
-0.47923278646874934	-1.2712344702911149e-22
-0.47917175131249934	-1.2862033570555705e-22
-0.47911071615624934	-1.3010674624313568e-22
-0.47904968099999934	-1.315827773169742e-22
-0.47898864584374934	-1.3304849748746118e-22
-0.47892761068749934	-1.3450377075220583e-22
-0.47886657553124934	-1.359482815389026e-22
-0.47880554037499934	-1.3738170600798768e-22
-0.47874450521874934	-1.3880388711018832e-22
-0.47868347006249934	-1.4021489542330658e-22
-0.47862243490624934	-1.4161488447806727e-22
-0.47856139974999934	-1.4300381245264503e-22
-0.47850036459374934	-1.443812872550628e-22
-0.47843932943749934	-1.4574678108748337e-22
-0.47837829428124934	-1.4710012206755635e-22
-0.47831725912499934	-1.4844169299128689e-22
-0.47825622396874934	-1.4977193577988332e-22
-0.47819518881249934	-1.510906370545574e-22
-0.47813415365624934	-1.5239690141645878e-22
-0.47807311849999934	-1.5369002210302919e-22
-0.47801208334374934	-1.549703084756746e-22
-0.47795104818749934	-1.5623872960670748e-22
-0.47789001303124934	-1.5749560201504077e-22
-0.47782897787499934	-1.5873992990115085e-22
-0.47776794271874934	-1.5997038365961577e-22
-0.47770690756249934	-1.6118685822883142e-22
-0.47764587240624934	-1.6239064159538448e-22
-0.47758483724999934	-1.6358277098760304e-22
-0.47752380209374934	-1.6476250134044751e-22
-0.47746276693749934	-1.6592792959104262e-22
-0.47740173178124934	-1.6707822142658808e-22
-0.47734069662499934	-1.682146981280984e-22
-0.47727966146874934	-1.6933921449808136e-22
-0.47721862631249934	-1.7045166833149086e-22
-0.47715759115624934	-1.7154982627536546e-22
-0.47709655599999934	-1.72631909616536e-22
-0.47703552084374934	-1.7369881135013174e-22
-0.47697448568749934	-1.7475301933294043e-22
-0.47691345053124934	-1.7579538304400718e-22
-0.47685241537499934	-1.768237870859129e-22
-0.47679138021874934	-1.7783559660519518e-22
-0.47673034506249934	-1.7883093256372702e-22
-0.47666930990624934	-1.7981257480398493e-22
-0.47660827474999934	-1.8078240849724495e-22
-0.47654723959374934	-1.8173879960309338e-22
-0.47648620443749934	-1.826783766736721e-22
-0.47642516928124934	-1.8360020105409088e-22
-0.47636413412499934	-1.845070433404388e-22
-0.47630309896874934	-1.8540191271674179e-22
-0.47624206381249934	-1.8628405945019873e-22
-0.47618102865624934	-1.8714961557806157e-22
-0.47611999349999934	-1.8799633459185213e-22
-0.47605895834374934	-1.8882651450621916e-22
-0.47599792318749934	-1.8964417726381507e-22
-0.47593688803124934	-1.9044983344424694e-22
-0.47587585287499934	-1.9123950953070287e-22
-0.47581481771874934	-1.9200956058673574e-22
-0.47575378256249934	-1.9276134979350732e-22
-0.47569274740624934	-1.934996936755366e-22
-0.47563171224999934	-1.9422671147751194e-22
-0.47557067709374934	-1.9493879396403256e-22
-0.47550964193749934	-1.9563084313751144e-22
-0.47544860678124934	-1.9630274728597513e-22
-0.47538757162499934	-1.9695980911372422e-22
-0.47532653646874934	-1.97606143071261e-22
-0.47526550131249934	-1.982391382484451e-22
-0.47520446615624934	-1.9885227456481081e-22
-0.47514343099999934	-1.994432337241617e-22
-0.47508239584374934	-2.000171578399896e-22
-0.47502136068749934	-2.0058048726300217e-22
-0.47496032553124934	-2.011326661369469e-22
-0.47489929037499934	-2.0166627052937745e-22
-0.47483825521874934	-2.0217600071688835e-22
-0.47477722006249934	-2.026655920604938e-22
-0.47471618490624934	-2.031436192256393e-22
-0.47465514974999934	-2.0361280933521741e-22
-0.47459411459374934	-2.0406609584401534e-22
-0.47453307943749934	-2.0449490873512517e-22
-0.47447204428124934	-2.0489994012668118e-22
-0.47441100912499934	-2.052908140551636e-22
-0.47434997396874934	-2.056743652966737e-22
-0.47428893881249934	-2.0604575183574995e-22
-0.47422790365624934	-2.0639388119748847e-22
-0.47416686849999934	-2.0671507325397018e-22
-0.47410583334374934	-2.070180613967352e-22
-0.47404479818749934	-2.073135252062192e-22
-0.47398376303124934	-2.0760063999290472e-22
-0.47392272787499934	-2.0786755047759684e-22
-0.47386169271874934	-2.081058334792789e-22
-0.47380065756249934	-2.0832125990296206e-22
-0.47373962240624934	-2.0852704201382783e-22
-0.47367858724999934	-2.0872737060940887e-22
-0.47361755209374934	-2.08911721798545e-22
-0.47355651693749934	-2.090676045188998e-22
-0.47349548178124934	-2.0919631072439471e-22
-0.47343444662499934	-2.0931177542670966e-22
-0.47337341146874934	-2.0942330717968022e-22
-0.47331237631249934	-2.09523516737299e-22
-0.47325134115624934	-2.0959705150803423e-22
-0.47319030599999934	-2.0963986705040194e-22
-0.47312927084374934	-2.0966487933830277e-22
-0.47306823568749934	-2.0968617345677158e-22
-0.47300720053124934	-2.0970097852106673e-22
-0.47294616537499934	-2.0969237059837887e-22
-0.47288513021874934	-2.0965026888101232e-22
-0.47282409506249934	-2.0958477054404333e-22
-0.47276305990624934	-2.095143378089711e-22
-0.47270202474999934	-2.0944256630451814e-22
-0.47264098959374934	-2.0935261593932203e-22
-0.47257995443749934	-2.0922750998231085e-22
-0.47251891928124934	-2.0907195078274588e-22
-0.47245788412499934	-2.089078379741945e-22
-0.47239684896874934	-2.0874745810448422e-22
