Time	Frequency
-0.5000269137187558	-0.6645516822200737
-0.49996587856250585	-0.6644506285312172
-0.49990484340625585	-0.6642710550845666
-0.49984380825000585	-0.6640013367693776
-0.49978277309375585	-0.6636316511388392
-0.49972173793750585	-0.663155842033059
-0.49966070278125585	-0.6625726543255929
-0.49959966762500585	-0.6618860936395241
-0.49953863246875585	-0.6611048209647941
-0.49947759731250585	-0.6602406716466482
-0.49941656215625585	-0.6593065556197346
-0.49935552700000585	-0.6583141078611521
-0.49929449184375585	-0.6572715093321133
-0.49923345668750585	-0.6561818912110126
-0.49917242153125585	-0.6550426456797183
-0.49911138637500585	-0.6538457924782949
-0.49905035121875585	-0.6525793494220905
-0.49898931606250585	-0.6512294873931254
-0.49892828090625585	-0.6497830964001292
-0.49886724575000585	-0.6482302771353725
-0.49880621059375585	-0.6465662891654136
-0.49874517543750585	-0.6447925965423064
-0.49868414028125585	-0.6429167914965327
-0.49862310512500585	-0.640951366662994
-0.49856206996875585	-0.6389115376894728
-0.49850103481250585	-0.6368125084202396
-0.49843999965625585	-0.6346666658295136
-0.49837896450000585	-0.6324812241662588
-0.49831792934375585	-0.6302567851695747
-0.49825689418750585	-0.6279871034368857
-0.49819585903125585	-0.6256601246628452
-0.49813482387500585	-0.6232601475870224
-0.49807378871875585	-0.6207707369137037
-0.49801275356250585	-0.6181778407100519
-0.49795171840625585	-0.615472527033259
-0.49789068325000585	-0.6126528416789224
-0.49782964809375585	-0.6097244218731894
-0.49776861293750585	-0.6066996980733118
-0.49770757778125585	-0.6035957944212443
-0.49764654262500585	-0.6004314929328566
-0.49758550746875585	-0.5972238076947028
-0.49752447231250585	-0.5939848106244758
-0.49746343715625585	-0.5907193023080946
-0.49740240200000585	-0.5874237797459212
-0.49734136684375585	-0.5840869526563335
-0.49728033168750585	-0.5806917455966504
-0.49721929653125585	-0.5772184229277698
-0.49715826137500585	-0.5736483006321792
-0.49709722621875585	-0.5699673763442034
-0.49703619106250585	-0.566169169128652
-0.49697515590625585	-0.5622562111970398
-0.49691412075000585	-0.5582398848444574
-0.49685308559375585	-0.5541385916278835
-0.49679205043750585	-0.5499745616496767
-0.49673101528125585	-0.5457698635930806
-0.49666998012500585	-0.5415423353811579
-0.49660894496875585	-0.5373022084686624
-0.49654790981250585	-0.5330500776478162
-0.49648687465625585	-0.5287766214635355
-0.49642583950000585	-0.5244641768336538
-0.49636480434375585	-0.5200899336463554
-0.49630376918750585	-0.5156301923521797
-0.49624273403125585	-0.5110648972856235
-0.49618169887500585	-0.5063816002348207
-0.49612066371875585	-0.5015781094556878
-0.49605962856250585	-0.4966632874894558
-0.49599859340625585	-0.4916557830262673
-0.49593755825000585	-0.4865808827650168
-0.49587652309375585	-0.48146603437491053
-0.49581548793750585	-0.4763358482724892
-0.49575445278125585	-0.4712075112567116
-0.49569341762500585	-0.4660874754532102
-0.49563238246875585	-0.4609700698941032
-0.49557134731250585	-0.45583836905519526
-0.49551031215625585	-0.4506671977786756
-0.49544927700000585	-0.4454277348382705
-0.49538824184375585	-0.44009292097926445
-0.49532720668750585	-0.43464270456020476
-0.49526617153125585	-0.4290681260234351
-0.49520513637500585	-0.4233734155398065
-0.49514410121875585	-0.41757565786141587
-0.49508306606250585	-0.411702058014536
-0.49502203090625585	-0.4057852514919272
-0.49496099575000585	-0.3998574539077584
-0.49489996059375585	-0.39394452634664306
-0.49483892543750585	-0.38806109203517086
-0.49477789028125585	-0.3822076413549959
-0.49471685512500585	-0.37637020426061085
-0.49465581996875585	-0.37052271485301663
-0.49459478481250585	-0.3646316978935676
-0.49453374965625585	-0.35866246663892754
-0.49447271450000585	-0.3525857029843751
-0.49441167934375585	-0.34638319223579533
-0.49435064418750585	-0.3400516494817044
-0.49428960903125585	-0.33360388001985053
-0.49422857387500585	-0.327066951200816
-0.49416753871875585	-0.3204776357802478
-0.49410650356250585	-0.3138759325436731
-0.49404546840625585	-0.3072978329039219
-0.49398443325000585	-0.30076865611891557
-0.49392339809375585	-0.29429820765791687
-0.49386236293750585	-0.2878787089189978
-0.49380132778125585	-0.2814859488853412
-0.49374029262500585	-0.27508352006708
-0.49367925746875585	-0.2686294263512026
-0.49361822231250585	-0.2620839006890491
-0.49355718715625585	-0.2554170081498093
-0.49349615200000585	-0.2486145916921264
-0.49343511684375585	-0.24168140944382552
-0.49337408168750585	-0.2346408490457635
-0.49331304653125585	-0.22753120252130737
-0.49325201137500585	-0.22039907992436433
-0.49319097621875585	-0.21329111319250169
-0.49312994106250585	-0.20624547084796874
-0.49306890590625585	-0.19928474971773666
-0.49300787075000585	-0.19241158418041832
-0.49294683559375585	-0.1856078602117015
-0.49288580043750585	-0.17883775519853237
-0.49282476528125585	-0.17205410595981513
-0.49276373012500585	-0.16520702023787473
-0.49270269496875585	-0.1582531966902325
-0.49264165981250585	-0.15116421212779246
-0.49258062465625585	-0.14393222748768347
-0.49251958950000585	-0.1365720288481269
-0.49245855434375585	-0.12911893558826434
-0.49239751918750585	-0.12162286860869154
-0.49233648403125585	-0.11413960884797836
-0.49227544887500585	-0.1067208076812527
-0.49221441371875585	-0.09940457698051543
-0.49215337856250585	-0.09220841101277924
-0.49209234340625585	-0.08512574566020362
-0.49203130825000585	-0.07812682388543904
-0.49197027309375585	-0.07116384689500112
-0.49190923793750585	-0.06417959546667633
-0.49184820278125585	-0.0571179502490542
-0.49178716762500585	-0.04993435370890422
-0.49172613246875585	-0.042604315742884175
-0.49166509731250585	-0.03512840781411483
-0.49160406215625585	-0.027532757230464222
-0.49154302700000585	-0.019864846463175587
-0.49148199184375585	-0.012185310307940267
-0.49142095668750585	-0.004557195649522901
-0.49135992153125585	0.002965370025773624
-0.49129888637500585	0.01034703289000067
-0.49123785121875585	0.017577762454348896
-0.49117681606250585	0.024674862848697642
-0.49111578090625585	0.03168002649138953
-0.49105474575000585	0.03865188966494789
-0.49099371059375585	0.045655394657610565
-0.49093267543750585	0.052749874456909616
-0.49087164028125585	0.05997801880166598
-0.49081060512500585	0.06735775962842894
-0.49074956996875585	0.07487859549535349
-0.49068853481250585	0.08250304422572259
-0.49062749965625585	0.09017301234844965
-0.49056646450000585	0.09781999720371883
-0.49050542934375585	0.10537727830111124
-0.49044439418750585	0.11279188303204701
-0.49038335903125585	0.12003416543579688
-0.49032232387500585	0.12710320015803847
-0.49026128871875585	0.1340269607006735
-0.49020025356250585	0.14085727808628737
-0.49013921840625585	0.14766047552799869
-0.49007818325000585	0.1545052938000897
-0.49001714809375585	0.1614502812402836
-0.48995611293750585	0.1685329767719269
-0.48989507778125585	0.17576288061127537
-0.48983404262500585	0.18311950442149053
-0.48977300746875585	0.19055584147927396
-0.48971197231250585	0.19800661400572925
-0.48965093715625585	0.20539983461612454
-0.48958990200000585	0.21266963604379238
-0.48952886684375585	0.2197680396389752
-0.48946783168750585	0.22667348339496785
-0.48940679653125585	0.23339454858125075
-0.48934576137500585	0.2399682314802516
-0.48928472621875585	0.24645310118581945
-0.48922369106250585	0.2529185769951337
-0.48916265590625585	0.2594322445305181
-0.48910162075000585	0.2660475269303843
-0.48904058559375585	0.2727939540752575
-0.48897955043750585	0.27967178487810335
-0.48891851528125585	0.28665196567269885
-0.48885748012500585	0.2936813706089509
-0.48879644496875585	0.30069230069571223
-0.48873540981250585	0.30761455496818435
-0.48867437465625585	0.3143879200500914
-0.48861333950000585	0.32097278848602806
-0.48855230434375585	0.32735698610929265
-0.48849126918750585	0.33355760997560396
-0.48843023403125585	0.3396175795001825
-0.48836919887500585	0.3455975719951247
-0.48830816371875585	0.3515648342915127
-0.48824712856250585	0.35758090127134384
-0.48818609340625585	0.36369046950093115
-0.48812505825000585	0.36991343754317557
-0.48806402309375585	0.3762414812499177
-0.48800298793750585	0.38263971668781604
-0.48794195278125585	0.38905312074585896
-0.48788091762500585	0.39541650897964514
-0.48781988246875585	0.4016662183953666
-0.48775884731250585	0.40775136908798704
-0.48769781215625585	0.41364267587184356
-0.48763677700000585	0.4193372568778283
-0.48757574184375585	0.4248586549964627
-0.48751470668750585	0.4302521249842389
-0.48745367153125585	0.4355760695522125
-0.48739263637500585	0.4408912301415057
-0.48733160121875585	0.4462496324628725
-0.48727056606250585	0.45168527926261837
-0.48720953090625585	0.4572082298917155
-0.48714849575000585	0.4628030764499683
-0.48708746059375585	0.4684320180369326
-0.48702642543750585	0.47404191142914615
-0.48696539028125585	0.479573964365971
-0.48690435512500585	0.4849742634774158
-0.48684331996875585	0.4902032311183944
-0.48678228481250585	0.4952423418712439
-0.48672124965625585	0.5000969308583578
-0.48666021450000585	0.5047946640899186
-0.48659917934375585	0.5093800335919108
-0.48653814418750585	0.5139059216651753
-0.48647710903125585	0.5184238119178053
-0.48641607387500585	0.5229744661783027
-0.48635503871875585	0.5275807327591683
-0.48629400356250585	0.53224371846531
-0.48623296840625585	0.536942937210256
-0.48617193325000585	0.5416403368185674
-0.48611089809375585	0.5462874234883458
-0.48604986293750585	0.5508341291552519
-0.48598882778125585	0.5552377562902672
-0.48592779262500585	0.559470390862943
-0.48586675746875585	0.5635235025397809
-0.48580572231250585	0.5674089495414325
-0.48574468715625585	0.571156274859565
-0.48568365200000585	0.5748068800458117
-0.48562261684375585	0.578406198053837
-0.48556158168750585	0.5819953253139138
-0.48550054653125585	0.5856036344374724
-0.48543951137500585	0.5892436620350889
-0.48537847621875585	0.5929091543480248
-0.48531744106250585	0.5965765677173136
-0.48525640590625585	0.6002096664341229
-0.48519537075000585	0.6037663028095602
-0.48513433559375585	0.6072060948606153
-0.48507330043750585	0.6104976014276893
-0.48501226528125585	0.6136237144536315
-0.48495123012500585	0.6165843234809065
-0.48489019496875585	0.6193958360613054
-0.48482915981250585	0.6220877271103131
-0.48476812465625585	0.6246968094635231
-0.48470708950000585	0.6272603093120367
-0.48464605434375585	0.6298090369436278
-0.48458501918750585	0.6323618994003132
-0.48452398403125585	0.6349227157282151
-0.48446294887500585	0.6374798504564823
-0.48440191371875585	0.6400086628386488
-0.48434087856250585	0.6424762600044038
-0.48427984340625585	0.6448476316171525
-0.48421880825000585	0.647092013252392
-0.48415777309375585	0.6491883151664749
-0.48409673793750585	0.6511286538155255
-0.48403570278125585	0.652919392350484
-0.48397466762500585	0.6545795623920517
-0.48391363246875585	0.656137019967355
-0.48385259731250585	0.6576230960184127
-0.48379156215625585	0.6590667560914314
-0.48373052700000585	0.6604893445050274
-0.48366949184375585	0.6619008544493987
-0.48360845668750585	0.663298366882679
-0.48354742153125585	0.6646668900436485
-0.48348638637500585	0.6659823828499031
-0.48342535121875585	0.6672163534732141
-0.48336431606250585	0.6683411540039956
-0.48330328090625585	0.6693349835950382
-0.48324224575000585	0.6701856922478151
-0.48318121059375585	0.6708927221303912
-0.48312017543750585	0.6714668785373598
-0.48305914028125585	0.6719280275629168
-0.48299810512500585	0.6723011964240295
-0.48293706996875585	0.6726118325139562
-0.48287603481250585	0.6728811116222174
-0.48281499965625585	0.6731221544149547
-0.48275396450000585	0.6733378219396248
-0.48269292934375585	0.6735204528930334
-0.48263189418750585	0.6736535407759402
-0.48257085903125585	0.673714997130331
-0.48250982387500585	0.6736813605050308
-0.48244878871875585	0.6735321467462337
-0.48238775356250585	0.6732535368471598
-0.48232671840625585	0.6728407433744044
-0.48226568325000585	0.6722986528422804
-0.48220464809375585	0.6716406739255467
-0.48214361293750585	0.6708860488204967
-0.48208257778125585	0.6700561544095162
-0.48202154262500585	0.6691705057681532
-0.48196050746875585	0.6682432141677286
-0.48189947231250585	0.6672805397142217
-0.48183843715625585	0.6662799597419393
-0.48177740200000585	0.66523088302828
-0.48171636684375585	0.6641168405596777
-0.48165533168750585	0.6629187130610222
-0.48159429653125585	0.6616183635965631
-0.48153326137500585	0.6602019957348836
-0.48147222621875585	0.6586626304371459
-0.48141119106250585	0.6570012604683506
-0.48135015590625585	0.6552264914625395
-0.48128912075000585	0.6533527699646309
-0.48122808559375585	0.6513975743728799
-0.48116705043750585	0.6493781267312523
-0.48110601528125585	0.6473082372038071
-0.48104498012500585	0.645195853879241
-0.48098394496875585	0.6430417646665127
-0.48092290981250585	0.6408396755505893
-0.48086187465625585	0.6385776102465747
-0.48080083950000585	0.6362403304596295
-0.48073980434375585	0.6338123147275816
-0.48067876918750585	0.6312807319611201
-0.48061773403125585	0.6286378362509781
-0.48055669887500585	0.6258823449513486
-0.48049566371875585	0.6230195784434245
-0.48043462856250585	0.620060364105422
-0.48037359340625585	0.6170189292044556
-0.48031255825000585	0.6139102024845435
-0.48025152309375585	0.6107470563446468
-0.48019048793750585	0.6075380084346002
-0.48012945278125585	0.6042857838160678
-0.48006841762500585	0.600986987584542
-0.48000738246875585	0.5976329483030881
-0.47994634731250585	0.5942115468710727
-0.47988531215625585	0.5907096562670808
-0.47982427700000585	0.5871157265587413
-0.47976324184375585	0.5834220213929844
-0.47970220668750585	0.5796260848943446
-0.47964117153125585	0.5757311810802249
-0.47958013637500585	0.5717456454329426
-0.47951910121875585	0.5676812823695024
-0.47945806606250585	0.5635511319968491
-0.47939703090625585	0.5593670640799481
-0.47933599575000585	0.5551376517295562
-0.47927496059375585	0.5508666955023588
-0.47921392543750585	0.5465526678617579
-0.47915289028125585	0.5421891818301445
-0.47909185512500585	0.5377663782831935
-0.47903081996875585	0.5332729605527615
-0.47896978481250585	0.5286984827966905
-0.47890874965625585	0.524035429797665
-0.47884771450000585	0.5192807018812606
-0.47878667934375585	0.5144362598769415
-0.47872564418750585	0.5095087995284574
-0.47866460903125585	0.504508510864614
-0.47860357387500585	0.4994471950764922
-0.47854253871875585	0.49433611053446297
-0.47848150356250585	0.48918393489600587
-0.47842046840625585	0.4839952367738187
-0.47835943325000585	0.4787697749124639
-0.47829839809375585	0.4735027306601522
-0.47823736293750585	0.4681857792615108
-0.47817632778125585	0.4628088062340188
-0.47811529262500585	0.4573619750394089
-0.47805425746875585	0.4518377464998084
-0.47799322231250585	0.44623243409796304
-0.47793218715625585	0.4405469937070711
-0.47787115200000585	0.4347869343872389
-0.47781011684375585	0.42896138474822754
-0.47774908168750585	0.42308146059770374
-0.47768804653125585	0.4171582493766634
-0.47762701137500585	0.41120084412073765
-0.47756597621875585	0.405214775488762
-0.47750494106250585	0.399201088324341
-0.47744390590625585	0.39315626904508827
-0.47738287075000585	0.3870730736931695
-0.47732183559375585	0.3809420776514809
-0.47726080043750585	0.3747536147489015
-0.47719976528125585	0.3684997326409246
-0.47713873012500585	0.3621758267161245
-0.47707769496875585	0.35578164887703234
-0.47701665981250585	0.3493214842962618
-0.47695562465625585	0.34280348605051686
-0.47689458950000585	0.3362383021652976
-0.47683355434375585	0.32963722573489
-0.47677251918750585	0.3230102149199381
-0.47671148403125585	0.3163641649662877
-0.47665044887500585	0.3097017508190121
-0.47658941371875585	0.3030210591879293
-0.47652837856250585	0.2963160877073341
-0.47646734340625585	0.2895780190201599
-0.47640630825000585	0.28279703404606493
-0.47634527309375585	0.2759643113467153
-0.47628423793750585	0.26907380898844224
-0.47622320278125585	0.26212353424706447
-0.47616216762500585	0.2551161128406425
-0.47610113246875585	0.2480584882513754
-0.47604009731250585	0.24096076403322925
-0.47597906215625585	0.23383447405705302
-0.47591802700000585	0.2266906244584178
-0.47585699184375585	0.21953780700058967
-0.47579595668750585	0.21238074051036906
-0.47573492153125585	0.205219559976876
-0.47567388637500585	0.19804994663906383
-0.47561285121875585	0.1908640587162374
-0.47555181606250585	0.18365213206658182
-0.47549078090625585	0.17640444932640947
-0.47542974575000585	0.16911331684550251
-0.47536871059375585	0.1617746765073021
-0.47530767543750585	0.15438900219489773
-0.47524664028125585	0.14696134180963225
-0.47518560512500585	0.13950055715115567
-0.47512456996875585	0.13201788083820332
-0.47506353481250585	0.12452503713709594
-0.47500249965625585	0.11703228653689304
-0.47494146450000585	0.10954671882239414
-0.47488042934375585	0.10207108086270703
-0.47481939418750585	0.09460340921874846
-0.47475835903125585	0.08713757395627934
-0.47469732387500585	0.07966458764692375
-0.47463628871875585	0.07217440244165352
-0.47457525356250585	0.06465789376646984
-0.47451421840625585	0.05710868711667045
-0.47445318325000585	0.049524485163544636
-0.47439214809375585	0.04190766264070562
-0.47433111293750585	0.034265020494945675
-0.47427007778125585	0.026606713149450758
-0.47420904262500585	0.018944551331009224
-0.47414800746875585	0.011290030192967399
-0.47408697231250585	0.0036524334872034226
-0.47402593715625585	-0.003962675365278685
-0.47396490200000585	-0.011554307536952843
-0.47390386684375585	-0.019126072191119527
-0.47384283168750585	-0.026685332006861136
-0.47378179653125585	-0.03424166653240665
-0.47372076137500585	-0.04180497751338689
-0.47365972621875585	-0.049383558596544516
-0.47359869106250585	-0.056982434671624546
-0.47353765590625585	-0.0646022790706056
-0.47347662075000585	-0.07223912630759396
-0.47341558559375585	-0.07988494032265936
-0.47335455043750585	-0.08752891339276801
-0.47329351528125585	-0.09515925160158845
-0.47323248012500585	-0.10276514011503286
-0.47317144496875585	-0.11033850962655788
-0.47311040981250585	-0.11787528108555048
-0.47304937465625585	-0.12537591348047594
-0.47298833950000585	-0.13284515778610761
-0.47292730434375585	-0.14029102487567816
-0.47286626918750585	-0.14772315961900803
-0.47280523403125585	-0.15515093939362104
-0.47274419887500585	-0.16258163313600357
-0.47268316371875585	-0.1700189398094209
-0.47262212856250585	-0.1774621829674138
-0.47256109340625585	-0.18490630850063072
-0.47250005825000585	-0.19234265055606134
-0.47243902309375585	-0.19976031410015668
-0.47237798793750585	-0.20714795682787712
-0.47231695278125585	-0.21449566259403827
-0.47225591762500585	-0.22179655751153046
-0.47219488246875585	-0.22904786699791554
-0.47213384731250585	-0.23625121496584217
-0.47207281215625585	-0.24341212647021632
-0.47201177700000585	-0.25053885134804105
-0.47195074184375585	-0.2576407325973043
-0.47188970668750585	-0.26472638789903397
-0.47182867153125585	-0.27180200887247596
-0.47176763637500585	-0.2788701098830671
-0.47170660121875585	-0.28592895074144864
-0.47164556606250585	-0.2929727201012227
-0.47158453090625585	-0.29999246571652566
-0.47152349575000585	-0.3069775762548008
-0.47146246059375585	-0.31391750551156716
-0.47140142543750585	-0.3208034662733017
-0.47134039028125585	-0.3276298263879095
-0.47127935512500585	-0.334394941281704
-0.47121831996875585	-0.3411012688714621
-0.47115728481250585	-0.34775475541775663
-0.47109624965625585	-0.35436360316761684
-0.47103521450000585	-0.3609366425167271
-0.47097417934375585	-0.3674816069535657
-0.47091314418750585	-0.374003623381967
-0.47085210903125585	-0.3805041751073414
-0.47079107387500585	-0.3869807198167277
-0.47073003871875585	-0.39342704010812346
-0.47066900356250585	-0.399834250065993
-0.47060796840625585	-0.40619226227190103
-0.47054693325000585	-0.4124914395681661
-0.47048589809375585	-0.41872413491548377
-0.47042486293750585	-0.42488588265457605
-0.47036382778125585	-0.4309760341342722
-0.47030279262500585	-0.43699769568695607
-0.47024175746875585	-0.4429569998880639
-0.47018072231250585	-0.4488618595240768
