Time	Frequency
-0.5000267009062469	-0.6484585221589049
-0.4999656657499969	-0.6463377729976179
-0.4999046305937469	-0.6441380999293749
-0.4998435954374969	-0.6418655463893583
-0.4997825602812469	-0.6395253464887743
-0.4997215251249969	-0.6371203998950581
-0.4996604899687469	-0.6346503615382124
-0.4995994548124969	-0.6321116522643523
-0.4995384196562469	-0.6294984482446676
-0.4994773844999969	-0.6268044031276737
-0.4994163493437469	-0.6240246187077154
-0.4993553141874969	-0.6211572817200754
-0.4992942790312469	-0.6182044648265306
-0.4992332438749969	-0.6151718023635773
-0.4991722087187469	-0.612067068670763
-0.4991111735624969	-0.6088980399016795
-0.4990501384062469	-0.6056702459553599
-0.4989891032499969	-0.6023852793786516
-0.4989280680937469	-0.599040218756738
-0.4988670329374969	-0.5956284079003672
-0.4988059977812469	-0.592141408930771
-0.4987449626249969	-0.5885715858580481
-0.4986839274687469	-0.584914575396049
-0.4986228923124969	-0.5811709003778743
-0.4985618571562469	-0.5773461839707658
-0.4985008219999969	-0.5734498197852572
-0.4984397868437469	-0.5694924334272335
-0.4983787516874969	-0.5654828466054205
-0.4983177165312469	-0.5614254403502661
-0.4982566813749969	-0.5573187516328862
-0.4981956462187469	-0.5531557861230202
-0.4981346110624969	-0.5489260206266185
-0.4980735759062469	-0.544618573636912
-0.4980125407499969	-0.5402256445657152
-0.4979515055937469	-0.5357451824172456
-0.4978904704374969	-0.5311819308669194
-0.4978294352812469	-0.5265464617564404
-0.4977684001249969	-0.5218524004834093
-0.4977073649687469	-0.5171125888441548
-0.4976463298124969	-0.5123352968630969
-0.4975852946562469	-0.5075216667088288
-0.4975242594999969	-0.5026652308526673
-0.4974632243437469	-0.49775370161258775
-0.4974021891874969	-0.4927725838275254
-0.4973411540312469	-0.48770964376335785
-0.4972801188749969	-0.48255890998367185
-0.4972190837187469	-0.47732293491182587
-0.4971580485624969	-0.47201258007179886
-0.4970970134062469	-0.46664429186525
-0.4970359782499969	-0.4612355573381998
-0.4969749430937469	-0.4557998420595855
-0.4969139079374969	-0.4503425207250629
-0.4968528727812469	-0.44485907715109047
-0.4967918376249969	-0.4393362293417319
-0.4967308024687469	-0.43375575022728957
-0.4966697673124969	-0.4280999456421946
-0.4966087321562469	-0.4223572350037554
-0.4965476969999969	-0.41652614794828313
-0.4964866618437469	-0.41061642304137275
-0.4964256266874969	-0.4046467465228123
-0.4963645915312469	-0.39863969878700717
-0.4963035563749969	-0.39261532630608253
-0.4962425212187469	-0.38658520296604176
-0.4961814860624969	-0.3805487716977966
-0.4961204509062469	-0.37449317499391815
-0.4960594157499969	-0.36839680531931596
-0.4959983805937469	-0.36223566355011716
-0.4959373454374969	-0.3559907070517841
-0.4958763102812469	-0.3496540212118694
-0.4958152751249969	-0.34323190896879047
-0.4957542399687469	-0.336743830689912
-0.4956932048124969	-0.3302173516140466
-0.4956321696562469	-0.32368044865289575
-0.4955711344999969	-0.31715335163197655
-0.4955100993437469	-0.31064234631852644
-0.4954490641874969	-0.304137509634036
-0.4953880290312469	-0.2976152224807625
-0.4953269938749969	-0.29104489241504894
-0.4952659587187469	-0.2843980653466063
-0.4952049235624969	-0.27765728480559027
-0.4951438884062469	-0.2708220039299309
-0.4950828532499969	-0.2639096942787667
-0.4950218180937469	-0.25695165545869486
-0.4949607829374969	-0.24998451604579072
-0.4948997477812469	-0.24303974763279648
-0.4948387126249969	-0.23613427455283176
-0.4947776774687469	-0.2292650635879042
-0.4947166423124969	-0.22240945022357622
-0.4946556071562469	-0.215531321574721
-0.4945945719999969	-0.20859156323938807
-0.4945335368437469	-0.20155982328817923
-0.4944725016874969	-0.19442413302024586
-0.4944114665312469	-0.18719543972549987
-0.4943504313749969	-0.17990551700914104
-0.4942893962187469	-0.17259863785126958
-0.4942283610624969	-0.1653192246627966
-0.4941673259062469	-0.15809895258848192
-0.4941062907499969	-0.15094712002944033
-0.4940452555937469	-0.143847287724467
-0.4939842204374969	-0.1367614132314814
-0.4939231852812469	-0.12964051704696652
-0.4938621501249969	-0.12243896423394689
-0.4938011149687469	-0.11512828355160644
-0.4937400798124969	-0.10770643339400651
-0.4936790446562469	-0.10019961724747409
-0.4936180094999969	-0.0926558403657925
-0.4935569743437469	-0.08513182990038064
-0.4934959391874969	-0.07767696409984075
-0.4934349040312469	-0.07031881442295086
-0.4933738688749969	-0.06305459209623557
-0.4933128337187469	-0.05585123861704438
-0.4932517985624969	-0.048654402425426735
-0.4931907634062469	-0.041403904190080144
-0.4931297282499969	-0.03405135303250404
-0.4930686930937469	-0.026574844602850197
-0.4930076579374969	-0.018986372313082953
-0.4929466227812469	-0.011329573868234985
-0.4928855876249969	-0.0036681751035451725
-0.4928245524687469	0.003931749004673549
-0.4927635173124969	0.011420621383292869
-0.4927024821562469	0.01877984679799791
-0.4926414469999969	0.026027675149505415
-0.4925804118437469	0.03321453361200724
-0.4925193766874969	0.040408913803965156
-0.4924583415312469	0.047677705063859016
-0.4923973063749969	0.05506658662883273
-0.4923362712187469	0.0625862097076008
-0.4922752360624969	0.07020826353243705
-0.4922142009062469	0.07787269563650502
-0.4921531657499969	0.0855042069080777
-0.4920921305937469	0.09303341042032132
-0.4920310954374969	0.10041657546210718
-0.4919700602812469	0.10764823187194507
-0.4919090251249969	0.1147629318552645
-0.4918479899687469	0.12182551592606204
-0.4917869548124969	0.12891255277686234
-0.4917259196562469	0.13609027328110135
-0.4916648844999969	0.14339534012369082
-0.4916038493437469	0.1508239582729064
-0.4915428141874969	0.1583325082090143
-0.4914817790312469	0.16584960909564017
-0.4914207438749969	0.17329618776445185
-0.4913597087187469	0.18060778088870286
-0.4912986735624969	0.1877526342836314
-0.4912376384062469	0.1947404120972796
-0.4911766032499969	0.2016190641585094
-0.4911155680937469	0.2084607848074273
-0.4910545329374969	0.21534112843239037
-0.4909934977812469	0.2223172913499548
-0.4909324626249969	0.22941177054138795
-0.4908714274687469	0.23660603978760325
-0.4908103923124969	0.24384597295657914
-0.4907493571562469	0.2510573602490261
-0.4906883219999969	0.25816696574569653
-0.4906272868437469	0.2651230190069257
-0.4905662516874969	0.2719093113115896
-0.4905052165312469	0.2785489993123957
-0.4904441813749969	0.2850971720664566
-0.4903831462187469	0.291624452337653
-0.4903221110624969	0.298196477753658
-0.4902610759062469	0.3048551963963608
-0.4902000407499969	0.31160724922162875
-0.4901390055937469	0.3184226092380327
-0.4900779704374969	0.3252436733363953
-0.4900169352812469	0.3320019797914674
-0.4899559001249969	0.33863761316515234
-0.4898948649687469	0.3451157330549409
-0.4898338298124969	0.3514355750449464
-0.4897727946562469	0.35762952528971903
-0.4897117594999969	0.3637528155098417
-0.4896507243437469	0.3698670247826087
-0.4895896891874969	0.37602222799250584
-0.4895286540312469	0.38224292210436706
-0.4894676188749969	0.38852163649848426
-0.4894065837187469	0.39482180914338677
-0.4893455485624969	0.40108885384251075
-0.4892845134062469	0.4072660311876589
-0.4892234782499969	0.4133104241033173
-0.4891624430937469	0.4192044580347367
-0.4891014079374969	0.4249598442179947
-0.4890403727812469	0.43061305653325427
-0.4889793376249969	0.4362138909861943
-0.4889183024687469	0.44181061516205505
-0.4888572673124969	0.4474360738037089
-0.4887962321562469	0.4530986676070092
-0.4887351969999969	0.4587806224958297
-0.4886741618437469	0.46444381913726884
-0.4886131266874969	0.4700412403070095
-0.4885520915312469	0.47553054938230305
-0.4884910563749969	0.4808858404056581
-0.4884300212187469	0.48610424730545804
-0.4883689860624969	0.49120570173442624
-0.4883079509062469	0.4962261770845193
-0.4882469157499969	0.50120658749017
-0.4881858805937469	0.5061806651741164
-0.4881248454374969	0.5111653447676057
-0.4880638102812469	0.5161563487678255
-0.4880027751249969	0.5211300560178509
-0.4879417399687469	0.526050873372565
-0.4878807048124969	0.530881786906044
-0.4878196696562469	0.5355949417150679
-0.4877586344999969	0.5401791792953674
-0.4876975993437469	0.5446424532392299
-0.4876365641874969	0.5490086228929448
-0.4875755290312469	0.5533097681110185
-0.4875144938749969	0.5575764099790106
-0.4874534587187469	0.5618285426171343
-0.4873924235624969	0.5660700603903649
-0.4873313884062469	0.5702880848374752
-0.4872703532499969	0.5744572012968953
-0.4872093180937469	0.5785471927601141
-0.4871482829374969	0.5825318932655776
-0.4870872477812469	0.5863965313667098
-0.4870262126249969	0.5901414723073025
-0.4869651774687469	0.5937814029715239
-0.4869041423124969	0.5973403635232977
-0.4868431071562469	0.600844225042724
-0.4867820719999969	0.6043129055648098
-0.4867210368437469	0.6077546076068526
-0.4866600016874969	0.6111636938667963
-0.4865989665312469	0.6145227097997383
-0.4865379313749969	0.6178078199372723
-0.4864768962187469	0.6209959337366346
-0.4864158610624969	0.6240713643167286
-0.4863548259062469	0.6270300832033386
-0.4862937907499969	0.6298804014597821
-0.4862327555937469	0.6326399907802277
-0.4861717204374969	0.6353302388876734
-0.4861106852812469	0.6379696897295765
-0.4860496501249969	0.6405685383959061
-0.4859886149687469	0.6431257750289999
-0.4859275798124969	0.6456297380728517
-0.4858665446562469	0.6480618110827542
-0.4858055094999969	0.6504020738783678
-0.4857444743437469	0.6526351742627317
-0.4856834391874969	0.654754671013422
-0.4856224040312469	0.6567646032491774
-0.4855613688749969	0.6586779031288482
-0.4855003337187469	0.660512211692367
-0.4854392985624969	0.6622844102949174
-0.4853782634062469	0.6640055304877371
-0.4853172282499969	0.6656775490243851
-0.4852561930937469	0.6672929707505777
-0.4851951579374969	0.6688372485137924
-0.4851341227812469	0.6702932481524575
-0.4850730876249969	0.6716463784644967
-0.4850120524687469	0.6728888383421584
-0.4849510173124969	0.6740217340345316
-0.4848899821562469	0.6750544865452562
-0.4848289469999969	0.6760017714040989
-0.4847679118437469	0.6768789615777472
-0.4847068766874969	0.6776974665028326
-0.4846458415312469	0.6784613607125018
-0.4845848063749969	0.6791662828401404
-0.4845237712187469	0.6798008870096603
-0.4844627360624969	0.6803503580356818
-0.4844017009062469	0.6808008957169894
-0.4843406657499969	0.6811438083834178
-0.4842796305937469	0.6813780011646596
-0.4842185954374969	0.6815101477986238
-0.4841575602812469	0.6815525360119609
-0.4840965251249969	0.6815192694297838
-0.4840354899687469	0.6814219957537836
-0.4839744548124969	0.681266453542525
-0.4839134196562469	0.6810508502196486
-0.4838523844999969	0.6807665176550504
-0.4837913493437469	0.680400616608277
-0.4837303141874969	0.6799400535089668
-0.4836692790312469	0.6793754171485751
-0.4836082438749969	0.6787037594900551
-0.4835472087187469	0.677929407241809
-0.4834861735624969	0.6770625868342016
-0.4834251384062469	0.6761163072099476
-0.4833641032499969	0.6751024573762702
-0.4833030680937469	0.6740282912082362
-0.4832420329374969	0.6728943451848048
-0.4831809977812469	0.671694391295154
-0.4831199626249969	0.6704174081699543
-0.4830589274687469	0.6690509643857182
-0.4829978923124969	0.6675849939051236
-0.4829368571562469	0.6660148257465112
-0.4828758219999969	0.6643425740850907
-0.4828147868437469	0.6625764943464914
-0.4827537516874969	0.6607285126376858
-0.4826927165312469	0.6588106907507617
-0.4826316813749969	0.6568316961180447
-0.4825706462187469	0.6547943182911165
-0.4825096110624969	0.6526947567583455
-0.4824485759062469	0.6505238775987547
-0.4823875407499969	0.6482700472958244
-0.4823265055937469	0.6459226840259
-0.4822654704374969	0.643475465621606
-0.4822044352812469	0.6409282517463276
-0.4821434001249969	0.6382871616924743
-0.4820823649687469	0.635562799526801
-0.4820213298124969	0.6327671710801336
-0.4819602946562469	0.6299102156968585
-0.4818992594999969	0.6269969824013131
-0.4818382243437469	0.6240262741443069
-0.4817771891874969	0.6209911421837082
-0.4817161540312469	0.6178810781196561
-0.4816551188749969	0.6146852432524511
-0.4815940837187469	0.6113957688198229
-0.4815330485624969	0.6080101651240515
-0.4814720134062469	0.6045321400789789
-0.4814109782499969	0.6009705816549197
-0.4813499430937469	0.5973370203244445
-0.4812889079374969	0.59364234897831
-0.4812278727812469	0.5898937651007996
-0.4811668376249969	0.5860928150417346
-0.4811058024687469	0.5822351040302093
-0.4810447673124969	0.5783117555223091
-0.4809837321562469	0.5743121876061491
-0.4809226969999969	0.5702273597995186
-0.4808616618437469	0.566052522169961
-0.4808006266874969	0.5617887087421891
-0.4807395915312469	0.557442560884889
-0.4806785563749969	0.5530245049236127
-0.4806175212187469	0.5485458257228205
-0.4805564860624969	0.5440155213428024
-0.4804954509062469	0.539437855741489
-0.4804344157499969	0.5348113080471951
-0.4803733805937469	0.5301292202573447
-0.4803123454374969	0.5253819450466156
-0.4802513102812469	0.5205598394408069
-0.4801902751249969	0.5156562226112313
-0.4801292399687469	0.5106694534852593
-0.4800682048124969	0.5056035391991075
-0.4800071696562469	0.500467104948931
-0.4799461344999969	0.49527102802063677
-0.4798850993437469	0.49002543836162754
-0.4798240641874969	0.48473696916658987
-0.4797630290312469	0.4794070497047335
-0.4797019938749969	0.4740317294815032
-0.4796409587187469	0.46860306797817447
-0.4795799235624969	0.463111658743301
-0.4795188884062469	0.4575495502579591
-0.4794578532499969	0.4519127268394992
-0.4793968180937469	0.44620242562770857
-0.4793357829374969	0.4404249132944989
-0.4792747477812469	0.43458981956165166
-0.4792137126249969	0.42870752078037966
-0.4791526774687469	0.4227863310750005
-0.4790916423124969	0.4168303329519408
-0.4790306071562469	0.4108384603943338
-0.4789695719999969	0.4048050726592794
-0.4789085368437469	0.39872185750660544
-0.4788475016874969	0.39258049024923336
-0.4787864665312469	0.3863752420254914
-0.4787254313749969	0.380104791642874
-0.4786643962187469	0.37377275236262214
-0.4786033610624969	0.3673867919061738
-0.4785423259062469	0.36095660096455323
-0.4784812907499969	0.3544912975908136
-0.4784202555937469	0.3479970399027303
-0.4783592204374969	0.34147552934576864
-0.4782981852812469	0.334923811077652
-0.4782371501249969	0.32833542075513644
-0.4781761149687469	0.32170253024602696
-0.4781150798124969	0.3150184496471439
-0.4780540446562469	0.30827976258100337
-0.4779930094999969	0.30148749177146905
-0.4779319743437469	0.2946469698956521
-0.4778709391874969	0.2877664680582708
-0.4778099040312469	0.28085500634489585
-0.4777488688749969	0.2739199966220948
-0.4776878337187469	0.266965383275741
-0.4776267985624969	0.25999081355898646
-0.4775657634062469	0.25299207217959196
-0.4775047282499969	0.24596260739104525
-0.4774436930937469	0.23889568231107794
-0.4773826579374969	0.23178655930840047
-0.4773216227812469	0.2246340974480145
-0.4772605876249969	0.21744128274346083
-0.4771995524687469	0.21021453424299807
-0.4771385173124969	0.20296200884779483
-0.4770774821562469	0.19569145519340508
-0.4770164469999969	0.18840827197323232
-0.4769554118437469	0.18111428187507855
-0.4768943766874969	0.17380753509551464
-0.4768333415312469	0.16648320262938518
-0.4767723063749969	0.15913527914870113
-0.4767112712187469	0.1517585934675171
-0.4766502360624969	0.14435057098277052
-0.4765892009062469	0.1369122094342098
-0.4765281657499969	0.12944795703395293
-0.4764671305937469	0.12196459254196405
-0.4764060954374969	0.11446947198845836
-0.4763450602812469	0.1069686375108592
-0.4762840251249969	0.09946535981385156
-0.4762229899687469	0.09195954276821813
-0.4761619548124969	0.08444810858143337
-0.4761009196562469	0.07692621633419938
-0.4760398844999969	0.06938898034062484
-0.4759788493437469	0.06183318778442934
-0.4759178141874969	0.054258480322318496
-0.4758567790312469	0.04666766527081728
-0.4757957438749969	0.039066080708154066
-0.4757347087187469	0.03146020697689906
-0.4756736735624969	0.023856003821062156
-0.4756126384062469	0.0162574892724684
-0.4755516032499969	0.008665896945718758
-0.4754905680937469	0.0010796320060730367
-0.4754295329374969	-0.006504914082346154
-0.4753684977812469	-0.014091940744597653
-0.4753074626249969	-0.02168468968301725
-0.4752464274687469	-0.029284254934859297
-0.4751853923124969	-0.03688906703781787
-0.4751243571562469	-0.04449513847445479
-0.4750633219999969	-0.052096992023040495
-0.4750022868437469	-0.05968904054941491
-0.4749412516874969	-0.06726699623570453
-0.4748802165312469	-0.07482884975795501
-0.4748191813749969	-0.0823751257478342
-0.4747581462187469	-0.08990836907708279
-0.4746971110624969	-0.09743204982728199
-0.4746360759062469	-0.10494922402796893
-0.4745750407499969	-0.11246135497217577
-0.4745140055937469	-0.11996763453684504
-0.4744529704374969	-0.12746498430386427
-0.4743919352812469	-0.13494874423363137
-0.4743309001249969	-0.14241384152614694
-0.4742698649687469	-0.1498560640706736
-0.4742088298124969	-0.1572730335533452
-0.4741477946562469	-0.1646645907449612
-0.4740867594999969	-0.17203250850080884
-0.4740257243437469	-0.17937963881291952
-0.4739646891874969	-0.1867087558443188
-0.4739036540312469	-0.19402143720952394
-0.4738426188749969	-0.20131732080581338
-0.4737815837187469	-0.20859396397426064
-0.4737205485624969	-0.21584734027195573
-0.4736595134062469	-0.22307282239019752
-0.4735984782499969	-0.23026633445955683
-0.4735374430937469	-0.2374253155053681
-0.4734764079374969	-0.24454920795873047
-0.4734153727812469	-0.2516393088645233
-0.4733543376249969	-0.25869806184353605
-0.4732933024687469	-0.2657280483893842
-0.4732322673124969	-0.2727309447839437
-0.4731712321562469	-0.27970672773284216
-0.4731101969999969	-0.2866534097054133
-0.4730491618437469	-0.29356740905651
-0.4729881266874969	-0.300444410460537
-0.4729270915312469	-0.307280425021768
-0.4728660563749969	-0.31407273766089067
-0.4728050212187469	-0.32082047420281984
-0.4727439860624969	-0.3275246031512593
-0.4726829509062469	-0.3341873479808416
-0.4726219157499969	-0.34081121719612717
-0.4725608805937469	-0.3473979830437242
-0.4724998454374969	-0.35394789616892497
-0.4724388102812469	-0.3604593568118183
-0.4723777751249969	-0.3669291598095228
-0.4723167399687469	-0.3733532389304001
-0.4722557048124969	-0.37972766668916663
-0.4721946696562469	-0.3860496058312584
-0.4721336344999969	-0.39231793366286477
-0.4720725993437469	-0.3985333415090002
-0.4720115641874969	-0.4046978764845425
-0.4719505290312469	-0.4108140763739254
-0.4718894938749969	-0.41688395523520194
-0.4718284587187469	-0.42290814108483465
-0.4717674235624969	-0.4288854353842139
-0.4717063884062469	-0.4348129347611662
-0.4716453532499969	-0.44068668516412907
-0.4715843180937469	-0.4465026723798383
-0.4715232829374969	-0.4522578284945426
-0.4714622477812469	-0.4579507358210527
-0.4714012126249969	-0.46358183471834113
-0.4713401774687469	-0.4691530835429955
-0.4712791423124969	-0.4746671556130942
-0.4712181071562469	-0.4801264095277371
-0.4711570719999969	-0.4855319499675808
-0.4710960368437469	-0.4908830602887539
-0.4710350016874969	-0.49617719368765717
-0.4709739665312469	-0.5014105429056467
-0.4709129313749969	-0.5065789966462921
-0.4708518962187469	-0.5116791787295295
-0.4707908610624969	-0.5167092730338688
-0.4707298259062469	-0.5216693920872864
-0.4706687907499969	-0.52656136215663
-0.4706077555937469	-0.5313879803428357
-0.4705467204374969	-0.5361519733887727
-0.4704856852812469	-0.5408549811382647
-0.4704246501249969	-0.5454968752742133
-0.4703636149687469	-0.5500756096810929
-0.4703025798124969	-0.5545876421633712
-0.4702415446562469	-0.5590288156261766
-0.4701805094999969	-0.5633954392014571
-0.4701194743437469	-0.5676852316185345
-0.4700584391874969	-0.5718978394203247
-0.4699974040312469	-0.5760347804715588
-0.4699363688749969	-0.5800988301601798
-0.4698753337187469	-0.5840930309393252
-0.4698142985624969	-0.5880196258856547
-0.4697532634062469	-0.5918792339969358
-0.4696922282499969	-0.5956705062475364
-0.4696311930937469	-0.599390370277005
-0.4695701579374969	-0.6030347960204245
-0.4695091227812469	-0.6065998514198956
-0.4694480876249969	-0.6100827326237804
