Time	Frequency
-0.5000610328125035	-9.142970710301303e-23
-0.49999999765625347	-9.286056302543429e-23
-0.49993896250000347	-9.427551637282819e-23
-0.49987792734375347	-9.56729092949305e-23
-0.49981689218750347	-9.706166714703971e-23
-0.49975585703125347	-9.845214352157865e-23
-0.49969482187500347	-9.984448270866534e-23
-0.49963378671875347	-1.0122732691103148e-22
-0.49957275156250347	-1.0258926833818887e-22
-0.49951171640625347	-1.0393143143790561e-22
-0.49945068125000347	-1.0526726573904987e-22
-0.49938964609375347	-1.0660863028601752e-22
-0.49932861093750347	-1.0795239878752383e-22
-0.49926757578125347	-1.0928243095864654e-22
-0.49920654062500347	-1.1058601817326638e-22
-0.49914550546875347	-1.118679523182906e-22
-0.49908447031250347	-1.1314666256229174e-22
-0.49902343515625347	-1.1443521462568512e-22
-0.49896240000000347	-1.157266118995007e-22
-0.49890136484375347	-1.16999609752445e-22
-0.49884032968750347	-1.1824028837581832e-22
-0.49877929453125347	-1.1945735758707401e-22
-0.49871825937500347	-1.2067440683342015e-22
-0.49865722421875347	-1.2190582622810856e-22
-0.49859618906250347	-1.2314088834292898e-22
-0.49853515390625347	-1.2435329979403345e-22
-0.49847411875000347	-1.2552765013706902e-22
-0.49841308359375347	-1.2667597671494955e-22
-0.49835204843750347	-1.2782663842086716e-22
-0.49829101328125347	-1.2899570005706045e-22
-0.49822997812500347	-1.3016971694574362e-22
-0.49816894296875347	-1.3131822179054483e-22
-0.49810790781250347	-1.3242413456025988e-22
-0.49804687265625347	-1.3350142265865053e-22
-0.49798583750000347	-1.345816167943862e-22
-0.49792480234375347	-1.3568225206965005e-22
-0.49786376718750347	-1.3678895865983996e-22
-0.49780273203125347	-1.3786948614025812e-22
-0.49774169687500347	-1.3890573044474494e-22
-0.49768066171875347	-1.3991157469650236e-22
-0.49761962656250347	-1.409187332459114e-22
-0.49755859140625347	-1.4194507083800005e-22
-0.49749755625000347	-1.4297721395440188e-22
-0.49743652109375347	-1.4398442702176325e-22
-0.49737548593750347	-1.449491978318383e-22
-0.49731445078125347	-1.4588377312180473e-22
-0.49725341562500347	-1.4681684659501002e-22
-0.49719238046875347	-1.4776474302198533e-22
-0.49713134531250347	-1.487160988304286e-22
-0.49707031015625347	-1.4964436484313944e-22
-0.49700927500000347	-1.5053440877885153e-22
-0.49694823984375347	-1.5139639861656068e-22
-0.49688720468750347	-1.52254158323262e-22
-0.49682616953125347	-1.5312100910001933e-22
-0.49676513437500347	-1.5398753283684183e-22
-0.49670409921875347	-1.5483236948797744e-22
-0.49664306406250347	-1.5564383766440807e-22
-0.49658202890625347	-1.5643044113450777e-22
-0.49652099375000347	-1.5721083528680392e-22
-0.49645995859375347	-1.5799469650889788e-22
-0.49639892343750347	-1.5877397378556682e-22
-0.49633788828125347	-1.5953225076827631e-22
-0.49627685312500347	-1.6026151182656096e-22
-0.49621581796875347	-1.6096919539443436e-22
-0.49615478281250347	-1.6166941629402248e-22
-0.49609374765625347	-1.6236836791238863e-22
-0.49603271250000347	-1.6305883135100438e-22
-0.49597167734375347	-1.6372846295204465e-22
-0.49591064218750347	-1.643724625559197e-22
-0.49584960703125347	-1.649976451676562e-22
-0.49578857187500347	-1.6561458055043326e-22
-0.49572753671875347	-1.6622663253713746e-22
-0.49566650156250347	-1.6682709738042105e-22
-0.49560546640625347	-1.6740666001792377e-22
-0.49554443125000347	-1.6796291272823172e-22
-0.49548339609375347	-1.685022497510151e-22
-0.49542236093750347	-1.6903278296988484e-22
-0.49536132578125347	-1.6955599783454916e-22
-0.49530029062500347	-1.700655939672943e-22
-0.49523925546875347	-1.7055420217903978e-22
-0.49517822031250347	-1.710207755875931e-22
-0.49511718515625347	-1.7147126266259042e-22
-0.49505615000000347	-1.7191230423446211e-22
-0.49499511484375347	-1.7234459960849154e-22
-0.49493407968750347	-1.7276247620890046e-22
-0.49487304453125347	-1.7315968957894942e-22
-0.49481200937500347	-1.7353543269480695e-22
-0.49475097421875347	-1.7389476796619853e-22
-0.49468993906250347	-1.7424345770946495e-22
-0.49462890390625347	-1.7458248915475844e-22
-0.49456786875000347	-1.7490744534407698e-22
-0.49450683359375347	-1.7521290380527266e-22
-0.49444579843750347	-1.7549739408397017e-22
-0.49438476328125347	-1.757643694239837e-22
-0.49432372812500347	-1.7601870440963718e-22
-0.49426269296875347	-1.7626228360482392e-22
-0.49420165781250347	-1.7649264218744872e-22
-0.49414062265625347	-1.7670547752352356e-22
-0.49407958750000347	-1.7689842376647342e-22
-0.49401855234375347	-1.7707276915653653e-22
-0.49395751718750347	-1.772319810896963e-22
-0.49389648203125347	-1.7737867343131692e-22
-0.49383544687500347	-1.775126359694407e-22
-0.49377441171875347	-1.7763129620938943e-22
-0.49371337656250347	-1.7773191431855643e-22
-0.49365234140625347	-1.778136573227532e-22
-0.49359130625000347	-1.7787806977440032e-22
-0.49353027109375347	-1.779277564035618e-22
-0.49346923593750347	-1.7796433750313596e-22
-0.49340820078125347	-1.7798720370019264e-22
-0.49334716562500347	-1.7799401715525636e-22
-0.49328613046875347	-1.7798260182535348e-22
-0.49322509531250347	-1.7795273309357877e-22
-0.49316406015625347	-1.7790632807526115e-22
-0.49310302500000347	-1.7784581703699226e-22
-0.49304198984375347	-1.7777205206141824e-22
-0.49298095468750347	-1.776835763201144e-22
-0.49291991953125347	-1.7757793145337598e-22
-0.49285888437500347	-1.7745386209884863e-22
-0.49279784921875347	-1.773124208625119e-22
-0.49273681406250347	-1.7715594942519202e-22
-0.49267577890625347	-1.7698588951217608e-22
-0.49261474375000347	-1.7680150075839236e-22
-0.49255370859375347	-1.766006851773717e-22
-0.49249267343750347	-1.7638205621877113e-22
-0.49243163828125347	-1.761462107656456e-22
-0.49237060312500347	-1.7589501782236805e-22
-0.49230956796875347	-1.7562972396108401e-22
-0.49224853281250347	-1.7534980867440436e-22
-0.49218749765625347	-1.750536788430957e-22
-0.49212646250000347	-1.7474037945179502e-22
-0.49206542734375347	-1.744105228863721e-22
-0.49200439218750347	-1.7406554336491593e-22
-0.49194335703125347	-1.7370615454011235e-22
-0.49188232187500347	-1.7333167447765507e-22
-0.49182128671875347	-1.7294088774372948e-22
-0.49176025156250347	-1.7253344504503492e-22
-0.49169921640625347	-1.7211025137893527e-22
-0.49163818125000347	-1.7167243976427405e-22
-0.49157714609375347	-1.712201063637185e-22
-0.49151611093750347	-1.7075223154665308e-22
-0.49145507578125347	-1.7026787824032904e-22
-0.49139404062500347	-1.6976733359704251e-22
-0.49133300546875347	-1.6925189055246045e-22
-0.49127197031250347	-1.6872245948568303e-22
-0.49121093515625347	-1.6817853515377743e-22
-0.49114990000000347	-1.6761870253102818e-22
-0.49108886484375347	-1.6704220275860723e-22
-0.49102782968750347	-1.6644989822091875e-22
-0.49096679453125347	-1.6584353279429557e-22
-0.49090575937500347	-1.652239539587588e-22
-0.49084472421875347	-1.645901561974805e-22
-0.49078368906250347	-1.639402555668939e-22
-0.49072265390625347	-1.6327347026261955e-22
-0.49066161875000347	-1.6259106701203908e-22
-0.49060058359375347	-1.6189524276115559e-22
-0.49053954843750347	-1.6118698706448416e-22
-0.49047851328125347	-1.6046506678347366e-22
-0.49041747812500347	-1.5972723901999817e-22
-0.49035644296875347	-1.5897254032271171e-22
-0.49029540781250347	-1.5820234176195564e-22
-0.49023437265625347	-1.5741907785175493e-22
-0.49017333750000347	-1.5662390352993217e-22
-0.49011230234375347	-1.5581561983495355e-22
-0.49005126718750347	-1.5499194652152972e-22
-0.48999023203125347	-1.54151851837063e-22
-0.48992919687500347	-1.5329659508998838e-22
-0.48986816171875347	-1.5242848287180205e-22
-0.48980712656250347	-1.5154864666343463e-22
-0.48974609140625347	-1.5065606650593366e-22
-0.48968505625000347	-1.4974875032689046e-22
-0.48962402109375347	-1.4882580961657725e-22
-0.48956298593750347	-1.4788833934400095e-22
-0.48950195078125347	-1.4693829998102365e-22
-0.48944091562500347	-1.459766117713708e-22
-0.48937988046875347	-1.4500238359062852e-22
-0.48931884531250347	-1.4401399050903466e-22
-0.48925781015625347	-1.4301083860830504e-22
-0.48919677500000347	-1.4199399508535752e-22
-0.48913573984375347	-1.409650887341541e-22
-0.48907470468750347	-1.3992469428455139e-22
-0.48901366953125347	-1.3887188393583605e-22
-0.48895263437500347	-1.378053449010302e-22
-0.48889159921875347	-1.3672484715763745e-22
-0.48883056406250347	-1.3563154526375328e-22
-0.48876952890625347	-1.3452684344115122e-22
-0.48870849375000347	-1.3341103503112374e-22
-0.48864745859375347	-1.3228312085667034e-22
-0.48858642343750347	-1.3114195390880592e-22
-0.48852538828125347	-1.299875063071851e-22
-0.48846435312500347	-1.2882097622184e-22
-0.48840331796875347	-1.276436658709907e-22
-0.48834228281250347	-1.2645578865781586e-22
-0.48828124765625347	-1.2525637985315893e-22
-0.48822021250000347	-1.240443637301927e-22
-0.48815917734375347	-1.2281970967338302e-22
-0.48809814218750347	-1.2158354289302605e-22
-0.48803710703125347	-1.2033711025241092e-22
-0.48797607187500347	-1.1908065560329042e-22
-0.48791503671875347	-1.1781333957483257e-22
-0.48785400156250347	-1.1653422203958175e-22
-0.48779296640625347	-1.1524327943463882e-22
-0.48773193125000347	-1.1394148559332257e-22
-0.48767089609375347	-1.1262992739078134e-22
-0.48760986093750347	-1.1130885657359449e-22
-0.48754882578125347	-1.0997759780438802e-22
-0.48748779062500347	-1.0863536074510832e-22
-0.48742675546875347	-1.0728213767097813e-22
-0.48736572031250347	-1.0591878505427125e-22
-0.48730468515625347	-1.0454623302815252e-22
-0.48724365000000347	-1.0316467836040391e-22
-0.48718261484375347	-1.0177356735310465e-22
-0.48712157968750347	-1.0037231982938536e-22
-0.48706054453125347	-9.896102381631443e-23
-0.48699950937500347	-9.754042120173064e-23
-0.48693847421875347	-9.611125046421168e-23
-0.48687743906250347	-9.467364081105747e-23
-0.48681640390625347	-9.322715282356437e-23
-0.48675536875000347	-9.177136790654156e-23
-0.48669433359375347	-9.030641205008317e-23
-0.48663329843750347	-8.883291442091298e-23
-0.48657226328125347	-8.735148211454079e-23
-0.48651122812500347	-8.586226012074177e-23
-0.48645019296875347	-8.436498109026189e-23
-0.48638915781250347	-8.28593763282811e-23
-0.48632812265625347	-8.134553867261821e-23
-0.48626708750000347	-7.982391056619076e-23
-0.48620605234375347	-7.829494474115436e-23
-0.48614501718750347	-7.675882027500059e-23
-0.48608398203125347	-7.521545577071502e-23
-0.48602294687500347	-7.366472609669746e-23
-0.48596191171875347	-7.21066909462683e-23
-0.48590087656250347	-7.054165876444519e-23
-0.48583984140625347	-6.896999973153061e-23
-0.48577880625000347	-6.739190032123892e-23
-0.48571777109375347	-6.580736337090281e-23
-0.48565673593750347	-6.421640576997072e-23
-0.48559570078125347	-6.261916191534635e-23
-0.48553466562500347	-6.101582595312379e-23
-0.48547363046875347	-5.94065726074259e-23
-0.48541259531250347	-5.779155137359968e-23
-0.48535156015625347	-5.617091801945088e-23
-0.48529052500000347	-5.454482378358122e-23
-0.48522948984375347	-5.2913386937883366e-23
-0.48516845468750347	-5.1276704669112564e-23
-0.48510741953125347	-4.96348895994036e-23
-0.48504638437500347	-4.7988105025784575e-23
-0.48498534921875347	-4.633657204784563e-23
-0.48492431406250347	-4.4680513406021606e-23
-0.48486327890625347	-4.3020067565394614e-23
-0.48480224375000347	-4.1355284629078633e-23
-0.48474120859375347	-3.968622308644336e-23
-0.48468017343750347	-3.80130286726117e-23
-0.48461913828125347	-3.633593505239325e-23
-0.48455810312500347	-3.4655195200454254e-23
-0.48449706796875347	-3.29709886655272e-23
-0.48443603281250347	-3.128339702081999e-23
-0.48437499765625347	-2.9592469863348277e-23
-0.48431396250000347	-2.7898324251107423e-23
-0.48425292734375347	-2.6201172027604375e-23
-0.48419189218750347	-2.450123135708713e-23
-0.48413085703125347	-2.2798646588860724e-23
-0.48406982187500347	-2.1093514678519868e-23
-0.48400878671875347	-1.938597179744551e-23
-0.48394775156250347	-1.7676230845243606e-23
-0.48388671640625347	-1.59644988523312e-23
-0.48382568125000347	-1.4250880291007563e-23
-0.48376464609375347	-1.25354354059961e-23
-0.48370361093750347	-1.0818315443839726e-23
-0.48364257578125347	-9.099772865786037e-24
-0.48358154062500347	-7.380053319058254e-24
-0.48352050546875347	-5.659286095490057e-24
-0.48345947031250347	-3.937470915448032e-24
-0.48339843515625347	-2.21462861143257e-24
-0.48333740000000347	-4.9097578276550835e-25
-0.48327636484375347	1.2331048032275519e-24
-0.48321532968750347	2.957295497121945e-24
-0.48315429453125347	4.681543482691079e-24
-0.48309325937500347	6.405998204295929e-24
-0.48303222421875347	8.13071025671677e-24
-0.48297118906250347	9.855372774819375e-24
-0.48291015390625347	1.1579406635118455e-23
-0.48284911875000347	1.3302387503636553e-23
-0.48278808359375347	1.502437367004371e-23
-0.48272704843750347	1.674573384098771e-23
-0.48266601328125347	1.8466631857991323e-23
-0.48260497812500347	2.0186682844595618e-23
-0.48254394296875347	2.1905128286224702e-23
-0.48248290781250347	2.3621416806171336e-23
-0.48242187265625347	2.5335645857866382e-23
-0.48236083750000347	2.7048360269671155e-23
-0.48229980234375347	2.875986147750825e-23
-0.48223876718750347	3.0469724273176374e-23
-0.48217773203125347	3.21770242676457e-23
-0.48211669687500347	3.388109680164788e-23
-0.48205566171875347	3.5582078482562976e-23
-0.48199462656250347	3.7280636598171055e-23
-0.48193359140625347	3.897713386601351e-23
-0.48187255625000347	4.0671088188123826e-23
-0.48181152109375347	4.236148990351188e-23
-0.48175048593750347	4.404767054540408e-23
-0.48168945078125347	4.572984551718263e-23
-0.48162841562500347	4.7408754623710916e-23
-0.48156738046875347	4.908475435079429e-23
-0.48150634531250347	5.075729751829532e-23
-0.48144531015625347	5.242533063456393e-23
-0.48138427500000347	5.408820801458219e-23
-0.48132323984375347	5.57461952164997e-23
-0.48126220468750347	5.740004117761419e-23
-0.48120116953125347	5.905005554926586e-23
-0.48114013437500347	6.069562685283196e-23
-0.48107909921875347	6.233568544356337e-23
-0.48101806406250347	6.396967283364362e-23
-0.48095702890625347	6.559799385083753e-23
-0.48089599375000347	6.722142634145916e-23
-0.48083495859375347	6.884012621279978e-23
-0.48077392343750347	7.045331291578043e-23
-0.48071288828125347	7.205995006226642e-23
-0.48065185312500347	7.365968803510043e-23
-0.48059081796875347	7.525308156385736e-23
-0.48052978281250347	7.684085187948772e-23
-0.48046874765625347	7.842296080333525e-23
-0.48040771250000347	7.99984700616998e-23
-0.48034667734375347	8.156637172093208e-23
-0.48028564218750347	8.312653166050985e-23
-0.48022460703125347	8.467969268649348e-23
-0.48016357187500347	8.622652103525353e-23
-0.48010253671875347	8.776675223359882e-23
-0.48004150156250347	8.92993342925657e-23
-0.47998046640625347	9.08233858924264e-23
-0.47991943125000347	9.233896427903568e-23
-0.47985839609375347	9.384685966916009e-23
-0.47979736093750347	9.534762528641212e-23
-0.47973632578125347	9.684083738591861e-23
-0.47967529062500347	9.832538817333613e-23
-0.47961425546875347	9.980051853963068e-23
-0.47955322031250347	1.0126647419049147e-22
-0.47949218515625347	1.0272409526667588e-22
-0.47943115000000347	1.0417378850029791e-22
-0.47937011484375347	1.056149675426296e-22
-0.47930907968750347	1.0704654425786533e-22
-0.47924804453125347	1.0846793499566076e-22
-0.47918700937500347	1.098795255839111e-22
-0.47912597421875347	1.1128211905538572e-22
-0.47906493906250347	1.1267593776197067e-22
-0.47900390390625347	1.1406024632136549e-22
-0.47894286875000347	1.1543402401039931e-22
-0.47888183359375347	1.1679693973866091e-22
-0.47882079843750347	1.181495492100217e-22
-0.47875976328125347	1.194925312322927e-22
-0.47869872812500347	1.2082581341955937e-22
-0.47863769296875347	1.2214852396946244e-22
-0.47857665781250347	1.2345981807279514e-22
-0.47851562265625347	1.2475967357169687e-22
-0.47845458750000347	1.2604877757911186e-22
-0.47839355234375347	1.273276403650596e-22
-0.47833251718750347	1.2859591538576267e-22
-0.47827148203125347	1.2985264861982244e-22
-0.47821044687500347	1.3109717360404765e-22
-0.47814941171875347	1.3232970067832316e-22
-0.47808837656250347	1.335509761696773e-22
-0.47802734140625347	1.3476135895491692e-22
-0.47796630625000347	1.3596029750339382e-22
-0.47790527109375347	1.3714678857744512e-22
-0.47784423593750347	1.3832034238901124e-22
-0.47778320078125347	1.3948140901876376e-22
-0.47772216562500347	1.4063077732297894e-22
-0.47766113046875347	1.4176859412575513e-22
-0.47760009531250347	1.4289408951777657e-22
-0.47753906015625347	1.440062976638567e-22
-0.47747802500000347	1.4510497664966949e-22
-0.47741698984375347	1.4619074833177222e-22
-0.47735595468750347	1.4726432563237968e-22
-0.47729491953125347	1.4832565391546288e-22
-0.47723388437500347	1.493738738718354e-22
-0.47717284921875347	1.5040813182506553e-22
-0.47711181406250347	1.5142836398997046e-22
-0.47705077890625347	1.5243523591728954e-22
-0.47698974375000347	1.534293257054433e-22
-0.47692870859375347	1.5441042893662436e-22
-0.47686767343750347	1.5537771311575155e-22
-0.47680663828125347	1.563305159180693e-22
-0.47674560312500347	1.5726891773825093e-22
-0.47668456796875347	1.581935166669214e-22
-0.47662353281250347	1.5910468738417686e-22
-0.47656249765625347	1.6000211593088862e-22
-0.47650146250000347	1.608850782270492e-22
-0.47644042734375347	1.6175313470067215e-22
-0.47637939218750347	1.6260648703641422e-22
-0.47631835703125347	1.6344563344234261e-22
-0.47625732187500347	1.6427073384583363e-22
-0.47619628671875347	1.650813855558084e-22
-0.47613525156250347	1.6587701599187864e-22
-0.47607421640625347	1.6665741968289468e-22
-0.47601318125000347	1.6742285648752722e-22
-0.47595214609375347	1.6817365185030446e-22
-0.47589111093750347	1.6890976654268168e-22
-0.47583007578125347	1.696307930413264e-22
-0.47576904062500347	1.7033635253070828e-22
-0.47570800546875347	1.7102643143635437e-22
-0.47564697031250347	1.7170129228077906e-22
-0.47558593515625347	1.7236109526669535e-22
-0.47552490000000347	1.7300566332562199e-22
-0.47546386484375347	1.73634624086507e-22
-0.47540282968750347	1.7424775005431103e-22
-0.47534179453125347	1.7484512128525554e-22
-0.47528075937500347	1.754269511916597e-22
-0.47521972421875347	1.7599329269324746e-22
-0.47515868906250347	1.7654394370795667e-22
-0.47509765390625347	1.77078627376616e-22
-0.47503661875000347	1.775972270211982e-22
-0.47497558359375347	1.7809982428796978e-22
-0.47491454843750347	1.7858653554828272e-22
-0.47485351328125347	1.7905735010449344e-22
-0.47479247812500347	1.7951212505387346e-22
-0.47473144296875347	1.7995069877511575e-22
-0.47467040781250347	1.803729812666319e-22
-0.47460937265625347	1.807789560592421e-22
-0.47454833750000347	1.8116864584163373e-22
-0.47448730234375347	1.815420911780336e-22
-0.47442626718750347	1.8189931730181632e-22
-0.47436523203125347	1.8224026387383928e-22
-0.47430419687500347	1.825647478511742e-22
-0.47424316171875347	1.828725634048589e-22
-0.47418212656250347	1.8316367299260617e-22
-0.47412109140625347	1.8343827771373028e-22
-0.47406005625000347	1.8369662783054585e-22
-0.47399902109375347	1.8393871814134455e-22
-0.47393798593750347	1.84164196966403e-22
-0.47387695078125347	1.843726486622612e-22
-0.47381591562500347	1.8456401540992954e-22
-0.47375488046875347	1.847387064163659e-22
-0.47369384531250347	1.848971994195649e-22
-0.47363281015625347	1.8503949512273577e-22
-0.47357177500000347	1.8516502256883725e-22
-0.47351073984375347	1.852731712999088e-22
-0.47344970468750347	1.8536394306255964e-22
-0.47338866953125347	1.8543800790726915e-22
-0.47332763437500347	1.8549602778027149e-22
-0.47326659921875347	1.8553791928523126e-22
-0.47320556406250347	1.8556286558104166e-22
-0.47314452890625347	1.8557013046316028e-22
-0.47308349375000347	1.8555985030369433e-22
-0.47302245859375347	1.855329450222835e-22
-0.47296142343750347	1.8549017789751193e-22
-0.47290038828125347	1.85431321454104e-22
-0.47283935312500347	1.8535534654097362e-22
-0.47277831796875347	1.8526148494078743e-22
-0.47271728281250347	1.8515006016966736e-22
-0.47265624765625347	1.8502219427728827e-22
-0.47259521250000347	1.8487865118638046e-22
-0.47253417734375347	1.8471900891649794e-22
