Time	Frequency
-0.5000038132812534	-1.6303060563171875e-22
-0.49994277812500343	-1.638757097987296e-22
-0.49988174296875343	-1.6477948102677475e-22
-0.49982070781250343	-1.657262730450129e-22
-0.49975967265625343	-1.666892413173472e-22
-0.49969863750000343	-1.6763542432428702e-22
-0.49963760234375343	-1.6853206811974321e-22
-0.49957656718750343	-1.6935297327196091e-22
-0.49951553203125343	-1.7008362463612808e-22
-0.49945449687500343	-1.7072409279811746e-22
-0.49939346171875343	-1.7128912378892008e-22
-0.49933242656250343	-1.718053779632419e-22
-0.49927139140625343	-1.723063361348946e-22
-0.49921035625000343	-1.728258465935135e-22
-0.49914932109375343	-1.7339155956443736e-22
-0.49908828593750343	-1.7401952958439724e-22
-0.49902725078125343	-1.747110406941779e-22
-0.49896621562500343	-1.7545227998566548e-22
-0.49890518046875343	-1.7621693820236652e-22
-0.49884414531250343	-1.7697124482510993e-22
-0.49878311015625343	-1.7768046398766315e-22
-0.49872207500000343	-1.7831559007556446e-22
-0.49866103984375343	-1.7885894498021217e-22
-0.49860000468750343	-1.7930759233283045e-22
-0.49853896953125343	-1.7967390399195284e-22
-0.49847793437500343	-1.7998316614916457e-22
-0.49841689921875343	-1.8026868864252914e-22
-0.49835586406250343	-1.8056536669735428e-22
-0.49829482890625343	-1.8090294633445535e-22
-0.49823379375000343	-1.8130030074224102e-22
-0.49817275859375343	-1.8176182206605088e-22
-0.49811172343750343	-1.8227661763737718e-22
-0.49805068828125343	-1.8282065713645635e-22
-0.49798965312500343	-1.8336144603318335e-22
-0.49792861796875343	-1.8386430973424574e-22
-0.49786758281250343	-1.8429906429761638e-22
-0.49780654765625343	-1.8464578169887902e-22
-0.49774551250000343	-1.848985408826626e-22
-0.49768447734375343	-1.850664541949846e-22
-0.49762344218750343	-1.8517179119773577e-22
-0.49756240703125343	-1.8524558478369125e-22
-0.49750137187500343	-1.8532158991528508e-22
-0.49744033671875343	-1.854297770987968e-22
-0.49737930156250343	-1.8559062026489392e-22
-0.49731826640625343	-1.858112716335025e-22
-0.49725723125000343	-1.8608434051979506e-22
-0.49719619609375343	-1.863894822286646e-22
-0.49713516093750343	-1.866974572504105e-22
-0.49707412578125343	-1.869758474601926e-22
-0.49701309062500343	-1.8719530649218569e-22
-0.49695205546875343	-1.8733513266917618e-22
-0.49689102031250343	-1.8738710030495628e-22
-0.49682998515625343	-1.8735683797106043e-22
-0.49676895000000343	-1.8726252633854711e-22
-0.49670791484375343	-1.8713120792682522e-22
-0.49664687968750343	-1.869934574289821e-22
-0.49658584453125343	-1.8687746673106034e-22
-0.49652480937500343	-1.868036942008778e-22
-0.49646377421875343	-1.8678109616942222e-22
-0.49640273906250343	-1.8680563411141359e-22
-0.49634170390625343	-1.868613034118638e-22
-0.49628066875000343	-1.869234396409833e-22
-0.49621963359375343	-1.869636196849885e-22
-0.49615859843750343	-1.8695518118280527e-22
-0.49609756328125343	-1.868782867616893e-22
-0.49603652812500343	-1.8672356762874584e-22
-0.49597549296875343	-1.8649367656422756e-22
-0.49591445781250343	-1.8620250086007337e-22
-0.49585342265625343	-1.8587223951351301e-22
-0.49579238750000343	-1.8552895465907723e-22
-0.49573135234375343	-1.851974874121088e-22
-0.49567031718750343	-1.8489673147213387e-22
-0.49560928203125343	-1.846361698098706e-22
-0.49554824687500343	-1.8441431007277054e-22
-0.49548721171875343	-1.842192663048115e-22
-0.49542617656250343	-1.840313205301478e-22
-0.49536514140625343	-1.8382692388077004e-22
-0.49530410625000343	-1.8358332712864367e-22
-0.49524307109375343	-1.8328292863018212e-22
-0.49518203593750343	-1.8291650942519138e-22
-0.49512100078125343	-1.8248476309854094e-22
-0.49505996562500343	-1.8199787249138652e-22
-0.49499893046875343	-1.8147326971628208e-22
-0.49493789531250343	-1.8093206828743725e-22
-0.49487686015625343	-1.8039489710779564e-22
-0.49481582500000343	-1.798779529035242e-22
-0.49475478984375343	-1.79390027296493e-22
-0.49469375468750343	-1.7893105731237758e-22
-0.49463271953125343	-1.784924326837896e-22
-0.49457168437500343	-1.7805894766486899e-22
-0.49451064921875343	-1.7761196419347562e-22
-0.49444961406250343	-1.7713313116847403e-22
-0.49438857890625343	-1.7660792888483005e-22
-0.49432754375000343	-1.7602835736376532e-22
-0.49426650859375343	-1.7539426558220344e-22
-0.49420547343750343	-1.747131097330825e-22
-0.49414443828125343	-1.7399824527360996e-22
-0.49408340312500343	-1.7326613439545432e-22
-0.49402236796875343	-1.7253304935141143e-22
-0.49396133281250343	-1.718119305730744e-22
-0.49390029765625343	-1.7111000542240424e-22
-0.49383926250000343	-1.7042760582544993e-22
-0.49377822734375343	-1.6975837232244293e-22
-0.49371719218750343	-1.6909075641040477e-22
-0.49365615703125343	-1.6841048740621817e-22
-0.49359512187500343	-1.6770348236414993e-22
-0.49353408671875343	-1.6695860346519932e-22
-0.49347305156250343	-1.6616973263464483e-22
-0.49341201640625343	-1.6533678472978687e-22
-0.49335098125000343	-1.6446549423636858e-22
-0.49328994609375343	-1.635660647771347e-22
-0.49322891093750343	-1.6265099482436093e-22
-0.49316787578125343	-1.6173253570670764e-22
-0.49310684062500343	-1.6082029393797053e-22
-0.49304580546875343	-1.5991945476908e-22
-0.49298477031250343	-1.59029961050886e-22
-0.49292373515625343	-1.5814676527361266e-22
-0.49286270000000343	-1.5726105552064484e-22
-0.49280166484375343	-1.5636217863619932e-22
-0.49274062968750343	-1.5543985798303128e-22
-0.49267959453125343	-1.544862478907105e-22
-0.49261855937500343	-1.5349741267707017e-22
-0.49255752421875343	-1.5247395731391654e-22
-0.49249648906250343	-1.5142072036551965e-22
-0.49243545390625343	-1.5034563020798603e-22
-0.49237441875000343	-1.4925799127080688e-22
-0.49231338359375343	-1.4816656648174171e-22
-0.49225234843750343	-1.4707784284093543e-22
-0.49219131328125343	-1.4599482524009007e-22
-0.49213027812500343	-1.4491659602536065e-22
-0.49206924296875343	-1.4383870025374184e-22
-0.49200820781250343	-1.427542324467987e-22
-0.49194717265625343	-1.4165537757876672e-22
-0.49188613750000343	-1.4053507975969834e-22
-0.49182510234375343	-1.3938848475541677e-22
-0.49176406718750343	-1.382138668847752e-22
-0.49170303203125343	-1.370128730354244e-22
-0.49164199687500343	-1.3579006092889056e-22
-0.49158096171875343	-1.3455185337234774e-22
-0.49151992656250343	-1.3330513475805821e-22
-0.49145889140625343	-1.3205579302009681e-22
-0.49139785625000343	-1.308075360650438e-22
-0.49133682109375343	-1.2956121827984864e-22
-0.49127578593750343	-1.2831478232920552e-22
-0.49121475078125343	-1.2706382165227373e-22
-0.49115371562500343	-1.2580263620783333e-22
-0.49109268046875343	-1.2452552797186072e-22
-0.49103164531250343	-1.2322804982589283e-22
-0.49097061015625343	-1.2190795253895115e-22
-0.49090957500000343	-1.2056563436561488e-22
-0.49084853984375343	-1.1920400888645387e-22
-0.49078750468750343	-1.1782783668575074e-22
-0.49072646953125343	-1.1644266581829145e-22
-0.49066543437500343	-1.1505361486382578e-22
-0.49060439921875343	-1.1366427744431614e-22
-0.49054336406250343	-1.1227598277602944e-22
-0.49048232890625343	-1.1088756067371168e-22
-0.49042129375000343	-1.094956552714346e-22
-0.49036025859375343	-1.0809551065474735e-22
-0.49029922343750343	-1.0668205330441898e-22
-0.49023818828125343	-1.0525104535002464e-22
-0.49017715312500343	-1.0380006214946732e-22
-0.49011611796875343	-1.0232906421377774e-22
-0.49005508281250343	-1.0084043201856008e-22
-0.48999404765625343	-9.933846883973092e-23
-0.48993301250000343	-9.78284868319287e-23
-0.48987197734375343	-9.631567497084952e-23
-0.48981094218750343	-9.480398399169666e-23
-0.48974990703125343	-9.329526521289113e-23
-0.48968887187500343	-9.178886287356488e-23
-0.48962783671875343	-9.028175420425426e-23
-0.48956680156250343	-8.876920589998584e-23
-0.48950576640625343	-8.724580604142592e-23
-0.48944473125000343	-8.570665039036153e-23
-0.48938369609375343	-8.41484364457058e-23
-0.48932266093750343	-8.257023795154208e-23
-0.48926162578125343	-8.097378663171393e-23
-0.48920059062500343	-7.936319039701758e-23
-0.48913955546875343	-7.774413791876983e-23
-0.48907852031250343	-7.612274365497614e-23
-0.48901748515625343	-7.450427776672275e-23
-0.48895645000000343	-7.289205723592542e-23
-0.48889541484375343	-7.128672883119693e-23
-0.48883437968750343	-6.968609619126096e-23
-0.48877334453125343	-6.808553998257045e-23
-0.48871230937500343	-6.647896046499961e-23
-0.48865127421875343	-6.486005648152688e-23
-0.48859023906250343	-6.32236690151684e-23
-0.48852920390625343	-6.156690870673036e-23
-0.48846816875000343	-5.988984019094715e-23
-0.48840713359375343	-5.819557132298052e-23
-0.48834609843750343	-5.648970896738234e-23
-0.48828506328125343	-5.477928448662037e-23
-0.48822402812500343	-5.307136889128836e-23
-0.48816299296875343	-5.1371657662650925e-23
-0.48810195781250343	-4.9683301017501157e-23
-0.48804092265625343	-4.8006217017876184e-23
-0.48797988750000343	-4.633705604855276e-23
-0.48791885234375343	-4.4669848202258664e-23
-0.48785781718750343	-4.299720260728659e-23
-0.48779678203125343	-4.131181448291077e-23
-0.48773574687500343	-3.960797810993041e-23
-0.48767471171875343	-3.7882801769750545e-23
-0.48761367656250343	-3.6136880266498015e-23
-0.48755264140625343	-3.437427613618661e-23
-0.48749160625000343	-3.260179343804406e-23
-0.48743057109375343	-3.082768901982313e-23
-0.48736953593750343	-2.906007900955167e-23
-0.48730850078125343	-2.730534103111816e-23
-0.48724746562500343	-2.556682666674014e-23
-0.48718643046875343	-2.3844163211759304e-23
-0.48712539531250343	-2.2133295024038816e-23
-0.48706436015625343	-2.0427253538844674e-23
-0.48700332500000343	-1.87175203296326e-23
-0.48694228984375343	-1.6995734282681476e-23
-0.48688125468750343	-1.52553974426794e-23
-0.48682021953125343	-1.3493224384281684e-23
-0.48675918437500343	-1.1709870300556984e-23
-0.48669814921875343	-9.909894279506321e-24
-0.48663711406250343	-8.100945206868757e-24
-0.48657607890625343	-6.2923213623195096e-24
-0.48651504375000343	-4.493193912235039e-24
-0.48645400859375343	-2.710832449129497e-24
-0.48639297343750343	-9.491655375357078e-25
-0.48633193828125343	7.920243360078878e-25
-0.48627090312500343	2.5170836163327293e-24
-0.48620986796875343	4.233640844544667e-24
-0.48614883281250343	5.9511104187523826e-24
-0.48608779765625343	7.678845212006158e-24
-0.48602676250000343	9.424276011396577e-24
-0.48596572734375343	1.1191397097642743e-23
-0.48590469218750343	1.2979910937701314e-23
-0.48584365703125343	1.4785207916447502e-23
-0.48578262187500343	1.6599193257761087e-23
-0.48572158671875343	1.841180461310212e-23
-0.48566055156250343	2.0212926856834906e-23
-0.48559951640625343	2.199433720021159e-23
-0.48553848125000343	2.3751303006125946e-23
-0.48547744609375343	2.5483512208176093e-23
-0.48541641093750343	2.719514389041811e-23
-0.48535537578125343	2.8894058498691614e-23
-0.48529434062500343	3.0590260778367317e-23
-0.48523330546875343	3.229393881900464e-23
-0.48517227031250343	3.4013460301090184e-23
-0.48511123515625343	3.575370397506613e-23
-0.48505020000000343	3.751505693667652e-23
-0.48498916484375343	3.929328091042845e-23
-0.48492812968750343	4.108027049798627e-23
-0.48486709453125343	4.2865567134036586e-23
-0.48480605937500343	4.463834494033881e-23
-0.48474502421875343	4.638948219480014e-23
-0.48468398906250343	4.811331590620034e-23
-0.48462295390625343	4.9808730080279396e-23
-0.48456191875000343	5.147936087901388e-23
-0.48450088359375343	5.313288295412612e-23
-0.48443984843750343	5.477951151146311e-23
-0.48437881328125343	5.643000725791175e-23
-0.48431777812500343	5.809356935705701e-23
-0.48425674296875343	5.977601826314042e-23
-0.48419570781250343	6.147862457326904e-23
-0.48413467265625343	6.319782081033121e-23
-0.48407363750000343	6.492585634937983e-23
-0.48401260234375343	6.665226417674768e-23
-0.48395156718750343	6.83658471378261e-23
-0.48389053203125343	7.005680656584574e-23
-0.48382949687500343	7.171861052936156e-23
-0.48376846171875343	7.334923230945978e-23
-0.48370742656250343	7.495151716170007e-23
-0.48364639140625343	7.653261250305487e-23
-0.48358535625000343	7.81025661318635e-23
-0.48352432109375343	7.967235804048699e-23
-0.48346328593750343	8.125175005790516e-23
-0.48340225078125343	8.284736884192712e-23
-0.48334121562500343	8.446139534460692e-23
-0.48328018046875343	8.60911208225123e-23
-0.48321914531250343	8.772944713136573e-23
-0.48315811015625343	8.936622723375578e-23
-0.48309707500000343	9.099020013660668e-23
-0.48303603984375343	9.259114768062883e-23
-0.48297500468750343	9.416184259781482e-23
-0.48291396953125343	9.569941748522626e-23
-0.48285293437500343	9.720589250775746e-23
-0.48279189921875343	9.868775033757399e-23
-0.48273086406250343	1.0015464794632448e-22
-0.48266982890625343	1.0161751476549013e-22
-0.48260879375000343	1.0308639869799772e-22
-0.48254775859375343	1.0456848932389295e-22
-0.48248672343750343	1.0606670867850637e-22
-0.48242568828125343	1.075791347007868e-22
-0.48236465312500343	1.0909936104835428e-22
-0.48230361796875343	1.1061772169651435e-22
-0.48224258281250343	1.1212314618141176e-22
-0.48218154765625343	1.1360528520402537e-22
-0.48212051250000343	1.1505649236416035e-22
-0.48205947734375343	1.1647328130671698e-22
-0.48199844218750343	1.1785697478906937e-22
-0.48193740703125343	1.1921341277441434e-22
-0.48187637187500343	1.2055177511960403e-22
-0.48181533671875343	1.2188275598202435e-22
-0.48175430156250343	1.2321645332189314e-22
-0.48169326640625343	1.2456038229300012e-22
-0.48163223125000343	1.2591799460899696e-22
-0.48157119609375343	1.2728799083523768e-22
-0.48151016093750343	1.2866456035559337e-22
-0.48144912578125343	1.300385038522644e-22
-0.48138809062500343	1.313990143046388e-22
-0.48132705546875343	1.327357672397866e-22
-0.48126602031250343	1.340409189213207e-22
-0.48120498515625343	1.3531061953114236e-22
-0.48114395000000343	1.365457368217769e-22
-0.48108291484375343	1.3775164912696353e-22
-0.48102187968750343	1.3893715488129815e-22
-0.48096084453125343	1.4011271563878178e-22
-0.48089980937500343	1.4128837726881406e-22
-0.48083877421875343	1.4247177730946706e-22
-0.48077773906250343	1.4366662826146115e-22
-0.48071670390625343	1.4487197484305702e-22
-0.48065566875000343	1.4608237176952084e-22
-0.48059463359375343	1.4728894272045574e-22
-0.48053359843750343	1.4848111082972374e-22
-0.48047256328125343	1.4964866363160705e-22
-0.48041152812500343	1.5078374451228414e-22
-0.48035049296875343	1.518823775950795e-22
-0.48028945781250343	1.529452289162735e-22
-0.48022842265625343	1.5397745271363966e-22
-0.48016738750000343	1.5498764846330434e-22
-0.48010635234375343	1.5598613486781577e-22
-0.48004531718750343	1.5698288876218152e-22
-0.47998428203125343	1.5798555700015747e-22
-0.47992324687500343	1.5899792574371302e-22
-0.47986221171875343	1.600191507535433e-22
-0.47980117656250343	1.6104390754149382e-22
-0.47974014140625343	1.6206342991588886e-22
-0.47967910625000343	1.63067231469768e-22
-0.47961807109375343	1.6404517100097136e-22
-0.47955703593750343	1.6498945028160827e-22
-0.47949600078125343	1.6589614704009524e-22
-0.47943496562500343	1.6676597770896044e-22
-0.47937393046875343	1.6760413768217394e-22
-0.47931289531250343	1.684192526246204e-22
-0.47925186015625343	1.6922164767295672e-22
-0.47919082500000343	1.700212761623876e-22
-0.47912978984375343	1.7082572215812701e-22
-0.47906875468750343	1.7163867420034384e-22
-0.47900771953125343	1.7245917121902216e-22
-0.47894668437500343	1.7328177296630551e-22
-0.47888564921875343	1.7409762471139616e-22
-0.47882461406250343	1.7489620558120842e-22
-0.47876357890625343	1.756674122424046e-22
-0.47870254375000343	1.7640356238422842e-22
-0.47864150859375343	1.7710091900917184e-22
-0.47858047343750343	1.777604293816427e-22
-0.47851943828125343	1.7838752957175714e-22
-0.47845840312500343	1.7899105434412273e-22
-0.47839736796875343	1.7958146690358917e-22
-0.47833633281250343	1.8016875757715809e-22
-0.47827529765625343	1.8076043066785327e-22
-0.47821426250000343	1.8135998410343461e-22
-0.47815322734375343	1.819661884499568e-22
-0.47809219218750343	1.8257331038646172e-22
-0.47803115703125343	1.8317223736366874e-22
-0.47797012187500343	1.8375228309332604e-22
-0.47790908671875343	1.843033150051212e-22
-0.47784805156250343	1.8481777625053293e-22
-0.47778701640625343	1.8529219757729492e-22
-0.47772598125000343	1.8572789556328494e-22
-0.47766494609375343	1.8613071352922652e-22
-0.47760391093750343	1.865098539933458e-22
-0.47754287578125343	1.8687603408557407e-22
-0.47748184062500343	1.872393316762401e-22
-0.47742080546875343	1.8760715319759759e-22
-0.47735977031250343	1.8798273018643958e-22
-0.47729873515625343	1.883644480293037e-22
-0.47723770000000343	1.8874614593198153e-22
-0.47717666484375343	1.8911833126674134e-22
-0.47711562968750343	1.894700667746516e-22
-0.47705459453125343	1.8979115418515025e-22
-0.47699355937500343	1.9007417777869734e-22
-0.47693252421875343	1.90315998132506e-22
-0.47687148906250343	1.9051839412154115e-22
-0.47681045390625343	1.9068771975557137e-22
-0.47674941875000343	1.9083364028038467e-22
-0.47668838359375343	1.9096719836367343e-22
-0.47662734843750343	1.9109859660599797e-22
-0.47656631328125343	1.9123514051520362e-22
-0.47650527812500343	1.9137975552849247e-22
-0.47644424296875343	1.9153037789285254e-22
-0.47638320781250343	1.9168034482533423e-22
-0.47632217265625343	1.9181971017624393e-22
-0.47626113750000343	1.9193722604549616e-22
-0.47620010234375343	1.9202259472897157e-22
-0.47613906718750343	1.9206853946875516e-22
-0.47607803203125343	1.92072277356113e-22
-0.47601699687500343	1.9203609528949194e-22
-0.47595596171875343	1.9196690969864697e-22
-0.47589492656250343	1.9187489575766795e-22
-0.47583389140625343	1.917714583012219e-22
-0.47577285625000343	1.9166694827914032e-22
-0.47571182109375343	1.9156858095685348e-22
-0.47565078593750343	1.9147897464643184e-22
-0.47558975078125343	1.9139560647549543e-22
-0.47552871562500343	1.9131129767506132e-22
-0.47546768046875343	1.9121563430974155e-22
-0.47540664531250343	1.9109704204951515e-22
-0.47534561015625343	1.9094510182301695e-22
-0.47528457500000343	1.9075264457306732e-22
-0.47522353984375343	1.9051720488629663e-22
-0.47516250468750343	1.9024153976297915e-22
-0.47510146953125343	1.8993310510575809e-22
-0.47504043437500343	1.8960258674485515e-22
-0.47497939921875343	1.892617754898387e-22
-0.47491836406250343	1.8892121342994813e-22
-0.47485732890625343	1.8858808225288772e-22
-0.47479629375000343	1.8826475507884473e-22
-0.47473525859375343	1.8794830362311258e-22
-0.47467422343750343	1.8763106367432856e-22
-0.47461318828125343	1.873021512960072e-22
-0.47455215312500343	1.869496321839383e-22
-0.47449111796875343	1.8656291190328892e-22
-0.47443008281250343	1.861348656859811e-22
-0.47436904765625343	1.856632821016483e-22
-0.47430801250000343	1.8515133551884787e-22
-0.47424697734375343	1.8460698808914544e-22
-0.47418594218750343	1.8404142794298797e-22
-0.47412490703125343	1.8346685396643033e-22
-0.47406387187500343	1.8289405600220748e-22
-0.47400283671875343	1.823302654706151e-22
-0.47394180156250343	1.8177769840006742e-22
-0.47388076640625343	1.8123309421152268e-22
-0.47381973125000343	1.806883512501366e-22
-0.47375869609375343	1.80132128684827e-22
-0.47369766093750343	1.7955209873491477e-22
-0.47363662578125343	1.7893740961278867e-22
-0.47357559062500343	1.7828086800835864e-22
-0.47351455546875343	1.7758040098600267e-22
-0.47345352031250343	1.7683950667815855e-22
-0.47339248515625343	1.7606660208723944e-22
-0.47333145000000343	1.7527338737405383e-22
-0.47327041484375343	1.7447254420889805e-22
-0.47320937968750343	1.736752252306387e-22
-0.47314834453125343	1.728888357755699e-22
-0.47308730937500343	1.7211555263637733e-22
-0.47302627421875343	1.7135187547952974e-22
-0.47296523906250343	1.705893005730441e-22
-0.47290420390625343	1.6981599127848848e-22
-0.47284316875000343	1.6901912204624003e-22
-0.47278213359375343	1.6818743672097155e-22
-0.47272109843750343	1.6731351624343022e-22
-0.47266006328125343	1.6639529603146256e-22
-0.47259902812500343	1.6543652371529456e-22
-0.47253799296875343	1.6444606597328301e-22
-0.47247695781250343	1.6343619740897734e-22
-0.47241592265625343	1.6242020377679528e-22
