Time	Frequency
-0.5000610328125035	-0.31002140647693693
-0.49999999765625347	-0.3148731770840004
-0.49993896250000347	-0.3196710249690868
-0.49987792734375347	-0.32440932866531214
-0.49981689218750347	-0.3291183524192832
-0.49975585703125347	-0.3338332033683488
-0.49969482187500347	-0.3385543707738961
-0.49963378671875347	-0.3432433424237005
-0.49957275156250347	-0.3478614365876766
-0.49951171640625347	-0.3524124660624484
-0.49945068125000347	-0.3569420357393393
-0.49938964609375347	-0.36149035746786273
-0.49932861093750347	-0.3660468305663377
-0.49926757578125347	-0.370556726282031
-0.49920654062500347	-0.37497695198926595
-0.49914550546875347	-0.37932375609969915
-0.49908447031250347	-0.3836596285516902
-0.49902343515625347	-0.38802887281232995
-0.49896240000000347	-0.3924077646608788
-0.49890136484375347	-0.3967242674400799
-0.49884032968750347	-0.40093118162575553
-0.49877929453125347	-0.40505804061512
-0.49871825937500347	-0.4091848319071295
-0.49865722421875347	-0.4133603497426394
-0.49859618906250347	-0.41754821937555203
-0.49853515390625347	-0.42165928475254644
-0.49847411875000347	-0.4256412918767097
-0.49841308359375347	-0.42953505717520346
-0.49835204843750347	-0.4334367404655765
-0.49829101328125347	-0.437400814552594
-0.49822997812500347	-0.4413816909940652
-0.49816894296875347	-0.4452760607630665
-0.49810790781250347	-0.4490260085991825
-0.49804687265625347	-0.45267889541273687
-0.49798583750000347	-0.45634163606716555
-0.49792480234375347	-0.4600736888853024
-0.49786376718750347	-0.46382632842139115
-0.49780273203125347	-0.46749019938664094
-0.49774169687500347	-0.47100391420548593
-0.49768066171875347	-0.474414548008294
-0.49761962656250347	-0.47782963835394177
-0.49755859140625347	-0.4813097613238293
-0.49749755625000347	-0.48480956976433626
-0.49743652109375347	-0.4882248449703841
-0.49737548593750347	-0.4914962062482914
-0.49731445078125347	-0.4946651800428522
-0.49725341562500347	-0.49782906145158684
-0.49719238046875347	-0.50104320478417
-0.49713134531250347	-0.5042690782462944
-0.49707031015625347	-0.5074166584361877
-0.49700927500000347	-0.5104346345570634
-0.49694823984375347	-0.5133574843651039
-0.49688720468750347	-0.5162659905729498
-0.49682616953125347	-0.5192053229358216
-0.49676513437500347	-0.5221435463661177
-0.49670409921875347	-0.5250082328572714
-0.49664306406250347	-0.5277597729566472
-0.49658202890625347	-0.5304270013867352
-0.49652099375000347	-0.5330731751563661
-0.49645995859375347	-0.5357311051252577
-0.49639892343750347	-0.5383734917740086
-0.49633788828125347	-0.5409446702686921
-0.49627685312500347	-0.5434174610731441
-0.49621581796875347	-0.545817086555979
-0.49615478281250347	-0.5481914074962188
-0.49609374765625347	-0.550561424536095
-0.49603271250000347	-0.5529026597116516
-0.49597167734375347	-0.5551732579379137
-0.49591064218750347	-0.5573569427520725
-0.49584960703125347	-0.5594768225891261
-0.49578857187500347	-0.5615687375819015
-0.49572753671875347	-0.5636440938721845
-0.49566650156250347	-0.5656801602794072
-0.49560546640625347	-0.5676453511316272
-0.49554443125000347	-0.569531502286108
-0.49548339609375347	-0.5713602954395184
-0.49542236093750347	-0.5731592365048258
-0.49536132578125347	-0.5749333623701754
-0.49530029062500347	-0.5766613096076174
-0.49523925546875347	-0.5783180906454346
-0.49517822031250347	-0.5799001556976761
-0.49511718515625347	-0.5814276749363949
-0.49505615000000347	-0.5829231662024049
-0.49499511484375347	-0.5843890007119589
-0.49493407968750347	-0.5858059437985919
-0.49487304453125347	-0.5871528216521456
-0.49481200937500347	-0.5884268978024811
-0.49475097421875347	-0.5896453379546303
-0.49468993906250347	-0.590827681068884
-0.49462890390625347	-0.59197727466204
-0.49456786875000347	-0.5930791416377524
-0.49450683359375347	-0.5941148953852017
-0.49444579843750347	-0.5950795498626728
-0.49438476328125347	-0.5959848143880461
-0.49432372812500347	-0.5968472177847859
-0.49426269296875347	-0.5976731502642064
-0.49420165781250347	-0.5984542540656096
-0.49414062265625347	-0.5991759397444618
-0.49407958750000347	-0.5998301851479424
-0.49401855234375347	-0.6004213584629703
-0.49395751718750347	-0.6009612169948418
-0.49389648203125347	-0.6014586238827077
-0.49383544687500347	-0.6019128663362848
-0.49377441171875347	-0.602315221496849
-0.49371337656250347	-0.6026563990933806
-0.49365234140625347	-0.6029335746628284
-0.49359130625000347	-0.6031519854998197
-0.49353027109375347	-0.6033204637673741
-0.49346923593750347	-0.6034445035822196
-0.49340820078125347	-0.6035220386722565
-0.49334716562500347	-0.6035451418516143
-0.49328613046875347	-0.6035064345567537
-0.49322509531250347	-0.6034051551528505
-0.49316406015625347	-0.6032478042271808
-0.49310302500000347	-0.6030426223690533
-0.49304198984375347	-0.6027924988348021
-0.49298095468750347	-0.6024924937858178
-0.49291991953125347	-0.6021342713741856
-0.49285888437500347	-0.6017135748958753
-0.49279784921875347	-0.6012339735451515
-0.49273681406250347	-0.6007034075332024
-0.49267577890625347	-0.6001267654866618
-0.49261474375000347	-0.5995015369630474
-0.49255370859375347	-0.5988206080741438
-0.49249267343750347	-0.5980792772814563
-0.49243163828125347	-0.5972795685062031
-0.49237060312500347	-0.5964278192002125
-0.49230956796875347	-0.5955282562615251
-0.49224853281250347	-0.5945791147448298
-0.49218749765625347	-0.5935749926743238
-0.49212646250000347	-0.5925126517676651
-0.49206542734375347	-0.5913941685132806
-0.49200439218750347	-0.590224406082269
-0.49194335703125347	-0.5890057843402997
-0.49188232187500347	-0.5877359909729244
-0.49182128671875347	-0.5864109046664843
-0.49176025156250347	-0.5850293410313124
-0.49169921640625347	-0.5835943687478682
-0.49163818125000347	-0.582109829675724
-0.49157714609375347	-0.5805760498848883
-0.49151611093750347	-0.5789895719945213
-0.49145507578125347	-0.5773472185624028
-0.49139404062500347	-0.5756499632694243
-0.49133300546875347	-0.5739021902238438
-0.49127197031250347	-0.572106986354604
-0.49121093515625347	-0.5702626384753715
-0.49114990000000347	-0.5683643484928746
-0.49108886484375347	-0.5664095432556876
-0.49102782968750347	-0.5644011469515211
-0.49096679453125347	-0.5623450727459156
-0.49090575937500347	-0.5602441942885463
-0.49084472421875347	-0.5580951020558446
-0.49078368906250347	-0.5558914079399095
-0.49072265390625347	-0.5536304609851499
-0.49066161875000347	-0.5513165564323235
-0.49060058359375347	-0.5489571437233179
-0.49053954843750347	-0.5465555782564199
-0.49047851328125347	-0.5441076786844486
-0.49041747812500347	-0.5416058397502772
-0.49035644296875347	-0.5390467945666888
-0.49029540781250347	-0.5364351921823247
-0.49023437265625347	-0.5337792875887634
-0.49017333750000347	-0.531082996968824
-0.49011230234375347	-0.528342254863338
-0.49005126718750347	-0.5255493293777813
-0.48999023203125347	-0.5227007220278909
-0.48992919687500347	-0.5198007028981343
-0.48986816171875347	-0.5168570932182025
-0.48980712656250347	-0.5138737296328869
-0.48974609140625347	-0.5108471536480174
-0.48968505625000347	-0.5077706105105763
-0.48962402109375347	-0.5046410874466608
-0.48956298593750347	-0.5014622972958103
-0.48950195078125347	-0.49824088765937113
-0.48944091562500347	-0.49497997891542495
-0.48937988046875347	-0.4916765494241473
-0.48931884531250347	-0.48832508934605307
-0.48925781015625347	-0.4849235848129191
-0.48919677500000347	-0.4814756544942126
-0.48913573984375347	-0.47798682133221265
-0.48907470468750347	-0.4744590341306958
-0.48901366953125347	-0.4708891468872172
-0.48895263437500347	-0.46727270818135597
-0.48889159921875347	-0.46360893804891773
-0.48883056406250347	-0.459901751385137
-0.48876952890625347	-0.4561559096490956
-0.48870849375000347	-0.452372407507439
-0.48864745859375347	-0.448547856933793
-0.48858642343750347	-0.4446783686305754
-0.48852538828125347	-0.4407638480606367
-0.48846435312500347	-0.43680835799930817
-0.48840331796875347	-0.4328163140302873
-0.48834228281250347	-0.42878843976470293
-0.48828124765625347	-0.4247214639825167
-0.48822021250000347	-0.4206117390909
-0.48815917734375347	-0.4164591612781786
-0.48809814218750347	-0.41226754592656994
-0.48803710703125347	-0.40804112092132916
-0.48797607187500347	-0.40378071311912866
-0.48791503671875347	-0.39948347636707
-0.48785400156250347	-0.3951462228649808
-0.48779296640625347	-0.3907688727153818
-0.48773193125000347	-0.3863547280088596
-0.48767089609375347	-0.3819074741401599
-0.48760986093750347	-0.37742796473586754
-0.48754882578125347	-0.3729139098505238
-0.48748779062500347	-0.36836262959240934
-0.48742675546875347	-0.3637740977682183
-0.48736572031250347	-0.359151218518709
-0.48730468515625347	-0.3544971457552425
-0.48724365000000347	-0.34981254668136186
-0.48718261484375347	-0.34509554380873647
-0.48712157968750347	-0.3403441698637662
-0.48706054453125347	-0.3355587233301323
-0.48699950937500347	-0.3307417198137415
-0.48693847421875347	-0.3258956633603197
-0.48687743906250347	-0.32102099208817797
-0.48681640390625347	-0.31611621600889933
-0.48675536875000347	-0.3111799157427886
-0.48669433359375347	-0.3062125184992006
-0.48663329843750347	-0.3012161576673671
-0.48657226328125347	-0.2961928917970723
-0.48651122812500347	-0.2911432125221128
-0.48645019296875347	-0.28606621331008925
-0.48638915781250347	-0.2809609830660342
-0.48632812265625347	-0.2758278365860033
-0.48626708750000347	-0.27066827411296945
-0.48620605234375347	-0.26548383077882887
-0.48614501718750347	-0.26027511380258667
-0.48608398203125347	-0.25504184718186157
-0.48602294687500347	-0.2497836066182944
-0.48596191171875347	-0.24450059452101158
-0.48590087656250347	-0.23919385677062707
-0.48583984140625347	-0.23386464858080902
-0.48577880625000347	-0.22851360224980055
-0.48571777109375347	-0.22314072739847765
-0.48565673593750347	-0.21774608129586956
-0.48559570078125347	-0.21233011965728407
-0.48553466562500347	-0.20689350079660043
-0.48547363046875347	-0.20143681717134734
-0.48541259531250347	-0.19596057569289083
-0.48535156015625347	-0.19046530454135666
-0.48529052500000347	-0.18495151653916928
-0.48522948984375347	-0.17941961272467466
-0.48516845468750347	-0.173869922640376
-0.48510741953125347	-0.16830282816732425
-0.48504638437500347	-0.16271888301586032
-0.48498534921875347	-0.15711883689423675
-0.48492431406250347	-0.15150344507450975
-0.48486327890625347	-0.14587317706643554
-0.48480224375000347	-0.14022820276050588
-0.48474120859375347	-0.1345687204834703
-0.48468017343750347	-0.1288952243964632
-0.48461913828125347	-0.12320850681409669
-0.48455810312500347	-0.11750942552717344
-0.48449706796875347	-0.11179858935259035
-0.48443603281250347	-0.10607627489016898
-0.48437499765625347	-0.10034265031431339
-0.48431396250000347	-0.09459811254726617
-0.48425292734375347	-0.08884337991159512
-0.48419189218750347	-0.08307919216234412
-0.48413085703125347	-0.07730603876159264
-0.48406982187500347	-0.07152424846802109
-0.48400878671875347	-0.06573428301386477
-0.48394775156250347	-0.059936864302730056
-0.48388671640625347	-0.054132694336877396
-0.48382568125000347	-0.0483221273627569
-0.48376464609375347	-0.042505367659201924
-0.48370361093750347	-0.03668292807556321
-0.48364257578125347	-0.030855664661734627
-0.48358154062500347	-0.025024410362500235
-0.48352050546875347	-0.01918960358280965
-0.48345947031250347	-0.01335124337447707
-0.48339843515625347	-0.007509400376699249
-0.48333740000000347	-0.001664809038142214
-0.48327636484375347	0.004181232747233689
-0.48321532968750347	0.010027647888354866
-0.48315429453125347	0.015874257295061645
-0.48309325937500347	0.021721567705835814
-0.48303222421875347	0.027569750678319214
-0.48297118906250347	0.03341776568899335
-0.48291015390625347	0.03926364903609081
-0.48284911875000347	0.045105961880741195
-0.48278808359375347	0.05094490187254943
-0.48272704843750347	0.056781719228290214
-0.48266601328125347	0.0626169695045866
-0.48260497812500347	0.06844934765579316
-0.48254394296875347	0.07427628169778036
-0.48248290781250347	0.08009590201302774
-0.48242187265625347	0.08590853904828688
-0.48236083750000347	0.09171604021683522
-0.48229980234375347	0.09751942763272786
-0.48223876718750347	0.10331725949276112
-0.48217773203125347	0.10910640136288498
-0.48211669687500347	0.11488459950514299
-0.48205566171875347	0.12065231713016383
-0.48199462656250347	0.1264118168887055
-0.48193359140625347	0.13216432868957909
-0.48187255625000347	0.13790821782679746
-0.48181152109375347	0.14364006072469632
-0.48175048593750347	0.14935759073476604
-0.48168945078125347	0.15506153825046
-0.48162841562500347	0.16075441181469655
-0.48156738046875347	0.16643742020560978
-0.48150634531250347	0.1721087080354794
-0.48144531015625347	0.17776470310689402
-0.48138427500000347	0.18340321602010842
-0.48132323984375347	0.189025147234215
-0.48126220468750347	0.19463303625854558
-0.48120116953125347	0.2002279330641326
-0.48114013437500347	0.20580776423885833
-0.48107909921875347	0.21136890281310772
-0.48101806406250347	0.21690945505689074
-0.48095702890625347	0.22243079366708016
-0.48089599375000347	0.22793555617819253
-0.48083495859375347	0.23342427124332357
-0.48077392343750347	0.2388942921633758
-0.48071288828125347	0.24434210473582843
-0.48065185312500347	0.24976652347287615
-0.48059081796875347	0.2551694293609998
-0.48052978281250347	0.2605532679623776
-0.48046874765625347	0.26591790982017216
-0.48040771250000347	0.2712601734199567
-0.48034667734375347	0.276576641043164
-0.48028564218750347	0.28186685791164523
-0.48022460703125347	0.2871333427448283
-0.48016357187500347	0.29237835462833417
-0.48010253671875347	0.2976009967819663
-0.48004150156250347	0.30279770210364776
-0.47998046640625347	0.3079654821994506
-0.47991943125000347	0.313104531179593
-0.47985839609375347	0.31821752852453244
-0.47979736093750347	0.32330635011430653
-0.47973632578125347	0.3283695591075896
-0.47967529062500347	0.3334033991764735
-0.47961425546875347	0.33840529632113
-0.47955322031250347	0.34337608368459016
-0.47949218515625347	0.3483186100304286
-0.47943115000000347	0.35323425451281804
-0.47937011484375347	0.3581210289305151
-0.47930907968750347	0.3629752436141161
-0.47924804453125347	0.3677949195121029
-0.47918700937500347	0.3725813648962676
-0.47912597421875347	0.3773373027037874
-0.47906493906250347	0.3820634868892211
-0.47900390390625347	0.38675742390575185
-0.47894286875000347	0.39141565266788464
-0.47888183359375347	0.39603705050862004
-0.47882079843750347	0.4006235017181003
-0.47875976328125347	0.40517730800940044
-0.47869872812500347	0.40969822393513006
-0.47863769296875347	0.41418329337301596
-0.47857665781250347	0.41862965172962546
-0.47851562265625347	0.42303722387170817
-0.47845458750000347	0.42740833967352626
-0.47839355234375347	0.431744729367344
-0.47833251718750347	0.4360452178866246
-0.47827148203125347	0.4403065703193771
-0.47821044687500347	0.4445265268108731
-0.47814941171875347	0.4487058005851732
-0.47808837656250347	0.4528469223006628
-0.47802734140625347	0.4569511088429256
-0.47796630625000347	0.46101649007245554
-0.47790527109375347	0.4650396641939159
-0.47784423593750347	0.4690189704256204
-0.47778320078125347	0.4729559349087683
-0.47772216562500347	0.47685323251064293
-0.47766113046875347	0.48071136108489515
-0.47760009531250347	0.4845277100099174
-0.47753906015625347	0.48829900431532586
-0.47747802500000347	0.49202442371390753
-0.47741698984375347	0.49570607680745804
-0.47735595468750347	0.4993463809847528
-0.47729491953125347	0.5029451509850152
-0.47723388437500347	0.5064994730480353
-0.47717284921875347	0.5100064525132434
-0.47711181406250347	0.5134658730967563
-0.47705077890625347	0.516879991559345
-0.47698974375000347	0.52025076812697
-0.47692870859375347	0.5235775096562517
-0.47686767343750347	0.5268573933087048
-0.47680663828125347	0.5300881732622789
-0.47674560312500347	0.5332701221205999
-0.47668456796875347	0.5364052678995354
-0.47662353281250347	0.5394948810707304
-0.47656249765625347	0.5425378970562291
-0.47650146250000347	0.5455318606332227
-0.47644042734375347	0.5484752812935402
-0.47637939218750347	0.5513688429129475
-0.47631835703125347	0.5542142348238358
-0.47625732187500347	0.5570119993106736
-0.47619628671875347	0.559760770921699
-0.47613525156250347	0.5624586081415891
-0.47607421640625347	0.5651048142552739
-0.47601318125000347	0.5677002703959553
-0.47595214609375347	0.5702460800864766
-0.47589111093750347	0.5727421103100212
-0.47583007578125347	0.5751869792295392
-0.47576904062500347	0.5775794023508852
-0.47570800546875347	0.5799193336455053
-0.47564697031250347	0.5822076632792077
-0.47558593515625347	0.5844449344700778
-0.47552490000000347	0.5866305468112968
-0.47546386484375347	0.5887632376607659
-0.47540282968750347	0.5908422356244346
-0.47534179453125347	0.5928678121583012
-0.47528075937500347	0.5948406909044884
-0.47521972421875347	0.5967610513040967
-0.47515868906250347	0.5986282081338312
-0.47509765390625347	0.6004412226149033
-0.47503661875000347	0.602199699113473
-0.47497558359375347	0.60390391447709
-0.47491454843750347	0.6055542632997146
-0.47485351328125347	0.6071507093075947
-0.47479247812500347	0.6086927679437273
-0.47473144296875347	0.6101798911798345
-0.47467040781250347	0.6116117738369988
-0.47460937265625347	0.6129883600712452
-0.47454833750000347	0.614309726815761
-0.47448730234375347	0.6155760116164165
-0.47442626718750347	0.616787300034968
-0.47436523203125347	0.6179433874724239
-0.47430419687500347	0.6190436532637086
-0.47424316171875347	0.620087399480475
-0.47418212656250347	0.6210744988236967
-0.47412109140625347	0.6220056331843502
-0.47406005625000347	0.6228816511561498
-0.47399902109375347	0.6237025351010549
-0.47393798593750347	0.6244670925374756
-0.47387695078125347	0.6251739140944959
-0.47381591562500347	0.6258228037185019
-0.47375488046875347	0.626415148955409
-0.47369384531250347	0.6269525697273376
-0.47363281015625347	0.6274350684187416
-0.47357177500000347	0.627860709018771
-0.47351073984375347	0.6282274215761865
-0.47344970468750347	0.6285352120134202
-0.47338866953125347	0.6287863523490382
-0.47332763437500347	0.6289830871215941
-0.47326659921875347	0.6291251335493752
-0.47320556406250347	0.6292097218736579
-0.47314452890625347	0.6292343557595538
-0.47308349375000347	0.6291994976199244
-0.47302245859375347	0.629108266733936
-0.47296142343750347	0.6289632512395985
-0.47290038828125347	0.6287636798098768
-0.47283935312500347	0.628506062781758
-0.47277831796875347	0.6281877952708371
-0.47271728281250347	0.6278099742610849
-0.47265624765625347	0.62737640441763
-0.47259521250000347	0.6268896760626637
-0.47253417734375347	0.6263483583377105
-0.47247314218750347	0.6257484041898658
-0.47241210703125347	0.6250874200791465
-0.47235107187500347	0.6243672843313104
-0.47229003671875347	0.6235922835795396
-0.47222900156250347	0.6227646627837703
-0.47216796640625347	0.6218822926652287
-0.47210693125000347	0.6209409687894952
-0.47204589609375347	0.6199389174758285
-0.47198486093750347	0.6188787538886507
-0.47192382578125347	0.6177648146285472
-0.47186279062500347	0.6165986423113
-0.47180175546875347	0.6153774203279468
-0.47174072031250347	0.6140970508459075
-0.47167968515625347	0.6127565792126273
-0.47161865000000347	0.6113592727409135
-0.47155761484375347	0.6099092719097148
-0.47149657968750347	0.6084073897129556
-0.47143554453125347	0.6068504855018886
-0.47137450937500347	0.605235000450175
-0.47131347421875347	0.6035607912860814
-0.47125243906250347	0.6018312225299788
-0.47119140390625347	0.6000496408001572
-0.47113036875000347	0.5982160914286454
-0.47106933359375347	0.5963276195022983
-0.47100829843750347	0.5943816377570171
-0.47094726328125347	0.5923787311490052
-0.47088622812500347	0.5903220180006431
-0.47082519296875347	0.5882139400919316
-0.47076415781250347	0.5860540012668721
-0.47070312265625347	0.5838396945306017
-0.47064208750000347	0.581569402538712
-0.47058105234375347	0.5792441445118106
-0.47052001718750347	0.5768664316720393
-0.47045898203125347	0.5744377136641226
-0.47039794687500347	0.5719572947094329
-0.47033691171875347	0.5694236154777937
-0.47027587656250347	0.5668361597789268
-0.47021484140625347	0.564195936963847
