Time	Frequency
-0.5000343299999983	-0.2062734999770076
-0.4999732948437483	-0.21134890503757806
-0.4999122596874983	-0.21657110532832133
-0.4998512245312483	-0.22186110465016806
-0.4997901893749983	-0.22710085768917193
-0.4997291542187483	-0.2321914821810595
-0.4996681190624983	-0.23710045851182035
-0.4996070839062483	-0.2418751081873821
-0.4995460487499983	-0.24661683467871628
-0.4994850135937483	-0.25142999644629016
-0.4994239784374983	-0.256371131387107
-0.4993629432812483	-0.2614231474674589
-0.4993019081249983	-0.26650614393135075
-0.4992408729687483	-0.2715182758048634
-0.4991798378124983	-0.2763856210997912
-0.4991188026562483	-0.28109648826092626
-0.4990577674999983	-0.285704217448695
-0.4989967323437483	-0.29029846479972315
-0.4989356971874983	-0.2949602234161973
-0.4988746620312483	-0.2997230283777444
-0.4988136268749983	-0.3045587833566265
-0.4987525917187483	-0.30939392469812793
-0.4986915565624983	-0.3141467345275707
-0.4986305214062483	-0.3187668135570707
-0.4985694862499983	-0.32325756561887664
-0.4985084510937483	-0.32767171253291766
-0.4984474159374983	-0.3320833763708414
-0.4983863807812483	-0.33655131016247836
-0.4983253456249983	-0.34109134732654517
-0.4982643104687483	-0.345670834216495
-0.4982032753124983	-0.3502265849880736
-0.4981422401562483	-0.3546964824091099
-0.4980812049999983	-0.35904889534114676
-0.4980201698437483	-0.3632960009724666
-0.4979591346874983	-0.36748547692987105
-0.4978980995312483	-0.3716756833891174
-0.4978370643749983	-0.3759070931280178
-0.4977760292187483	-0.38018381754256114
-0.4977149940624983	-0.3844734909548632
-0.4976539589062483	-0.38872450921755813
-0.4975929237499983	-0.39289139600793066
-0.4975318885937483	-0.39695580644799683
-0.4974708534374983	-0.4009335057672815
-0.4974098182812483	-0.40486483348552976
-0.4973487831249983	-0.4087941103779445
-0.4972877479687483	-0.41274836208085114
-0.4972267128124983	-0.41672543895663094
-0.4971656776562483	-0.42069655600070055
-0.4971046424999983	-0.4246211743936227
-0.4970436073437483	-0.42846649986379337
-0.4969825721874983	-0.432222192796139
-0.4969215370312483	-0.43590370309141785
-0.4968605018749983	-0.4395433911372992
-0.4967994667187483	-0.4431743617185471
-0.4967384315624983	-0.44681497002791515
-0.4966773964062483	-0.4504610858763919
-0.4966163612499983	-0.4540891771023656
-0.4965553260937483	-0.4576681178061743
-0.4964942909374983	-0.46117374969778235
-0.4964332557812483	-0.4645993524426534
-0.4963722206249983	-0.46795752905028765
-0.4963111854687483	-0.47127322752982803
-0.4962501503124983	-0.4745716093787804
-0.4961891151562483	-0.47786656445918585
-0.4961280799999983	-0.48115500236277076
-0.4960670448437483	-0.4844190561630561
-0.4960060096874983	-0.48763469638087276
-0.4959449745312483	-0.4907825929660176
-0.4958839393749983	-0.49385631810772274
-0.4958229042187483	-0.496864420647364
-0.4957618690624983	-0.4998258304178621
-0.4957008339062483	-0.5027609820833445
-0.4956397987499983	-0.5056827127232063
-0.4955787635937483	-0.5085908605196741
-0.4955177284374983	-0.5114727019722018
-0.4954566932812483	-0.5143087722667519
-0.4953956581249983	-0.5170813787405075
-0.4953346229687483	-0.5197821026032733
-0.4952735878124983	-0.522415136571202
-0.4952125526562483	-0.5249951484539302
-0.4951515174999983	-0.5275406913863462
-0.4950904823437483	-0.5300660248312489
-0.4950294471874983	-0.5325748392309432
-0.4949684120312483	-0.5350585493112208
-0.4949073768749983	-0.5374998859753612
-0.4948463417187483	-0.5398802892153164
-0.4947853065624983	-0.5421879767889785
-0.4947242714062483	-0.5444231958211673
-0.4946632362499983	-0.546598270220568
-0.4946022010937483	-0.5487322613558503
-0.4945411659374983	-0.5508424554665653
-0.4944801307812483	-0.5529363972094468
-0.4944190956249983	-0.5550080923444991
-0.4943580604687483	-0.5570402660904566
-0.4942970253124983	-0.5590118707616811
-0.4942359901562483	-0.5609075856487045
-0.4941749549999983	-0.5627249936109228
-0.4941139198437483	-0.5644760161660952
-0.4940528846874983	-0.5661817235121304
-0.4939918495312483	-0.5678626969381858
-0.4939308143749983	-0.5695293003607067
-0.4938697792187483	-0.5711764402142441
-0.4938087440624983	-0.5727854518464113
-0.4937477089062483	-0.574332466583417
-0.4936866737499983	-0.5757994947429145
-0.4936256385937483	-0.5771830213367402
-0.4935646034374983	-0.5784959448252638
-0.4935035682812483	-0.5797617614757933
-0.4934425331249983	-0.5810035615774525
-0.4933814979687483	-0.5822329644574304
-0.4933204628124983	-0.583444300510105
-0.4932594276562483	-0.5846169508281601
-0.4931983924999983	-0.5857248984726267
-0.4931373573437483	-0.5867490471450616
-0.4930763221874983	-0.5876864140307048
-0.4930152870312483	-0.5885517038464229
-0.4929542518749983	-0.5893703960230318
-0.4928932167187483	-0.5901665731999732
-0.4928321815624983	-0.5909513089617173
-0.4927711464062483	-0.5917172280143265
-0.4927101112499983	-0.5924419148962589
-0.4926490760937483	-0.5930985918386703
-0.4925880409374983	-0.5936689546225346
-0.4925270057812483	-0.594151966988503
-0.4924659706249983	-0.5945643377411046
-0.4924049354687483	-0.5949324244788174
-0.4923439003124983	-0.5952794755356304
-0.4922828651562483	-0.5956143993916159
-0.4922218299999983	-0.5959275098632332
-0.4921607948437483	-0.5961952956700031
-0.4920997596874983	-0.5963918618246495
-0.4920387245312483	-0.5965014460469094
-0.4919776893749983	-0.596525924029504
-0.4919166542187483	-0.5964837013256189
-0.4918556190624983	-0.5964006047901945
-0.4917945839062483	-0.596297278022313
-0.4917335487499983	-0.596179253797346
-0.4916725135937483	-0.5960344987163044
-0.4916114784374983	-0.5958395228351314
-0.4915504432812483	-0.5955709645634207
-0.4914894081249983	-0.5952169298400416
-0.4914283729687483	-0.5947825627741835
-0.4913673378124983	-0.5942872219587351
-0.4913063026562483	-0.5937547839275928
-0.4912452674999983	-0.5932019417167004
-0.4911842323437483	-0.5926302544284963
-0.4911231971874983	-0.5920257452067875
-0.4910621620312483	-0.5913660877344897
-0.4910011268749983	-0.5906317158834204
-0.4909400917187483	-0.5898153286764127
-0.4908790565624983	-0.588925173835111
-0.4908180214062483	-0.5879806575855511
-0.4907569862499983	-0.5870026012877935
-0.4906959510937483	-0.586003035277756
-0.4906349159374983	-0.5849795601079584
-0.4905738807812483	-0.583916944025047
-0.4905128456249983	-0.5827949842725731
-0.4904518104687483	-0.5815986011463494
-0.4903907753124983	-0.5803251437187882
-0.4903297401562483	-0.578985384317245
-0.4902687049999983	-0.5775978889017637
-0.4902076698437483	-0.5761797243846787
-0.4901466346874983	-0.5747381697626552
-0.4900855995312483	-0.5732674724041091
-0.4900245643749983	-0.571752097928607
-0.4899635292187483	-0.5701747039085885
-0.4899024940624983	-0.5685247892649933
-0.4898414589062483	-0.5668037133601711
-0.4897804237499983	-0.5650237270198156
-0.4897193885937483	-0.5632017088175617
-0.4896583534374983	-0.561350813175647
-0.4895973182812483	-0.5594741584497964
-0.4895362831249983	-0.5575636385620523
-0.4894752479687483	-0.5556043345848883
-0.4894142128124983	-0.5535821599896916
-0.4893531776562483	-0.5514908347576158
-0.4892921424999983	-0.5493347887648865
-0.4892311073437483	-0.5471267326660069
-0.4891700721874983	-0.5448812525038652
-0.4891090370312483	-0.5426076570608674
-0.4890480018749983	-0.5403056373018855
-0.4889869667187483	-0.5379658459411268
-0.4889259315624983	-0.5355749159724539
-0.4888648964062483	-0.5331222415274995
-0.4888038612499983	-0.5306051644568744
-0.4887428260937483	-0.5280300966036412
-0.4886817909374983	-0.5254091317235859
-0.4886207557812483	-0.522753983171155
-0.4885597206249983	-0.5200703719518023
-0.4884986854687483	-0.5173555892548337
-0.4884376503124983	-0.5146002625412865
-0.4883766151562483	-0.5117933121053432
-0.4883155799999983	-0.5089275615570942
-0.4882545448437483	-0.5060032039192426
-0.4881935096874983	-0.5030275078548125
-0.4881324745312483	-0.5000110548315448
-0.4880714393749983	-0.49696250249042084
-0.4880104042187483	-0.49388454830251727
-0.4879493690624983	-0.4907730301700534
-0.4878883339062483	-0.48761944626363346
-0.4878272987499983	-0.4844154728066593
-0.4877662635937483	-0.4811571412990638
-0.4877052284374983	-0.4778466583911195
-0.4876441932812483	-0.47449111797233007
-0.4875831581249983	-0.4710988854968123
-0.4875221229687483	-0.4676755554350205
-0.4874610878124983	-0.46422152531876165
-0.4874000526562483	-0.46073229115958525
-0.4873390174999983	-0.45720113187753436
-0.4872779823437483	-0.4536226822588209
-0.4872169471874983	-0.4499955686361332
-0.4871559120312483	-0.44632291898550375
-0.4870948768749983	-0.44261066039919783
-0.4870338417187483	-0.43886455553221426
-0.4869728065624983	-0.4350875334132636
-0.4869117714062483	-0.4312786469739876
-0.4868507362499983	-0.4274340415391433
-0.4867897010937483	-0.42354926620278815
-0.4867286659374983	-0.41962166619162933
-0.4866676307812483	-0.4156516689765986
-0.4866065956249983	-0.4116424169113841
-0.4865455604687483	-0.40759808763627586
-0.4864845253124983	-0.4035218715410634
-0.4864234901562483	-0.3994146622966686
-0.4863624549999983	-0.3952750769446806
-0.4863014198437483	-0.39110063808002055
-0.4862403846874983	-0.3868893551035641
-0.4861793495312483	-0.3826408451343184
-0.4861183143749983	-0.3783564531273779
-0.4860572792187483	-0.3740384392936252
-0.4859962440624983	-0.36968881223566463
-0.4859352089062483	-0.36530847835862057
-0.4858741737499983	-0.3608971261905624
-0.4858131385937483	-0.35645384397232643
-0.4857521034374983	-0.3519780508416816
-0.4856910682812483	-0.34747010573075
-0.4856300331249983	-0.34293119334841715
-0.4855689979687483	-0.33836264811856376
-0.4855079628124983	-0.3337652185558624
-0.4854469276562483	-0.32913872819276785
-0.4853858924999983	-0.32448236443762085
-0.4853248573437483	-0.3197954740543091
-0.4852638221874983	-0.3150783468763841
-0.4852027870312483	-0.3103324439597016
-0.4851417518749983	-0.3055599281694586
-0.4850807167187483	-0.3007627046752639
-0.4850196815624983	-0.29594144730109834
-0.4849586464062483	-0.2910952350858173
-0.4848976112499983	-0.2862220906388459
-0.4848365760937483	-0.28132019081908544
-0.4847755409374983	-0.2763891751075019
-0.4847145057812483	-0.27143079140913434
-0.4846534706249983	-0.2664483606492761
-0.4845924354687483	-0.2614452870144611
-0.4845314003124983	-0.2564234576815861
-0.4844703651562483	-0.2513823686397449
-0.4844093299999983	-0.24631943350643265
-0.4843482948437483	-0.24123142430755648
-0.4842872596874983	-0.23611637558861462
-0.4842262245312483	-0.2309749333215644
-0.4841651893749983	-0.2258103776951352
-0.4841041542187483	-0.22062724968593367
-0.4840431190624983	-0.21542926690316347
-0.4839820839062483	-0.2102176012009281
-0.4839210487499983	-0.20499042201168563
-0.4838600135937483	-0.19974397016858816
-0.4837989784374983	-0.19447464392353409
-0.4837379432812483	-0.1891810760264597
-0.4836769081249983	-0.18386514477351912
-0.4836158729687483	-0.17853133181554928
-0.4835548378124983	-0.17318469730059577
-0.4834938026562483	-0.16782850394672227
-0.4834327674999983	-0.1624627226562853
-0.4833717323437483	-0.1570842427036408
-0.4833106971874983	-0.15168872391395827
-0.4832496620312483	-0.1462730695458676
-0.4831886268749983	-0.14083720612483291
-0.4831275917187483	-0.13538434539307667
-0.4830665565624983	-0.12991963289599476
-0.4830055214062483	-0.12444779820269808
-0.4829444862499983	-0.11897095669987212
-0.4828834510937483	-0.11348772820908497
-0.4828224159374983	-0.10799417134877698
-0.4827613807812483	-0.10248603728527719
-0.4827003456249983	-0.0969611769639681
-0.4826393104687483	-0.09142089439460327
-0.4825782753124983	-0.08586955057113191
-0.4825172401562483	-0.08031259382383696
-0.4824562049999983	-0.07475401061539373
-0.4823951698437483	-0.06919450291397522
-0.4823341346874983	-0.06363133858219178
-0.4822730995312483	-0.05805997577413643
-0.4822120643749983	-0.052476648810740475
-0.4821510292187483	-0.046880582442317534
-0.4820899940624983	-0.04127466639306757
-0.4820289589062483	-0.03566422652532812
-0.4819679237499983	-0.030054542922043622
-0.4819068885937483	-0.024448390865689458
-0.4818458534374983	-0.018844821816254347
-0.4817848182812483	-0.013239840098944118
-0.4817237831249983	-0.007628707663904268
-0.4816627479687483	-0.0020086456066074655
-0.4816017128124983	0.0036194895818657045
-0.4815406776562483	0.009251357666040861
-0.4814796424999983	0.014881050840329108
-0.4814186073437483	0.020503852041514812
-0.4813575721874983	0.026118453252962727
-0.4812965370312483	0.031727455565794246
-0.4812355018749983	0.03733581427041257
-0.4811744667187483	0.04294804767310065
-0.4811134315624983	0.048565673878797115
-0.4810523964062483	0.05418613149250393
-0.4809913612499983	0.05980374320774321
-0.4809303260937483	0.06541234017251449
-0.4808692909374983	0.07100824584633314
-0.4808082557812483	0.07659199050615731
-0.4807472206249983	0.08216781977198018
-0.4806861854687483	0.08774129888131456
-0.4806251503124983	0.09331621383279848
-0.4805641151562483	0.09889231667070311
-0.4805030799999983	0.10446513062615653
-0.4804420448437483	0.11002796252697296
-0.4803810096874983	0.11557509545547548
-0.4803199745312483	0.12110450760072596
-0.4802589393749983	0.12661871208354233
-0.4801979042187483	0.13212329491554398
-0.4801368690624983	0.13762383659264507
-0.4800758339062483	0.14312273637354195
-0.4800147987499983	0.14861762312923146
-0.4799537635937483	0.1541022602873426
-0.4798927284374983	0.15956954073343904
-0.4798316932812483	0.1650149829693604
-0.4797706581249983	0.17043883388748138
-0.4797096229687483	0.17584571748934053
-0.4796485878124983	0.1812420392372857
-0.4795875526562483	0.186632422121122
-0.4795265174999983	0.1920170023930154
-0.4794654823437483	0.19739103801293478
-0.4794044471874983	0.20274707119412808
-0.4793434120312483	0.20807857140987618
-0.4792823768749983	0.21338317327450532
-0.4792213417187483	0.21866374044028636
-0.4791603065624983	0.22392663928547224
-0.4790992714062483	0.22917814694477676
-0.4790382362499983	0.23442090442866867
-0.4789772010937483	0.239652264004995
-0.4789161659374983	0.24486540131649642
-0.4788551307812483	0.2500526404829628
-0.4787940956249983	0.2552092679033938
-0.4787330604687483	0.2603358261001996
-0.4786720253124983	0.26543763371943296
-0.4786109901562483	0.2705217303093716
-0.4785499549999983	0.2755928830213836
-0.4784889198437483	0.28065083211984293
-0.4784278846874983	0.28569020803061673
-0.4783668495312483	0.29070310834590873
-0.4783058143749983	0.2956830012575949
-0.4782447792187483	0.30062794082963545
-0.4781837440624983	0.30554139674351216
-0.4781227089062483	0.3104302201237756
-0.4780616737499983	0.3153007883866013
-0.4780006385937483	0.32015538608623967
-0.4779396034374983	0.3249907474015884
-0.4778785682812483	0.32979953608973467
-0.4778175331249983	0.3345740261576551
-0.4777564979687483	0.33931001980546743
-0.4776954628124983	0.3440088619448368
-0.4776344276562483	0.34867650428327635
-0.4775733924999983	0.35332012722548606
-0.4775123573437483	0.3579440668045069
-0.4774513221874983	0.36254723715076953
-0.4773902870312483	0.36712347283186136
-0.4773292518749983	0.37166460156799647
-0.4772682167187483	0.3761646098684945
-0.4772071815624983	0.38062268498577134
-0.4771461464062483	0.3850434661194171
-0.4770851112499983	0.38943435034863844
-0.4770240760937483	0.3938013086037455
-0.4769630409374983	0.3981454436878375
-0.4769020057812483	0.40246214574982414
-0.4768409706249983	0.4067433238108025
-0.4767799354687483	0.41098152705038654
-0.4767189003124983	0.4151737672074627
-0.4766578651562483	0.41932299471870016
-0.4765968299999983	0.42343639253211657
-0.4765357948437483	0.4275213480453443
-0.4764747596874983	0.4315812519668702
-0.4764137245312483	0.43561340523941194
-0.4763526893749983	0.4396101789967238
-0.4762916542187483	0.4435628494909033
-0.4762306190624983	0.4474661090274691
-0.4761695839062483	0.4513208215761358
-0.4761085487499983	0.45513348746515697
-0.4760475135937483	0.4589126552095545
-0.4759864784374983	0.4626641576587561
-0.4759254432812483	0.4663877106588631
-0.4758644081249983	0.47007673317960547
-0.4758033729687483	0.47372155435466945
-0.4757423378124983	0.4773143737482019
-0.4756813026562483	0.4808533592096267
-0.4756202674999983	0.4843436393235393
-0.4755592323437483	0.4877945643288036
-0.4754981971874983	0.4912146063171753
-0.4754371620312483	0.49460658495459947
-0.4753761268749983	0.49796582010381085
-0.4753150917187483	0.5012822651747566
-0.4752540565624983	0.5045455579827943
-0.4751930214062483	0.5077503971746664
-0.4751319862499983	0.510899400464
-0.4750709510937483	0.5140018287894229
-0.4750099159374983	0.5170687107792407
-0.4749488807812483	0.5201068387255278
-0.4748878456249983	0.5231148108682644
-0.4748268104687483	0.5260833166563363
-0.4747657753124983	0.528999661411684
-0.4747047401562483	0.5318542736992944
-0.4746437049999983	0.5346458153592674
-0.4745826698437483	0.5373821162508184
-0.4745216346874983	0.5400762487581311
-0.4744605995312483	0.5427396277812314
-0.4743995643749983	0.545375689264616
-0.4743385292187483	0.5479775507184136
-0.4742774940624983	0.5505310982215642
-0.4742164589062483	0.5530220873057828
-0.4741554237499983	0.5554436231586555
-0.4740943885937483	0.5578000462049119
-0.4740333534374983	0.5601050040210311
-0.4739723182812483	0.5623744851850505
-0.4739112831249983	0.5646182943860066
-0.4738502479687483	0.5668344244551018
-0.4737892128124983	0.5690094547537938
-0.4737281776562483	0.5711250558555973
-0.4736671424999983	0.5731674209127593
-0.4736061073437483	0.5751347221162776
-0.4735450721874983	0.5770385246931886
-0.4734840370312483	0.5788981382150579
-0.4734230018749983	0.5807306044584618
-0.4733619667187483	0.5825414595447296
-0.4733009315624983	0.5843212027276702
-0.4732398964062483	0.5860495807107227
-0.4731788612499983	0.587705762358508
-0.4731178260937483	0.5892792745317827
-0.4730567909374983	0.5907759231700307
-0.4729957557812483	0.5922153267123249
-0.4729347206249983	0.5936210040480452
-0.4728736854687483	0.5950079672236599
-0.4728126503124983	0.596374317519026
-0.4727516151562483	0.5977014888155222
-0.4726905799999983	0.5989633683264681
-0.4726295448437483	0.6001398045331934
-0.4725685096874983	0.6012274854103287
-0.4725074745312483	0.6022422871482543
-0.4724464393749983	0.6032115118474077
-0.4723854042187483	0.6041597592883861
-0.4723243690624983	0.6050957150622435
-0.4722633339062483	0.6060069259666672
-0.4722022987499983	0.606865630714337
-0.4721412635937483	0.6076429276859824
-0.4720802284374983	0.6083240252231135
-0.4720191932812483	0.6089164979718724
-0.4719581581249983	0.6094469301666123
-0.4718971229687483	0.6099473566495329
-0.4718360878124983	0.6104383916244546
-0.4717750526562483	0.6109179286683583
-0.4717140174999983	0.6113616012039993
-0.4716529823437483	0.6117350873753832
-0.4715919471874983	0.6120120229222851
-0.4715309120312483	0.6121881459111721
-0.4714698768749983	0.6122840646105626
-0.4714088417187483	0.6123348891225177
-0.4713478065624983	0.612371919301726
-0.4712867714062483	0.6124059486566326
-0.4712257362499983	0.6124211076780662
-0.4711647010937483	0.6123827479246711
-0.4711036659374983	0.6122554507566698
-0.4710426307812483	0.61202177667345
-0.4709815956249983	0.611691810302701
-0.4709205604687483	0.611298263851346
-0.4708595253124983	0.6108794891511656
-0.4707984901562483	0.6104592344425175
-0.4707374549999983	0.6100338558650373
-0.4706764198437483	0.609573891209451
-0.4706153846874983	0.6090393640738011
-0.4705543495312483	0.608400858204778
-0.4704933143749983	0.6076552389736385
-0.4704322792187483	0.6068276279473322
-0.4703712440624983	0.6059584230172553
-0.4703102089062483	0.6050820849099933
-0.4702491737499983	0.6042088694398197
-0.4701881385937483	0.6033192052633872
-0.4701271034374983	0.6023737975970603
-0.4700660682812483	0.6013342661435099
-0.4700050331249983	0.600183504699262
-0.4699439979687483	0.5989349865153883
-0.4698829628124983	0.5976259856027158
-0.4698219276562483	0.5962981477955864
-0.4697608924999983	0.5949755557311598
-0.4696998573437483	0.5936518485493635
-0.4696388221874983	0.5922933132292449
-0.4695777870312483	0.5908564884297332
-0.4695167518749983	0.5893111078994828
