Time	Frequency
-0.5000228860937526	-1.9420109543276291e-22
-0.49996185093750256	-1.947831903706117e-22
-0.49990081578125256	-1.9535328277676527e-22
-0.49983978062500256	-1.9590651606379004e-22
-0.49977874546875256	-1.9643963013860957e-22
-0.49971771031250256	-1.9695319872537386e-22
-0.49965667515625256	-1.9745078920675394e-22
-0.49959564000000256	-1.9793595710655778e-22
-0.49953460484375256	-1.9840953892975273e-22
-0.49947356968750256	-1.9886926502297092e-22
-0.49941253453125256	-1.9931177753356657e-22
-0.49935149937500256	-1.9973528637446245e-22
-0.49929046421875256	-2.0014075382317957e-22
-0.49922942906250256	-2.0053082442066145e-22
-0.49916839390625256	-2.009075459461904e-22
-0.49910735875000256	-2.0127078546131614e-22
-0.49904632359375256	-2.016185329972366e-22
-0.49898528843750256	-2.0194868611971811e-22
-0.49892425328125256	-2.02260753599598e-22
-0.49886321812500256	-2.0255609717445374e-22
-0.49880218296875256	-2.028366170490888e-22
-0.49874114781250256	-2.0310307346390098e-22
-0.49868011265625256	-2.033544735509172e-22
-0.49861907750000256	-2.0358899248591535e-22
-0.49855804234375256	-2.038055840480176e-22
-0.49849700718750256	-2.040048777014262e-22
-0.49843597203125256	-2.0418859944757834e-22
-0.49837493687500256	-2.0435802700578996e-22
-0.49831390171875256	-2.0451281991880408e-22
-0.49825286656250256	-2.0465124797320163e-22
-0.49819183140625256	-2.0477164508846673e-22
-0.49813079625000256	-2.048738608383338e-22
-0.49806976109375256	-2.0495946195078617e-22
-0.49800872593750256	-2.0503046982773398e-22
-0.49794769078125256	-2.0508765011686046e-22
-0.49788665562500256	-2.0512977748676707e-22
-0.49782562046875256	-2.05154534162729e-22
-0.49776458531250256	-2.0516037113016068e-22
-0.49770355015625256	-2.0514783638864865e-22
-0.49764251500000256	-2.0511924541688355e-22
-0.49758147984375256	-2.0507688333416735e-22
-0.49752044468750256	-2.0502114053134804e-22
-0.49745940953125256	-2.0495009515985728e-22
-0.49739837437500256	-2.0486094579798558e-22
-0.49733733921875256	-2.0475222027056433e-22
-0.49727630406250256	-2.046250137693921e-22
-0.49721526890625256	-2.0448222330722868e-22
-0.49715423375000256	-2.0432632248869476e-22
-0.49709319859375256	-2.0415740291324462e-22
-0.49703216343750256	-2.039730392016141e-22
-0.49697112828125256	-2.0377012672932635e-22
-0.49691009312500256	-2.0354729223992133e-22
-0.49684905796875256	-2.0330600585589903e-22
-0.49678802281250256	-2.0304950736515522e-22
-0.49672698765625256	-2.0278034553082532e-22
-0.49666595250000256	-2.024984128788954e-22
-0.49660491734375256	-2.0220100599113503e-22
-0.49654388218750256	-2.018848908457781e-22
-0.49648284703125256	-2.0154879135025762e-22
-0.49642181187500256	-2.011943935845811e-22
-0.49636077671875256	-2.0082509272147971e-22
-0.49629974156250256	-2.0044342416143627e-22
-0.49623870640625256	-2.0004914274325414e-22
-0.49617767125000256	-1.9963942913016655e-22
-0.49611663609375256	-1.9921106436405384e-22
-0.49605560093750256	-1.9876290882144385e-22
-0.49599456578125256	-1.9829678801300653e-22
-0.49593353062500256	-1.9781610416476795e-22
-0.49587249546875256	-1.9732325177998823e-22
-0.49581146031250256	-1.9681783050849694e-22
-0.49575042515625256	-1.9629700638505566e-22
-0.49568939000000256	-1.9575772137378105e-22
-0.49562835484375256	-1.9519905183861825e-22
-0.49556731968750256	-1.9462291439176534e-22
-0.49550628453125256	-1.940326016429013e-22
-0.49544524937500256	-1.9343029335312254e-22
-0.49538421421875256	-1.9281545054826803e-22
-0.49532317906250256	-1.9218530147126497e-22
-0.49526214390625256	-1.9153701197883482e-22
-0.49520110875000256	-1.9086986403103775e-22
-0.49514007359375256	-1.9018580154036262e-22
-0.49507903843750256	-1.8948795584498064e-22
-0.49501800328125256	-1.887782877406302e-22
-0.49495696812500256	-1.8805615450789968e-22
-0.49489593296875256	-1.873188880392563e-22
-0.49483489781250256	-1.8656390384781083e-22
-0.49477386265625256	-1.857906995977949e-22
-0.49471282750000256	-1.8500122823966874e-22
-0.49465179234375256	-1.8419840265455589e-22
-0.49459075718750256	-1.8338391337846583e-22
-0.49452972203125256	-1.8255703337305273e-22
-0.49446868687500256	-1.8171528655696403e-22
-0.49440765171875256	-1.8085641276989253e-22
-0.49434661656250256	-1.7998010612984483e-22
-0.49428558140625256	-1.7908822999836335e-22
-0.49422454625000256	-1.781833907430461e-22
-0.49416351109375256	-1.772669974414208e-22
-0.49410247593750256	-1.7633829489645056e-22
-0.49404144078125256	-1.753950654626144e-22
-0.49398040562500256	-1.7443541108643174e-22
-0.49391937046875256	-1.7345922537027682e-22
-0.49385833531250256	-1.724682444224716e-22
-0.49379730015625256	-1.714647109940351e-22
-0.49373626500000256	-1.7044973543931104e-22
-0.49367522984375256	-1.6942257771876698e-22
-0.49361419468750256	-1.6838134059931165e-22
-0.49355315953125256	-1.6732451210591213e-22
-0.49349212437500256	-1.662521541946941e-22
-0.49343108921875256	-1.6516584230944086e-22
-0.49337005406250256	-1.6406745216809672e-22
-0.49330901890625256	-1.6295776910690365e-22
-0.49324798375000256	-1.618360106101996e-22
-0.49318694859375256	-1.6070058541381343e-22
-0.49312591343750256	-1.5955041947697179e-22
-0.49306487828125256	-1.583858092772207e-22
-0.49300384312500256	-1.572081952029511e-22
-0.49294280796875256	-1.5601906494903923e-22
-0.49288177281250256	-1.5481886218777843e-22
-0.49282073765625256	-1.5360677178654732e-22
-0.49275970250000256	-1.5238149999830254e-22
-0.49269866734375256	-1.5114237252417435e-22
-0.49263763218750256	-1.4988989622701896e-22
-0.49257659703125256	-1.48625375237715e-22
-0.49251556187500256	-1.4734991630654293e-22
-0.49245452671875256	-1.4606364889086732e-22
-0.49239349156250256	-1.4476576409934634e-22
-0.49233245640625256	-1.434552750182543e-22
-0.49227142125000256	-1.421318742390765e-22
-0.49221038609375256	-1.4079623401760778e-22
-0.49214935093750256	-1.3944951229664293e-22
-0.49208831578125256	-1.380924812101756e-22
-0.49202728062500256	-1.3672501282578858e-22
-0.49196624546875256	-1.353463088772135e-22
-0.49190521031250256	-1.3395565440924827e-22
-0.49184417515625256	-1.3255308243909267e-22
-0.49178314000000256	-1.31139408063451e-22
-0.49172210484375256	-1.297156208526959e-22
-0.49166106968750256	-1.2828216485923953e-22
-0.49160003453125256	-1.2683869065591042e-22
-0.49153899937500256	-1.2538444606999088e-22
-0.49147796421875256	-1.23918980431596e-22
-0.49141692906250256	-1.2244260051170387e-22
-0.49135589390625256	-1.209562076703407e-22
-0.49129485875000256	-1.1946065112867886e-22
-0.49123382359375256	-1.1795612267467868e-22
-0.49117278843750256	-1.1644209165755073e-22
-0.49111175328125256	-1.1491784758155466e-22
-0.49105071812500256	-1.1338319642254905e-22
-0.49098968296875256	-1.1183872069466896e-22
-0.49092864781250256	-1.1028539556672158e-22
-0.49086761265625256	-1.0872388993925245e-22
-0.49080657750000256	-1.0715411617290411e-22
-0.49074554234375256	-1.055753804995949e-22
-0.49068450718750256	-1.0398702626990636e-22
-0.49062347203125256	-1.0238907756831879e-22
-0.49056243687500256	-1.0078235051644165e-22
-0.49050140171875256	-9.916790395865147e-23
-0.49044036656250256	-9.754628068445838e-23
-0.49037933140625256	-9.591717655372732e-23
-0.49031829625000256	-9.427978105932827e-23
-0.49025726109375256	-9.263350548248132e-23
-0.49019622593750256	-9.097856042285855e-23
-0.49013519078125256	-8.931592117487548e-23
-0.49007415562500256	-8.764665877522617e-23
-0.49001312046875256	-8.597118017954757e-23
-0.48995208531250256	-8.428900758933358e-23
-0.48989105015625256	-8.259925211860729e-23
-0.48983001500000256	-8.090140500625635e-23
-0.48976897984375256	-7.919584406563567e-23
-0.48970794468750256	-7.748366159289634e-23
-0.48964690953125256	-7.576593056337402e-23
-0.48958587437500256	-7.4042966172675e-23
-0.48952483921875256	-7.231416853056693e-23
-0.48946380406250256	-7.057858736170057e-23
-0.48940276890625256	-6.883577546311279e-23
-0.48934173375000256	-6.708626242188446e-23
-0.48928069859375256	-6.533126018848067e-23
-0.48921966343750256	-6.357181317300969e-23
-0.48915862828125256	-6.180807804759726e-23
-0.48909759312500256	-6.003931863940667e-23
-0.48903655796875256	-5.82645904489519e-23
-0.48897552281250256	-5.648357110127156e-23
-0.48891448765625256	-5.469693054350839e-23
-0.48885345250000256	-5.290593857990748e-23
-0.48879241734375256	-5.111157471733576e-23
-0.48873138218750256	-4.931386083602068e-23
-0.48867034703125256	-4.751196485897761e-23
-0.48860931187500256	-4.5704978897277654e-23
-0.48854827671875256	-4.3892743688002646e-23
-0.48848724156250256	-4.2076069185182125e-23
-0.48842620640625256	-4.025619671248194e-23
-0.48836517125000256	-3.843393824286465e-23
-0.48830413609375256	-3.660916751001863e-23
-0.48824310093750256	-3.478105321053782e-23
-0.48818206578125256	-3.2948823048728107e-23
-0.48812103062500256	-3.111246008331067e-23
-0.48805999546875256	-2.927282343116467e-23
-0.48799896031250256	-2.74310979319947e-23
-0.48793792515625256	-2.558797578802884e-23
-0.48787689000000256	-2.3743227395847623e-23
-0.48781585484375256	-2.189602500279014e-23
-0.48775481968750256	-2.004573362966358e-23
-0.48769378453125256	-1.8192510500647028e-23
-0.48763274937500256	-1.633726269607826e-23
-0.48757171421875256	-1.448103129212728e-23
-0.48751067906250256	-1.2624301616404819e-23
-0.48744964390625256	-1.0766762941685429e-23
-0.48738860875000256	-8.907671836938902e-24
-0.48732757359375256	-7.04654624664021e-24
-0.48726653843750256	-5.183666358202585e-24
-0.48720550328125256	-3.319976774043209e-24
-0.48714446812500256	-1.4564588365329443e-24
-0.48708343296875256	4.065306889224785e-25
-0.48702239781250256	2.2694268086961107e-24
-0.48696136265625256	4.132992264506101e-24
-0.48690032750000256	5.9975918758183585e-24
-0.48683929234375256	7.862782446546712e-24
-0.48677825718750256	9.727551879963008e-24
-0.48671722203125256	1.1591017606199682e-23
-0.48665618687500256	1.3453006693187918e-23
-0.48659515171875256	1.531405293886368e-23
-0.48653411656250256	1.7174844643760473e-23
-0.48647308140625256	1.903557468276712e-23
-0.48641204625000256	2.0895676132642554e-23
-0.48635101109375256	2.2754142148670194e-23
-0.48628997593750256	2.461020916209976e-23
-0.48622894078125256	2.6463855483540912e-23
-0.48616790562500256	2.831569096822672e-23
-0.48610687046875256	3.01663418141276e-23
-0.48604583531250256	3.201583391550685e-23
-0.48598480015625256	3.386345255252415e-23
-0.48592376500000256	3.570819640826298e-23
-0.48586272984375256	3.7549465961955773e-23
-0.48580169468750256	3.938742230943976e-23
-0.48574065953125256	4.122273304631048e-23
-0.48567962437500256	4.3055915475722205e-23
-0.48561858921875256	4.488681427867036e-23
-0.48555755406250256	4.6714626369184713e-23
-0.48549651890625256	4.853841877416039e-23
-0.48543548375000256	5.035772846597186e-23
-0.48537444859375256	5.2172807389591986e-23
-0.48531341343750256	5.398432585625537e-23
-0.48525237828125256	5.579273232807499e-23
-0.48519134312500256	5.759775966873635e-23
-0.48513030796875256	5.939849188748013e-23
-0.48506927281250256	6.119397112155719e-23
-0.48500823765625256	6.298386851257708e-23
-0.48494720250000256	6.476865111629907e-23
-0.48488616734375256	6.654910038343323e-23
-0.48482513218750256	6.832557520730827e-23
-0.48476409703125256	7.00975970163255e-23
-0.48470306187500256	7.186410188841446e-23
-0.48464202671875256	7.362417522664244e-23
-0.48458099156250256	7.537766409934083e-23
-0.48451995640625256	7.712518674956294e-23
-0.48445892125000256	7.88675485486486e-23
-0.48439788609375256	8.060499780171697e-23
-0.48433685093750256	8.233690028639694e-23
-0.48427581578125256	8.406211148563476e-23
-0.48421478062500256	8.577975044772362e-23
-0.48415374546875256	8.748977589040099e-23
-0.48409271031250256	8.919293752578877e-23
-0.48403167515625256	9.089011613533983e-23
-0.48397064000000256	9.258152249267182e-23
-0.48390960484375256	9.426638881480917e-23
-0.48384856968750256	9.594343402572144e-23
-0.48378753453125256	9.761175663357575e-23
-0.48372649937500256	9.927145475533844e-23
-0.48366546421875256	1.0092347463661734e-22
-0.48360442906250256	1.0256877480253663e-22
-0.48354339390625256	1.0420744504308516e-22
-0.48348235875000256	1.0583849237265088e-22
-0.48342132359375256	1.0746048411647572e-22
-0.48336028843750256	1.090725667423471e-22
-0.48329925328125256	1.106750729516355e-22
-0.48323821812500256	1.122691996736535e-22
-0.48317718296875256	1.1385597555859342e-22
-0.48311614781250256	1.1543533738374067e-22
-0.48305511265625256	1.1700604348093266e-22
-0.48299407750000256	1.18566506349891e-22
-0.48293304234375256	1.201159314029939e-22
-0.48287200718750256	1.216548839032259e-22
-0.48281097203125256	1.231848024451121e-22
-0.48274993687500256	1.2470678244483655e-22
-0.48268890171875256	1.2622056981765683e-22
-0.48262786656250256	1.2772459020552968e-22
-0.48256683140625256	1.292170479928493e-22
-0.48250579625000256	1.3069728259757906e-22
-0.48244476109375256	1.3216627839197133e-22
-0.48238372593750256	1.3362583755221987e-22
-0.48232269078125256	1.3507704443353758e-22
-0.48226165562500256	1.3651925333270586e-22
-0.48220062046875256	1.3795042876195231e-22
-0.48213958531250256	1.3936862752295293e-22
-0.48207855015625256	1.4077349147502062e-22
-0.48201751500000256	1.4216653061357315e-22
-0.48195647984375256	1.43549888931608e-22
-0.48189544468750256	1.4492452844130208e-22
-0.48183440953125256	1.462892934938936e-22
-0.48177337437500256	1.4764166242289986e-22
-0.48171233921875256	1.4897965027869954e-22
-0.48165130406250256	1.5030335113306858e-22
-0.48159026890625256	1.5161485219826977e-22
-0.48152923375000256	1.52916546525677e-22
-0.48146819859375256	1.5420913087482616e-22
-0.48140716343750256	1.5549086960853876e-22
-0.48134612828125256	1.567587991714346e-22
-0.48128509312500256	1.5801099465643642e-22
-0.48122405796875256	1.5924808862903918e-22
-0.48116302281250256	1.6047277994093034e-22
-0.48110198765625256	1.6168764774163185e-22
-0.48104095250000256	1.6289297244299844e-22
-0.48097991734375256	1.640863430318775e-22
-0.48091888218750256	1.6526443191889243e-22
-0.48085784703125256	1.6642556109409604e-22
-0.48079681187500256	1.675710145183773e-22
-0.48073577671875256	1.6870401405279925e-22
-0.48067474156250256	1.698271176912524e-22
-0.48061370640625256	1.7094007844825836e-22
-0.48055267125000256	1.7203989173656753e-22
-0.48049163609375256	1.7312305479914595e-22
-0.48043060093750256	1.74188283602346e-22
-0.48036956578125256	1.7523751442169474e-22
-0.48030853062500256	1.7627435202185905e-22
-0.48024749546875256	1.7730115762367342e-22
-0.48018646031250256	1.7831707102841338e-22
-0.48012542515625256	1.7931856549469979e-22
-0.48006439000000256	1.80302142391875e-22
-0.48000335484375256	1.8126704666185246e-22
-0.47994231968750256	1.8221583810386987e-22
-0.47988128453125256	1.8315234056219223e-22
-0.47982024937500256	1.8407857003341096e-22
-0.47975921421875256	1.8499305689406011e-22
-0.47969817906250256	1.8589189093159918e-22
-0.47963714390625256	1.8677170290465533e-22
-0.47957610875000256	1.8763227264208325e-22
-0.47951507359375256	1.8847669983435949e-22
-0.47945403843750256	1.8930895592203639e-22
-0.47939300328125256	1.9013070414328705e-22
-0.47933196812500256	1.909398899296938e-22
-0.47927093296875256	1.917322421389283e-22
-0.47920989781250256	1.9250453901115943e-22
-0.47914886265625256	1.932571019347148e-22
-0.47908782750000256	1.9399355964160098e-22
-0.47902679234375256	1.947180191158949e-22
-0.47896575718750256	1.9543180159723281e-22
-0.47890472203125256	1.9613228683531996e-22
-0.47884368687500256	1.968148196648513e-22
-0.47878265171875256	1.974762649040724e-22
-0.47872161656250256	1.9811747065111565e-22
-0.47866058140625256	1.9874267590400646e-22
-0.47859954625000256	1.9935623284607535e-22
-0.47853851109375256	1.9995913473525477e-22
-0.47847747593750256	2.0054807800177553e-22
-0.47841644078125256	2.0111787791912678e-22
-0.47835540562500256	2.0166544975943529e-22
-0.47829437046875256	2.021922875292688e-22
-0.47823333531250256	2.0270342923055686e-22
-0.47817230015625256	2.0320357238215173e-22
-0.47811126500000256	2.0369329000056989e-22
-0.47805022984375256	2.0416835298758716e-22
-0.47798919468750256	2.0462283852967553e-22
-0.47792815953125256	2.050537363012053e-22
-0.47786712437500256	2.0546346319495386e-22
-0.47780608921875256	2.0585817257929806e-22
-0.47774505406250256	2.0624298809096444e-22
-0.47768401890625256	2.0661781353418227e-22
-0.47762298375000256	2.0697710450959742e-22
-0.47756194859375256	2.0731400001531325e-22
-0.47750091343750256	2.076257366805753e-22
-0.47743987828125256	2.0791606372722549e-22
-0.47737884312500256	2.081925547007819e-22
-0.47731780796875256	2.0846070087375827e-22
-0.47725677281250256	2.08719358772448e-22
-0.47719573765625256	2.0896128929003436e-22
-0.47713470250000256	2.0917863401769277e-22
-0.47707366734375256	2.0936918600880808e-22
-0.47701263218750256	2.0953844827558802e-22
-0.47695159703125256	2.0969559614580673e-22
-0.47689056187500256	2.0984626935496771e-22
-0.47682952671875256	2.0998783729383702e-22
-0.47676849156250256	2.1011108541203846e-22
-0.47670745640625256	2.1020728747534092e-22
-0.47664642125000256	2.102752296865512e-22
-0.47658538609375256	2.103225262060409e-22
-0.47652435093750256	2.1035989614330903e-22
-0.47646331578125256	2.1039269030907486e-22
-0.47640228062500256	2.1041636809327038e-22
-0.47634124546875256	2.1041972252064567e-22
-0.47628021031250256	2.1039357437950207e-22
-0.47621917515625256	2.1033818585723023e-22
-0.47615814000000256	2.1026341361147484e-22
-0.47609710484375256	2.1018119754624422e-22
-0.47603606968750256	2.1009610127957317e-22
-0.47597503453125256	2.1000140805582757e-22
-0.47591399937500256	2.0988409407792346e-22
-0.47585296421875256	2.0973499447972135e-22
-0.47579192906250256	2.0955621455916666e-22
-0.47573089390625256	2.093597980268922e-22
-0.47566985875000256	2.0915845370628295e-22
-0.47560882359375256	2.0895550008574353e-22
-0.47554778843750256	2.0874200137764153e-22
-0.47548675328125256	2.0850354688525033e-22
-0.47542571812500256	2.0823152855554275e-22
-0.47536468296875256	2.079300847824998e-22
-0.47530364781250256	2.0761312080505399e-22
-0.47524261265625256	2.0729355954177193e-22
-0.47518157750000256	2.0697316378832875e-22
-0.47512054234375256	2.0664096416328568e-22
-0.47505950718750256	2.0628166903066472e-22
-0.47499847203125256	2.0588760771691e-22
-0.47493743687500256	2.0546489371621267e-22
-0.47487640171875256	2.050288848735401e-22
-0.47481536656250256	2.045923340929855e-22
-0.47475433140625256	2.04155401689701e-22
-0.47469329625000256	2.037053653891457e-22
-0.47463226109375256	2.032263793558385e-22
-0.47457122593750256	2.0271180088269635e-22
-0.47451019078125256	2.021695258807695e-22
-0.47444915562500256	2.0161610210663842e-22
-0.47438812046875256	2.0106404818100257e-22
-0.47432708531250256	2.0051210959927864e-22
-0.47426605015625256	1.9994602159275917e-22
-0.47420501500000256	1.9934934405536536e-22
-0.47414397984375256	1.9871616736253246e-22
-0.47408294468750256	1.980559288685331e-22
-0.47402190953125256	1.9738649987802364e-22
-0.47396087437500256	1.9672063279626046e-22
-0.47389983921875256	1.9605602225889398e-22
-0.47383880406250256	1.9537669281448852e-22
-0.47377776890625256	1.946649557799644e-22
-0.47371673375000256	1.9391504834461283e-22
-0.47365569859375256	1.9313802110413815e-22
-0.47359466343750256	1.9235385134835362e-22
-0.47353362828125256	1.9157641033610407e-22
-0.47347259312500256	1.9080254896177364e-22
-0.47341155796875256	1.900138393089775e-22
-0.47335052281250256	1.8919017858076028e-22
-0.47328948765625256	1.8832531131521847e-22
-0.47322845250000256	1.8743239263166686e-22
-0.47316741734375256	1.8653482588942848e-22
-0.47310638218750256	1.8564871741199739e-22
-0.47304534703125256	1.847700681624854e-22
-0.47298431187500256	1.8387683279083172e-22
-0.47292327671875256	1.829450531795915e-22
-0.47286224156250256	1.8196737736898137e-22
-0.47280120640625256	1.80959760819797e-22
-0.47274017125000256	1.7995049439699938e-22
-0.47267913609375256	1.789590682989091e-22
-0.47261810093750256	1.779806546971687e-22
-0.47255706578125256	1.769885130885137e-22
-0.47249603062500256	1.759534562400562e-22
-0.47243499546875256	1.7486630023184668e-22
