Time	Frequency
-0.5000572187187515	-2.0138027651365538e-22
-0.49999618356250153	-2.0173557613703705e-22
-0.49993514840625153	-2.0207812355777092e-22
-0.49987411325000153	-2.0241058944633166e-22
-0.49981307809375153	-2.0273244424723455e-22
-0.49975204293750153	-2.030402547781319e-22
-0.49969100778125153	-2.0332957194915204e-22
-0.49962997262500153	-2.0359735669334946e-22
-0.49956893746875153	-2.038436097034839e-22
-0.49950790231250153	-2.0407132363727436e-22
-0.49944686715625153	-2.0428480473564255e-22
-0.49938583200000153	-2.0448730161993975e-22
-0.49932479684375153	-2.0467924464330277e-22
-0.49926376168750153	-2.0485804542022055e-22
-0.49920272653125153	-2.0501953954694714e-22
-0.49914169137500153	-2.0516026104162847e-22
-0.49908065621875153	-2.0527929939258691e-22
-0.49901962106250153	-2.0537873653495875e-22
-0.49895858590625153	-2.054624516081273e-22
-0.49889755075000153	-2.0553397600253693e-22
-0.49883651559375153	-2.0559458339973705e-22
-0.49877548043750153	-2.056426449846049e-22
-0.49871444528125153	-2.056745721138555e-22
-0.49865341012500153	-2.0568680130504712e-22
-0.49859237496875153	-2.0567772085689124e-22
-0.49853133981250153	-2.056484948147023e-22
-0.49847030465625153	-2.0560236314129302e-22
-0.49840926950000153	-2.0554283140171498e-22
-0.49834823434375153	-2.0547175817647943e-22
-0.49828719918750153	-2.0538838595322077e-22
-0.49822616403125153	-2.0528982176218143e-22
-0.49816512887500153	-2.0517266830112556e-22
-0.49810409371875153	-2.0503488908463375e-22
-0.49804305856250153	-2.0487688583270265e-22
-0.49798202340625153	-2.047012193605461e-22
-0.49792098825000153	-2.045111615568894e-22
-0.49785995309375153	-2.043088972962613e-22
-0.49779891793750153	-2.0409436475468407e-22
-0.49773788278125153	-2.0386535205404487e-22
-0.49767684762500153	-2.0361876679045911e-22
-0.49761581246875153	-2.0335235710780095e-22
-0.49755477731250153	-2.0306593334226198e-22
-0.49749374215625153	-2.0276143319121938e-22
-0.49743270700000153	-2.024418206746318e-22
-0.49737167184375153	-2.0210944780725914e-22
-0.49731063668750153	-2.0176479024430374e-22
-0.49724960153125153	-2.0140624131557965e-22
-0.49718856637500153	-2.0103105079612236e-22
-0.49712753121875153	-2.006368704428406e-22
-0.49706649606250153	-2.00223050633402e-22
-0.49700546090625153	-1.9979098056666114e-22
-0.49694442575000153	-1.9934329969309664e-22
-0.49688339059375153	-1.9888243711796527e-22
-0.49682235543750153	-1.984092972214322e-22
-0.49676132028125153	-1.979228068770142e-22
-0.49670028512500153	-1.9742055522456766e-22
-0.49663924996875153	-1.9690016079617313e-22
-0.49657821481250153	-1.9636060490200715e-22
-0.49651717965625153	-1.9580279417844129e-22
-0.49645614450000153	-1.9522905484794784e-22
-0.49639510934375153	-1.9464185519279267e-22
-0.49633407418750153	-1.9404246567072727e-22
-0.49627303903125153	-1.9343029612867636e-22
-0.49621200387500153	-1.9280326987784613e-22
-0.49615096871875153	-1.9215900966857284e-22
-0.49608993356250153	-1.9149617250183495e-22
-0.49602889840625153	-1.9081520179967338e-22
-0.49596786325000153	-1.901180889421135e-22
-0.49590682809375153	-1.8940728879532746e-22
-0.49584579293750153	-1.886843971452048e-22
-0.49578475778125153	-1.8794931479446593e-22
-0.49572372262500153	-1.872003488676973e-22
-0.49566268746875153	-1.8643518732282545e-22
-0.49560165231250153	-1.8565220178900163e-22
-0.49554061715625153	-1.8485135853458473e-22
-0.49547958200000153	-1.840342524283412e-22
-0.49541854684375153	-1.8320326038141662e-22
-0.49535751168750153	-1.8236027179031639e-22
-0.49529647653125153	-1.8150568960378985e-22
-0.49523544137500153	-1.806382564659394e-22
-0.49517440621875153	-1.797557912750143e-22
-0.49511337106250153	-1.7885641853739944e-22
-0.49505233590625153	-1.7793962024388193e-22
-0.49499130075000153	-1.7700654161351965e-22
-0.49493026559375153	-1.7605939249710844e-22
-0.49486923043750153	-1.7510028414273912e-22
-0.49480819528125153	-1.741301295617791e-22
-0.49474716012500153	-1.731481938220421e-22
-0.49468612496875153	-1.7215254139618592e-22
-0.49462508981250153	-1.711411341165622e-22
-0.49456405465625153	-1.7011297257971316e-22
-0.49450301950000153	-1.6906866256656496e-22
-0.49444198434375153	-1.680101146244878e-22
-0.49438094918750153	-1.6693955053169749e-22
-0.49431991403125153	-1.6585835067954794e-22
-0.49425887887500153	-1.6476636519166825e-22
-0.49419784371875153	-1.6366205869664396e-22
-0.49413680856250153	-1.6254339510090706e-22
-0.49407577340625153	-1.6140897505490276e-22
-0.49401473825000153	-1.6025881728876013e-22
-0.49395370309375153	-1.5909437453456197e-22
-0.49389266793750153	-1.579177871669215e-22
-0.49383163278125153	-1.5673077946879903e-22
-0.49377059762500153	-1.555337911970261e-22
-0.49370956246875153	-1.5432581575481194e-22
-0.49364852731250153	-1.5310502036616297e-22
-0.49358749215625153	-1.518697851873985e-22
-0.49352645700000153	-1.5061960059361654e-22
-0.49346542184375153	-1.4935536493984047e-22
-0.49340438668750153	-1.4807893256668996e-22
-0.49334335153125153	-1.4679215552423254e-22
-0.49328231637500153	-1.4549594864362531e-22
-0.49322128121875153	-1.4418988635908656e-22
-0.49316024606250153	-1.428725225909645e-22
-0.49309921090625153	-1.4154223500813495e-22
-0.49303817575000153	-1.4019814019646857e-22
-0.49297714059375153	-1.3884060049122416e-22
-0.49291610543750153	-1.374710551797143e-22
-0.49285507028125153	-1.360912728586161e-22
-0.49279403512500153	-1.3470244855763764e-22
-0.49273299996875153	-1.333046425945262e-22
-0.49267196481250153	-1.3189684558261145e-22
-0.49261092965625153	-1.3047761296680535e-22
-0.49254989450000153	-1.2904591068020079e-22
-0.49248885934375153	-1.2760171151319782e-22
-0.49242782418750153	-1.2614603567736804e-22
-0.49236678903125153	-1.2468042987241887e-22
-0.49230575387500153	-1.2320617895665628e-22
-0.49224471871875153	-1.217236864030291e-22
-0.49218368356250153	-1.2023234791522715e-22
-0.49212264840625153	-1.1873096787661526e-22
-0.49206161325000153	-1.1721848774441394e-22
-0.49200057809375153	-1.1569462408520943e-22
-0.49193954293750153	-1.141600626120975e-22
-0.49187850778125153	-1.126161174166723e-22
-0.49181747262500153	-1.1106406545988245e-22
-0.49175643746875153	-1.095045228718206e-22
-0.49169540231250153	-1.0793718876281617e-22
-0.49163436715625153	-1.0636108983908874e-22
-0.49157333200000153	-1.0477519484240769e-22
-0.49151229684375153	-1.0317905346465386e-22
-0.49145126168750153	-1.0157309829609495e-22
-0.49139022653125153	-9.995845917532831e-23
-0.49132919137500153	-9.833640630766307e-23
-0.49126815621875153	-9.670771685680988e-23
-0.49120712106250153	-9.507231677038613e-23
-0.49114608590625153	-9.342940946061265e-23
-0.49108505075000153	-9.17780003092856e-23
-0.49102401559375153	-9.011750910614829e-23
-0.49096298043750153	-8.844815360940446e-23
-0.49090194528125153	-8.677090423322013e-23
-0.49084091012500153	-8.50870181877675e-23
-0.49077987496875153	-8.339741040659115e-23
-0.49071883981250153	-8.170222347720954e-23
-0.49065780465625153	-8.000082925659676e-23
-0.49059676950000153	-7.829224904570531e-23
-0.49053573434375153	-7.657576360675561e-23
-0.49047469918750153	-7.485138474511873e-23
-0.49041366403125153	-7.311992548316539e-23
-0.49035262887500153	-7.138262801204018e-23
-0.49029159371875153	-6.964055715876869e-23
-0.49023055856250153	-6.789408642300333e-23
-0.49016952340625153	-6.614275983792264e-23
-0.49010848825000153	-6.438561556383459e-23
-0.49004745309375153	-6.262179311364424e-23
-0.48998641793750153	-6.085108688294921e-23
-0.48992538278125153	-5.907413978897e-23
-0.48986434762500153	-5.729217213783675e-23
-0.48980331246875153	-5.55063934873193e-23
-0.48974227731250153	-5.37174117071856e-23
-0.48968124215625153	-5.192496872381009e-23
-0.48962020700000153	-5.0128160013345427e-23
-0.48955917184375153	-4.8326011040800756e-23
-0.48949813668750153	-4.6518088554626657e-23
-0.48943710153125153	-4.4704816599229696e-23
-0.48937606637500153	-4.288732084697843e-23
-0.48931503121875153	-4.106688740212737e-23
-0.48925399606250153	-3.924434086939742e-23
-0.48919296090625153	-3.741967527281293e-23
-0.48913192575000153	-3.5592134419985397e-23
-0.48907089059375153	-3.3760706651455305e-23
-0.48900985543750153	-3.1924764527220204e-23
-0.48894882028125153	-3.008449004898752e-23
-0.48888778512500153	-2.8240848814239043e-23
-0.48882674996875153	-2.639513237287969e-23
-0.48876571481250153	-2.4548324874001665e-23
-0.48870467965625153	-2.270064489804837e-23
-0.48864364450000153	-2.0851514630821058e-23
-0.48858260934375153	-1.899997047028461e-23
-0.48852157418750153	-1.7145282355191806e-23
-0.48846053903125153	-1.5287433991906616e-23
-0.48839950387500153	-1.342720106827114e-23
-0.48833846871875153	-1.1565788675726955e-23
-0.48827743356250153	-9.704238417096931e-24
-0.48821639840625153	-7.842942740348725e-24
-0.48815536325000153	-5.981526022780168e-24
-0.48809432809375153	-4.119147924455453e-24
-0.48803329293750153	-2.255058940638307e-24
-0.48797225778125153	-3.890971146141857e-25
-0.48791122262500153	1.478147808295022e-24
-0.48785018746875153	3.345591568061799e-24
-0.48778915231250153	5.212193045862267e-24
-0.48772811715625153	7.077463177306002e-24
-0.48766708200000153	8.94164299827492e-24
-0.48760604684375153	1.0805460010022363e-23
-0.48754501168750153	1.266962193855611e-23
-0.48748397653125153	1.453432987437031e-23
-0.48742294137500153	1.639908371470801e-23
-0.48736190621875153	1.826289834466067e-23
-0.48730087106250153	2.0124795308159953e-23
-0.48723983590625153	2.198427729361433e-23
-0.48717880075000153	2.384152044469698e-23
-0.48711776559375153	2.5697177469451288e-23
-0.48705673043750153	2.755190600375483e-23
-0.48699569528125153	2.940590058877864e-23
-0.48693466012500153	3.125869874402202e-23
-0.48687362496875153	3.310936884499419e-23
-0.48681258981250153	3.4956968775357466e-23
-0.48675155465625153	3.680100861933051e-23
-0.48669051950000153	3.864164522280305e-23
-0.48662948434375153	4.047949818233589e-23
-0.48656844918750153	4.2315205507406986e-23
-0.48650741403125153	4.414897187511396e-23
-0.48644637887500153	4.5980360556087903e-23
-0.48638534371875153	4.7808452463782056e-23
-0.48632430856250153	4.963228844557121e-23
-0.48626327340625153	5.1451346237916784e-23
-0.48620223825000153	5.326576859522202e-23
-0.48614120309375153	5.507619979605584e-23
-0.48608016793750153	5.688333202366886e-23
-0.48601913278125153	5.868742340333138e-23
-0.48595809762500153	6.048805463520018e-23
-0.48589706246875153	6.228427282063401e-23
-0.48583602731250153	6.407505124640829e-23
-0.48577499215625153	6.585979367672252e-23
-0.48571395700000153	6.763859132939716e-23
-0.48565292184375153	6.941209699838477e-23
-0.48559188668750153	7.118108637921362e-23
-0.48553085153125153	7.294593876795889e-23
-0.48546981637500153	7.47063318792968e-23
-0.48540878121875153	7.646133684898041e-23
-0.48534774606250153	7.82098574229919e-23
-0.48528671090625153	7.995116007716346e-23
-0.48522567575000153	8.168520421206452e-23
-0.48516464059375153	8.341259182818103e-23
-0.48510360543750153	8.513416195445748e-23
-0.48504257028125153	8.685045317160345e-23
-0.48498153512500153	8.856133007865648e-23
-0.48492049996875153	9.026597756139778e-23
-0.48485946481250153	9.19632631996066e-23
-0.48479842965625153	9.365226997351611e-23
-0.48473739450000153	9.533271845777343e-23
-0.48467635934375153	9.700505623544774e-23
-0.48461532418750153	9.867015219730349e-23
-0.48455428903125153	1.0032875409247319e-22
-0.48449325387500153	1.0198101129486256e-22
-0.48443221871875153	1.0362631129740758e-22
-0.48437118356250153	1.0526351773300174e-22
-0.48431014840625153	1.0689150085877894e-22
-0.48424911325000153	1.08509677990649e-22
-0.48418807809375153	1.1011826790376055e-22
-0.48412704293750153	1.1171811773850133e-22
-0.48406600778125153	1.1331018836415062e-22
-0.48400497262500153	1.1489497198106944e-22
-0.48394393746875153	1.1647214859829991e-22
-0.48388290231250153	1.180406638294958e-22
-0.48382186715625153	1.1959920089843534e-22
-0.48376083200000153	1.2114680937540836e-22
-0.48369979684375153	1.226833598745523e-22
-0.48363876168750153	1.2420957562775865e-22
-0.48357772653125153	1.2572660822544278e-22
-0.48351669137500153	1.2723536602578888e-22
-0.48345565621875153	1.2873594549980028e-22
-0.48339462106250153	1.3022747671465643e-22
-0.48333358590625153	1.317084809070325e-22
-0.48327255075000153	1.331775746515056e-22
-0.48321151559375153	1.346341640513854e-22
-0.48315048043750153	1.3607874494211756e-22
-0.48308944528125153	1.37512621081066e-22
-0.48302841012500153	1.3893716726508404e-22
-0.48296737496875153	1.4035301358012473e-22
-0.48290633981250153	1.4175959408605217e-22
-0.48284530465625153	1.4315533040790604e-22
-0.48278426950000153	1.4453837783111439e-22
-0.48272323434375153	1.4590755616539697e-22
-0.48266219918750153	1.4726297644609067e-22
-0.48260116403125153	1.4860599740567953e-22
-0.48254012887500153	1.4993848371549151e-22
-0.48247909371875153	1.512617389725638e-22
-0.48241805856250153	1.5257568927623705e-22
-0.48235702340625153	1.5387877851426455e-22
-0.48229598825000153	1.551686813755918e-22
-0.48223495309375153	1.5644349373317617e-22
-0.48217391793750153	1.577027599580635e-22
-0.48211288278125153	1.5894775539700996e-22
-0.48205184762500153	1.6018082188122682e-22
-0.48199081246875153	1.6140405975003207e-22
-0.48192977731250153	1.6261807322135507e-22
-0.48186874215625153	1.6382148650879512e-22
-0.48180770700000153	1.6501154702456103e-22
-0.48174667184375153	1.6618553941726396e-22
-0.48168563668750153	1.6734225981703185e-22
-0.48162460153125153	1.6848271862532965e-22
-0.48156356637500153	1.6960963609557955e-22
-0.48150253121875153	1.7072594884004265e-22
-0.48144149606250153	1.718331100926713e-22
-0.48138046090625153	1.7293013748044773e-22
-0.48131942575000153	1.7401399158184823e-22
-0.48125839059375153	1.7508113759772444e-22
-0.48119735543750153	1.7612946717732183e-22
-0.48113632028125153	1.7715950901674648e-22
-0.48107528512500153	1.7817420203297504e-22
-0.48101424996875153	1.7917729162652655e-22
-0.48095321481250153	1.8017119762863266e-22
-0.48089217965625153	1.8115553973353814e-22
-0.48083114450000153	1.8212718791628377e-22
-0.48077010934375153	1.8308187298916438e-22
-0.48070907418750153	1.8401650489964566e-22
-0.48064803903125153	1.8493091774142237e-22
-0.48058700387500153	1.8582803217452796e-22
-0.48052596871875153	1.8671227635312752e-22
-0.48046493356250153	1.8758709397058352e-22
-0.48040389840625153	1.8845292234848834e-22
-0.48034286325000153	1.89306802157661e-22
-0.48028182809375153	1.901438909237964e-22
-0.48022079293750153	1.9096008685063345e-22
-0.48015975778125153	1.9175431910926038e-22
-0.48009872262500153	1.9252920282631592e-22
-0.48003768746875153	1.932896405742374e-22
-0.47997665231250153	1.940400960718836e-22
-0.47991561715625153	1.9478203648239576e-22
-0.47985458200000153	1.9551299120481507e-22
-0.47979354684375153	1.9622779986460498e-22
-0.47973251168750153	1.9692140052620752e-22
-0.47967147653125153	1.9759163089303959e-22
-0.47961044137500153	1.982404737891817e-22
-0.47954940621875153	1.9887301237034093e-22
-0.47948837106250153	1.994946279281937e-22
-0.47942733590625153	2.001079690057167e-22
-0.47936630075000153	2.0071138060898674e-22
-0.47930526559375153	2.0129970405714722e-22
-0.47924423043750153	2.0186705077307207e-22
-0.47918319528125153	2.024100415941385e-22
-0.47912216012500153	2.0292971527460738e-22
-0.47906112496875153	2.0343101239098453e-22
-0.47900008981250153	2.0392007217889233e-22
-0.47893905465625153	2.0440081012331957e-22
-0.47887801950000153	2.048726696290745e-22
-0.47881698434375153	2.0533082060707347e-22
-0.47875594918750153	2.0576874224225596e-22
-0.47869491403125153	2.0618179758800463e-22
-0.47863387887500153	2.0656982713378213e-22
-0.47857284371875153	2.069372985210788e-22
-0.47851180856250153	2.0729088563612663e-22
-0.47845077340625153	2.0763577842134567e-22
-0.47838973825000153	2.079727520266672e-22
-0.47832870309375153	2.0829763860137976e-22
-0.47826766793750153	2.086035383200965e-22
-0.47820663278125153	2.0888458699817947e-22
-0.47814559762500153	2.091392119095764e-22
-0.47808456246875153	2.093710595418225e-22
-0.47802352731250153	2.095870449038789e-22
-0.47796249215625153	2.0979356055844382e-22
-0.47790145700000153	2.099929172217503e-22
-0.47784042184375153	2.1018198902437553e-22
-0.47777938668750153	2.103538443187451e-22
-0.47771835153125153	2.1050150130176386e-22
-0.47765731637500153	2.1062176411750708e-22
-0.47759628121875153	2.107170300519928e-22
-0.47753524606250153	2.1079405131044025e-22
-0.47747421090625153	2.108602915011616e-22
-0.47741317575000153	2.1091983915834155e-22
-0.47735214059375153	2.1097110597465344e-22
-0.47729110543750153	2.110075894595793e-22
-0.47723007028125153	2.110213248752376e-22
-0.47716903512500153	2.1100719052167614e-22
-0.47710799996875153	2.1096575148342535e-22
-0.47704696481250153	2.1090307719673734e-22
-0.47698592965625153	2.1082756683098067e-22
-0.47692489450000153	2.1074544008345973e-22
-0.47686385934375153	2.1065731131424832e-22
-0.47680282418750153	2.1055771994285537e-22
-0.47674178903125153	2.104379285487122e-22
-0.47668075387500153	2.10290554487449e-22
-0.47661971871875153	2.101135933802242e-22
-0.47655868356250153	2.0991166505570838e-22
-0.47649764840625153	2.0969373860946293e-22
-0.47643661325000153	2.094684475814588e-22
-0.47637557809375153	2.092394248968263e-22
-0.47631454293750153	2.0900315848376773e-22
-0.47625350778125153	2.0875061055843945e-22
-0.47619247262500153	2.0847187727618776e-22
-0.47613143746875153	2.0816151610658757e-22
-0.47607040231250153	2.0782171097969594e-22
-0.47600936715625153	2.0746146795981512e-22
-0.47594833200000153	2.0709207718879502e-22
-0.47588729684375153	2.0672110073747933e-22
-0.47582626168750153	2.0634806285295617e-22
-0.47576522653125153	2.0596427850379121e-22
-0.47570419137500153	2.0555715439634113e-22
-0.47564315621875153	2.0511687931497655e-22
-0.47558212106250153	2.0464199012558275e-22
-0.47552108590625153	2.0414069839946107e-22
-0.47546005075000153	2.0362697969633657e-22
-0.47539901559375153	2.0311323845915344e-22
-0.47533798043750153	2.0260337767375302e-22
-0.47527694528125153	2.0209013062938887e-22
-0.47521591012500153	2.0155840246926672e-22
-0.47515487496875153	2.0099315973074184e-22
-0.47509383981250153	2.0038779125219518e-22
-0.47503280465625153	1.9974833400496139e-22
-0.47497176950000153	1.9909095023837538e-22
-0.47491073434375153	1.9843361838347524e-22
-0.47484969918750153	1.9778628242871582e-22
-0.47478866403125153	1.9714484110954582e-22
-0.47472762887500153	1.9649256884538043e-22
-0.47466659371875153	1.9580864811089892e-22
-0.47460555856250153	1.9507950819534963e-22
-0.47454452340625153	1.9430684025764952e-22
-0.47448348825000153	1.9350763103814103e-22
-0.47442245309375153	1.927056993147845e-22
-0.47436141793750153	1.9191891654366045e-22
-0.47430038278125153	1.9114896161268577e-22
-0.47423934762500153	1.903794554802697e-22
-0.47417831246875153	1.8958399873408014e-22
-0.47411727731250153	1.8874022906313856e-22
-0.47405624215625153	1.8784245937746507e-22
-0.47399520700000153	1.8690581633452866e-22
-0.47393417184375153	1.8595910525266637e-22
-0.47387313668750153	1.8502972037822574e-22
-0.47381210153125153	1.8412850308698633e-22
-0.47375106637500153	1.832429074194858e-22
-0.47369003121875153	1.8234268670613964e-22
-0.47362899606250153	1.8139561758583862e-22
-0.47356796090625153	1.8038512205746446e-22
-0.47350692575000153	1.7932019525644125e-22
-0.47344589059375153	1.7823179796353498e-22
-0.47338485543750153	1.7715703513045869e-22
-0.47332382028125153	1.7611922007485023e-22
-0.47326278512500153	1.7511455634111867e-22
-0.47320174996875153	1.7411302711881828e-22
-0.47314071481250153	1.730736359154961e-22
-0.47307967965625153	1.7196628996933707e-22
-0.47301864450000153	1.7078864848199617e-22
-0.47295760934375153	1.6956852934677663e-22
-0.47289657418750153	1.6835000914691172e-22
-0.47283553903125153	1.6717019683729866e-22
-0.47277450387500153	1.6603898375566904e-22
-0.47271346871875153	1.649328684790783e-22
-0.47265243356250153	1.638066652161801e-22
-0.47259139840625153	1.6261728476969254e-22
-0.47253036325000153	1.613470343349224e-22
-0.47246932809375153	1.600138027028096e-22
