Time	Frequency
-0.5000247492500023	-7.797815167684632e-23
-0.4999637140937523	-7.690885623185104e-23
-0.4999026789375023	-7.583074748366402e-23
-0.4998416437812523	-7.474551073995217e-23
-0.4997806086250023	-7.365407524790713e-23
-0.4997195734687523	-7.255612015106802e-23
-0.4996585383125023	-7.145028284036804e-23
-0.4995975031562523	-7.033498018866373e-23
-0.4995364680000023	-6.920938880413479e-23
-0.4994754328437523	-6.807401553182349e-23
-0.4994143976875023	-6.693051550006166e-23
-0.4993533625312523	-6.578084545438419e-23
-0.4992923273750023	-6.462622223598723e-23
-0.4992312922187523	-6.346647472730548e-23
-0.4991702570625023	-6.230017028279898e-23
-0.4991092219062523	-6.112547171310855e-23
-0.4990481867500023	-5.99412579817761e-23
-0.4989871515937523	-5.874786820305109e-23
-0.4989261164375023	-5.754702514886826e-23
-0.4988650812812523	-5.634095952924504e-23
-0.4988040461250023	-5.51312178299668e-23
-0.4987430109687523	-5.391782931365828e-23
-0.4986819758125023	-5.269932467223351e-23
-0.4986209406562523	-5.1473620041302715e-23
-0.4985599055000023	-5.023927669179345e-23
-0.4984988703437523	-4.89964224154243e-23
-0.4984378351875023	-4.774679690878839e-23
-0.4983768000312523	-4.649287096271899e-23
-0.4983157648750023	-4.523652209651997e-23
-0.4982547297187523	-4.397801897323904e-23
-0.4981936945625023	-4.2715910511872546e-23
-0.4981326594062523	-4.144790318293813e-23
-0.4980716242500023	-4.017224003696615e-23
-0.4980105890937523	-3.8888802872474737e-23
-0.4979495539375023	-3.759929871329635e-23
-0.4978885187812523	-3.6306399087669805e-23
-0.4978274836250023	-3.501230714006299e-23
-0.4977664484687523	-3.371756785125929e-23
-0.4977054133125023	-3.242080576304073e-23
-0.4976443781562523	-3.1119556893551437e-23
-0.4975833430000023	-2.9811741669733854e-23
-0.4975223078437523	-2.8496949018808114e-23
-0.4974612726875023	-2.717679041831201e-23
-0.4974002375312523	-2.5854101140816053e-23
-0.4973392023750023	-2.4531426283709964e-23
-0.4972781672187523	-2.3209642934197202e-23
-0.4972171320625023	-2.1887506210131908e-23
-0.4971560969062523	-2.0562400499952614e-23
-0.4970950617500023	-1.923189173872186e-23
-0.4970340265937523	-1.7895209175862876e-23
-0.4969729914375023	-1.6553810638133867e-23
-0.4969119562812523	-1.52106839516379e-23
-0.4968509211250023	-1.3868752897406697e-23
-0.4967898859687523	-1.2529288801209342e-23
-0.4967288508125023	-1.1191237819607636e-23
-0.4966678156562523	-9.851856628161176e-24
-0.4966067805000023	-8.508321163117325e-24
-0.4965457453437523	-7.1594214683045e-24
-0.4964847101875023	-5.8063794597080034e-24
-0.4964236750312523	-4.452300084569293e-24
-0.4963626398750023	-3.100535801529205e-24
-0.4963016047187523	-1.7528692475829372e-24
-0.4962405695625023	-4.085434074966552e-25
-0.4961795344062523	9.3529094407331e-25
-0.4961184992500023	2.2819292890870833e-24
-0.4960574640937523	3.633165402795818e-24
-0.4959964289375023	4.988137102218455e-24
-0.4959353937812523	6.34364947311677e-24
-0.4958743586250023	7.695835838021772e-24
-0.4958133234687523	9.042247533202862e-24
-0.4957522883125023	1.0383200567680624e-23
-0.4956912531562523	1.1721601017298455e-23
-0.4956302180000023	1.3061300057526586e-23
-0.4955691828437523	1.4404856550083664e-23
-0.4955081476875023	1.5751952547064987e-23
-0.4954471125312523	1.7099379288124178e-23
-0.4953860773750023	1.8442659200103178e-23
-0.4953250422187523	1.9778451510466755e-23
-0.4952640070625023	2.1106408484235973e-23
-0.4952029719062523	2.2429408724002148e-23
-0.4951419367500023	2.3751972764804744e-23
-0.4950809015937523	2.507768311972481e-23
-0.4950198664375023	2.6407028209198672e-23
-0.4949588312812523	2.773690762635128e-23
-0.4948977961250023	2.906214459289552e-23
-0.4948367609687523	3.037823735549263e-23
-0.4947757258125023	3.168385342308554e-23
-0.4947146906562523	3.2981647789217593e-23
-0.4946536555000023	3.4276865571575325e-23
-0.4945926203437523	3.557441423293678e-23
-0.4945315851875023	3.68759888033649e-23
-0.4944705500312523	3.817887480304896e-23
-0.4944095148750023	3.947717968758512e-23
-0.4943484797187523	4.0764916805385314e-23
-0.4942874445625023	4.203929704487847e-23
-0.4942264094062523	4.330238302401957e-23
-0.4941653742500023	4.4560093910028496e-23
-0.4941043390937523	4.5818988592866235e-23
-0.4940433039375023	4.708252286702266e-23
-0.4939822687812523	4.834886013676666e-23
-0.4939212336250023	4.961154591144047e-23
-0.4938601984687523	5.086281034193046e-23
-0.4937991633125023	5.209778064964573e-23
-0.4937381281562523	5.331729143183769e-23
-0.4936770930000023	5.452764292422772e-23
-0.4936160578437523	5.573728173806845e-23
-0.4935550226875023	5.695210648393318e-23
-0.4934939875312523	5.817195599504168e-23
-0.4934329523750023	5.939030422342814e-23
-0.4933719172187523	6.05974951217333e-23
-0.4933108820625023	6.178588692090635e-23
-0.4932498469062523	6.295413224532209e-23
-0.4931888117500023	6.410817153610856e-23
-0.4931277765937523	6.525822606939622e-23
-0.4930667414375023	6.641326537136456e-23
-0.4930057062812523	6.757590107940765e-23
-0.4929446711250023	6.874056172065376e-23
-0.4928836359687523	6.989611351891414e-23
-0.4928226008125023	7.103168002441929e-23
-0.4927615656562523	7.214257958236907e-23
-0.4927005305000023	7.323309815333407e-23
-0.4926394953437523	7.431443659901529e-23
-0.4925784601875023	7.539877360969684e-23
-0.4925174250312523	7.649256281562693e-23
-0.4924563898750023	7.759272126902389e-23
-0.4923953547187523	7.868790602933699e-23
-0.4923343195625023	7.976435470876186e-23
-0.4922732844062523	8.081323582997742e-23
-0.4922122492500023	8.18355275375102e-23
-0.4921512140937523	8.284168879278869e-23
-0.4920901789375023	8.384616637077785e-23
-0.4920291437812523	8.485960737409503e-23
-0.4919681086250023	8.588296840495364e-23
-0.4919070734687523	8.690676225471742e-23
-0.4918460383125023	8.79159401645599e-23
-0.4917850031562523	8.88978452033887e-23
-0.4917239680000023	8.984896608257989e-23
-0.4916629328437523	9.077682764155527e-23
-0.4916018976875023	9.169596238362215e-23
-0.4915408625312523	9.262010705272084e-23
-0.4914798273750023	9.355481918343514e-23
-0.4914187922187523	9.449448351314582e-23
-0.4913577570625023	9.542530327268553e-23
-0.4912967219062523	9.633263962647977e-23
-0.4912356867500023	9.720872907895295e-23
-0.4911746515937523	9.805664713277245e-23
-0.4911136164375023	9.888845360397938e-23
-0.4910525812812523	9.971859880180298e-23
-0.4909915461250023	1.0055618874475732e-22
-0.4909305109687523	1.0140025236303855e-22
-0.4908694758125023	1.0224046264707207e-22
-0.4908084406562523	1.0306279081650108e-22
-0.4907474055000023	1.038569538210681e-22
-0.4906863703437523	1.0462165274731481e-22
-0.4906253351875023	1.0536489682625031e-22
-0.4905643000312523	1.0609940608386533e-22
-0.4905032648750023	1.0683569947832548e-22
-0.4904422297187523	1.0757660824355983e-22
-0.4903811945625023	1.083160607377505e-22
-0.4903201594062523	1.0904261309243484e-22
-0.4902591242500023	1.0974566154488748e-22
-0.4901980890937523	1.104209352865459e-22
-0.4901370539375023	1.1107239799539204e-22
-0.4900760187812523	1.1170971753749212e-22
-0.4900149836250023	1.1234285148182211e-22
-0.4899539484687523	1.1297674985925778e-22
-0.4898929133125023	1.1360896850348596e-22
-0.4898318781562523	1.1423130908407823e-22
-0.4897708430000023	1.1483441286113457e-22
-0.4897098078437523	1.1541272390173998e-22
-0.4896487726875023	1.1596717547569801e-22
-0.4895877375312523	1.1650429850540296e-22
-0.4895267023750023	1.1703241732519077e-22
-0.4894656672187523	1.1755710886925572e-22
-0.4894046320625023	1.180783743620367e-22
-0.4893435969062523	1.1859092748798312e-22
-0.4892825617500023	1.1908727045881932e-22
-0.4892215265937523	1.1956176812327109e-22
-0.4891604914375023	1.2001349910036982e-22
-0.4890994562812523	1.2044643749088385e-22
-0.4890384211250023	1.208670225508204e-22
-0.4889773859687523	1.2128056119092084e-22
-0.4889163508125023	1.2168844495059527e-22
-0.4888553156562523	1.22087614491154e-22
-0.4887942805000023	1.2247242611780138e-22
-0.4887332453437523	1.2283778612046305e-22
-0.4886722101875023	1.2318180792218897e-22
-0.4886111750312523	1.2350660323585535e-22
-0.4885501398750023	1.2381689471842937e-22
-0.4884891047187523	1.2411731882262522e-22
-0.4884280695625023	1.2440993586628881e-22
-0.4883670344062523	1.246932635684089e-22
-0.4883059992500023	1.249632595593083e-22
-0.4882449640937523	1.2521561305426613e-22
-0.4881839289375023	1.2544804433833842e-22
-0.4881228937812523	1.2566138359922378e-22
-0.4880618586250023	1.2585892588077955e-22
-0.4880008234687523	1.2604450992613924e-22
-0.4879397883125023	1.2622042332694905e-22
-0.4878787531562523	1.2638626251564327e-22
-0.4878177180000023	1.2653929803816974e-22
-0.4877566828437523	1.266760587595643e-22
-0.4876956476875023	1.2679421570153924e-22
-0.4876346125312523	1.2689374266386068e-22
-0.4875735773750023	1.2697677937731828e-22
-0.4875125422187523	1.2704635075200565e-22
-0.4874515070625023	1.271046962728963e-22
-0.4873904719062523	1.2715212329630805e-22
-0.4873294367500023	1.2718696108562274e-22
-0.4872684015937523	1.2720656960973147e-22
-0.4872073664375023	1.2720879797995632e-22
-0.4871463312812523	1.2719308760304508e-22
-0.4870852961250023	1.2716065859813708e-22
-0.4870242609687523	1.271137439942507e-22
-0.4869632258125023	1.270543427644294e-22
-0.4869021906562523	1.2698318407046834e-22
-0.4868411555000023	1.2689943538071809e-22
-0.4867801203437523	1.2680125523475522e-22
-0.4867190851875023	1.2668683681521155e-22
-0.4866580500312523	1.265553552317292e-22
-0.4865970148750023	1.2640732713288892e-22
-0.4865359797187523	1.2624424081108405e-22
-0.4864749445625023	1.26067710163432e-22
-0.4864139094062523	1.2587863440480868e-22
-0.4863528742500023	1.2567680259157727e-22
-0.4862918390937523	1.2546111031562109e-22
-0.4862308039375023	1.2523021996335667e-22
-0.4861697687812523	1.2498328035131676e-22
-0.4861087336250023	1.2472032672029327e-22
-0.4860476984687523	1.2444218540080172e-22
-0.4859866633125023	1.2414998292119272e-22
-0.4859256281562523	1.2384455584330117e-22
-0.4858645930000023	1.2352607875375458e-22
-0.4858035578437523	1.231940758233068e-22
-0.4857425226875023	1.2284775908097474e-22
-0.4856814875312523	1.2248647684021126e-22
-0.4856204523750023	1.2211003046747893e-22
-0.4855594172187523	1.217187180873217e-22
-0.4854983820625023	1.2131312599119766e-22
-0.4854373469062523	1.208938181083493e-22
-0.4853763117500023	1.2046109992241882e-22
-0.4853152765937523	1.200149576728261e-22
-0.4852542414375023	1.1955516096436675e-22
-0.4851932062812523	1.1908143750687788e-22
-0.4851321711250023	1.1859361423156646e-22
-0.4850711359687523	1.1809166531270888e-22
-0.4850101008125023	1.1757568047518024e-22
-0.4849490656562523	1.1704581075448649e-22
-0.4848880305000023	1.165022372661074e-22
-0.4848269953437523	1.1594516697143234e-22
-0.4847659601875023	1.1537482571081038e-22
-0.4847049250312523	1.147914148145792e-22
-0.4846438898750023	1.1419502871946959e-22
-0.4845828547187523	1.1358558199269212e-22
-0.4845218195625023	1.1296281975830513e-22
-0.4844607844062523	1.1232644436943761e-22
-0.4843997492500023	1.1167630963987772e-22
-0.4843387140937523	1.110125771284855e-22
-0.4842776789375023	1.1033572923696288e-22
-0.4842166437812523	1.0964639911089074e-22
-0.4841556086250023	1.0894508369275902e-22
-0.4840945734687523	1.082318887191181e-22
-0.4840335383125023	1.0750646034428847e-22
-0.4839725031562523	1.0676816962831076e-22
-0.4839114680000023	1.0601647272175487e-22
-0.4838504328437523	1.0525126060253927e-22
-0.4837893976875023	1.0447300179166943e-22
-0.4837283625312523	1.0368258022381764e-22
-0.4836673273750023	1.0288089314097674e-22
-0.4836062922187523	1.0206841225923134e-22
-0.4835452570625023	1.0124494762636691e-22
-0.4834842219062523	1.0040976028758335e-22
-0.4834231867500023	9.956198403995403e-23
-0.4833621515937523	9.870113803353614e-23
-0.4833011164375023	9.782745284704256e-23
-0.4832400812812523	9.69418260941351e-23
-0.4831790461250023	9.604541547909003e-23
-0.4831180109687523	9.513907503196992e-23
-0.4830569758125023	9.422293835905982e-23
-0.4829959406562523	9.329638414026062e-23
-0.4829349055000023	9.235841120447425e-23
-0.4828738703437523	9.140822399920637e-23
-0.4828128351875023	9.044571672292225e-23
-0.4827518000312523	8.947159699572417e-23
-0.4826907648750023	8.848707537140266e-23
-0.4826297297187523	8.749327890608449e-23
-0.4825686945625023	8.649070384202768e-23
-0.4825076594062523	8.547900683828916e-23
-0.4824466242500023	8.445724854228735e-23
-0.4823855890937523	8.34244574616208e-23
-0.4823245539375023	8.238021148000719e-23
-0.4822635187812523	8.132492491026494e-23
-0.4822024836250023	8.025968605239093e-23
-0.4821414484687523	7.918573172219262e-23
-0.4820804133125023	7.810384362235672e-23
-0.4820193781562523	7.70139958810527e-23
-0.4819583430000023	7.591544323859112e-23
-0.4818973078437523	7.480719892117822e-23
-0.4818362726875023	7.368864037082096e-23
-0.4817752375312523	7.255990863970434e-23
-0.4817142023750023	7.142188418268318e-23
-0.4816531672187523	7.027576277381057e-23
-0.4815921320625023	6.91224724028916e-23
-0.4815310969062523	6.796224816926668e-23
-0.4814700617500023	6.679459107871566e-23
-0.4814090265937523	6.561862637511998e-23
-0.4813479914375023	6.443365841907135e-23
-0.4812869562812523	6.323961713506537e-23
-0.4812259211250023	6.203715452252368e-23
-0.4811648859687523	6.082734499333496e-23
-0.4811038508125023	5.961116418609808e-23
-0.4810428156562523	5.838903445159875e-23
-0.4809817805000023	5.716068068044573e-23
-0.4809207453437523	5.59253721893074e-23
-0.4808597101875023	5.46824130698385e-23
-0.4807986750312523	5.343160279934111e-23
-0.4807376398750023	5.217341186969434e-23
-0.4806766047187523	5.090878428225744e-23
-0.4806155695625023	4.9638683719465654e-23
-0.4805545344062523	4.836363724937508e-23
-0.4804934992500023	4.7083532133867514e-23
-0.4804324640937523	4.579777711255551e-23
-0.4803714289375023	4.450572729439482e-23
-0.4803103937812523	4.3207122889689796e-23
-0.4802493586250023	4.190230001223043e-23
-0.4801883234687523	4.0592072421817707e-23
-0.4801272883125023	3.9277355954061634e-23
-0.4800662531562523	3.79587421937768e-23
-0.4800052180000023	3.6636260050382625e-23
-0.4799441828437523	3.530945469177446e-23
-0.4798831476875023	3.397773319806514e-23
-0.4798221125312523	3.2640781996601294e-23
-0.4797610773750023	3.1298821855103356e-23
-0.4797000422187523	2.995255747159733e-23
-0.4796390070625023	2.8602856660552804e-23
-0.4795779719062523	2.72503491018154e-23
-0.4795169367500023	2.589516965677246e-23
-0.4794559015937523	2.4536981968824854e-23
-0.4793948664375023	2.3175262852674914e-23
-0.4793338312812523	2.1809684394650547e-23
-0.4792727961250023	2.0440379871344235e-23
-0.4792117609687523	1.9067946645596997e-23
-0.4791507258125023	1.7693186904610913e-23
-0.4790896906562523	1.6316740776068475e-23
-0.4790286555000023	1.4938822957802766e-23
-0.4789676203437523	1.3559203570327138e-23
-0.4789065851875023	1.2177438539227786e-23
-0.4788455500312523	1.0793213578350138e-23
-0.4787845148750023	9.406600544435521e-24
-0.4787234797187523	8.018091451198866e-24
-0.4786624445625023	6.628404202639333e-24
-0.4786014094062523	5.2381671282107105e-24
-0.4785403742500023	3.847657988063466e-24
-0.4784793390937523	2.45674851173903e-24
-0.4784183039375023	1.0650801411486268e-24
-0.4783572687812523	-3.276398328469662e-25
-0.4782962336250023	-1.721388251769289e-24
-0.4782351984687523	-3.1157566167895933e-24
-0.4781741633125023	-4.510101313708816e-24
-0.4781131281562523	-5.903824497719518e-24
-0.4780520930000023	-7.296617946679654e-24
-0.4779910578437523	-8.688534383270757e-24
-0.4779300226875023	-1.0079856896901048e-23
-0.4778689875312523	-1.1470843091573716e-23
-0.4778079523750023	-1.2861487568275997e-23
-0.4777469172187523	-1.4251441014294884e-23
-0.4776858820625023	-1.5640128625655885e-23
-0.4776248469062523	-1.702699264662336e-23
-0.4775638117500023	-1.8411719127864433e-23
-0.4775027765937523	-1.9794317748788574e-23
-0.4774417414375023	-2.11750125229117e-23
-0.4773807062812523	-2.2554016467947498e-23
-0.4773196711250023	-2.3931319232600783e-23
-0.4772586359687523	-2.5306604808482516e-23
-0.4771976008125023	-2.6679348272812485e-23
-0.4771365656562523	-2.804903430607453e-23
-0.4770755305000023	-2.941536511527292e-23
-0.4770144953437523	-3.077833406599383e-23
-0.4769534601875023	-3.213812780743574e-23
-0.4768924250312523	-3.3494921674544435e-23
-0.4768313898750023	-3.48486872054789e-23
-0.4767703547187523	-3.6199120230666704e-23
-0.4767093195625023	-3.754573020926039e-23
-0.4766482844062523	-3.888803740516241e-23
-0.4765872492500023	-4.022576131621088e-23
-0.4765262140937523	-4.1558891869698096e-23
-0.4764651789375023	-4.2887603458452785e-23
-0.4764041437812523	-4.421206199636993e-23
-0.4763431086250023	-4.553223683937606e-23
-0.4762820734687523	-4.6847825650652557e-23
-0.4762210383125023	-4.815833966356928e-23
-0.4761600031562523	-4.946330262075267e-23
-0.4760989680000023	-5.076244044109267e-23
-0.4760379328437523	-5.205574881797226e-23
-0.4759768976875023	-5.334340573188578e-23
-0.4759158625312523	-5.462558045089364e-23
-0.4758548273750023	-5.590224834456795e-23
-0.4757937922187523	-5.717311866745183e-23
-0.4757327570625023	-5.843771531383571e-23
-0.4756717219062523	-5.9695565354046e-23
-0.4756106867500023	-6.094638889332022e-23
-0.4755496515937523	-6.219017844524092e-23
-0.4754886164375023	-6.342711833832072e-23
-0.4754275812812523	-6.465739217122044e-23
-0.4753665461250023	-6.588099362272427e-23
-0.4753055109687523	-6.709764768546779e-23
-0.4752444758125023	-6.830688374015179e-23
-0.4751834406562523	-6.950822025759847e-23
-0.4751224055000023	-7.07013584190655e-23
-0.4750613703437523	-7.188627389346606e-23
-0.4750003351875023	-7.306315291394191e-23
-0.4749393000312523	-7.4232207620659e-23
-0.4748782648750023	-7.539347418811058e-23
-0.4748172297187523	-7.654671056360844e-23
-0.4747561945625023	-7.769145696038727e-23
-0.4746951594062523	-7.882722267621e-23
-0.4746341242500023	-7.995368788385752e-23
-0.4745730890937523	-8.10708073477657e-23
-0.4745120539375023	-8.217875817557337e-23
-0.4744510187812523	-8.327776159213705e-23
-0.4743899836250023	-8.43678841209089e-23
-0.4743289484687523	-8.544892927857962e-23
-0.4742679133125023	-8.652047674999393e-23
-0.4742068781562523	-8.758204951228338e-23
-0.4741458430000023	-8.86333152798386e-23
-0.4740848078437523	-8.967420291183354e-23
-0.4740237726875023	-9.070486570529151e-23
-0.4739627375312523	-9.172551801836399e-23
-0.4739017023750023	-9.273624313944608e-23
-0.4738406672187523	-9.373688069373552e-23
-0.4737796320625023	-9.47270548964901e-23
-0.4737185969062523	-9.570632515264799e-23
-0.4736575617500023	-9.667437171728625e-23
-0.4735965265937523	-9.763110890557634e-23
-0.4735354914375023	-9.857666073090735e-23
-0.4734744562812523	-9.95112165240325e-23
-0.4734134211250023	-1.0043485386718726e-22
-0.4733523859687523	-1.0134743295078392e-22
-0.4732913508125023	-1.0224861990788074e-22
-0.4732303156562523	-1.0313802108412278e-22
-0.4731692805000023	-1.0401535147894536e-22
-0.4731082453437523	-1.0488053909625253e-22
-0.4730472101875023	-1.0573370205817661e-22
-0.4729861750312523	-1.0657501347648997e-22
-0.4729251398750023	-1.074045349641608e-22
-0.4728641047187523	-1.0822211751685775e-22
-0.4728030695625023	-1.0902743146010895e-22
-0.4727420344062523	-1.098201094818746e-22
-0.4726809992500023	-1.1059991254393586e-22
-0.4726199640937523	-1.1136681523681894e-22
-0.4725589289375023	-1.121209636390599e-22
-0.4724978937812523	-1.1286253288758917e-22
-0.4724368586250023	-1.135915647426836e-22
-0.4723758234687523	-1.1430788149484625e-22
-0.4723147883125023	-1.1501113404743097e-22
-0.4722537531562523	-1.1570095926420502e-22
-0.4721927180000023	-1.163771492752899e-22
-0.4721316828437523	-1.1703972947157732e-22
-0.4720706476875023	-1.1768890008326317e-22
-0.4720096125312523	-1.183248735550719e-22
-0.4719485773750023	-1.1894769899005348e-22
-0.4718875422187523	-1.1955717787972248e-22
-0.4718265070625023	-1.2015292680146374e-22
-0.4717654719062523	-1.2073455502778196e-22
-0.4717044367500023	-1.2130185406524952e-22
-0.4716434015937523	-1.218548866581199e-22
-0.4715823664375023	-1.2239391847009778e-22
