Time	Frequency
-0.5000495894062453	-1.0340593528858745e-22
-0.49998855424999533	-1.0306101490727472e-22
-0.49992751909374533	-1.0270327545115209e-22
-0.49986648393749533	-1.0233257993334632e-22
-0.49980544878124533	-1.0194901720835864e-22
-0.49974441362499533	-1.0155283327267261e-22
-0.49968337846874533	-1.0114410369713568e-22
-0.49962234331249533	-1.007226846089421e-22
-0.49956130815624533	-1.0028852252226538e-22
-0.49950027299999533	-9.984181804323744e-23
-0.49943923784374533	-9.938278134026833e-23
-0.49937820268749533	-9.891137985974694e-23
-0.49931716753124533	-9.842748636209862e-23
-0.49925613237499533	-9.793118180397329e-23
-0.49919509721874533	-9.742271784296043e-23
-0.49913406206249533	-9.690220088499753e-23
-0.49907302690624533	-9.636951690585143e-23
-0.49901199174999533	-9.58246230492118e-23
-0.49895095659374533	-9.526772697941682e-23
-0.49888992143749533	-9.469905512047162e-23
-0.49882888628124533	-9.411858773563266e-23
-0.49876785112499533	-9.352620004195528e-23
-0.49870681596874533	-9.292197788431663e-23
-0.49864578081249533	-9.230618878555979e-23
-0.49858474565624533	-9.167896537682905e-23
-0.49852371049999533	-9.104022248912081e-23
-0.49846267534374533	-9.038993160895538e-23
-0.49840164018749533	-8.972829497202754e-23
-0.49834060503124533	-8.905553484600378e-23
-0.49827956987499533	-8.837165235077536e-23
-0.49821853471874533	-8.767656130198421e-23
-0.49815749956249533	-8.697037062153069e-23
-0.49809646440624533	-8.62533427654887e-23
-0.49803542924999533	-8.552560459514227e-23
-0.49797439409374533	-8.478708908015826e-23
-0.49791335893749533	-8.40377968160832e-23
-0.49785232378124533	-8.327794379846146e-23
-0.49779128862499533	-8.250775139461299e-23
-0.49773025346874533	-8.172723172107864e-23
-0.49766921831249533	-8.093632699482731e-23
-0.49760818315624533	-8.013516444810617e-23
-0.49754714799999533	-7.932400160273202e-23
-0.49748611284374533	-7.850295844226472e-23
-0.49742507768749533	-7.767198668949966e-23
-0.49736404253124533	-7.683112344171674e-23
-0.49730300737499533	-7.598060174732803e-23
-0.49724197221874533	-7.512063577356233e-23
-0.49718093706249533	-7.425123453531419e-23
-0.49711990190624533	-7.337235761394662e-23
-0.49705886674999533	-7.248416457645673e-23
-0.49699783159374533	-7.1586938047968e-23
-0.49693679643749533	-7.068080121286623e-23
-0.49687576128124533	-6.976569889931646e-23
-0.49681472612499533	-6.8841672816378e-23
-0.49675369096874533	-6.790897618642021e-23
-0.49669265581249533	-6.696783801540783e-23
-0.49663162065624533	-6.601826664617554e-23
-0.49657058549999533	-6.506022732976589e-23
-0.49650955034374533	-6.409390263601305e-23
-0.49644851518749533	-6.311958953889849e-23
-0.49638748003124533	-6.213740509868724e-23
-0.49632644487499533	-6.114729476037277e-23
-0.49626540971874533	-6.01493223198739e-23
-0.49620437456249533	-5.914377245047964e-23
-0.49614333940624533	-5.813089612878266e-23
-0.49608230424999533	-5.711069833627055e-23
-0.49602126909374533	-5.608313232989483e-23
-0.49596023393749533	-5.504839842249769e-23
-0.49589919878124533	-5.400683079899579e-23
-0.49583816362499533	-5.295853771229324e-23
-0.49577712846874533	-5.190340813421589e-23
-0.49571609331249533	-5.0841506413391164e-23
-0.49565505815624533	-4.9773207124468304e-23
-0.49559402299999533	-4.8698817613584213e-23
-0.49553298784374533	-4.761828552362793e-23
-0.49547195268749533	-4.65314922638943e-23
-0.49541091753124533	-4.543867813879113e-23
-0.49534988237499533	-4.434028273300747e-23
-0.49528884721874533	-4.323643896495788e-23
-0.49522781206249533	-4.2126964906297694e-23
-0.49516677690624533	-4.1011889931004315e-23
-0.49510574174999533	-3.989165512680912e-23
-0.49504470659374533	-3.876663273600242e-23
-0.49498367143749533	-3.763672600908759e-23
-0.49492263628124533	-3.650172471139455e-23
-0.49486160112499533	-3.536188230006668e-23
-0.49480056596874533	-3.421776844706495e-23
-0.49473953081249533	-3.306957835160262e-23
-0.49467849565624533	-3.1917019248554923e-23
-0.49461746049999533	-3.076001643279146e-23
-0.49455642534374533	-2.959909921709926e-23
-0.49449539018749533	-2.843479245649253e-23
-0.49443435503124533	-2.7266977135818616e-23
-0.49437331987499533	-2.6095294759981942e-23
-0.49431228471874533	-2.491998769805969e-23
-0.49425124956249533	-2.3741783411914576e-23
-0.49419021440624533	-2.2560945889542346e-23
-0.49412917924999533	-2.1377039462537733e-23
-0.49406814409374533	-2.0189856809226327e-23
-0.49400710893749533	-1.900004068513473e-23
-0.49394607378124533	-1.7808328243552143e-23
-0.49388503862499533	-1.6614570321572294e-23
-0.49382400346874533	-1.5418154270048365e-23
-0.49376296831249533	-1.421924307124962e-23
-0.49370193315624533	-1.3018830703097329e-23
-0.49364089799999533	-1.1817407365432563e-23
-0.49357986284374533	-1.0614333069325704e-23
-0.49351882768749533	-9.409050989024132e-24
-0.49345779253124533	-8.202291338794801e-24
-0.49339675737499533	-6.99522823070823e-24
-0.49333572221874533	-5.7878047283573424e-24
-0.49327468706249533	-4.578976562166958e-24
-0.49321365190624533	-3.368636333793411e-24
-0.49315261674999533	-2.1581352997988605e-24
-0.49309158159374533	-9.484067102581773e-25
-0.49303054643749533	2.6139708522188024e-25
-0.49296951128124533	1.4724115609836975e-24
-0.49290847612499533	2.6839110878317595e-24
-0.49284744096874533	3.8940573239003445e-24
-0.49278640581249533	5.102607997379779e-24
-0.49272537065624533	6.311250532896931e-24
-0.49266433549999533	7.520741547589083e-24
-0.49260330034374533	8.729286059728391e-24
-0.49254226518749533	9.934995299910029e-24
-0.49248123003124533	1.1138764575451129e-23
-0.49242019487499533	1.2342832268418679e-23
-0.49235915971874533	1.3546953247381584e-23
-0.49229812456249533	1.47482722744759e-23
-0.49223708940624533	1.5945510591246336e-23
-0.49217605424999533	1.714100840499584e-23
-0.49211501909374533	1.8337012972914128e-23
-0.49205398393749533	1.953172268874969e-23
-0.49199294878124533	2.072156877798346e-23
-0.49193191362499533	2.1906614840712662e-23
-0.49187087846874533	2.3090551865500296e-23
-0.49180984331249533	2.4274802800283128e-23
-0.49174880815624533	2.54557843965988e-23
-0.49168777299999533	2.6630013494564083e-23
-0.49162673784374533	2.7799458222937717e-23
-0.49156570268749533	2.896856490497464e-23
-0.49150466753124533	3.013712066322242e-23
-0.49144363237499533	3.1300062475559185e-23
-0.49138259721874533	3.245495757797486e-23
-0.49132156206249533	3.3605712363238055e-23
-0.49126052690624533	3.4756488607399917e-23
-0.49119949174999533	3.590501187518152e-23
-0.49113845659374533	3.7045719727355187e-23
-0.49107742143749533	3.817806429882003e-23
-0.49101638628124533	3.930714919239141e-23
-0.49095535112499533	4.0435671595561196e-23
-0.49089431596874533	4.1559623699638705e-23
-0.49083328081249533	4.2674320941366684e-23
-0.49077224565624533	4.3781318451872636e-23
-0.49071121049999533	4.4885608586625834e-23
-0.49065017534374533	4.5987693695512914e-23
-0.49058914018749533	4.708282409895866e-23
-0.49052810503124533	4.816825078357253e-23
-0.49046706987499533	4.9247059352100317e-23
-0.49040603471874533	5.032293473890078e-23
-0.49034499956249533	5.1394340820362683e-23
-0.49028396440624533	5.2456989880754415e-23
-0.49022292924999533	5.351031291692094e-23
-0.49016189409374533	5.45578474734911e-23
-0.49010085893749533	5.560137513135784e-23
-0.49003982378124533	5.66381426165563e-23
-0.48997878862499533	5.766516682691546e-23
-0.48991775346874533	5.868357107801455e-23
-0.48985671831249533	5.969636487010835e-23
-0.48979568315624533	6.070354170771576e-23
-0.48973464799999533	6.170214446097645e-23
-0.48967361284374533	6.269079597515039e-23
-0.48961257768749533	6.367145613971063e-23
-0.48955154253124533	6.464596774603378e-23
-0.48949050737499533	6.561306544146788e-23
-0.48942947221874533	6.657036678942663e-23
-0.48936843706249533	6.751791305524214e-23
-0.48930740190624533	6.845771995597968e-23
-0.48924636674999533	6.939034495448468e-23
-0.48918533159374533	7.031397132729951e-23
-0.48912429643749533	7.122720305009052e-23
-0.48906326128124533	7.213098669567114e-23
-0.48900222612499533	7.302678865393353e-23
-0.48894119096874533	7.391411581663318e-23
-0.48888015581249533	7.479123879982974e-23
-0.48881912065624533	7.56577753637425e-23
-0.48875808549999533	7.651501635461386e-23
-0.48869705034374533	7.736364008121596e-23
-0.48863601518749533	7.820252535829755e-23
-0.48857498003124533	7.903043078766669e-23
-0.48851394487499533	7.984775664410706e-23
-0.48845290971874533	8.065566044518276e-23
-0.48839187456249533	8.145406134076595e-23
-0.48833083940624533	8.224167714124079e-23
-0.48826980424999533	8.301790837530925e-23
-0.48820876909374533	8.378355776204358e-23
-0.48814773393749533	8.453935385664473e-23
-0.48808669878124533	8.528468754655341e-23
-0.48802566362499533	8.601848295670435e-23
-0.48796462846874533	8.674072229849757e-23
-0.48790359331249533	8.74522481641771e-23
-0.48784255815624533	8.815327310602323e-23
-0.48778152299999533	8.884296624463294e-23
-0.48772048784374533	8.952065851127003e-23
-0.48765945268749533	9.018670378420416e-23
-0.48759841753124533	9.084171885184915e-23
-0.48753738237499533	9.14854929371395e-23
-0.48747634721874533	9.211725117661519e-23
-0.48741531206249533	9.273675793481418e-23
-0.48735427690624533	9.334450542390515e-23
-0.48729324174999533	9.394076948928538e-23
-0.48723220659374533	9.452507362603064e-23
-0.48717117143749533	9.509685991405062e-23
-0.48711013628124533	9.565624027389594e-23
-0.48704910112499533	9.620365777115882e-23
-0.48698806596874533	9.673906239394083e-23
-0.48692703081249533	9.726191151296397e-23
-0.48686599565624533	9.777193297800159e-23
-0.48680496049999533	9.8269419031094e-23
-0.48674392534374533	9.87546307993481e-23
-0.48668289018749533	9.922729539357335e-23
-0.48662185503124533	9.968696522002162e-23
-0.48656081987499533	1.0013361836699122e-22
-0.48649978471874533	1.0056755843512975e-22
-0.48643874956249533	1.0098883019803828e-22
-0.48637771440624533	1.0139708850599268e-22
-0.48631667924999533	1.0179207867967578e-22
-0.48625564409374533	1.0217393422809152e-22
-0.48619460893749533	1.0254284947307274e-22
-0.48613357378124533	1.0289869009615288e-22
-0.48607253862499533	1.0324115346616867e-22
-0.48601150346874533	1.0357018308725326e-22
-0.48595046831249533	1.0388596523876389e-22
-0.48588943315624533	1.0418854351081352e-22
-0.48582839799999533	1.0447768958460923e-22
-0.48576736284374533	1.0475321778908643e-22
-0.48570632768749533	1.0501521326221203e-22
-0.48564529253124533	1.0526381732665527e-22
-0.48558425737499533	1.054989403473097e-22
-0.48552322221874533	1.0572036312454705e-22
-0.48546218706249533	1.059280413146091e-22
-0.48540115190624533	1.0612211500829557e-22
-0.48534011674999533	1.0630262582819502e-22
-0.48527908159374533	1.0646941115965517e-22
-0.48521804643749533	1.0662233460768529e-22
-0.48515701128124533	1.0676146455051357e-22
-0.48509597612499533	1.0688691610107791e-22
-0.48503494096874533	1.069986271458023e-22
-0.48497390581249533	1.070964332710014e-22
-0.48491287065624533	1.0718030933131227e-22
-0.48485183549999533	1.0725038164627986e-22
-0.48479080034374533	1.073066965034288e-22
-0.48472976518749533	1.0734912424884507e-22
-0.48466873003124533	1.0737755331592662e-22
-0.48460769487499533	1.073920576692708e-22
-0.48454665971874533	1.07392766031684e-22
-0.48448562456249533	1.0737964446619214e-22
-0.48442458940624533	1.073525438123169e-22
-0.48436355424999533	1.0731143676940935e-22
-0.48430251909374533	1.0725646259921383e-22
-0.48424148393749533	1.0718770558695708e-22
-0.48418044878124533	1.0710506275110596e-22
-0.48411941362499533	1.0700841515149158e-22
-0.48405837846874533	1.0689783123954869e-22
-0.48399734331249533	1.0677347632304012e-22
-0.48393630815624533	1.0663536789746218e-22
-0.48387527299999533	1.0648336488504168e-22
-0.48381423784374533	1.0631740975845555e-22
-0.48375320268749533	1.061376439422821e-22
-0.48369216753124533	1.059442181868208e-22
-0.48363113237499533	1.0573709038652578e-22
-0.48357009721874533	1.0551612091020087e-22
-0.48350906206249533	1.0528132065026392e-22
-0.48344802690624533	1.0503287198402765e-22
-0.48338699174999533	1.0477089116879441e-22
-0.48332595659374533	1.0449529453900654e-22
-0.48326492143749533	1.0420597158074093e-22
-0.48320388628124533	1.039030029490009e-22
-0.48314285112499533	1.0358658987177569e-22
-0.48308181596874533	1.0325679844826522e-22
-0.48302078081249533	1.0291351219309618e-22
-0.48295974565624533	1.0255666947827714e-22
-0.48289871049999533	1.0218641814853027e-22
-0.48283767534374533	1.0180295487557859e-22
-0.48277664018749533	1.0140630220130073e-22
-0.48271560503124533	1.009963486784422e-22
-0.48265456987499533	1.0057308003383581e-22
-0.48259353471874533	1.0013666649660575e-22
-0.48253249956249533	9.968728685440241e-23
-0.48247146440624533	9.922494329271045e-23
-0.48241042924999533	9.874953598156399e-23
-0.48234939409374533	9.826109403269531e-23
-0.48228835893749533	9.775981986453252e-23
-0.48222732378124533	9.72458758450816e-23
-0.48216628862499533	9.671923254060958e-23
-0.48210525346874533	9.617980653965544e-23
-0.48204421831249533	9.562768096606907e-23
-0.48198318315624533	9.506307801050557e-23
-0.48192214799999533	9.448613289013003e-23
-0.48186111284374533	9.389680696728394e-23
-0.48180007768749533	9.329504909883221e-23
-0.48173904253124533	9.268096560949325e-23
-0.48167800737499533	9.20547661758898e-23
-0.48161697221874533	9.141656752145555e-23
-0.48155593706249533	9.076633961531846e-23
-0.48149490190624533	9.010407021287777e-23
-0.48143386674999533	8.942990125588854e-23
-0.48137283159374533	8.874403750995132e-23
-0.48131179643749533	8.804656513077871e-23
-0.48125076128124533	8.733745034818932e-23
-0.48118972612499533	8.661671997328959e-23
-0.48112869096874533	8.588455340233105e-23
-0.48106765581249533	8.514114669814294e-23
-0.48100662065624533	8.438655549288449e-23
-0.48094558549999533	8.362075756140334e-23
-0.48088455034374533	8.284382916173662e-23
-0.48082351518749533	8.205596460836379e-23
-0.48076248003124533	8.125732582658009e-23
-0.48070144487499533	8.044795295740037e-23
-0.48064040971874533	7.96278621075168e-23
-0.48057937456249533	7.879717218149263e-23
-0.48051833940624533	7.795606704614373e-23
-0.48045730424999533	7.710466976512498e-23
-0.48039626909374533	7.624302600410223e-23
-0.48033523393749533	7.537120227903377e-23
-0.48027419878124533	7.44893424780842e-23
-0.48021316362499533	7.35976105153348e-23
-0.48015212846874533	7.269611823807579e-23
-0.48009109331249533	7.178493520535955e-23
-0.48003005815624533	7.08641478253417e-23
-0.47996902299999533	6.993389083200655e-23
-0.47990798784374533	6.899431835060889e-23
-0.47984695268749533	6.804555142752316e-23
-0.47978591753124533	6.708767886307935e-23
-0.47972488237499533	6.61208097184197e-23
-0.47966384721874533	6.514508753683171e-23
-0.47960281206249533	6.416065127673851e-23
-0.47954177690624533	6.316761937265333e-23
-0.47948074174999533	6.216611012441613e-23
-0.47941970659374533	6.115625027146123e-23
-0.47935867143749533	6.013816695587427e-23
-0.47929763628124533	5.911198415611604e-23
-0.47923660112499533	5.807782612851005e-23
-0.47917556596874533	5.703582171146531e-23
-0.47911453081249533	5.598610968521723e-23
-0.47905349565624533	5.492883914272846e-23
-0.47899246049999533	5.386414961414607e-23
-0.47893142534374533	5.279215942049784e-23
-0.47887039018749533	5.171299056575837e-23
-0.47880935503124533	5.06267887022489e-23
-0.47874831987499533	4.953371091677787e-23
-0.47868728471874533	4.8433898768426124e-23
-0.47862624956249533	4.732746922308794e-23
-0.47856521440624533	4.6214552266975454e-23
-0.47850417924999533	4.509531624735889e-23
-0.47844314409374533	4.396992138250423e-23
-0.47838210893749533	4.283848421270804e-23
-0.47832107378124533	4.170111873438905e-23
-0.47826003862499533	4.0557980331576847e-23
-0.47819900346874533	3.9409250154957515e-23
-0.47813796831249533	3.8255091747733965e-23
-0.47807693315624533	3.7095630150381596e-23
-0.47801589799999533	3.593097923015014e-23
-0.47795486284374533	3.476129241846124e-23
-0.47789382768749533	3.358676206288801e-23
-0.47783279253124533	3.240755990478571e-23
-0.47777175737499533	3.122380487861867e-23
-0.47771072221874533	3.003560648591504e-23
-0.47764968706249533	2.884312685731026e-23
-0.47758865190624533	2.764656363354566e-23
-0.47752761674999533	2.6446073133452378e-23
-0.47746658159374533	2.5241768363456555e-23
-0.47740554643749533	2.4033790970817925e-23
-0.47734451128124533	2.282232341204072e-23
-0.47728347612499533	2.1607538946865728e-23
-0.47722244096874533	2.0389587557025948e-23
-0.47716140581249533	1.9168618823213674e-23
-0.47710037065624533	1.794478593347737e-23
-0.47703933549999533	1.6718240323267887e-23
-0.47697830034374533	1.548914470296852e-23
-0.47691726518749533	1.4257667279365258e-23
-0.47685623003124533	1.3023954021248401e-23
-0.47679519487499533	1.17881483376473e-23
-0.47673415971874533	1.055042868032272e-23
-0.47667312456249533	9.310982734750937e-24
-0.47661208940624533	8.069961146026544e-24
-0.47655105424999533	6.827486890475405e-24
-0.47649001909374533	5.583708841217367e-24
-0.47642898393749533	4.338824342051893e-24
-0.47636794878124533	3.093030239628605e-24
-0.47630691362499533	1.846469152274505e-24
-0.47624587846874533	5.9924818241767785e-25
-0.47618484331249533	-6.484880554591909e-25
-0.47612380815624533	-1.8965274739293434e-24
-0.47606277299999533	-3.144660813275121e-24
-0.47600173784374533	-4.3927503963170426e-24
-0.47594070268749533	-5.640690283195214e-24
-0.47587966753124533	-6.888326983116713e-24
-0.47581863237499533	-8.135456108149288e-24
-0.47575759721874533	-9.381891952777507e-24
-0.47569656206249533	-1.0627505584432288e-23
-0.47563552690624533	-1.1872168642171137e-23
-0.47557449174999533	-1.3115692527905844e-23
-0.47551345659374533	-1.4357872668894984e-23
-0.47545242143749533	-1.5598564414294992e-23
-0.47539138628124533	-1.6837654464198263e-23
-0.47533035112499533	-1.8074978949885295e-23
-0.47526931596874533	-1.9310329914512792e-23
-0.47520828081249533	-2.0543533298486804e-23
-0.47514724565624533	-2.177446769528148e-23
-0.47508621049999533	-2.3002996169818918e-23
-0.47502517534374533	-2.4228927459161133e-23
-0.47496414018749533	-2.5452070998809673e-23
-0.47490310503124533	-2.667228636409975e-23
-0.47484206987499533	-2.78894504871981e-23
-0.47478103471874533	-2.9103407166521855e-23
-0.47471999956249533	-3.031397125664896e-23
-0.47465896440624533	-3.1520967801743886e-23
-0.47459792924999533	-3.2724250016955305e-23
-0.47453689409374533	-3.3923679488521074e-23
-0.47447585893749533	-3.5119097296720214e-23
-0.47441482378124533	-3.6310331903239737e-23
-0.47435378862499533	-3.749722813298079e-23
-0.47429275346874533	-3.867963916340089e-23
-0.47423171831249533	-3.985740583440974e-23
-0.47417068315624533	-4.103036385116682e-23
-0.47410964799999533	-4.219836077299112e-23
-0.47404861284374533	-4.336126225402661e-23
-0.47398757768749533	-4.451892943179205e-23
-0.47392654253124533	-4.567119127386406e-23
-0.47386550737499533	-4.6817865917280417e-23
-0.47380447221874533	-4.795880895228218e-23
-0.47374343706249533	-4.9093912483969356e-23
-0.47368240190624533	-5.0223043025515745e-23
-0.47362136674999533	-5.1346016165171623e-23
-0.47356033159374533	-5.246265961906934e-23
-0.47349929643749533	-5.35728499856682e-23
-0.47343826128124533	-5.467646057126321e-23
-0.47337722612499533	-5.57733278910499e-23
-0.47331619096874533	-5.686328977690553e-23
-0.47325515581249533	-5.794621921900421e-23
-0.47319412065624533	-5.902199690895119e-23
-0.47313308549999533	-6.009046439875343e-23
-0.47307205034374533	-6.115144250556475e-23
-0.47301101518749533	-6.220479314819483e-23
-0.47294998003124533	-6.325041677027124e-23
-0.47288894487499533	-6.428818849358786e-23
-0.47282790971874533	-6.531793995596618e-23
-0.47276687456249533	-6.633951330772334e-23
-0.47270583940624533	-6.735279842520108e-23
-0.47264480424999533	-6.835769506768897e-23
-0.47258376909374533	-6.935405933971606e-23
-0.47252273393749533	-7.034171745736475e-23
-0.47246169878124533	-7.132052954896716e-23
-0.47240066362499533	-7.22904058380165e-23
-0.47233962846874533	-7.325124438815867e-23
-0.47227859331249533	-7.420288695119637e-23
-0.47221755815624533	-7.514516694646948e-23
