Time	Frequency
-0.5000269205937471	-0.5042352744056404
-0.4999658854374971	-0.5017705302007881
-0.4999048502812471	-0.49925196551999834
-0.4998438151249971	-0.4966987930612811
-0.4997827799687471	-0.4941276706693584
-0.4997217448124971	-0.4915437389164567
-0.4996607096562471	-0.48893772961393667
-0.4995996744999971	-0.4862908399548088
-0.4995386393437471	-0.48358483740110136
-0.4994776041874971	-0.48081197849212925
-0.4994165690312471	-0.47797938805537354
-0.4993555338749971	-0.47510547592291574
-0.4992944987187471	-0.47221026324083387
-0.4992334635624971	-0.46930481849926026
-0.4991724284062471	-0.46638544358040035
-0.4991113932499971	-0.4634357133658759
-0.4990503580937471	-0.46043533797973124
-0.4989893229374971	-0.4573711041675425
-0.4989282877812471	-0.4542440029443515
-0.4988672526249971	-0.4510687552926874
-0.4988062174687471	-0.44786603974734435
-0.4987451823124971	-0.444651619103274
-0.4986841471562471	-0.44142816907945703
-0.4986231119999971	-0.4381841132481103
-0.4985620768437471	-0.43490002720542215
-0.4985010416874971	-0.431559149865514
-0.4984400065312471	-0.42815637355793185
-0.4983789713749971	-0.4247009232989136
-0.4983179362187471	-0.42121136789937114
-0.4982569010624971	-0.41770576449386077
-0.4981958659062471	-0.41419226155052896
-0.4981348307499971	-0.41066511206926026
-0.4980737955937471	-0.40710812694431675
-0.4980127604374971	-0.40350362279259966
-0.4979517252812471	-0.39984197519585524
-0.4978906901249971	-0.39612667651186934
-0.4978296549687471	-0.3923723346104325
-0.4977686198124971	-0.38859681551422903
-0.4977075846562471	-0.3848118306993766
-0.4976465494999971	-0.3810170320514149
-0.4975855143437471	-0.3772006637894742
-0.4975244791874971	-0.3733462648022683
-0.4974634440312471	-0.36944171048005947
-0.4974024088749971	-0.36548569207462933
-0.4973413737187471	-0.36148825074815977
-0.4972803385624971	-0.35746527452261495
-0.4972193034062471	-0.353430042543427
-0.4971582682499971	-0.349386394806511
-0.4970972330937471	-0.3453271457513189
-0.4970361979374971	-0.3412384181424167
-0.4969751627812471	-0.3371073975889925
-0.4969141276249971	-0.33292931378559776
-0.4968530924687471	-0.32870993960769646
-0.4967920573124971	-0.32446236679961393
-0.4967310221562471	-0.3201999627410398
-0.4966699869999971	-0.31592937429096246
-0.4966089518437471	-0.31164731705634835
-0.4965479166874971	-0.3073428086342429
-0.4964868815312471	-0.3030034892685286
-0.4964258463749971	-0.2986224889422614
-0.4963648112187471	-0.29420213086271024
-0.4963037760624971	-0.2897525784148724
-0.4962427409062471	-0.28528632565897094
-0.4961817057499971	-0.2808116148044451
-0.4961206705937471	-0.2763283110054387
-0.4960596354374971	-0.2718283923199967
-0.4959986002812471	-0.26730070390395017
-0.4959375651249971	-0.26273726477763204
-0.4958765299687471	-0.2581376489545338
-0.4958154948124971	-0.2535091657548803
-0.4957544596562471	-0.248862882417764
-0.4956934244999971	-0.24420775410425127
-0.4956323893437471	-0.23954607109582038
-0.4955713541874971	-0.23487262443264428
-0.4955103190312471	-0.23017793897340355
-0.4954492838749971	-0.2254537121225508
-0.4953882487187471	-0.22069746132581194
-0.4953272135624971	-0.21591389110396828
-0.4952661784062471	-0.21111231574172112
-0.4952051432499971	-0.2063016723010327
-0.4951441080937471	-0.2014859280062377
-0.4950830729374971	-0.19666231370160833
-0.4950220377812471	-0.19182322494314255
-0.4949610026249971	-0.1869606890786735
-0.4948999674687471	-0.18207090197976966
-0.4948389323124971	-0.17715635923798054
-0.4947778971562471	-0.17222452142566685
-0.4947168619999971	-0.16728382293983707
-0.4946558268437471	-0.16233925875891794
-0.4945947916874971	-0.15739000626345157
-0.4945337565312471	-0.15243029554094686
-0.4944727213749971	-0.14745289375714535
-0.4944116862187471	-0.14245327132525545
-0.4943506510624971	-0.1374322263166332
-0.4942896159062471	-0.13239553227833734
-0.4942285807499971	-0.12735083141306777
-0.4941675455937471	-0.1223035899004861
-0.4941065104374971	-0.11725440577197874
-0.4940454752812471	-0.11219907236861547
-0.4939844401249971	-0.10713123921991076
-0.4939234049687471	-0.10204617380799993
-0.4938623698124971	-0.09694354020809168
-0.4938013346562471	-0.09182766858880874
-0.4937402994999971	-0.08670526830558613
-0.4936792643437471	-0.08158191448395663
-0.4936182291874971	-0.07645922774456518
-0.4935571940312471	-0.07133427733983817
-0.4934961588749971	-0.06620151242178543
-0.4934351237187471	-0.061056115003999226
-0.4933740885624971	-0.0558968918654847
-0.4933130534062471	-0.050727114750188276
-0.4932520182499971	-0.04555286549060452
-0.4931909830937471	-0.040379848114269735
-0.4931299479374971	-0.03521046740172395
-0.4930689127812471	-0.030042756474299704
-0.4930078776249971	-0.02487172372878361
-0.4929468424687471	-0.019692371069726253
-0.4928858073124971	-0.014502692495085928
-0.4928247721562471	-0.009305004027367657
-0.4927637369999971	-0.004104886907324233
-0.4927027018437471	0.0010916723741389936
-0.4926416666874971	0.006281346929220092
-0.4925806315312471	0.011465065172156376
-0.4925195963749971	0.016647299856889012
-0.4924585612187471	0.021833397276236673
-0.4923975260624971	0.027026391977171195
-0.4923364909062471	0.03222512812805532
-0.4922754557499971	0.03742468886854822
-0.4922144205937471	0.04261881808306443
-0.4921533854374971	0.04780306499107009
-0.4920923502812471	0.05297699269558851
-0.4920313151249971	0.058144215327910156
-0.4919702799687471	0.06331021411653927
-0.4919092448124971	0.06847912975486858
-0.4918482096562471	0.07365130009287806
-0.4917871744999971	0.07882287628145039
-0.4917261393437471	0.08398768595972746
-0.4916651041874971	0.08914031435509681
-0.4916040690312471	0.0942787675632439
-0.4915430338749971	0.09940531262640323
-0.4914819987187471	0.10452503609819429
-0.4914209635624971	0.10964289652855064
-0.4913599284062471	0.11476085807329296
-0.4912988932499971	0.11987663017946043
-0.4912378580937471	0.12498469725791093
-0.4911768229374971	0.1300790635316011
-0.4911157877812471	0.1351562050345684
-0.4910547526249971	0.14021669665449984
-0.4909937174687471	0.14526468588073654
-0.4909326823124971	0.15030545649758065
-0.4908716471562471	0.15534236089275585
-0.4908106119999971	0.16037481041900808
-0.4907495768437471	0.16539842955273729
-0.4906885416874971	0.1704072442784407
-0.4906275065312471	0.1753966793514805
-0.4905664713749971	0.18036573850957832
-0.4905054362187471	0.1853172464687531
-0.4904444010624971	0.1902560916372095
-0.4903833659062471	0.19518639386230677
-0.4903223307499971	0.2001090896882492
-0.4902612955937471	0.20502125106607638
-0.4902002604374971	0.20991748208892316
-0.4901392252812471	0.21479261326249177
-0.4900781901249971	0.2196442642770208
-0.4900171549687471	0.22447389093324774
-0.4899561198124971	0.2292857399219238
-0.4898950846562471	0.23408432325717218
-0.4898340494999971	0.23887178689863386
-0.4897730143437471	0.24364656694556985
-0.4897119791874971	0.2484040765886235
-0.4896509440312471	0.2531390067561757
-0.4895899088749971	0.2578479362141627
-0.4895288737187471	0.2625309257667002
-0.4894678385624971	0.26719128406342335
-0.4894068034062471	0.2718335698201285
-0.4893457682499971	0.276460910082657
-0.4892847330937471	0.2810731088054065
-0.4892236979374971	0.28566656583011296
-0.4891626627812471	0.2902360434345111
-0.4891016276249971	0.29477730024408055
-0.4890405924687471	0.2992891703495982
-0.4889795573124971	0.3037739904628338
-0.4889185221562471	0.3082361383881895
-0.4888574869999971	0.31267945299834105
-0.4887964518437471	0.3171049384992552
-0.4887354166874971	0.32151001722849293
-0.4886743815312471	0.3258897328519184
-0.4886133463749971	0.33023924624660017
-0.4885523112187471	0.3345562822581193
-0.4884912760624971	0.3388421775337506
-0.4884302409062471	0.34310094930985136
-0.4883692057499971	0.34733692706560476
-0.4883081705937471	0.3515522204623444
-0.4882471354374971	0.35574537356487407
-0.4881861002812471	0.3599119632642628
-0.4881250651249971	0.3640468028525095
-0.4880640299687471	0.36814654074615083
-0.4880029948124971	0.37221130920399065
-0.4879419596562471	0.3762445207814144
-0.4878809244999971	0.3802508395710178
-0.4878198893437471	0.3842334499560243
-0.4877588541874971	0.38819215298223286
-0.4876978190312471	0.39212327868944435
-0.4876367838749971	0.39602145513739323
-0.4875757487187471	0.3998823332141542
-0.4875147135624971	0.4037047975356122
-0.4874536784062471	0.40749144341097265
-0.4873926432499971	0.4112470321379292
-0.4873316080937471	0.41497572295281676
-0.4872705729374971	0.41867859760093806
-0.4872095377812471	0.42235287663135845
-0.4871485026249971	0.4259932618346958
-0.4870874674687471	0.4295946402871712
-0.4870264323124971	0.4331546953591734
-0.4869653971562471	0.43667504474031243
-0.4869043619999971	0.4401602553538664
-0.4868433268437471	0.4436152132033704
-0.4867822916874971	0.4470422759595513
-0.4867212565312471	0.4504397800065707
-0.4866602213749971	0.4538027324314569
-0.4865991862187471	0.45712535522852155
-0.4865381510624971	0.46040412055397745
-0.4864771159062471	0.46363958192045646
-0.4864160807499971	0.4668359672997731
-0.4863550455937471	0.4699987443155219
-0.4862940104374971	0.47313145844256743
-0.4862329752812471	0.4762335803418023
-0.4861719401249971	0.4793006009907818
-0.4861109049687471	0.482326352604497
-0.4860498698124971	0.4853062726461021
-0.4859888346562471	0.48823980855920074
-0.4859277994999971	0.4911306229674293
-0.4858667643437471	0.4939844672474591
-0.4858057291874971	0.49680588477683313
-0.4857446940312471	0.499595540876583
-0.4856836588749971	0.5023496564029863
-0.4856226237187471	0.5050619106593854
-0.4855615885624971	0.5077268029350568
-0.4855005534062471	0.5103426095677771
-0.4854395182499971	0.5129122759186853
-0.4853784830937471	0.5154417223186184
-0.4853174479374971	0.5179364616041522
-0.4852564127812471	0.5203983770843835
-0.4851953776249971	0.522824481921675
-0.4851343424687471	0.5252083985032905
-0.4850733073124971	0.527543762416592
-0.4850122721562471	0.5298276739565417
-0.4849512369999971	0.5320622693165589
-0.4848902018437471	0.5342534988395355
-0.4848291666874971	0.5364077482511076
-0.4847681315312471	0.5385281527120912
-0.4847070963749971	0.5406126664185091
-0.4846460612187471	0.5426550200506538
-0.4845850260624971	0.5446480750681179
-0.4845239909062471	0.5465877171652493
-0.4844629557499971	0.5484751203376776
-0.4844019205937471	0.5503160873651688
-0.4843408854374971	0.5521177762265319
-0.4842798502812471	0.5538846046250615
-0.4842188151249971	0.5556156279107687
-0.4841577799687471	0.5573048871322904
-0.4840967448124971	0.5589445768367434
-0.4840357096562471	0.5605293089505046
-0.4839746744999971	0.5620591069186665
-0.4839136393437471	0.5635394247923999
-0.4838526041874971	0.5649781105048407
-0.4837915690312471	0.5663809532185634
-0.4837305338749971	0.5677483048479489
-0.4836694987187471	0.5690747065373877
-0.4836084635624971	0.5703517817445133
-0.4835474284062471	0.5715728248195207
-0.4834863932499971	0.5727365380818696
-0.4834253580937471	0.5738478061886324
-0.4833643229374971	0.5749150157898638
-0.4833032877812471	0.5759453549147647
-0.4832422526249971	0.5769406926949014
-0.4831812174687471	0.5778963642661133
-0.4831201823124971	0.5788035983376091
-0.4830591471562471	0.5796542995585691
-0.4829981119999971	0.5804455566329089
-0.4829370768437471	0.581181344906645
-0.4828760416874971	0.5818704073293164
-0.4828150065312471	0.5825214186347606
-0.4827539713749971	0.5831380802190801
-0.4826929362187471	0.583716888036786
-0.4826319010624971	0.5842488895600831
-0.4825708659062471	0.5847245423083106
-0.4825098307499971	0.5851390173017349
-0.4824487955937471	0.5854949817996943
-0.4823877604374971	0.5858012509323354
-0.4823267252812471	0.5860679753747221
-0.4822656901249971	0.5863009771981965
-0.4822046549687471	0.5864983760431308
-0.4821436198124971	0.5866514402688326
-0.4820825846562471	0.5867492852091128
-0.4820215494999971	0.5867848846751179
-0.4819605143437471	0.586759068665355
-0.4818994791874971	0.5866802308255076
-0.4818384440312471	0.5865598152296375
-0.4817774088749971	0.5864060058628702
-0.4817163737187471	0.586219096749587
-0.4816553385624971	0.5859911560525449
-0.4815943034062471	0.5857102558528133
-0.4815332682499971	0.5853670128288582
-0.4814722330937471	0.5849598615369594
-0.4814111979374971	0.584496103352415
-0.4813501627812471	0.58398805548652
-0.4812891276249971	0.5834463343029906
-0.4812280924687471	0.5828739420077723
-0.4811670573124971	0.5822644545022972
-0.4811060221562471	0.5816053941010882
-0.4810449869999971	0.5808850327473174
-0.4809839518437471	0.5800989437764977
-0.4809229166874971	0.5792526522729783
-0.4808618815312471	0.5783588130410586
-0.4808008463749971	0.5774303727559884
-0.4807398112187471	0.5764734229259629
-0.4806787760624971	0.5754836917265156
-0.4806177409062471	0.5744487159981724
-0.4805567057499971	0.5733546239227972
-0.4804956705937471	0.5721938535865136
-0.4804346354374971	0.5709695423279757
-0.4803736002812471	0.5696940728139659
-0.4803125651249971	0.5683824372091651
-0.4802515299687471	0.567043996485355
-0.4801904948124971	0.565677194703881
-0.4801294596562471	0.5642702247526465
-0.4800684244999971	0.5628074125940979
-0.4800073893437471	0.5612779211735182
-0.4799463541874971	0.5596819789160106
-0.4798853190312471	0.5580310920832201
-0.4798242838749971	0.5563419733578399
-0.4797632487187471	0.554627406239507
-0.4797022135624971	0.5528890548201072
-0.4796411784062471	0.5511162941288585
-0.4795801432499971	0.5492919010563662
-0.4795191080937471	0.5474016086898982
-0.4794580729374971	0.5454422613155073
-0.4793970377812471	0.5434239628248928
-0.4793360026249971	0.5413648602904774
-0.4792749674687471	0.5392812873842304
-0.4792139323124971	0.5371786348974116
-0.4791528971562471	0.5350480688554324
-0.4790918619999971	0.5328711601114771
-0.4790308268437471	0.5306300796438023
-0.4789697916874971	0.5283177402457981
-0.4789087565312471	0.525942179806331
-0.4788477213749971	0.5235225953430406
-0.4787866862187471	0.5210789971517135
-0.4787256510624971	0.5186210646887115
-0.4786646159062471	0.5161424628084769
-0.4786035807499971	0.5136240348119632
-0.4785425455937471	0.5110443298731406
-0.4784815104374971	0.5083917212158837
-0.4784204752812471	0.5056713555020476
-0.4783594401249971	0.502902882357405
-0.4782984049687471	0.5001099549821563
-0.4782373698124971	0.4973071481643425
-0.4781763346562471	0.4944915775202897
-0.4781152994999971	0.49164410275505444
-0.4780542643437471	0.4887397482487249
-0.4779932291874971	0.48576174538130046
-0.4779321940312471	0.48271136701753853
-0.4778711588749971	0.4796078601971932
-0.4778101237187471	0.4764782332697863
-0.4777490885624971	0.47334240880350636
-0.4776880534062471	0.47020197960405963
-0.4776270182499971	0.46703893795043105
-0.4775659830937471	0.46382536719100886
-0.4775049479374971	0.46053900123239855
-0.4774439127812471	0.4571760560558155
-0.4773828776249971	0.4537540014133262
-0.4773218424687471	0.4503024507840828
-0.4772608073124971	0.4468470019556798
-0.4771997721562471	0.4433949108141732
-0.4771387369999971	0.4399306847381505
-0.4770777018437471	0.43642435000555907
-0.4770166666874971	0.43284807056751146
-0.4769556315312471	0.4291919749679819
-0.4768945963749971	0.42547030086645754
-0.4768335612187471	0.42171417856358656
-0.4767725260624971	0.4179547451503165
-0.4767114909062471	0.41420582841977294
-0.4766504557499971	0.41045593500260436
-0.4765894205937471	0.40667426266381274
-0.4765283854374971	0.40282770123180833
-0.4764673502812471	0.3988995259912636
-0.4764063151249971	0.3948992896675996
-0.4763452799687471	0.39085819233096786
-0.4762842448124971	0.38681227242953964
-0.4762232096562471	0.3827825709070821
-0.4761621744999971	0.3787632542415866
-0.4761011393437471	0.37472447517897617
-0.4760401041874971	0.3706286968959718
-0.4759790690312471	0.3664516728201497
-0.4759180338749971	0.3621964482056571
-0.4758569987187471	0.3578923853470182
-0.4757959635624971	0.3535794756796007
-0.4757349284062471	0.34928643616907107
-0.4756738932499971	0.3450146713699971
-0.4756128580937471	0.34073715223299345
-0.4755518229374971	0.33641311897364345
-0.4754907877812471	0.33201069799856064
-0.4754297526249971	0.3275250173838021
-0.4753687174687471	0.32298167598294086
-0.4753076823124971	0.3184233164131728
-0.4752466471562471	0.31388644252744813
-0.4751856119999971	0.3093812221284615
-0.4751245768437471	0.3048855124112358
-0.4750635416874971	0.30035665255802635
-0.4750025065312471	0.29575488987352927
-0.4749414713749971	0.29106571911988127
-0.4748804362187471	0.2863087033972491
-0.4748194010624971	0.28152761663999176
-0.4747583659062471	0.27676697059179284
-0.4746973307499971	0.27204759892488106
-0.4746362955937471	0.26735477896059107
-0.4745752604374971	0.26264571133365333
-0.4745142252812471	0.2578726590239965
-0.4744531901249971	0.25300939090337304
-0.4743921549687471	0.24806645199978322
-0.4743311198124971	0.24308656827893538
-0.4742700846562471	0.2381222121775294
-0.4742090494999971	0.2332071694073739
-0.4741480143437471	0.22833754591389155
-0.4740869791874971	0.22347297105643843
-0.4740259440312471	0.2185579559053149
-0.4739649088749971	0.21355220204690356
-0.4739038737187471	0.20845347732210726
-0.4738428385624971	0.20330034939072802
-0.4737818034062471	0.19815260525124215
-0.4737207682499971	0.19305929321856155
-0.4736597330937471	0.18803155397034496
-0.4735986979374971	0.18303533771498617
-0.4735376627812471	0.17800867836748227
-0.4734766276249971	0.17289496770055035
-0.4734155924687471	0.1676745251207773
-0.4733545573124971	0.16237703564956069
-0.4732935221562471	0.1570673903569476
-0.4732324869999971	0.15181170126177643
-0.4731714518437471	0.1466412997595776
-0.4731104166874971	0.14153436466217853
-0.4730493815312471	0.13642595474392136
-0.4729883463749971	0.1312420678236809
-0.4729273112187471	0.12594005674796976
-0.4728662760624971	0.1205335748968563
-0.4728052409062471	0.11508773721869443
-0.4727442057499971	0.10968587221990055
-0.4726831705937471	0.10438490632173383
-0.4726221354374971	0.09918335461645976
-0.4725611002812471	0.0940199322555856
-0.4725000651249971	0.08880476856754205
-0.4724390299687471	0.08346749344281885
-0.4723779948124971	0.07799663297889745
-0.4723169596562471	0.07244849146640225
-0.4722559244999971	0.06691951183343248
-0.4721948893437471	0.06149573692311878
-0.4721338541874971	0.05620593357767984
-0.4720728190312471	0.05100398113241964
-0.4720117838749971	0.04579121344976472
-0.4719507487187471	0.0404680944954433
-0.4718897135624971	0.03498824871324186
-0.4718286784062471	0.02938562394372492
-0.4717676432499971	0.023759191838812414
-0.4717066080937471	0.01822207080952711
-0.4716455729374971	0.012841381814163843
-0.4715845377812471	0.007600997801429723
-0.4715235026249971	0.0024079509669427623
-0.4714624674687471	-0.00285972940174291
-0.4714014323124971	-0.008288323047451572
-0.4713403971562471	-0.01388115189658335
-0.4712793619999971	-0.01955456487202862
-0.4712183268437471	-0.025180351403107325
-0.4711572916874971	-0.030652845260965525
-0.4710962565312471	-0.03594527187218986
-0.4710352213749971	-0.0411250385225504
-0.4709741862187471	-0.04631917492564099
-0.4709131510624971	-0.05164762373403317
-0.4708521159062471	-0.05715948644719556
-0.4707910807499971	-0.06280620971366116
-0.4707300455937471	-0.06846632028366033
-0.4706690104374971	-0.07400889699601676
-0.4706079752812471	-0.07936223253684975
-0.4705469401249971	-0.08455127355385506
-0.4704859049687471	-0.08968402710091795
-0.4704248698124971	-0.09489427000619348
-0.4703638346562471	-0.10027103907494091
-0.4703027994999971	-0.1058122136598412
-0.4702417643437471	-0.11142646820217161
-0.4701807291874971	-0.11698202022855296
-0.4701196940312471	-0.12237585317996819
-0.4700586588749971	-0.127586657004258
-0.4699976237187471	-0.13268395193324453
-0.4699365885624971	-0.13778951233861408
-0.4698755534062471	-0.14301242793001298
-0.4698145182499971	-0.14839250571396767
-0.4697534830937471	-0.15388144959072497
-0.4696924479374971	-0.15937058922792363
-0.4696314127812471	-0.16474917207948833
-0.4695703776249971	-0.1699616698551285
-0.4695093424687471	-0.17503418241958896
-0.4694483073124971	-0.18005732979082972
