Time	Frequency
-0.5000045543437466	0.16199634397594073
-0.4999435191874966	0.16736285676277338
-0.4998824840312466	0.1726552006087624
-0.4998214488749966	0.1778950849449235
-0.4997604137187466	0.18314452152900026
-0.4996993785624966	0.18844594705565784
-0.4996383434062466	0.1937777461800027
-0.4995773082499966	0.19907144479755606
-0.4995162730937466	0.20427721190067716
-0.4994552379374966	0.20941410722743875
-0.4993942027812466	0.21455335200290526
-0.4993331676249966	0.21974873165337924
-0.4992721324687466	0.22498278320769788
-0.4992110973124966	0.2301830977769543
-0.4991500621562466	0.2352927532352528
-0.4990890269999966	0.240324576432263
-0.4990279918437466	0.24534607345694176
-0.4989669566874966	0.2504121169902193
-0.4989059215312466	0.25551344154396194
-0.4988448863749966	0.2605898567774982
-0.4987838512187466	0.2655906683914252
-0.4987228160624966	0.2705202525898416
-0.4986617809062466	0.27542668239922186
-0.4986007457499966	0.28035091703205134
-0.4985397105937466	0.28529019576061104
-0.4984786754374966	0.290208238774428
-0.4984176402812466	0.2950747143765472
-0.4983566051249966	0.2998909931644796
-0.4982955699687466	0.30468022168790915
-0.4982345348124966	0.3094592257771882
-0.4981734996562466	0.31422448434094613
-0.4981124644999966	0.31896283213301496
-0.4980514293437466	0.3236688598224808
-0.4979903941874966	0.32834766769261436
-0.4979293590312466	0.33300294658274027
-0.4978683238749966	0.33762851385905307
-0.4978072887187466	0.34221549533810797
-0.4977462535624966	0.3467660112917209
-0.4976852184062466	0.3512944383284192
-0.4976241832499966	0.35581164470375154
-0.4975631480937466	0.3603094409804674
-0.4975021129374966	0.36476523770751634
-0.4974410777812466	0.3691650572039389
-0.4973800426249966	0.3735205984788578
-0.4973190074687466	0.37785978953074173
-0.4972579723124966	0.38219800961714206
-0.4971969371562466	0.3865194076865023
-0.4971359019999966	0.3907898288214933
-0.4970748668437466	0.39499075868962014
-0.4970138316874966	0.3991399252095771
-0.4969527965312466	0.4032756112317418
-0.4968917613749966	0.40741837268348324
-0.4968307262187466	0.41154821886409687
-0.4967696910624966	0.41562176777426596
-0.4967086559062466	0.4196143294653958
-0.4966476207499966	0.42354545379601977
-0.4965865855937466	0.4274612690796213
-0.4965255504374966	0.4313895379047495
-0.4964645152812466	0.4353112437361682
-0.4964034801249966	0.43917730299013835
-0.4963424449687466	0.4429551471757468
-0.4962814098124966	0.44666033166241975
-0.4962203746562466	0.45034214856758065
-0.4961593394999966	0.4540365521254874
-0.4960983043437466	0.45773151927559275
-0.4960372691874966	0.4613780488570829
-0.4959762340312466	0.46493612932347494
-0.4959151988749966	0.4684118075839451
-0.4958541637187466	0.47185050626007485
-0.4957931285624966	0.475293698539772
-0.4957320934062466	0.47874044284518613
-0.4956710582499966	0.48214946081018145
-0.4956100230937466	0.485478254748905
-0.4955489879374966	0.48872156423658675
-0.4954879527812466	0.4919138369775792
-0.4954269176249966	0.49509544572821423
-0.4953658824687466	0.49827583595489977
-0.4953048473124966	0.5014272860423145
-0.4952438121562466	0.5045124123058412
-0.4951827769999966	0.507517741149698
-0.4951217418437466	0.5104627578350577
-0.4950607066874966	0.5133789908965483
-0.4949996715312466	0.5162811488798147
-0.4949386363749966	0.5191566243004873
-0.4948776012187466	0.5219798829127686
-0.4948165660624966	0.5247355950631303
-0.4947555309062466	0.5274293246916688
-0.4946944957499966	0.5300789038818754
-0.4946334605937466	0.5326975283356368
-0.4945724254374966	0.5352843841136364
-0.4945113902812466	0.5378285535452186
-0.4944503551249966	0.5403194225070173
-0.4943893199687466	0.5427535527839362
-0.4943282848124966	0.5451343562129618
-0.4942672496562466	0.5474679869942705
-0.4942062144999966	0.5497597546593573
-0.4941451793437466	0.5520120235648419
-0.4940841441874966	0.5542227278459515
-0.4940231090312466	0.5563852023651478
-0.4939620738749966	0.5584914564852931
-0.4939010387187466	0.5605384535332566
-0.4938400035624966	0.5625322896844467
-0.4937789684062466	0.5644846649666646
-0.4937179332499966	0.5664026818775054
-0.4936568980937466	0.5682809234508943
-0.4935958629374966	0.5701045209041317
-0.4935348277812466	0.5718620503038159
-0.4934737926249966	0.5735568025233317
-0.4934127574687466	0.5752049919998645
-0.4933517223124966	0.576821130596448
-0.4932906871562466	0.5784037079090615
-0.4932296519999966	0.5799354003992837
-0.4931686168437466	0.5813987249260549
-0.4931075816874966	0.582792724936402
-0.4930465465312466	0.5841344359781986
-0.4929855113749966	0.585443004587833
-0.4929244762187466	0.5867212018825029
-0.4928634410624966	0.587952231264086
-0.4928024059062466	0.5891153797915738
-0.4927413707499966	0.5902057702297888
-0.4926803355937466	0.5912391545878684
-0.4926193004374966	0.5922368472764544
-0.4925582652812466	0.5932051610907718
-0.4924972301249966	0.5941292176092591
-0.4924361949687466	0.5949871030675525
-0.4923751598124966	0.5957707122301338
-0.4923141246562466	0.5964933033087931
-0.4922530894999966	0.5971766547381735
-0.4921920543437466	0.597830288088438
-0.4921310191874966	0.598442634269919
-0.4920699840312466	0.5989922704552083
-0.4920089488749966	0.5994680955308478
-0.4919479137187466	0.5998792106028892
-0.4918868785624966	0.6002456803837731
-0.4918258434062466	0.6005796032875864
-0.4917648082499966	0.6008744650414988
-0.4917037730937466	0.6011121307048026
-0.4916427379374966	0.6012799721474464
-0.4915817027812466	0.6013817385081462
-0.4915206676249966	0.601432759224401
-0.4914596324687466	0.6014452151619761
-0.4913985973124966	0.6014176953583756
-0.4913375621562466	0.6013379535871216
-0.4912765269999966	0.6011949409788002
-0.4912154918437466	0.60098828243074
-0.4911544566874966	0.6007270942925199
-0.4910934215312466	0.6004206742675406
-0.4910323863749966	0.6000705203053601
-0.4909713512187466	0.5996704629001915
-0.4909103160624966	0.5992133268657437
-0.4908492809062466	0.5986970875690707
-0.4907882457499966	0.5981253536810114
-0.4907272105937466	0.5975031000836876
-0.4906661754374966	0.5968324797006157
-0.4906051402812466	0.5961121614704572
-0.4905441051249966	0.5953395516314612
-0.4904830699687466	0.5945129881470874
-0.4904220348124966	0.5936321676273155
-0.4903609996562466	0.5926975171961848
-0.4902999644999966	0.5917099954288235
-0.4902389293437466	0.5906713143919712
-0.4901778941874966	0.5895832938078049
-0.4901168590312466	0.5884461462906295
-0.4900558238749966	0.5872575097444802
-0.4899947887187466	0.5860140187380953
-0.4899337535624966	0.5847146114831835
-0.4898727184062466	0.5833622739013699
-0.4898116832499966	0.5819617986233739
-0.4897506480937466	0.5805152567417879
-0.4896896129374966	0.5790197390188906
-0.4896285777812466	0.5774699388532994
-0.4895675426249966	0.5758633227535935
-0.4895065074687466	0.5742029162008069
-0.4894454723124966	0.5724947763221849
-0.4893844371562466	0.5707422798588963
-0.4893234019999966	0.568942786960574
-0.4892623668437466	0.5670902138420858
-0.4892013316874966	0.5651811093048343
-0.4891402965312466	0.56321825539312
-0.4890792613749966	0.5612081935104027
-0.4890182262187466	0.5591549551455565
-0.4889571910624966	0.557056150242755
-0.4888961559062466	0.5549054343565442
-0.4888351207499966	0.5526990180405056
-0.4887740855937466	0.5504396748944509
-0.4887130504374966	0.5481341271162701
-0.4886520152812466	0.5457864552794355
-0.4885909801249966	0.5433941975579413
-0.4885299449687466	0.5409510214103301
-0.4884689098124966	0.538453286858463
-0.4884078746562466	0.535903925280595
-0.4883468394999966	0.5333097108866257
-0.4882858043437466	0.5306746695479811
-0.4882247691874966	0.527996281145996
-0.4881637340312466	0.5252682366905249
-0.4881026988749966	0.52248690988055
-0.4880416637187466	0.5196551310770816
-0.4879806285624966	0.5167795931781983
-0.4879195934062466	0.513864484385224
-0.4878585582499966	0.5109076743641194
-0.4877975230937466	0.5079031724812528
-0.4877364879374966	0.5048472508198036
-0.4876754527812466	0.5017421829738211
-0.4876144176249966	0.4985941055941736
-0.4875533824687466	0.49540722243974816
-0.4874923473124966	0.4921801290589308
-0.4874313121562466	0.4889077470252656
-0.4873702769999966	0.4855865738215941
-0.4873092418437466	0.48221805066697265
-0.4872482066874966	0.4788071522908831
-0.4871871715312466	0.475357816880958
-0.4871261363749966	0.47186962751029593
-0.4870651012187466	0.4683388306564909
-0.4870040660624966	0.46476241768951565
-0.4869430309062466	0.46114105778542397
-0.4868819957499966	0.4574782389074499
-0.4868209605937466	0.4537770104548272
-0.4867599254374966	0.45003768900266533
-0.4866988902812466	0.446258395322769
-0.4866378551249966	0.44243748809639716
-0.4865768199687466	0.43857525658139634
-0.4865157848124966	0.4346733070196357
-0.4864547496562466	0.4307328814601987
-0.4863937144999966	0.426754187795355
-0.4863326793437466	0.422737056429095
-0.4862716441874966	0.418681760289495
-0.4862106090312466	0.41458900976131574
-0.4861495738749966	0.4104592261495064
-0.4860885387187466	0.40629211501323664
-0.4860275035624966	0.4020872774680013
-0.4859664684062466	0.39784525559695066
-0.4859054332499966	0.39356767398146514
-0.4858443980937466	0.38925602399756776
-0.4857833629374966	0.3849102937030003
-0.4857223277812466	0.3805291461479955
-0.4856612926249966	0.3761116790164679
-0.4856002574687466	0.37165888827174937
-0.4855392223124966	0.36717320280684446
-0.4854781871562466	0.362656424650313
-0.4854171519999966	0.3581080965819214
-0.4853561168437466	0.353526144011891
-0.4852950816874966	0.3489093924200196
-0.4852340465312466	0.3442593347940459
-0.4851730113749966	0.3395791283375539
-0.4851119762187466	0.3348707985565445
-0.4850509410624966	0.3301335359385194
-0.4849899059062466	0.3253648487315421
-0.4849288707499966	0.3205634520494742
-0.4848678355937466	0.3157310025995599
-0.4848068004374966	0.31087096567568706
-0.4847457652812466	0.3059856766390878
-0.4846847301249966	0.3010743538371191
-0.4846236949687466	0.29613407525424773
-0.4845626598124966	0.2911629891838797
-0.4845016246562466	0.286162678763454
-0.4844405894999966	0.28113722328496193
-0.4843795543437466	0.2760897370875062
-0.4843185191874966	0.2710196790434635
-0.4842574840312466	0.2659236131463578
-0.4841964488749966	0.2607989196419183
-0.4841354137187466	0.2556468526703124
-0.4840743785624966	0.25047178342501153
-0.4840133434062466	0.24527740660946093
-0.4839523082499966	0.24006367711671012
-0.4838912730937466	0.23482733768088607
-0.4838302379374966	0.22956547319728945
-0.4837692027812466	0.22427869382061838
-0.4837081676249966	0.2189708612338939
-0.4836471324687466	0.21364572860729414
-0.4835860973124966	0.2083038641040768
-0.4835250621562466	0.2029427825071041
-0.4834640269999966	0.19755992753626472
-0.4834029918437466	0.19215542579981604
-0.4833419566874966	0.18673216853605376
-0.4832809215312466	0.18129337268183435
-0.4832198863749966	0.17583997240798258
-0.4831588512187466	0.17037045530426456
-0.4830978160624966	0.1648831253155542
-0.4830367809062466	0.1593781243919676
-0.4829757457499966	0.15385729722315453
-0.4829147105937466	0.14832257275832209
-0.4828536754374966	0.14277470806807407
-0.4827926402812466	0.13721338607332623
-0.4827316051249966	0.1316382338223491
-0.4826705699687466	0.12604963376880166
-0.4826095348124966	0.12044854504361241
-0.4825484996562466	0.11483573571182554
-0.4824874644999966	0.10921150863560468
-0.4824264293437466	0.10357618506110522
-0.4823653941874966	0.09793053192620546
-0.4823043590312466	0.09227544653067435
-0.4822433238749966	0.08661132355768104
-0.4821822887187466	0.08093801322336223
-0.4821212535624966	0.07525551549081232
-0.4820602184062466	0.06956463863821405
-0.4819991832499966	0.06386678495141843
-0.4819381480937466	0.05816302740665019
-0.4818771129374966	0.05245349830608684
-0.4818160777812466	0.04673768843848042
-0.4817550426249966	0.041015366828374485
-0.4816940074687466	0.03528733183345282
-0.4816329723124966	0.029555245843442778
-0.4815719371562466	0.023820559974468015
-0.4815109019999966	0.018083508760806444
-0.4814498668437466	0.01234325844407521
-0.4813888316874966	0.006599179043927729
-0.4813277965312466	0.0008519963479163168
-0.4812667613749966	-0.00489638425025072
-0.4812057262187466	-0.010644185234200623
-0.4811446910624966	-0.01639084218663468
-0.4810836559062466	-0.022136989032907988
-0.4810226207499966	-0.02788350350978867
-0.4809615855937466	-0.033630367716609384
-0.4809005504374966	-0.03937621334995155
-0.4808395152812466	-0.04511898853132809
-0.4807784801249966	-0.050857381556861
-0.4807174449687466	-0.056591661969098234
-0.4806564098124966	-0.06232295920244751
-0.4805953746562466	-0.06805173257283532
-0.4805343394999966	-0.07377684491477092
-0.4804733043437466	-0.07949610089191207
-0.4804122691874966	-0.0852078401068653
-0.4803512340312466	-0.09091196991667423
-0.4802901988749966	-0.09660953342873532
-0.4802291637187466	-0.10230133949883728
-0.4801681285624966	-0.10798678258671535
-0.4801070934062466	-0.11366390395919736
-0.4800460582499966	-0.11933073320226474
-0.4799850230937466	-0.12498668008897407
-0.4799239879374966	-0.1306326160417267
-0.4798629527812466	-0.13626954660587395
-0.4798019176249966	-0.14189721661102617
-0.4797408824687466	-0.14751395428037353
-0.4796798473124966	-0.1531177271708295
-0.4796188121562466	-0.15870749626176245
-0.4795577769999966	-0.16428372873261787
-0.4794967418437466	-0.169847408346683
-0.4794357066874966	-0.17539856841015206
-0.4793746715312466	-0.18093601386794123
-0.4793136363749966	-0.1864582258480318
-0.4792526012187466	-0.19196421725905066
-0.4791915660624966	-0.19745373579743264
-0.4791305309062466	-0.2029269718741711
-0.4790694957499966	-0.20838402298072398
-0.4790084605937466	-0.21382448474093355
-0.4789474254374966	-0.2192474640457655
-0.4788863902812466	-0.22465186377904986
-0.4788253551249966	-0.23003673144153486
-0.4787643199687466	-0.23540160708784025
-0.4787032848124966	-0.24074665961151956
-0.4786422496562466	-0.2460722879301839
-0.4785812144999966	-0.2513783060952122
-0.4785201793437466	-0.2566635309211791
-0.4784591441874966	-0.2619263526138407
-0.4783981090312466	-0.2671658053813349
-0.4783370738749966	-0.2723820651978311
-0.4782760387187466	-0.27757587916661436
-0.4782150035624966	-0.2827474553805865
-0.4781539684062466	-0.2878957239196992
-0.4780929332499966	-0.29301879096462846
-0.4780318980937466	-0.2981154502104414
-0.4779708629374966	-0.30318607040879675
-0.4779098277812466	-0.30823168604462226
-0.4778487926249966	-0.31325238542836886
-0.4777877574687466	-0.31824680040353104
-0.4777267223124966	-0.32321312498677207
-0.4776656871562466	-0.3281505222999998
-0.4776046519999966	-0.333059468314099
-0.4775436168437466	-0.33794074534417085
-0.4774825816874966	-0.34279418245394655
-0.4774215465312466	-0.347618436524547
-0.4773605113749966	-0.3524119849648129
-0.4772994762187466	-0.3571742430395345
-0.4772384410624966	-0.36190563196087194
-0.4771774059062466	-0.36660655754907423
-0.4771163707499966	-0.3712764799464591
-0.4770553355937466	-0.3759141628810776
-0.4769943004374966	-0.38051873365947253
-0.4769332652812466	-0.3850902081129051
-0.4768722301249966	-0.38962888840964877
-0.4768111949687466	-0.3941344164148229
-0.4767501598124966	-0.3986056468255391
-0.4766891246562466	-0.40304153117710906
-0.4766280894999966	-0.40744196433353536
-0.4765670543437466	-0.4118075425535355
-0.4765060191874966	-0.4161384373304999
-0.4764449840312466	-0.4204336609419675
-0.4763839488749966	-0.4246915963632112
-0.4763229137187466	-0.4289112868694794
-0.4762618785624966	-0.4330931764612633
-0.4762008434062466	-0.43723842304887994
-0.4761398082499966	-0.4413472784143629
-0.4760787730937466	-0.445418217969888
-0.4760177379374966	-0.4494489520869944
-0.4759567027812466	-0.45343836869688686
-0.4758956676249966	-0.45738739715564114
-0.4758346324687466	-0.46129791119433144
-0.4757735973124966	-0.46517060616792905
-0.4757125621562466	-0.4690038120312143
-0.4756515269999966	-0.47279459336829943
-0.4755904918437466	-0.47654125986358753
-0.4755294566874966	-0.4802447693712671
-0.4754684215312466	-0.48390758630018793
-0.4754073863749966	-0.487531046648544
-0.4753463512187466	-0.49111364180770334
-0.4752853160624966	-0.4946519671923718
-0.4752242809062466	-0.4981436461862637
-0.4751632457499966	-0.501589406503643
-0.4751022105937466	-0.5049921962179792
-0.4750411754374966	-0.5083540958525374
-0.4749801402812466	-0.5116739100958745
-0.4749191051249966	-0.5149478586170877
-0.4748580699687466	-0.5181729262581671
-0.4747970348124966	-0.5213495910944341
-0.4747359996562466	-0.5244811068253216
-0.4746749644999966	-0.5275700568782968
-0.4746139293437466	-0.5306155489559794
-0.4745528941874966	-0.5336137504131144
-0.4744918590312466	-0.5365613188931735
-0.4744308238749966	-0.5394584315667158
-0.4743697887187466	-0.5423083809013122
-0.4743087535624966	-0.5451140277838374
-0.4742477184062466	-0.5478746067138698
-0.4741866832499966	-0.5505862217734412
-0.4741256480937466	-0.5532456355612495
-0.4740646129374966	-0.555853370178924
-0.4740035777812466	-0.5584128264708754
-0.4739425426249966	-0.5609263939907088
-0.4738815074687466	-0.5633926871611086
-0.4738204723124966	-0.5658078224838416
-0.4737594371562466	-0.5681693714942403
-0.4736984019999966	-0.5704787376824051
-0.4736373668437466	-0.5727393503519106
-0.4735763316874966	-0.5749526418035981
-0.4735152965312466	-0.5771162438662693
-0.4734542613749966	-0.5792264073987883
-0.4733932262187466	-0.581281967697285
-0.4733321910624966	-0.5832854026857437
-0.4732711559062466	-0.5852397882585096
-0.4732101207499966	-0.5871451035793352
-0.4731490855937466	-0.5889980290049425
-0.4730880504374966	-0.5907954705190521
-0.4730270152812466	-0.5925379035412188
-0.4729659801249966	-0.594228730945761
-0.4729049449687466	-0.5958702532982851
-0.4728439098124966	-0.5974607527737784
-0.4727828746562466	-0.5989960789568866
-0.4727218394999966	-0.600474099619001
-0.4726608043437466	-0.6018970538341437
-0.4725997691874966	-0.6032690833213975
-0.4725387340312466	-0.6045915769309691
-0.4724776988749966	-0.6058614022829533
-0.4724166637187466	-0.6070739990181375
-0.4723556285624966	-0.608228085752302
-0.4722945934062466	-0.6093269549213225
-0.4722335582499966	-0.610374941734868
-0.4721725230937466	-0.6113727653072617
-0.4721114879374966	-0.6123165904373846
-0.4720504527812466	-0.6132018063859308
-0.4719894176249966	-0.6140276974257725
-0.4719283824687466	-0.6147982009303363
-0.4718673473124966	-0.6155178978793792
-0.4718063121562466	-0.6161872834922469
-0.4717452769999966	-0.6168020841517741
-0.4716842418437466	-0.6173573241720239
-0.4716232066874966	-0.6178522240622992
-0.4715621715312466	-0.6182911297815786
-0.4715011363749966	-0.6186793295191505
-0.4714401012187466	-0.6190176651579662
-0.4713790660624966	-0.6193013648353755
-0.4713180309062466	-0.6195245640055026
-0.4712569957499966	-0.6196862413602641
-0.4711959605937466	-0.6197915136377238
-0.4711349254374966	-0.6198466001127969
-0.4710738902812466	-0.6198523448460332
-0.4710128551249966	-0.6198030496682658
-0.4709518199687466	-0.6196921486248389
-0.4708907848124966	-0.6195191019644931
-0.4708297496562466	-0.6192902280013101
-0.4707687144999966	-0.6190122257218384
-0.4707076793437466	-0.6186850092366639
-0.4706466441874966	-0.6183016133263662
-0.4705856090312466	-0.6178554954565371
-0.4705245738749966	-0.6173475087686962
-0.4704635387187466	-0.6167850888805193
-0.4704025035624966	-0.6161744255096117
-0.4703414684062466	-0.615513883906237
-0.4702804332499966	-0.614795746243032
-0.4702193980937466	-0.6140144751191065
-0.4701583629374966	-0.6131726669171567
-0.4700973277812466	-0.6122783587451412
-0.4700362926249966	-0.6113365830933624
-0.4699752574687466	-0.6103440854517216
-0.4699142223124966	-0.6092927999502983
-0.4698531871562466	-0.6081784894839795
-0.4697921519999966	-0.6070053840524483
-0.4697311168437466	-0.6057818125828194
-0.4696700816874966	-0.604511439186059
-0.4696090465312466	-0.6031894182753715
-0.4695480113749966	-0.6018075537593988
-0.4694869762187466	-0.6003630714754788
-0.4694259410624966	-0.5988618028367321
-0.4693649059062466	-0.5973122940577625
-0.4693038707499966	-0.5957168828464947
