Time	Frequency
-0.5000471531562454	0.16782393937629067
-0.49998611799999537	0.17462568372920287
-0.49992508284374537	0.18137147854622546
-0.49986404768749537	0.18805802739569255
-0.49980301253124537	0.19468963348376644
-0.49974197737499537	0.20127737651931632
-0.49968094221874537	0.20783699726058139
-0.49961990706249537	0.2143858253246652
-0.49955887190624537	0.22093929951148492
-0.49949783674999537	0.2275077598033805
-0.49943680159374537	0.23409415955878646
-0.49937576643749537	0.24069318815104773
-0.49931473128124537	0.24729199892041806
-0.49925369612499537	0.25387239925567584
-0.49919266096874537	0.2604141099754058
-0.49913162581249537	0.2668984957266195
-0.49907059065624537	0.2733120554946299
-0.49900955549999537	0.27964901248329216
-0.49894852034374537	0.28591247931690933
-0.49888748518749537	0.29211391307666457
-0.49882645003124537	0.29827092539035294
-0.49876541487499537	0.3044038518000623
-0.49870437971874537	0.31053174154070207
-0.49864334456249537	0.31666852807962126
-0.49858230940624537	0.32282007570610816
-0.49852127424999537	0.3289826884067562
-0.49846023909374537	0.3351434557063381
-0.49839920393749537	0.3412824262662937
-0.49833816878124537	0.34737619441180934
-0.49827713362499537	0.3534022186094016
-0.49821609846874537	0.3593430775768191
-0.49815506331249537	0.3651898485164983
-0.49809402815624537	0.37094390127222915
-0.49803299299999537	0.37661671190304113
-0.49797195784374537	0.38222771910795517
-0.49791092268749537	0.38780061443801594
-0.49784988753124537	0.3933587332560092
-0.49778885237499537	0.3989204044576331
-0.49772781721874537	0.4044951613965966
-0.49766678206249537	0.4100815631643005
-0.49760574690624537	0.41566707845960127
-0.49754471174999537	0.42123011801863003
-0.49748367659374537	0.4267438869932854
-0.49742264143749537	0.43218134952779624
-0.49736160628124537	0.43752035065642647
-0.49730057112499537	0.44274789864989206
-0.49723953596874537	0.44786277574831884
-0.49717850081249537	0.4528759301913301
-0.49711746565624537	0.45780851559668234
-0.49705643049999537	0.46268791876558313
-0.49699539534374537	0.46754248958956596
-0.49693436018749537	0.47239595095138665
-0.49687332503124537	0.477262579180931
-0.49681228987499537	0.4821441068077811
-0.49675125471874537	0.48702898235981495
-0.49669021956249537	0.4918941867254738
-0.49662918440624537	0.4967093075478468
-0.49656814924999537	0.5014421456046605
-0.49650711409374537	0.5060648078161968
-0.49644607893749537	0.5105591015223376
-0.49638504378124537	0.5149201732824181
-0.49632400862499537	0.5191576595213443
-0.49626297346874537	0.5232940653719591
-0.49620193831249537	0.5273606215897236
-0.49614090315624537	0.5313913586852487
-0.49607986799999537	0.5354164943677115
-0.49601883284374537	0.5394564011043692
-0.49595779768749537	0.5435173343526106
-0.49589676253124537	0.5475897928802143
-0.49583572737499537	0.5516498956341804
-0.49577469221874537	0.5556635676367927
-0.49571365706249537	0.5595927922747508
-0.49565262190624537	0.5634027761926322
-0.49559158674999537	0.5670686517862445
-0.49553055159374537	0.5705804175815429
-0.49546951643749537	0.5739451412839162
-0.49540848128124537	0.5771859229574627
-0.49534744612499537	0.5803377212293968
-0.49528641096874537	0.5834407956676877
-0.49522537581249537	0.5865330015014295
-0.49516434065624537	0.589642380765965
-0.49510330549999537	0.5927814553072384
-0.49504227034374537	0.5959443658359779
-0.49498123518749537	0.5991075024178582
-0.49492020003124537	0.6022335816178538
-0.49485916487499537	0.6052784422087083
-0.49479812971874537	0.6081993186334079
-0.49473709456249537	0.6109630365437262
-0.49467605940624537	0.6135525376507384
-0.49461502424999537	0.615970449293349
-0.49455398909374537	0.618238959326008
-0.49449295393749537	0.6203959296828937
-0.49443191878124537	0.6224879129815627
-0.49437088362499537	0.6245613538673208
-0.49430984846874537	0.6266536187947804
-0.49424881331249537	0.6287855731073375
-0.49418777815624537	0.63095717480632
-0.49412674299999537	0.6331469918918026
-0.49406570784374537	0.63531580761754
-0.49400467268749537	0.6374137089845455
-0.49394363753124537	0.6393893763997626
-0.49388260237499537	0.6411998349903755
-0.49382156721874537	0.6428188043278066
-0.49376053206249537	0.6442420214300014
-0.49369949690624537	0.6454884591548881
-0.49363846174999537	0.646597123163474
-0.49357742659374537	0.6476199537286546
-0.49351639143749537	0.6486121186542624
-0.49345535628124537	0.6496215069375215
-0.49339432112499537	0.6506794191727292
-0.49333328596874537	0.6517942584173897
-0.49327225081249537	0.6529494807691859
-0.49321121565624537	0.6541062726750868
-0.49315018049999537	0.6552105294266468
-0.49308914534374537	0.6562028757746725
-0.49302811018749537	0.6570298625497049
-0.49296707503124537	0.6576542210717897
-0.49290603987499537	0.6580622055932285
-0.49284500471874537	0.6582665747758696
-0.49278396956249537	0.6583045703643842
-0.49272293440624537	0.6582312029500132
-0.49266189924999537	0.6581090585200412
-0.49260086409374537	0.6579965126696474
-0.49253982893749537	0.6579365726955434
-0.49247879378124537	0.6579484901662322
-0.49241775862499537	0.6580237796616596
-0.49235672346874537	0.6581274532446165
-0.49229568831249537	0.6582043070962844
-0.49223465315624537	0.6581891340199976
-0.49217361799999537	0.6580189619967161
-0.49211258284374537	0.6576450130234122
-0.49205154768749537	0.6570421101492997
-0.49199051253124537	0.6562137111777808
-0.49192947737499537	0.6551915577003572
-0.49186844221874537	0.6540299576917413
-0.49180740706249537	0.652795744066433
-0.49174637190624537	0.6515557688347224
-0.49168533674999537	0.6503642806779739
-0.49162430159374537	0.6492525910598526
-0.49156326643749537	0.6482230069810815
-0.49150223128124537	0.6472482046929053
-0.49144119612499537	0.646276206666314
-0.49138016096874537	0.6452400588706821
-0.49131912581249537	0.6440704001682248
-0.49125809065624537	0.6427085555430642
-0.49119705549999537	0.6411176732941674
-0.49113602034374537	0.6392897900526996
-0.49107498518749537	0.6372474704970607
-0.49101395003124537	0.6350396903286237
-0.49095291487499537	0.6327327221417963
-0.49089187971874537	0.6303977380560923
-0.49083084456249537	0.6280974667122358
-0.49076980940624537	0.6258744206033093
-0.49070877424999537	0.6237429304614571
-0.49064773909374537	0.6216864952318008
-0.49058670393749537	0.6196609313111469
-0.49052566878124537	0.6176027379648055
-0.49046463362499537	0.6154411149404975
-0.49040359846874537	0.6131113368919814
-0.49034256331249537	0.610566934430792
-0.49028152815624537	0.6077883975776821
-0.49022049299999537	0.6047867885954132
-0.49015945784374537	0.6016016032193285
-0.49009842268749537	0.5982933003245388
-0.49003738753124537	0.5949319203709101
-0.48997635237499537	0.5915839513044887
-0.48991531721874537	0.5882999319035406
-0.48985428206249537	0.585105141776227
-0.48979324690624537	0.5819951272590783
-0.48973221174999537	0.5789368476735343
-0.48967117659374537	0.5758751586824451
-0.48961014143749537	0.5727433856524843
-0.48954910628124537	0.5694759783689106
-0.48948807112499537	0.5660208510525806
-0.48942703596874537	0.5623490878145663
-0.48936600081249537	0.558460194051221
-0.48930496565624537	0.5543819397232653
-0.48924393049999537	0.5501649016234117
-0.48918289534374537	0.545872809332159
-0.48912186018749537	0.5415705453183668
-0.48906082503124537	0.5373120675508097
-0.48899978987499537	0.5331305341403971
-0.48893875471874537	0.52903245933568
-0.48887771956249537	0.5249969493645716
-0.48881668440624537	0.5209801090581022
-0.48875564924999537	0.5169237023054236
-0.48869461409374537	0.5127663523138474
-0.48863357893749537	0.5084551552570407
-0.48857254378124537	0.5039555445704746
-0.48851150862499537	0.4992575752839421
-0.48845047346874537	0.49437748596211695
-0.48838943831249537	0.4893543114183483
-0.48832840315624537	0.4842422551259016
-0.48826736799999537	0.4791003396861058
-0.48820633284374537	0.4739813559623322
-0.48814529768749537	0.4689221950262349
-0.48808426253124537	0.46393734198700937
-0.48802322737499537	0.45901669186751887
-0.48796219221874537	0.4541280164088274
-0.48790115706249537	0.4492235504590688
-0.48784012190624537	0.4442493870222585
-0.48777908674999537	0.43915584584550094
-0.48771805159374537	0.4339068298967937
-0.48765701643749537	0.42848642035015183
-0.48759598128124537	0.42290155306657273
-0.48753494612499537	0.4171803536270306
-0.48747391096874537	0.4113665075821281
-0.48741287581249537	0.4055108225180351
-0.48735184065624537	0.39966162100669655
-0.48729080549999537	0.39385579736236837
-0.48722977034374537	0.38811225303231167
-0.48716873518749537	0.3824288898623092
-0.48710770003124537	0.37678361706694885
-0.48704666487499537	0.37113909230012354
-0.48698562971874537	0.36545023556574135
-0.48692459456249537	0.35967305428698
-0.48686355940624537	0.3537730628186605
-0.48680252424999537	0.3477316786125912
-0.48674148909374537	0.34154945616251564
-0.48668045393749537	0.3352456636066387
-0.48661941878124537	0.3288543383235192
-0.48655838362499537	0.32241760323905316
-0.48649734846874537	0.31597760883793463
-0.48643631331249537	0.30956869832696776
-0.48637527815624537	0.3032112486733149
-0.48631424299999537	0.2969082940345521
-0.48625320784374537	0.29064551127860255
-0.48619217268749537	0.2843945046975593
-0.48613113753124537	0.27811869002209505
-0.48607010237499537	0.2717805889685118
-0.48600906721874537	0.26534912747966855
-0.48594803206249537	0.2588055424170669
-0.48588699690624537	0.25214676695136296
-0.48582596174999537	0.24538572596522307
-0.48576492659374537	0.23854861463563914
-0.48570389143749537	0.2316697365571421
-0.48564285628124537	0.22478490014454935
-0.48558182112499537	0.21792468538901352
-0.48552078596874537	0.21110888616905138
-0.48545975081249537	0.20434315174385267
-0.48539871565624537	0.1976184265650028
-0.48533768049999537	0.19091322837288716
-0.48527664534374537	0.18419822224710278
-0.48521561018749537	0.17744215189301699
-0.48515457503124537	0.17061802158456602
-0.48509353987499537	0.16370834887247807
-0.48503250471874537	0.1567084388121537
-0.48497146956249537	0.14962710131978654
-0.48491043440624537	0.14248476010838027
-0.48484939924999537	0.13530936767751836
-0.48478836409374537	0.12813099808419579
-0.48472732893749537	0.12097619440020771
-0.48466629378124537	0.11386311133435886
-0.48460525862499537	0.10679837716677419
-0.48454422346874537	0.09977626200329238
-0.48448318831249537	0.09278023402155453
-0.48442215315624537	0.08578656382603209
-0.48436111799999537	0.07876927133784162
-0.48430008284374537	0.0717053802296564
-0.48423904768749537	0.06457941591783734
-0.48417801253124537	0.05738635147742872
-0.48411697737499537	0.050132495857785966
-0.48405594221874537	0.042834180929192604
-0.48399490706249537	0.0355145431614199
-0.48393387190624537	0.02819902553847597
-0.48387283674999537	0.02091051479412469
-0.48381180159374537	0.013665128621363222
-0.48375076643749537	0.006469413050127412
-0.48368973128124537	-0.0006805618861263383
-0.48362869612499537	-0.007798024760962274
-0.48356766096874537	-0.01490254291181675
-0.48350662581249537	-0.022015917564692004
-0.48344559065624537	-0.029157722006269923
-0.48338455549999537	-0.036341368785688034
-0.48332352034374537	-0.04357147790499787
-0.48326248518749537	-0.050842990653350364
-0.48320145003124537	-0.05814216415062145
-0.48314041487499537	-0.06544927273636693
-0.48307937971874537	-0.07274244778582493
-0.48301834456249537	-0.08000185252861054
-0.48295730940624537	-0.08721337201319755
-0.48289627424999537	-0.09437108572819453
-0.48283523909374537	-0.10147808664032466
-0.48277420393749537	-0.1085455512813365
-0.48271316878124537	-0.1155902378202167
-0.48265213362499537	-0.122630926149696
-0.48259109846874537	-0.12968454025449275
-0.48253006331249537	-0.13676270561779666
-0.48246902815624537	-0.14386938792938464
-0.48240799299999537	-0.15100005638310202
-0.48234695784374537	-0.1581425414171931
-0.48228592268749537	-0.16527939883193443
-0.48222488753124537	-0.1723912565942199
-0.48216385237499537	-0.179460479298244
-0.48210281721874537	-0.1864744593979847
-0.48204178206249537	-0.19342789165441504
-0.48198074690624537	-0.20032358172871914
-0.48191971174999537	-0.2071716251713653
-0.48185867659374537	-0.21398712656878774
-0.48179764143749537	-0.2207869702983833
-0.48173660628124537	-0.22758633080245044
-0.48167557112499537	-0.2343955601113613
-0.48161453596874537	-0.24121801970381615
-0.48155350081249537	-0.2480493282645401
-0.48149246565624537	-0.2548781779603647
-0.48143143049999537	-0.2616884887552791
-0.48137039534374537	-0.26846244935798336
-0.48130936018749537	-0.27518388456898274
-0.48124832503124537	-0.281841289084138
-0.48118728987499537	-0.2884298861853663
-0.48112625471874537	-0.29495233763528395
-0.48106521956249537	-0.30141802741664364
-0.48100418440624537	-0.3078410403681008
-0.48094314924999537	-0.31423720332915667
-0.48088211409374537	-0.320620783841408
-0.48082107893749537	-0.3270015244587003
-0.48076004378124537	-0.3333826136293616
-0.48069900862499537	-0.33975996449716334
-0.48063797346874537	-0.34612290113392347
-0.48057693831249537	-0.35245612679029487
-0.48051590315624537	-0.3587426155421012
-0.48045486799999537	-0.36496682904911704
-0.48039383284374537	-0.3711176005805137
-0.48033279768749537	-0.37719015896690694
-0.48027176253124537	-0.3831869121884017
-0.48021072737499537	-0.3891168179833006
-0.48014969221874537	-0.39499345733042546
-0.48008865706249537	-0.400832202881432
-0.48002762190624537	-0.40664707731249927
-0.47996658674999537	-0.41244790400033
-0.47990555159374537	-0.4182382505714623
-0.47984451643749537	-0.42401458646079954
-0.47978348128124537	-0.42976685928113234
-0.47972244612499537	-0.43548035405080426
-0.47966141096874537	-0.4411384463216924
-0.47960037581249537	-0.44672571183890236
-0.47953934065624537	-0.45223078873270045
-0.47947830549999537	-0.45764844042733643
-0.47941727034374537	-0.4629804286491875
-0.47935623518749537	-0.46823503869760874
-0.47929520003124537	-0.4734253476012682
-0.47923416487499537	-0.4785665560534449
-0.47917312971874537	-0.4836729109604591
-0.47911209456249537	-0.48875483664108693
-0.47905105940624537	-0.49381681205292055
-0.47899002424999537	-0.49885638368365715
-0.47892898909374537	-0.5038645209284395
-0.47886795393749537	-0.508827258286393
-0.47880691878124537	-0.5137282935627698
-0.47874588362499537	-0.5185520190078998
-0.47868484846874537	-0.5232864023507856
-0.47862381331249537	-0.5279251822341067
-0.47856277815624537	-0.5324689585432042
-0.47850174299999537	-0.5369249632360399
-0.47844070784374537	-0.5413055593677446
-0.47837967268749537	-0.5456257602996657
-0.47831863753124537	-0.5499002462400437
-0.47825760237499537	-0.5541404481392987
-0.47819656721874537	-0.5583522578198086
-0.47813553206249537	-0.5625348080223581
-0.47807449690624537	-0.5666805503679474
-0.47801346174999537	-0.5707766083246406
-0.47795242659374537	-0.5748071507180037
-0.47789139143749537	-0.5787563267294491
-0.47783035628124537	-0.5826111971463784
-0.47776932112499537	-0.5863641123286937
-0.47770828596874537	-0.5900140788194621
-0.47764725081249537	-0.5935668467273852
-0.47758621565624537	-0.5970337083287611
-0.47752518049999537	-0.6004292434819912
-0.47746414534374537	-0.6037684532889853
-0.47740311018749537	-0.6070638353036886
-0.47734207503124537	-0.610322942746077
-0.47728103987499537	-0.6135468824873928
-0.47722000471874537	-0.6167300433341862
-0.47715896956249537	-0.6198611052154841
-0.47709793440624537	-0.6229251305599913
-0.47703689924999537	-0.6259063397577038
-0.47697586409374537	-0.6287910383285833
-0.47691482893749537	-0.6315701309188737
-0.47685379378124537	-0.6342407521986599
-0.47679275862499537	-0.6368067180907373
-0.47673172346874537	-0.639277713925184
-0.47667068831249537	-0.6416673751291961
-0.47660965315624537	-0.6439906323092226
-0.47654861799999537	-0.6462608311932984
-0.47648758284374537	-0.6484871673557527
-0.47642654768749537	-0.6506729123849664
-0.47636551253124537	-0.6528147699896274
-0.47630447737499537	-0.6549034821186278
-0.47624344221874537	-0.656925557805989
-0.47618240706249537	-0.6588657904140066
-0.47612137190624537	-0.6607100837533871
-0.47606033674999537	-0.6624480509925322
-0.47599930159374537	-0.6640749025642083
-0.47593826643749537	-0.6655922736117237
-0.47587723128124537	-0.6670078351953778
-0.47581619612499537	-0.6683337693482272
-0.47575516096874537	-0.669584409000663
-0.47569412581249537	-0.6707734943978326
-0.47563309065624537	-0.6719115625374597
-0.47557205549999537	-0.6730039593445715
-0.47551102034374537	-0.6740498446569037
-0.47544998518749537	-0.6750423698386182
-0.47538895003124537	-0.6759699854896976
-0.47532791487499537	-0.6768186247916298
-0.47526687971874537	-0.6775743448964681
-0.47520584456249537	-0.6782259237573635
-0.47514480940624537	-0.6787669221149952
-0.47508377424999537	-0.6791968292152942
-0.47502273909374537	-0.6795210882440097
-0.47496170393749537	-0.679750005532757
-0.47490066878124537	-0.6798967560328368
-0.47483963362499537	-0.679974869954314
-0.47477859846874537	-0.6799956802877184
-0.47471756331249537	-0.6799662114122359
-0.47465652815624537	-0.6798879001392953
-0.47459549299999537	-0.6797563800430646
-0.47453445784374537	-0.6795623604987373
-0.47447342268749537	-0.6792934245063774
-0.47441238753124537	-0.6789363925951999
-0.47435135237499537	-0.6784798034514684
-0.47429031721874537	-0.6779160535125652
-0.47422928206249537	-0.6772427964204506
-0.47416824690624537	-0.6764633358496001
-0.47410721174999537	-0.675585943680376
-0.47404617659374537	-0.6746222504422636
-0.47398514143749537	-0.6735850311428497
-0.47392410628124537	-0.6724858104650002
-0.47386307112499537	-0.6713327340994893
-0.47380203596874537	-0.6701290981828663
-0.47374100081249537	-0.6688728054465871
-0.47367996565624537	-0.6675568450837743
-0.47361893049999537	-0.6661706969709094
-0.47355789534374537	-0.6647023856940135
-0.47349686018749537	-0.6631407873683794
-0.47343582503124537	-0.6614777495566051
-0.47337478987499537	-0.6597096240016491
-0.47331375471874537	-0.6578379233915266
-0.47325271956249537	-0.6558690002551861
-0.47319168440624537	-0.6538128239703395
-0.47313064924999537	-0.6516810804627184
-0.47306961409374537	-0.6494849792748173
-0.47300857893749537	-0.6472331981792506
-0.47294754378124537	-0.6449303165552586
-0.47288650862499537	-0.6425760292004384
-0.47282547346874537	-0.6401653169890076
-0.47276443831249537	-0.6376895233456185
-0.47270340315624537	-0.6351380997959396
-0.47264236799999537	-0.6325006847610795
-0.47258133284374537	-0.6297691199515792
-0.47252029768749537	-0.6269390160229943
-0.47245926253124537	-0.6240105825676492
-0.47239822737499537	-0.6209885898669918
-0.47233719221874537	-0.617881475639089
-0.47227615706249537	-0.6146997629213173
-0.47221512190624537	-0.6114540903518839
-0.47215408674999537	-0.6081532393381117
-0.47209305159374537	-0.6048025583857803
-0.47203201643749537	-0.6014030727784838
-0.47197098128124537	-0.597951407985146
-0.47190994612499537	-0.5944405471678363
-0.47184891096874537	-0.5908612862558243
-0.47178787581249537	-0.5872040792315744
-0.47172684065624537	-0.5834609294666018
-0.47166580549999537	-0.5796269950866476
-0.47160477034374537	-0.5757015906167465
-0.47154373518749537	-0.5716883687560559
-0.47148270003124537	-0.5675946480427565
-0.47142166487499537	-0.563430051138829
-0.47136062971874537	-0.5592047326801725
-0.47129959456249537	-0.5549275156156718
-0.47123855940624537	-0.5506042908919679
-0.47117752424999537	-0.5462370046878935
-0.47111648909374537	-0.5418234209869055
-0.47105545393749537	-0.5373576666207375
-0.47099441878124537	-0.5328314553096241
-0.47093338362499537	-0.528235804208978
-0.47087234846874537	-0.5235629013200788
-0.47081131331249537	-0.5188077149442807
-0.47075027815624537	-0.5139690350669691
-0.47068924299999537	-0.5090497774453051
-0.47062820784374537	-0.504056511167898
-0.47056717268749537	-0.4989982949085747
-0.47050613753124537	-0.4938850346479205
-0.47044510237499537	-0.48872567512766985
-0.47038406721874537	-0.483526584100954
-0.47032303206249537	-0.47829045106385554
-0.47026199690624537	-0.47301589393743726
-0.47020096174999537	-0.4676978428589549
-0.47013992659374537	-0.46232863102312144
