Time	Frequency
-0.5000007727499991	-0.3489462148501048
-0.4999397375937491	-0.3539781075562663
-0.4998787024374991	-0.35897627706837665
-0.4998176672812491	-0.3639403132184771
-0.4997566321249991	-0.36886984914082455
-0.4996955969687491	-0.37376440632268865
-0.4996345618124991	-0.37862339497610087
-0.4995735266562491	-0.3834462633759123
-0.4995124914999991	-0.3882325770187482
-0.4994514563437491	-0.39298195816467063
-0.4993904211874991	-0.3976939793600666
-0.4993293860312491	-0.40236812911643477
-0.4992683508749991	-0.40700386183243287
-0.4992073157187491	-0.4116006646973857
-0.4991462805624991	-0.4161580495447132
-0.4990852454062491	-0.4206755506703126
-0.4990242102499991	-0.42515280802824457
-0.4989631750937491	-0.4295894941126315
-0.4989021399374991	-0.4339851592038717
-0.4988411047812491	-0.4383392579351364
-0.4987800696249991	-0.44265128823780486
-0.4987190344687491	-0.4469208721651553
-0.4986579993124991	-0.4511476389487399
-0.4985969641562491	-0.4553311240200942
-0.4985359289999991	-0.45947087124802555
-0.4984748938437491	-0.4635664695925699
-0.4984138586874991	-0.46761750920919043
-0.4983528235312491	-0.47162361588770096
-0.4982917883749991	-0.4755844153098391
-0.4982307532187491	-0.479499467176436
-0.4981697180624991	-0.483368356895988
-0.4981086829062491	-0.4871907628745122
-0.4980476477499991	-0.4909663149174821
-0.4979866125937491	-0.4946945319066796
-0.4979255774374991	-0.49837499326885454
-0.4978645422812491	-0.5020074004334474
-0.4978035071249991	-0.5055914628196109
-0.4977424719687491	-0.5091268247758239
-0.4976814368124991	-0.5126130643364035
-0.4976204016562491	-0.5160497795934696
-0.4975593664999991	-0.5194366429744748
-0.4974983313437491	-0.5227733173976746
-0.4974372961874991	-0.526059458734648
-0.4973762610312491	-0.5292947322372629
-0.4973152258749991	-0.5324787662182906
-0.4972541907187491	-0.5356112442221006
-0.4971931555624991	-0.5386918879714079
-0.4971321204062491	-0.5417203718096688
-0.4970710852499991	-0.5446964093949047
-0.4970100500937491	-0.5476197285033729
-0.4969490149374991	-0.550489993947489
-0.4968879797812491	-0.5533068830273431
-0.4968269446249991	-0.5560701065365635
-0.4967659094687491	-0.558779368034065
-0.4967048743124991	-0.5614343956571634
-0.4966438391562491	-0.5640349271654653
-0.4965828039999991	-0.5665806787521798
-0.4965217688437491	-0.5690713896441293
-0.4964607336874991	-0.5715068063777078
-0.4963996985312491	-0.5738866567085863
-0.4963386633749991	-0.5762107023732019
-0.4962776282187491	-0.5784787096840259
-0.4962165930624991	-0.5806904080789185
-0.4961555579062491	-0.5828455798193979
-0.4960945227499991	-0.5849440460617806
-0.4960334875937491	-0.5869855784319682
-0.4959724524374991	-0.5889699347366871
-0.4959114172812491	-0.5908968724652339
-0.4958503821249991	-0.5927661634256407
-0.4957893469687491	-0.5945776477855977
-0.4957283118124991	-0.5963311676926625
-0.4956672766562491	-0.5980265150056749
-0.4956062414999991	-0.5996634825536835
-0.4955452063437491	-0.6012418744812427
-0.4954841711874991	-0.602761533813845
-0.4954231360312491	-0.6042223414039206
-0.4953621008749991	-0.6056241286406626
-0.4953010657187491	-0.6069666994889564
-0.4952400305624991	-0.6082498959275944
-0.4951789954062491	-0.6094735866984659
-0.4951179602499991	-0.6106376565818536
-0.4950569250937491	-0.6117419744562479
-0.4949958899374991	-0.6127863884148985
-0.4949348547812491	-0.6137707862211151
-0.4948738196249991	-0.6146950736961895
-0.4948127844687491	-0.6155591237523559
-0.4947517493124991	-0.6163628192455415
-0.4946907141562491	-0.6171060787213056
-0.4946296789999991	-0.617788815661503
-0.4945686438437491	-0.6184109299532499
-0.4945076086874991	-0.6189723431618609
-0.4944465735312491	-0.6194729810349118
-0.4943855383749991	-0.6199127697128224
-0.4943245032187491	-0.6202916695569546
-0.4942634680624991	-0.6206096126980463
-0.4942024329062491	-0.6208665132917566
-0.4941413977499991	-0.6210623664965335
-0.4940803625937491	-0.6211971640669705
-0.4940193274374991	-0.6212708337136877
-0.4939582922812491	-0.6212833517172998
-0.4938972571249991	-0.6212347227086104
-0.4938362219687491	-0.6211249156617671
-0.4937751868124991	-0.6209539166987104
-0.4937141516562491	-0.6207217209364964
-0.4936531164999991	-0.6204283296851364
-0.4935920813437491	-0.6200737804167438
-0.4935310461874991	-0.6196580963713489
-0.4934700110312491	-0.6191812693244152
-0.4934089758749991	-0.6186433110036017
-0.4933479407187491	-0.6180442553176444
-0.4932869055624991	-0.6173841294859075
-0.4932258704062491	-0.6166629828086084
-0.4931648352499991	-0.615880898057546
-0.4931038000937491	-0.6150379412332097
-0.4930427649374991	-0.614134168382158
-0.4929817297812491	-0.6131696342652021
-0.4929206946249991	-0.6121443795333561
-0.4928596594687491	-0.6110584947180437
-0.4927986243124991	-0.6099121301391929
-0.4927375891562491	-0.608705402225877
-0.4926765539999991	-0.6074383439546863
-0.4926155188437491	-0.6061109907717962
-0.4925544836874991	-0.6047234712293398
-0.4924934485312491	-0.6032759552998466
-0.4924324133749991	-0.6017685943001255
-0.4923713782187491	-0.6002015163041564
-0.4923103430624991	-0.5985748564709384
-0.4922493079062491	-0.5968887927687067
-0.4921882727499991	-0.5951434631110296
-0.4921272375937491	-0.5933389413919405
-0.4920662024374991	-0.5914753764204818
-0.4920051672812491	-0.5895529701626222
-0.4919441321249991	-0.5875718950402082
-0.4918830969687491	-0.5855323221805563
-0.4918220618124991	-0.5834343854645203
-0.4917610266562491	-0.581278233863138
-0.4916999914999991	-0.579064125437714
-0.4916389563437491	-0.5767923307746458
-0.4915779211874991	-0.574463047381895
-0.4915168860312491	-0.5720764361612918
-0.4914558508749991	-0.5696326776006663
-0.4913948157187491	-0.5671320033993321
-0.4913337805624991	-0.564574655425644
-0.4912727454062491	-0.5619608583519675
-0.4912117102499991	-0.5592908818345625
-0.4911506750937491	-0.556564998859648
-0.4910896399374991	-0.5537834221501927
-0.4910286047812491	-0.5509463797620372
-0.4909675696249991	-0.5480541274483568
-0.4909065344687491	-0.5451069441674927
-0.4908454993124991	-0.5421051401923669
-0.4907844641562491	-0.5390489984643548
-0.4907234289999991	-0.5359387671070478
-0.4906623938437491	-0.5327746948910215
-0.4906013586874991	-0.5295570949975411
-0.4905403235312491	-0.5262863051135769
-0.4904792883749991	-0.5229625966807543
-0.4904182532187491	-0.5195862549135942
-0.4903572180624991	-0.5161576352296401
-0.4902961829062491	-0.5126771196385164
-0.4902351477499991	-0.5091450395839925
-0.4901741125937491	-0.505561623484827
-0.4901130774374991	-0.5019271540619878
-0.4900520422812491	-0.49824205472519223
-0.4899910071249991	-0.49450667523980246
-0.4899299719687491	-0.4907213018926185
-0.4898689368124991	-0.4868863297747246
-0.4898079016562491	-0.48300214422270465
-0.4897468664999991	-0.4790690811668741
-0.4896858313437491	-0.47508755825402665
-0.4896247961874991	-0.4710579977137659
-0.4895637610312491	-0.4669806949003
-0.4895027258749991	-0.4628559684759275
-0.4894416907187491	-0.45868428518140364
-0.4893806555624991	-0.45446607777374176
-0.4893196204062491	-0.4502016987062831
-0.4892585852499991	-0.4458915436065532
-0.4891975500937491	-0.4415360018747107
-0.4891365149374991	-0.43713547377038353
-0.4890754797812491	-0.43269044412467583
-0.4890144446249991	-0.42820137762548943
-0.4889534094687491	-0.4236687187730767
-0.4888923743124991	-0.4190928839182848
-0.4888313391562491	-0.4144741552312431
-0.4887703039999991	-0.40981287625090324
-0.4887092688437491	-0.40510960697127957
-0.4886482336874991	-0.400364915284839
-0.4885871985312491	-0.3955792851812915
-0.4885261633749991	-0.3907531765379386
-0.4884651282187491	-0.3858869788095446
-0.4884040930624991	-0.38098109576227646
-0.4883430579062491	-0.37603604358202036
-0.4882820227499991	-0.3710523052616934
-0.4882209875937491	-0.36603033615412733
-0.4881599524374991	-0.36097067476829964
-0.4880989172812491	-0.3558737953173756
-0.4880378821249991	-0.3507400816696796
-0.4879768469687491	-0.3455700261250854
-0.4879158118124991	-0.3403641995799564
-0.4878547766562491	-0.3351231068531418
-0.4877937414999991	-0.3298472573322102
-0.4877327063437491	-0.3245371766998881
-0.4876716711874991	-0.319193299732421
-0.4876106360312491	-0.3138161069696069
-0.4875496008749991	-0.30840619265035074
-0.4874885657187491	-0.30296411625211556
-0.4874275305624991	-0.2974904007216221
-0.4873664954062491	-0.2919855849602735
-0.4873054602499991	-0.28645022145915244
-0.4872444250937491	-0.2808848126695037
-0.4871833899374991	-0.2752898108098483
-0.4871223547812491	-0.26966575030226453
-0.4870613196249991	-0.26401321583749443
-0.4870002844687491	-0.25833273384266353
-0.4869392493124991	-0.25262488117993914
-0.4868782141562491	-0.24689029325584114
-0.4868171789999991	-0.24112946137938335
-0.4867561438437491	-0.23534288960963465
-0.4866951086874991	-0.22953123845644274
-0.4866340735312491	-0.22369506752935817
-0.4865730383749991	-0.21783487892312595
-0.4865120032187491	-0.21195125073197033
-0.4864509680624991	-0.20604471265796784
-0.4863899329062491	-0.20011584550863068
-0.4863288977499991	-0.19416534470855512
-0.4862678625937491	-0.18819376802081497
-0.4862068274374991	-0.18220157562677775
-0.4861457922812491	-0.17618940516306397
-0.4860847571249991	-0.17015795867437444
-0.4860237219687491	-0.1641077334761284
-0.4859626868124991	-0.15803914890152898
-0.4859016516562491	-0.15195287501081736
-0.4858406164999991	-0.14584970038808137
-0.4857795813437491	-0.13973018894465483
-0.4857185461874991	-0.13359477084817345
-0.4856575110312491	-0.12744399851777938
-0.4855964758749991	-0.12127862460244106
-0.4855354407187491	-0.11509935878637899
-0.4854744055624991	-0.10890663905655218
-0.4854133704062491	-0.10270098391602026
-0.4853523352499991	-0.09648320084485755
-0.4852913000937491	-0.09025399566903675
-0.4852302649374991	-0.08401385055657068
-0.4851692297812491	-0.07776326269378173
-0.4851081946249991	-0.07150282714563069
-0.4850471594687491	-0.06523321087213091
-0.4849861243124991	-0.05895507067836639
-0.4849250891562491	-0.052668991201545404
-0.4848640539999991	-0.046375596538396846
-0.4848030188437491	-0.04007558457266123
-0.4847419836874991	-0.0337695886737039
-0.4846809485312491	-0.027458185573966377
-0.4846199133749991	-0.021141981802774282
-0.4845588782187491	-0.014821604569856671
-0.4844978430624991	-0.008497702503167706
-0.4844368079062491	-0.002170850387256092
-0.4843757727499991	0.004158467794411504
-0.4843147375937491	0.010489647801647
-0.4842537024374991	0.01682195403569712
-0.4841926672812491	0.02315469444315751
-0.4841316321249991	0.029487223210354283
-0.4840705969687491	0.03581886816906828
-0.4840095618124991	0.04214900726376814
-0.4839485266562491	0.04847707181601102
-0.4838874914999991	0.05480246930486904
-0.4838264563437491	0.061124630185335926
-0.4837654211874991	0.06744295279889863
-0.4837043860312491	0.07375678572518563
-0.4836433508749991	0.08006549923116645
-0.4835823157187491	0.08636840161942314
-0.4835212805624991	0.09266476856369328
-0.4834602454062491	0.09895397349208329
-0.4833992102499991	0.10523547533656508
-0.4833381750937491	0.11150875529066473
-0.4832771399374991	0.1177732244246993
-0.4832161047812491	0.1240281763408642
-0.4831550696249991	0.13027295030063848
-0.4830940344687491	0.13650700247244615
-0.4830329993124991	0.14272970728149165
-0.4829719641562491	0.14894036762428053
-0.4829109289999991	0.15513834501130186
-0.4828498938437491	0.16132303231841394
-0.4827888586874991	0.16749387702512378
-0.4827278235312491	0.1736503265769047
-0.4826667883749991	0.1797917241813591
-0.4826057532187491	0.185917360244699
-0.4825447180624991	0.19202657518154861
-0.4824836829062491	0.19811879400646326
-0.4824226477499991	0.20419350833801836
-0.4823616125937491	0.2102501963847125
-0.4823005774374991	0.21628820800440432
-0.4822395422812491	0.2223068487720737
-0.4821785071249991	0.22830552665271006
-0.4821174719687491	0.23428368721535678
-0.4820564368124991	0.24024071235167224
-0.4819954016562491	0.24617601633532296
-0.4819343664999991	0.2520890684295404
-0.4818733313437491	0.25797921321194983
-0.4818122961874991	0.2638457654642707
-0.4817512610312491	0.2696881866123175
-0.4816902258749991	0.275505950133334
-0.4816291907187491	0.2812984326632656
-0.4815681555624991	0.2870649952144695
-0.4815071204062491	0.2928050692967252
-0.4814460852499991	0.2985181485088089
-0.4813850500937491	0.30420375424382584
-0.4813240149374991	0.30986134516042657
-0.4812629797812491	0.31549022012172073
-0.4812019446249991	0.32108970424485
-0.4811409094687491	0.32665928149770906
-0.4810798743124991	0.33219842716361325
-0.4810188391562491	0.33770660133133845
-0.4809578039999991	0.343183295165475
-0.4808967688437491	0.34862797927420075
-0.4808357336874991	0.35404008116735514
-0.4807746985312491	0.3594189793938129
-0.4807136633749991	0.36476409489682626
-0.4806526282187491	0.3700748880895716
-0.4805915930624991	0.37535086619563435
-0.4805305579062491	0.38059159632721984
-0.4804695227499991	0.38579652371791384
-0.4804084875937491	0.39096504398676357
-0.4803474524374991	0.39609664725930166
-0.4802864172812491	0.4011908021459863
-0.4802253821249991	0.40624696240554076
-0.4801643469687491	0.41126467426498614
-0.4801033118124991	0.4162435249212148
-0.4800422766562491	0.42118299059298336
-0.4799812414999991	0.4260824348938009
-0.4799202063437491	0.4309413034825201
-0.4798591711874991	0.43575916608524967
-0.4797981360312491	0.4405355742211555
-0.4797371008749991	0.4452700501421497
-0.4796760657187491	0.44996213033810895
-0.4796150305624991	0.454611325037096
-0.4795539954062491	0.4592171345122039
-0.4794929602499991	0.4637790830016854
-0.4794319250937491	0.4682967086841992
-0.4793708899374991	0.4727695902379297
-0.4793098547812491	0.4771972799701716
-0.4792488196249991	0.4815792742231274
-0.4791877844687491	0.4859151418337509
-0.4791267493124991	0.49020445217202296
-0.4790657141562491	0.49444671273670227
-0.4790046789999991	0.498641493868409
-0.4789436438437491	0.5027883722619696
-0.4788826086874991	0.5068868902500648
-0.4788215735312491	0.5109366322482232
-0.4787605383749991	0.5149372033358737
-0.4786995032187491	0.5188882169815591
-0.4786384680624991	0.5227892618705615
-0.4785774329062491	0.5266399136128461
-0.4785163977499991	0.5304397993680529
-0.4784553625937491	0.534188526997962
-0.4783943274374991	0.5378856856520778
-0.4783332922812491	0.5415308929718382
-0.4782722571249991	0.5451237795984025
-0.4782112219687491	0.5486640134431151
-0.4781501868124991	0.5521512282783356
-0.4780891516562491	0.555584987670406
-0.4780281164999991	0.5589648950293733
-0.4779670813437491	0.5622906310403317
-0.4779060461874991	0.5655618995869477
-0.4778450110312491	0.5687783750502134
-0.4777839758749991	0.5719397095265087
-0.4777229407187491	0.5750455629583979
-0.4776619055624991	0.5780955824032001
-0.4776008704062491	0.5810894078687013
-0.4775398352499991	0.5840267393472248
-0.4774788000937491	0.5869073247553586
-0.4774177649374991	0.5897308821696357
-0.4773567297812491	0.5924970983468423
-0.4772956946249991	0.5952056582612728
-0.4772346594687491	0.5978562507712716
-0.4771736243124991	0.600448574744465
-0.4771125891562491	0.6029823608038023
-0.4770515539999991	0.6054573742553734
-0.4769905188437491	0.6078733662002219
-0.4769294836874991	0.6102300614326495
-0.4768684485312491	0.6125272022009649
-0.4768074133749991	0.6147645454581054
-0.4767463782187491	0.6169418322463082
-0.4766853430624991	0.6190588160671694
-0.4766243079062491	0.621115280890708
-0.4765632727499991	0.6231110059872208
-0.4765022375937491	0.6250457774373438
-0.4764412024374991	0.6269194070035757
-0.4763801672812491	0.628731698837299
-0.4763191321249991	0.6304824378850694
-0.4762580969687491	0.6321714046084732
-0.4761970618124991	0.6337984068962229
-0.4761360266562491	0.6353632941915038
-0.4760749914999991	0.6368659085828487
-0.4760139563437491	0.6383060679408566
-0.4759529211874991	0.6396835866608012
-0.4758918860312491	0.6409982879310803
-0.4758308508749991	0.6422500342010964
-0.4757698157187491	0.643438706743705
-0.4757087805624991	0.6445641693357708
-0.4756477454062491	0.6456262875968434
-0.4755867102499991	0.6466249271453061
-0.4755256750937491	0.6475599563840483
-0.4754646399374991	0.6484312651421209
-0.4754036047812491	0.6492387521454362
-0.4753425696249991	0.6499823118368564
-0.4752815344687491	0.6506618375081508
-0.4752204993124991	0.6512772456248542
-0.4751594641562491	0.651828479119407
-0.4750984289999991	0.652315461910026
-0.4750373938437491	0.6527381096307197
-0.4749763586874991	0.6530963825469351
-0.4749153235312491	0.6533902326743747
-0.4748542883749991	0.65361957893087
-0.4747932532187491	0.653784384960518
-0.4747322180624991	0.6538846362327972
-0.4746711829062491	0.653920291195736
-0.4746101477499991	0.6538913218797077
-0.4745491125937491	0.6537977142927408
-0.4744880774374991	0.6536394434996878
-0.4744270422812491	0.6534165106998592
-0.4743660071249991	0.653128942694446
-0.4743049719687491	0.652776739264321
-0.4742439368124991	0.6523599075664779
-0.4741829016562491	0.6518784761282167
-0.4741218664999991	0.6513324439284374
-0.4740608313437491	0.6507218460920194
-0.4739997961874991	0.6500467718801143
-0.4739387610312491	0.6493072591745069
-0.4738777258749991	0.6485033145834526
-0.4738166907187491	0.6476349984611337
-0.4737556555624991	0.6467023948073727
-0.4736946204062491	0.6457055808267964
-0.4736335852499991	0.6446446741176378
-0.4735725500937491	0.643519775232151
-0.4735115149374991	0.6423309094662883
-0.4734504797812491	0.6410781434655747
-0.4733894446249991	0.6397616217901108
-0.4733284094687491	0.638381482670349
-0.4732673743124991	0.6369378449149021
-0.4732063391562491	0.6354308264935321
-0.4731453039999991	0.6338605650380709
-0.4730842688437491	0.6322272154994423
-0.4730232336874991	0.630530900203963
-0.4729621985312491	0.6287717388845162
-0.4729011633749991	0.6269498882831529
-0.4728401282187491	0.6250655259345134
-0.4727790930624991	0.623118854222729
-0.4727180579062491	0.6211100566142946
-0.4726570227499991	0.6190392886490377
-0.4725959875937491	0.6169067250757022
-0.4725349524374991	0.6147125515934103
-0.4724739172812491	0.6124569659609103
-0.4724128821249991	0.6101402114092371
-0.4723518469687491	0.6077625585944083
-0.4722908118124991	0.6053242220135758
-0.4722297766562491	0.6028253652179684
-0.4721687414999991	0.6002661845839631
-0.4721077063437491	0.5976469033712453
-0.4720466711874991	0.5949677745145149
-0.4719856360312491	0.592229099197209
-0.4719246008749991	0.5894311773970884
-0.4718635657187491	0.5865742488323566
-0.4718025305624991	0.5836584933879269
-0.4717414954062491	0.5806841846400252
-0.4716804602499991	0.5776517118092142
-0.4716194250937491	0.5745613940718524
-0.4715583899374991	0.5714134875067055
-0.4714973547812491	0.5682082565281287
-0.4714363196249991	0.5649459729644415
-0.4713752844687491	0.5616269408064535
-0.4713142493124991	0.5582514625646485
-0.4712532141562491	0.5548198442389174
-0.4711921789999991	0.551332440948725
-0.4711311438437491	0.5477895835888803
-0.4710701086874991	0.5441915671728392
-0.4710090735312491	0.5405388081278013
-0.4709480383749991	0.536831750873648
-0.4708870032187491	0.5330706747693622
-0.4708259680624991	0.5292559022249307
-0.4707649329062491	0.5253878581904794
-0.4707038977499991	0.5214668764189069
-0.4706428625937491	0.5174932617143162
-0.4705818274374991	0.5134673850868111
-0.4705207922812491	0.509389688639172
-0.4704597571249991	0.5052606128908783
-0.4703987219687491	0.5010805179516756
-0.4703376868124991	0.4968498144468141
-0.4702766516562491	0.4925689939964285
-0.4702156164999991	0.4882384663600147
-0.4701545813437491	0.483858601966189
-0.4700935461874991	0.4794297970700247
-0.4700325110312491	0.4749524156413605
-0.4699714758749991	0.4704268858409355
-0.4699104407187491	0.46585373517105766
-0.4698494055624991	0.46123345802806465
-0.4697883704062491	0.4565664994447237
-0.4697273352499991	0.45185329166297294
-0.4696663000937491	0.447094238480241
-0.4696052649374991	0.4422897776053706
-0.4695442297812491	0.4374404046723522
-0.4694831946249991	0.43254655171969775
-0.4694221594687491	0.4276086522959367
-0.4693611243124991	0.42262726444675647
