Time	Frequency
-0.5000309816875017	1.0359506414455845e-22
-0.4999699465312517	1.0339587667236062e-22
-0.4999089113750017	1.0318390290984713e-22
-0.4998478762187517	1.0295937112001249e-22
-0.4997868410625017	1.0272218713984599e-22
-0.4997258059062517	1.0247200630726969e-22
-0.4996647707500017	1.0220845608603313e-22
-0.4996037355937517	1.0193137836418599e-22
-0.4995427004375017	1.0164094817388282e-22
-0.4994816652812517	1.0133759516347389e-22
-0.4994206301250017	1.0102176744187612e-22
-0.4993595949687517	1.0069367438256563e-22
-0.4992985598125017	1.0035317187951446e-22
-0.4992375246562517	9.99998693321718e-23
-0.4991764895000017	9.963339211730391e-23
-0.4991154543437517	9.925363835065143e-23
-0.4990544191875017	9.886087440958466e-23
-0.4989933840312517	9.845560710808065e-23
-0.4989323488750017	9.803830461580366e-23
-0.4988713137187517	9.760913705844374e-23
-0.4988102785625017	9.71678980043662e-23
-0.4987492434062517	9.671415250688749e-23
-0.4986882082500017	9.624752680806959e-23
-0.4986271730937517	9.576797372224715e-23
-0.4985661379375017	9.527584604534508e-23
-0.4985051027812517	9.477172610632263e-23
-0.4984440676250017	9.42561150619193e-23
-0.4983830324687517	9.372916240734396e-23
-0.4983219973125017	9.319060448416145e-23
-0.4982609621562517	9.263995942253294e-23
-0.4981999270000017	9.207685177587334e-23
-0.4981388918437517	9.150127481412488e-23
-0.4980778566875017	9.091364341107296e-23
-0.4980168215312517	9.031459554273788e-23
-0.4979557863750017	8.97046561378665e-23
-0.4978947512187517	8.908396741941302e-23
-0.4978337160625017	8.845224428369974e-23
-0.4977726809062517	8.780898494773692e-23
-0.4977116457500017	8.715381634526074e-23
-0.4976506105937517	8.6486763252558e-23
-0.4975895754375017	8.580827762996847e-23
-0.4975285402812517	8.511902062512255e-23
-0.4974675051250017	8.441953044477867e-23
-0.4974064699687517	8.370995853333347e-23
-0.4973454348125017	8.299002313332554e-23
-0.4972843996562517	8.225922159746137e-23
-0.4972233645000017	8.151718253072171e-23
-0.4971623293437517	8.076393893274139e-23
-0.4971012941875017	7.999996254319764e-23
-0.4970402590312517	7.922594374361486e-23
-0.4969792238750017	7.844244249395207e-23
-0.4969181887187517	7.764961969231436e-23
-0.4968571535625017	7.684720188856594e-23
-0.4967961184062517	7.603468961308777e-23
-0.4967350832500017	7.521169828951169e-23
-0.4966740480937517	7.437824714349942e-23
-0.4966130129375017	7.353481769804787e-23
-0.4965519777812517	7.268213582162847e-23
-0.4964909426250017	7.18208140000936e-23
-0.4964299074687517	7.095105992884031e-23
-0.4963688723125017	7.007260818611065e-23
-0.4963078371562517	6.918492268556927e-23
-0.4962468020000017	6.828756336852761e-23
-0.4961857668437517	6.7380510097218e-23
-0.4961247316875017	6.646426251077233e-23
-0.4960636965312517	6.553964518046488e-23
-0.4960026613750017	6.460740447104157e-23
-0.4959416262187517	6.366782375455543e-23
-0.4958805910625017	6.272059071332426e-23
-0.4958195559062517	6.176501333684137e-23
-0.4957585207500017	6.080049016830658e-23
-0.4956974855937517	5.982696697309883e-23
-0.4956364504375017	5.884507749754096e-23
-0.4955754152812517	5.785586575077444e-23
-0.4955143801250017	5.686025188717469e-23
-0.4954533449687517	5.585853330626094e-23
-0.4953923098125017	5.485022453872165e-23
-0.4953312746562517	5.383438892100995e-23
-0.4952702395000017	5.281028656189056e-23
-0.4952092043437517	5.177793098077222e-23
-0.4951481691875017	5.073820825408868e-23
-0.4950871340312517	4.9692467224247593e-23
-0.4950260988750017	4.8641783092246975e-23
-0.4949650637187517	4.758632247155636e-23
-0.4949040285625017	4.6525248515968627e-23
-0.4948429934062517	4.545728438964354e-23
-0.4947819582500017	4.43815947271381e-23
-0.4947209230937517	4.3298434063887597e-23
-0.4946598879375017	4.22091475285014e-23
-0.4945988527812517	4.1115469866976146e-23
-0.4945378176250017	4.0018517379591695e-23
-0.4944767824687517	3.891811370491771e-23
-0.4944157473125017	3.781291144662755e-23
-0.4943547121562517	3.670127827168959e-23
-0.4942936770000017	3.558242078487104e-23
-0.4942326418437517	3.4457038845347824e-23
-0.4941716066875017	3.3327058977169494e-23
-0.4941105715312517	3.219456065440216e-23
-0.4940495363750017	3.106054288805578e-23
-0.4939885012187517	2.992430955863705e-23
-0.4939274660625017	2.8783900445388883e-23
-0.4938664309062517	2.7637368151942257e-23
-0.4938053957500017	2.6484135074300974e-23
-0.4937443605937517	2.5325542291304716e-23
-0.4936833254375017	2.4164185815442566e-23
-0.4936222902812517	2.3002411021120042e-23
-0.4935612551250017	2.1840891773981234e-23
-0.4935002199687517	2.0678212084502763e-23
-0.4934391848125017	1.9511750481588363e-23
-0.4933781496562517	1.8339358276581278e-23
-0.4933171145000017	1.7160841655532764e-23
-0.4932560793437517	1.597830985798121e-23
-0.4931950441875017	1.4795079816314948e-23
-0.4931340090312517	1.3613739768259856e-23
-0.4930729738750017	1.243454757889879e-23
-0.4930119387187517	1.1255208753849225e-23
-0.4929509035625017	1.0072278517590539e-23
-0.4928898684062517	8.883375915270888e-24
-0.4928288332500017	7.688835118479382e-24
-0.4927677980937517	6.49175033468592e-24
-0.4927067629375017	5.2963038803077326e-24
-0.4926457277812517	4.105303023506999e-24
-0.4925846926250017	2.9184276875163767e-24
-0.4925236574687517	1.7323331086425525e-24
-0.4924626223125017	5.426504489293811e-25
-0.4924015871562517	-6.532436306401457e-25
-0.4923405520000017	-1.8543841758950155e-24
-0.4922795168437517	-3.056510014968942e-24
-0.4922184816875017	-4.2544173370104166e-24
-0.4921574465312517	-5.445037809871875e-24
-0.4920964113750017	-6.629383402996527e-24
-0.4920353762187517	-7.812078106777509e-24
-0.4919743410625017	-8.998614980576144e-24
-0.4919133059062517	-1.019190929074752e-23
-0.4918522707500017	-1.1390247563426454e-23
-0.4917912355937517	-1.2587976174611202e-23
-0.4917302004375017	-1.377866425773585e-23
-0.4916691652812517	-1.4958926897918556e-23
-0.4916081301250017	-1.61305789810747e-23
-0.4915470949687517	-1.7299716261726674e-23
-0.4914860598125017	-1.8473127441537036e-23
-0.4914250246562517	-1.965408638595979e-23
-0.4913639895000017	-2.08400792990357e-23
-0.4913029543437517	-2.202395438312521e-23
-0.4912419191875017	-2.3197941007543867e-23
-0.4911808840312517	-2.43582281280189e-23
-0.4911198488750017	-2.550735964169364e-23
-0.4910588137187517	-2.6652902107839515e-23
-0.4909977785625017	-2.780302346334319e-23
-0.4909367434062517	-2.896151509016291e-23
-0.4908757082500017	-3.012524404782488e-23
-0.4908146730937517	-3.128567333725138e-23
-0.4907536379375017	-3.2433683992076324e-23
-0.4906926027812517	-3.3564915587814034e-23
-0.4906315676250017	-3.468243314909108e-23
-0.4905705324687517	-3.579503104020677e-23
-0.4905094973125017	-3.6912067883752457e-23
-0.4904484621562517	-3.803784681743736e-23
-0.4903874270000017	-3.9168885737201935e-23
-0.4903263918437517	-4.029574347295977e-23
-0.4902653566875017	-4.140839100440653e-23
-0.4902043215312517	-4.2502009728725574e-23
-0.4901432863750017	-4.357979088148906e-23
-0.4900822512187517	-4.465104534945868e-23
-0.4900212160625017	-4.5725715291909255e-23
-0.4899601809062517	-4.680850078388587e-23
-0.4898991457500017	-4.789604450370063e-23
-0.4898381105937517	-4.897882411972294e-23
-0.4897770754375017	-5.004662189902616e-23
-0.4897160402812517	-5.109436517030898e-23
-0.4896550051250017	-5.212493372811519e-23
-0.4895939699687517	-5.314731157767678e-23
-0.4895329348125017	-5.41712222410177e-23
-0.4894718996562517	-5.52014357719635e-23
-0.4894108645000017	-5.623505361186627e-23
-0.4893498293437517	-5.726327473347643e-23
-0.4892887941875017	-5.827651948141709e-23
-0.4892277590312517	-5.92698748031656e-23
-0.4891667238750017	-6.024570395954499e-23
-0.4891056887187517	-6.12119815358228e-23
-0.4890446535625017	-6.217745348558333e-23
-0.4889836184062517	-6.314653050959524e-23
-0.4889225832500017	-6.4116855665423e-23
-0.4888615480937517	-6.508084328472337e-23
-0.4888005129375017	-6.603016447559044e-23
-0.4887394777812517	-6.696048058898768e-23
-0.4886784426250017	-6.787368212421544e-23
-0.4886174074687517	-6.87764527415459e-23
-0.4885563723125017	-6.967614572678575e-23
-0.4884953371562517	-7.057647013611695e-23
-0.4884343020000017	-7.147548075636715e-23
-0.4883732668437517	-7.23669048671621e-23
-0.4883122316875017	-7.324388039248184e-23
-0.4882511965312517	-7.410285705388134e-23
-0.4881901613750017	-7.494540676457793e-23
-0.4881291262187517	-7.577698986104561e-23
-0.4880680910625017	-7.660354320904996e-23
-0.4880070559062517	-7.742797411111202e-23
-0.4879460207500017	-7.824858598956591e-23
-0.4878849855937517	-7.906024167335574e-23
-0.4878239504375017	-7.985744454716825e-23
-0.4877629152812517	-8.063746175812888e-23
-0.4877018801250017	-8.140169354372269e-23
-0.4876408449687517	-8.215458451570537e-23
-0.4875798098125017	-8.290083109354946e-23
-0.4875187746562517	-8.364259715288967e-23
-0.4874577395000017	-8.437834736876369e-23
-0.4873967043437517	-8.510387977588187e-23
-0.4873356691875017	-8.58148402206133e-23
-0.4872746340312517	-8.650918907081557e-23
-0.4872135988750017	-8.718820084706248e-23
-0.4871525637187517	-8.785549644660786e-23
-0.4870915285625017	-8.851476983206876e-23
-0.4870304934062517	-8.916759457243971e-23
-0.4869694582500017	-8.981257988613165e-23
-0.4869084230937517	-9.04462889133053e-23
-0.4868473879375017	-9.106528603322809e-23
-0.4867863527812517	-9.16680718011097e-23
-0.4867253176250017	-9.225579574177347e-23
-0.4866642824687517	-9.283139944948932e-23
-0.4866032473125017	-9.33977729059798e-23
-0.4865422121562517	-9.395604468624535e-23
-0.4864811770000017	-9.450498550557459e-23
-0.4864201418437517	-9.504180861308986e-23
-0.4863591066875017	-9.556382513886747e-23
-0.4862980715312517	-9.606994439317026e-23
-0.4862370363750017	-9.656116187975961e-23
-0.4861760012187517	-9.703982144456673e-23
-0.4861149660625017	-9.750815237447049e-23
-0.4860539309062517	-9.796696146360599e-23
-0.4859928957500017	-9.84152208158937e-23
-0.4859318605937517	-9.885073420035771e-23
-0.4858708254375017	-9.927143219588946e-23
-0.4858097902812517	-9.967651477802923e-23
-0.4857487551250017	-1.000667963816552e-22
-0.4856877199687517	-1.0044410526232763e-22
-0.4856266848125017	-1.0081014152614773e-22
-0.4855656496562517	-1.0116548375309819e-22
-0.4855046145000017	-1.0150930488484763e-22
-0.4854435793437517	-1.0183991122045759e-22
-0.4853825441875017	-1.0215573919810303e-22
-0.4853215090312517	-1.0245621320105287e-22
-0.4852604738750017	-1.0274198310092116e-22
-0.4851994387187517	-1.0301444316753732e-22
-0.4851384035625017	-1.0327485943510733e-22
-0.4850773684062517	-1.0352363577056816e-22
-0.4850163332500017	-1.0376012623738622e-22
-0.4849552980937517	-1.0398305901092991e-22
-0.4848942629375017	-1.0419128620355e-22
-0.4848332277812517	-1.0438440970115166e-22
-0.4847721926250017	-1.0456293474780767e-22
-0.4847111574687517	-1.0472789795580972e-22
-0.4846501223125017	-1.0488022269331259e-22
-0.4845890871562517	-1.0502019054911472e-22
-0.4845280520000017	-1.0514731913959993e-22
-0.4844670168437517	-1.0526068267826252e-22
-0.4844059816875017	-1.053594585405335e-22
-0.4843449465312517	-1.0544337302160746e-22
-0.4842839113750017	-1.0551280254021748e-22
-0.4842228762187517	-1.0556850075817069e-22
-0.4841618410625017	-1.056111373806689e-22
-0.4841008059062517	-1.0564092544012537e-22
-0.4840397707500017	-1.0565753797030403e-22
-0.4839787355937517	-1.0566033411693444e-22
-0.4839177004375017	-1.0564873982800942e-22
-0.4838566652812517	-1.0562255551296789e-22
-0.4837956301250017	-1.0558202687832484e-22
-0.4837345949687517	-1.0552766534674362e-22
-0.4836735598125017	-1.0545994441177798e-22
-0.4836125246562517	-1.0537905150280813e-22
-0.4835514895000017	-1.0528482448105844e-22
-0.4834904543437517	-1.051768864437613e-22
-0.4834294191875017	-1.0505487999592645e-22
-0.4833683840312517	-1.0491865594589178e-22
-0.4833073488750017	-1.0476831862698999e-22
-0.4832463137187517	-1.0460413308521384e-22
-0.4831852785625017	-1.044263739112549e-22
-0.4831242434062517	-1.0423520483684256e-22
-0.4830632082500017	-1.0403064140804576e-22
-0.4830021730937517	-1.0381259295593527e-22
-0.4829411379375017	-1.0358094052368613e-22
-0.4828801027812517	-1.0333559851044722e-22
-0.4828190676250017	-1.0307653155160284e-22
-0.4827580324687517	-1.0280374534504271e-22
-0.4826969973125017	-1.0251728657264404e-22
-0.4826359621562517	-1.0221725719219578e-22
-0.4825749270000017	-1.0190382131189014e-22
-0.4825138918437517	-1.0157717772690538e-22
-0.4824528566875017	-1.0123748825207714e-22
-0.4823918215312517	-1.0088479064205901e-22
-0.4823307863750017	-1.0051895406326386e-22
-0.4822697512187517	-1.0013973015777654e-22
-0.4822087160625017	-9.974689907526016e-23
-0.4821476809062517	-9.934043315355095e-23
-0.4820866457500017	-9.892057632656378e-23
-0.4820256105937517	-9.848777724891168e-23
-0.4819645754375017	-9.804249094621544e-23
-0.4819035402812517	-9.758494952005493e-23
-0.4818425051250017	-9.71150325818067e-23
-0.4817814699687517	-9.663232473725683e-23
-0.4817204348125017	-9.613635298987552e-23
-0.4816593996562517	-9.562688374831576e-23
-0.4815983645000017	-9.510411365157896e-23
-0.4815373293437517	-9.456863481379895e-23
-0.4814762941875017	-9.402116453774095e-23
-0.4814152590312517	-9.346218096604412e-23
-0.4813542238750017	-9.289167681648853e-23
-0.4812931887187517	-9.23091729493785e-23
-0.4812321535625017	-9.171400460642874e-23
-0.4811711184062517	-9.110573547021999e-23
-0.4811100832500017	-9.048445352823583e-23
-0.4810490480937517	-8.985077706326135e-23
-0.4809880129375017	-8.920556902701005e-23
-0.4809269777812517	-8.854950461649273e-23
-0.4808659426250017	-8.7882731455174e-23
-0.4808049074687517	-8.720482740196185e-23
-0.4807438723125017	-8.651508127236705e-23
-0.4806828371562517	-8.581293725049251e-23
-0.4806218020000017	-8.509835196406238e-23
-0.4805607668437517	-8.437186400357012e-23
-0.4804997316875017	-8.363434371813271e-23
-0.4804386965312517	-8.288655678963547e-23
-0.4803776613750017	-8.212878657589574e-23
-0.4803166262187517	-8.136073656700071e-23
-0.4802555910625017	-8.058176190818409e-23
-0.4801945559062517	-7.97912965068467e-23
-0.4801335207500017	-7.89892285157855e-23
-0.4800724855937517	-7.81760031986134e-23
-0.4800114504375017	-7.735240595294758e-23
-0.4799504152812517	-7.651916381475121e-23
-0.4798893801250017	-7.567659885995743e-23
-0.4798283449687517	-7.482452607005892e-23
-0.4797673098125017	-7.396243921458187e-23
-0.4797062746562517	-7.308987167773167e-23
-0.4796452395000017	-7.220672699683579e-23
-0.4795842043437517	-7.131339049053195e-23
-0.4795231691875017	-7.041055433220068e-23
-0.4794621340312517	-6.949885911196136e-23
-0.4794010988750017	-6.857857923628625e-23
-0.4793400637187517	-6.76495487977271e-23
-0.4792790285625017	-6.671135790015592e-23
-0.4792179934062517	-6.576368066138406e-23
-0.4791569582500017	-6.480653345410832e-23
-0.4790959230937517	-6.384032025782344e-23
-0.4790348879375017	-6.286565182834972e-23
-0.4789738527812517	-6.188305162569171e-23
-0.4789128176250017	-6.089271735668286e-23
-0.4788517824687517	-5.989448210412286e-23
-0.4787907473125017	-5.888800430762674e-23
-0.4787297121562517	-5.787306213108623e-23
-0.4786686770000017	-5.684976571439732e-23
-0.4786076418437517	-5.581855772342505e-23
-0.4785466066875017	-5.47800038040618e-23
-0.4784855715312517	-5.373452129267144e-23
-0.4784245363750017	-5.268222739628677e-23
-0.4783635012187517	-5.162297401185532e-23
-0.4783024660625017	-5.055652398507098e-23
-0.4782414309062517	-4.9482770692331184e-23
-0.4781803957500017	-4.8401873062120625e-23
-0.4781193605937517	-4.7314227644842154e-23
-0.4780583254375017	-4.622031346461676e-23
-0.4779972902812517	-4.5120503669216114e-23
-0.4779362551250017	-4.401493074212322e-23
-0.4778752199687517	-4.290348611151396e-23
-0.4778141848125017	-4.178598107034782e-23
-0.4777531496562517	-4.0662357572931713e-23
-0.4776921145000017	-3.9532794989356564e-23
-0.4776310793437517	-3.8397677003692817e-23
-0.4775700441875017	-3.7257454387428437e-23
-0.4775090090312517	-3.6112460081012686e-23
-0.4774479738750017	-3.4962796463617353e-23
-0.4773869387187517	-3.380837856606074e-23
-0.4773259035625017	-3.264908642116544e-23
-0.4772648684062517	-3.1484923092468116e-23
-0.4772038332500017	-3.031609204366291e-23
-0.4771427980937517	-2.9142959831222666e-23
-0.4770817629375017	-2.796592903617322e-23
-0.4770207277812517	-2.6785285590656556e-23
-0.4769596926250017	-2.560111869440833e-23
-0.4768986574687517	-2.4413371619499196e-23
-0.4768376223125017	-2.3221977755575957e-23
-0.4767765871562517	-2.202699195474898e-23
-0.4767155520000017	-2.0828641714886033e-23
-0.4766545168437517	-1.9627272514121002e-23
-0.4765934816875017	-1.842323297065746e-23
-0.4765324465312517	-1.721676888290031e-23
-0.4764714113750017	-1.600797419343229e-23
-0.4764103762187517	-1.479682883526933e-23
-0.4763493410625017	-1.3583310211528232e-23
-0.4762883059062517	-1.236749999761874e-23
-0.4762272707500017	-1.114962209363167e-23
-0.4761662355937517	-9.930007862725662e-24
-0.4761052004375017	-8.708998149097103e-24
-0.4760441652812517	-7.486829042152054e-24
-0.4759831301250017	-6.263586594303269e-24
-0.4759220949687517	-5.0392559588688255e-24
-0.4758610598125017	-3.813820847559081e-24
-0.4758000246562517	-2.587367121416932e-24
-0.4757389895000017	-1.3601390646248164e-24
-0.4756779543437517	-1.3249371369027738e-25
-0.4756169191875017	1.0952246036752481e-24
-0.4755558840312517	2.3227969233344892e-24
-0.4754948488750017	3.550164347024026e-24
-0.4754338137187517	4.7773709055580304e-24
-0.4753727785625017	6.004441346246316e-24
-0.4753117434062517	7.231266965899325e-24
-0.4752507082500017	8.457570796188978e-24
-0.4751896730937517	9.682968362962512e-24
-0.4751286379375017	1.0907093873752576e-23
-0.4750676027812517	1.2129727948774595e-23
-0.4750065676250017	1.3350843277910728e-23
-0.4749455324687517	1.4570524869121735e-23
-0.4748844973125017	1.57888171216925e-23
-0.4748234621562517	1.700560393005396e-23
-0.4747624270000017	1.8220587802553242e-23
-0.4747013918437517	1.9433368389277823e-23
-0.4746403566875017	2.0643577421559742e-23
-0.4745793215312517	2.1850999590112956e-23
-0.4745182863750017	2.3055610370873487e-23
-0.4744572512187517	2.425750208183783e-23
-0.4743962160625017	2.5456734613227918e-23
-0.4743351809062517	2.665320298706833e-23
-0.4742741457500017	2.78466084930178e-23
-0.4742131105937517	2.9036544792873014e-23
-0.4741520754375017	3.0222637293843657e-23
-0.4740910402812517	3.140466062300942e-23
-0.4740300051250017	3.2582577503759455e-23
-0.4739689699687517	3.375647348360211e-23
-0.4739079348125017	3.492642108526338e-23
-0.4738468996562517	3.6092350037915613e-23
-0.4737858645000017	3.725399300009408e-23
-0.4737248293437517	3.841094636276923e-23
-0.4736637941875017	3.956282110457833e-23
-0.4736027590312517	4.0709381647200715e-23
-0.4735417238750017	4.185058657512456e-23
-0.4734806887187517	4.298652386546606e-23
-0.4734196535625017	4.411727405122122e-23
-0.4733586184062517	4.524277185575705e-23
-0.4732975832500017	4.636275479335718e-23
-0.4732365480937517	4.7476832584329077e-23
-0.4731755129375017	4.858463471854819e-23
-0.4731144777812517	4.9685941296532056e-23
-0.4730534426250017	5.078072085351761e-23
-0.4729924074687517	5.1869061745796225e-23
-0.4729313723125017	5.295103022566497e-23
-0.4728703371562517	5.402654285855305e-23
-0.4728093020000017	5.509533498251704e-23
-0.4727482668437517	5.615702976441694e-23
-0.4726872316875017	5.721127351749454e-23
-0.4726261965312517	5.825786970429951e-23
-0.4725651613750017	5.929681703122912e-23
-0.4725041262187517	6.032821857140265e-23
-0.4724430910625017	6.135213010093146e-23
-0.4723820559062517	6.236845143767187e-23
-0.4723210207500017	6.337691141405937e-23
-0.4722599855937517	6.437714021411216e-23
-0.4721989504375017	6.536880440076903e-23
-0.4721379152812517	6.635173347315123e-23
-0.4720768801250017	6.732594375660574e-23
-0.4720158449687517	6.829154328946264e-23
-0.4719548098125017	6.9248585863744e-23
-0.4718937746562517	7.019696210838677e-23
-0.4718327395000017	7.113638916268057e-23
-0.4717717043437517	7.20665061881507e-23
-0.4717106691875017	7.298701846909835e-23
-0.4716496340312517	7.389779739491302e-23
