Time	Frequency
-0.5000247492500023	-0.4014739138827012
-0.4999637140937523	-0.39596859966111897
-0.4999026789375023	-0.39041790976377966
-0.4998416437812523	-0.3848305210706883
-0.4997806086250023	-0.3792112178515277
-0.4997195734687523	-0.3735583481628193
-0.4996585383125023	-0.36786489655237065
-0.4995975031562523	-0.36212271222105674
-0.4995364680000023	-0.35632755590018966
-0.4994754328437523	-0.35048203710356834
-0.4994143976875023	-0.34459467733157606
-0.4993533625312523	-0.3386755509739162
-0.4992923273750023	-0.33273092299054385
-0.4992312922187523	-0.32675991237521274
-0.4991702570625023	-0.3207551430898949
-0.4991092219062523	-0.3147071562850702
-0.4990481867500023	-0.3086101802556549
-0.4989871515937523	-0.3024659609461483
-0.4989261164375023	-0.29628336812297223
-0.4988650812812523	-0.2900738866939138
-0.4988040461250023	-0.28384547880846883
-0.4987430109687523	-0.2775982951265363
-0.4986819758125023	-0.27132477085137136
-0.4986209406562523	-0.26501417711630343
-0.4985599055000023	-0.2586591065619719
-0.4984988703437523	-0.252260217129612
-0.4984378351875023	-0.24582646572298716
-0.4983768000312523	-0.2393705733164329
-0.4983157648750023	-0.2329022063999481
-0.4982547297187523	-0.22642274819694816
-0.4981936945625023	-0.21992472775361607
-0.4981326594062523	-0.2133963367334105
-0.4980716242500023	-0.20682852940538093
-0.4980105890937523	-0.20022069720404426
-0.4979495539375023	-0.1935816288160308
-0.4978885187812523	-0.18692507872096106
-0.4978274836250023	-0.18026238990418886
-0.4977664484687523	-0.17359636822303942
-0.4977054133125023	-0.16691993207090539
-0.4976443781562523	-0.1602203955297681
-0.4975833430000023	-0.15348705182706787
-0.4975223078437523	-0.14671778453667417
-0.4974612726875023	-0.13992089042095324
-0.4974002375312523	-0.13311096700435704
-0.4973392023750023	-0.126301117831767
-0.4972781672187523	-0.11949585862489229
-0.4972171320625023	-0.11268878005372629
-0.4971560969062523	-0.10586641552809975
-0.4970950617500023	-0.09901623315855303
-0.4970340265937523	-0.09213426470213545
-0.4969729914375023	-0.08522801584347546
-0.4969119562812523	-0.07831286953553865
-0.4968509211250023	-0.07140387899244863
-0.4967898859687523	-0.0645075896903592
-0.4967288508125023	-0.057618575870379614
-0.4966678156562523	-0.05072271340701514
-0.4966067805000023	-0.04380546248490159
-0.4965457453437523	-0.03686059359193347
-0.4964847101875023	-0.02989439781583836
-0.4964236750312523	-0.022922861112869675
-0.4963626398750023	-0.015963243762512704
-0.4963016047187523	-0.00902472374906293
-0.4962405695625023	-0.0021034035465817566
-0.4961795344062523	0.004815386205843577
-0.4961184992500023	0.011748612440772908
-0.4960574640937523	0.018705510488298504
-0.4959964289375023	0.02568164136174991
-0.4959353937812523	0.03266055590586819
-0.4958743586250023	0.03962234636311094
-0.4958133234687523	0.046554405681495305
-0.4957522883125023	0.05345836084724231
-0.4956912531562523	0.060349173918541235
-0.4956302180000023	0.067246672840218
-0.4955691828437523	0.07416403202340138
-0.4955081476875023	0.0810996144994413
-0.4954471125312523	0.08803689982578716
-0.4953860773750023	0.09495283502180522
-0.4953250422187523	0.10183021997443453
-0.4952640070625023	0.10866726435497445
-0.4952029719062523	0.11547878877437823
-0.4951419367500023	0.1222880674043991
-0.4950809015937523	0.12911354496983815
-0.4950198664375023	0.13595773612460782
-0.4949588312812523	0.14280467828872906
-0.4948977961250023	0.1496277185934746
-0.4948367609687523	0.15640367956549625
-0.4947757258125023	0.16312570081648753
-0.4947146906562523	0.16980745169646852
-0.4946536555000023	0.17647593692254404
-0.4945926203437523	0.18315642278080038
-0.4945315851875023	0.18985763620742246
-0.4944705500312523	0.19656560158474867
-0.4944095148750023	0.2032499808909917
-0.4943484797187523	0.20987995158942266
-0.4942874445625023	0.21644115381750823
-0.4942264094062523	0.22294420705372306
-0.4941653742500023	0.22941958638858412
-0.4941043390937523	0.23590106055303361
-0.4940433039375023	0.24240642185568093
-0.4939822687812523	0.24892621450332575
-0.4939212336250023	0.25542720726939044
-0.4938601984687523	0.2618693967469357
-0.4937991633125023	0.2682276952229253
-0.4937381281562523	0.2745063996576975
-0.4936770930000023	0.28073794708956457
-0.4936160578437523	0.2869658252648463
-0.4935550226875023	0.29322040343726846
-0.4934939875312523	0.2995008518326361
-0.4934329523750023	0.3057735708084511
-0.4933719172187523	0.3119888457838648
-0.4933108820625023	0.31810733277772585
-0.4932498469062523	0.32412209476787984
-0.4931888117500023	0.33006371637448695
-0.4931277765937523	0.3359848222833693
-0.4930667414375023	0.3419315924911481
-0.4930057062812523	0.34791747312681814
-0.4929446711250023	0.3539137792193746
-0.4928836359687523	0.3598631880366587
-0.4928226008125023	0.3657097017028012
-0.4927615656562523	0.371429216513936
-0.4927005305000023	0.37704379892493556
-0.4926394953437523	0.3826111170606432
-0.4925784601875023	0.38819387343899736
-0.4925174250312523	0.3938252948567195
-0.4924563898750023	0.39948950862273436
-0.4923953547187523	0.4051281151130461
-0.4923343195625023	0.4106702580739807
-0.4922732844062523	0.4160704682594845
-0.4922122492500023	0.42133378168930086
-0.4921512140937523	0.42651404678237204
-0.4920901789375023	0.4316856433895082
-0.4920291437812523	0.43690338858276584
-0.4919681086250023	0.4421722074703498
-0.4919070734687523	0.4474432547449386
-0.4918460383125023	0.45263905121556386
-0.4917850031562523	0.4576944321206337
-0.4917239680000023	0.46259131943756976
-0.4916629328437523	0.46736845513023056
-0.4916018976875023	0.4721006604255345
-0.4915408625312523	0.4768586595486026
-0.4914798273750023	0.48167106570855717
-0.4914187922187523	0.48650896848096853
-0.4913577570625023	0.4913013345982172
-0.4912967219062523	0.49597279537707045
-0.4912356867500023	0.5004833801220566
-0.4911746515937523	0.5048489231927552
-0.4911136164375023	0.5091315150778815
-0.4910525812812523	0.5134055538245593
-0.4909915461250023	0.5177179221661456
-0.4909305109687523	0.5220636205074154
-0.4908694758125023	0.5263894797892991
-0.4908084406562523	0.5306232722244523
-0.4907474055000023	0.5347120550802661
-0.4906863703437523	0.5386491408441658
-0.4906253351875023	0.5424757653912171
-0.4905643000312523	0.5462574183298473
-0.4905032648750023	0.5500482569748163
-0.4904422297187523	0.5538628580574544
-0.4903811945625023	0.5576699614651287
-0.4903201594062523	0.5614106479420876
-0.4902591242500023	0.5650303235535983
-0.4901980890937523	0.5685069998555623
-0.4901370539375023	0.5718610840168925
-0.4900760187812523	0.5751423514675655
-0.4900149836250023	0.5784020691856206
-0.4899539484687523	0.5816657226208508
-0.4898929133125023	0.5849207278764231
-0.4898318781562523	0.5881248754906659
-0.4897708430000023	0.591229981583148
-0.4897098078437523	0.5942074411910089
-0.4896487726875023	0.5970620592945245
-0.4895877375312523	0.5998274606324
-0.4895267023750023	0.6025465034029188
-0.4894656672187523	0.6052479006949435
-0.4894046320625023	0.6079316588125512
-0.4893435969062523	0.6105705609296379
-0.4892825617500023	0.6131260043563502
-0.4892215265937523	0.6155689762706512
-0.4891604914375023	0.6178947329024506
-0.4890994562812523	0.6201237350828311
-0.4890384211250023	0.6222891356021083
-0.4889773859687523	0.6244182573216238
-0.4889163508125023	0.6265182646427037
-0.4888553156562523	0.6285734064267124
-0.4887942805000023	0.6305546258649202
-0.4887332453437523	0.6324356977689151
-0.4886722101875023	0.6342069090150121
-0.4886111750312523	0.6358791318490282
-0.4885501398750023	0.6374766810762748
-0.4884891047187523	0.6390234276757076
-0.4884280695625023	0.6405299792835893
-0.4883670344062523	0.6419887043115041
-0.4883059992500023	0.6433787904429148
-0.4882449640937523	0.6446780434147289
-0.4881839289375023	0.6458747260151578
-0.4881228937812523	0.6469731125017657
-0.4880618586250023	0.6479901675515216
-0.4880008234687523	0.6489456551008237
-0.4879397883125023	0.6498513529150046
-0.4878787531562523	0.6507051832088567
-0.4878177180000023	0.6514930932691836
-0.4877566828437523	0.652197211806275
-0.4876956476875023	0.6528055479738695
-0.4876346125312523	0.6533179668789206
-0.4875735773750023	0.6537454850186947
-0.4875125422187523	0.6541036762746996
-0.4874515070625023	0.6544040707329662
-0.4873904719062523	0.6546482508308986
-0.4873294367500023	0.6548276147081706
-0.4872684015937523	0.6549285700495092
-0.4872073664375023	0.6549400429107736
-0.4871463312812523	0.6548591573502491
-0.4870852961250023	0.6546921952045238
-0.4870242609687523	0.6544506533208626
-0.4869632258125023	0.6541448234991377
-0.4869021906562523	0.6537784598606443
-0.4868411555000023	0.653347276079886
-0.4867801203437523	0.6528417913175816
-0.4867190851875023	0.6522527030957312
-0.4866580500312523	0.651575764430361
-0.4865970148750023	0.6508136353092153
-0.4865359797187523	0.6499739782705731
-0.4864749445625023	0.649065102534112
-0.4864139094062523	0.6480916377468285
-0.4863528742500023	0.6470524978562101
-0.4862918390937523	0.6459419967689144
-0.4862308039375023	0.6447532477230852
-0.4861697687812523	0.6434818683635277
-0.4861087336250023	0.642128040128996
-0.4860476984687523	0.6406960174181786
-0.4859866633125023	0.639191600211407
-0.4859256281562523	0.6376190955837634
-0.4858645930000023	0.6359794024021121
-0.4858035578437523	0.6342700708388327
-0.4857425226875023	0.6324870439909613
-0.4856814875312523	0.6306269666218963
-0.4856204523750023	0.6286888160582088
-0.4855594172187523	0.6266741272071121
-0.4854983820625023	0.6245859186157416
-0.4854373469062523	0.6224270936983904
-0.4853763117500023	0.62019922525091
-0.4853152765937523	0.6179022424263533
-0.4852542414375023	0.6155349590249649
-0.4851932062812523	0.6130959731489689
-0.4851321711250023	0.6105843937461385
-0.4850711359687523	0.6080000878516096
-0.4850101008125023	0.6053435174178138
-0.4849490656562523	0.6026154600576389
-0.4848880305000023	0.5998168482520296
-0.4848269953437523	0.596948747550723
-0.4847659601875023	0.5940123207026031
-0.4847049250312523	0.5910086042656916
-0.4846438898750023	0.5879380844516146
-0.4845828547187523	0.5848003214059309
-0.4845218195625023	0.5815940028887419
-0.4844607844062523	0.5783175964521539
-0.4843997492500023	0.5749703494500819
-0.4843387140937523	0.5715530936753607
-0.4842776789375023	0.5680683127941861
-0.4842166437812523	0.5645192665841877
-0.4841556086250023	0.5609085135754424
-0.4840945734687523	0.5572365981571897
-0.4840335383125023	0.5535016985395206
-0.4839725031562523	0.5497005765976316
-0.4839114680000023	0.5458304322990191
-0.4838504328437523	0.5418907043387426
-0.4837893976875023	0.5378838049176274
-0.4837283625312523	0.5338142850118744
-0.4836673273750023	0.5296867641110051
-0.4836062922187523	0.5255036708658487
-0.4835452570625023	0.5212640272991466
-0.4834842219062523	0.5169640288698908
-0.4834231867500023	0.5125992158945456
-0.4833621515937523	0.5081671126962145
-0.4833011164375023	0.5036689064194547
-0.4832400812812523	0.49910921846734113
-0.4831790461250023	0.4944940093308181
-0.4831180109687523	0.48982767602090027
-0.4830569758125023	0.4851109064153712
-0.4829959406562523	0.48034050162060987
-0.4829349055000023	0.47551130706356526
-0.4828738703437523	0.4706192268075331
-0.4828128351875023	0.46566371612869867
-0.4827518000312523	0.46064841824001185
-0.4826907648750023	0.45557956573044545
-0.4826297297187523	0.4504629612976098
-0.4825686945625023	0.44530115986640734
-0.4825076594062523	0.44009239373102216
-0.4824466242500023	0.4348318265937309
-0.4823855890937523	0.42951445668354593
-0.4823245539375023	0.42413811071638285
-0.4822635187812523	0.41870492179985186
-0.4822024836250023	0.41322049309393827
-0.4821414484687523	0.4076911923987541
-0.4820804133125023	0.4021210443446655
-0.4820193781562523	0.39650991572942523
-0.4819583430000023	0.3908539695510274
-0.4818973078437523	0.38514812536157
-0.4818362726875023	0.3793891778940811
-0.4817752375312523	0.37357785336188526
-0.4817142023750023	0.3677186848251917
-0.4816531672187523	0.36181782877885077
-0.4815921320625023	0.355880063018836
-0.4815310969062523	0.34990659796435203
-0.4814700617500023	0.34389486452189916
-0.4814090265937523	0.3378403589714607
-0.4813479914375023	0.331739499783212
-0.4812869562812523	0.32559192617036314
-0.4812259211250023	0.31940099498036467
-0.4811648859687523	0.31317223786967135
-0.4811038508125023	0.30691067795614874
-0.4810428156562523	0.30061848973123234
-0.4809817805000023	0.29429425678222615
-0.4809207453437523	0.28793421715413847
-0.4808597101875023	0.28153478793251097
-0.4807986750312523	0.2750949367174903
-0.4807376398750023	0.2686170858570302
-0.4806766047187523	0.262106095583289
-0.4806155695625023	0.2555669274573026
-0.4805545344062523	0.24900229511193867
-0.4804934992500023	0.24241161811008016
-0.4804324640937523	0.2357918523218424
-0.4803714289375023	0.22913967749756586
-0.4803103937812523	0.2224537560986755
-0.4802493586250023	0.2157358186216739
-0.4801883234687523	0.20899005474437762
-0.4801272883125023	0.20222117968635683
-0.4800662531562523	0.19543223924782327
-0.4800052180000023	0.18862338227018344
-0.4799441828437523	0.1817922670305151
-0.4798831476875023	0.17493584085492686
-0.4798221125312523	0.16805248930094077
-0.4797610773750023	0.16114334900079086
-0.4797000422187523	0.15421204812299039
-0.4796390070625023	0.1472630546481737
-0.4795779719062523	0.14029961051048145
-0.4795169367500023	0.1333224100496464
-0.4794559015937523	0.12632972151905228
-0.4793948664375023	0.11931885127638248
-0.4793338312812523	0.1122881110437986
-0.4792727961250023	0.10523818700164789
-0.4792117609687523	0.09817215469856333
-0.4791507258125023	0.09109414423033199
-0.4790896906562523	0.08400745132223768
-0.4790286555000023	0.07691318135543528
-0.4789676203437523	0.06981015078536419
-0.4789065851875023	0.06269607327554273
-0.4788455500312523	0.055569330710000614
-0.4787845148750023	0.04843029304630413
-0.4787234797187523	0.04128149343851724
-0.4786624445625023	0.034126628046680874
-0.4786014094062523	0.02696893185238433
-0.4785403742500023	0.019809834915873244
-0.4784793390937523	0.012648676831098717
-0.4784183039375023	0.00548361154610673
-0.4783572687812523	-0.0016868679648685185
-0.4782962336250023	-0.008862642469390954
-0.4782351984687523	-0.016041608793429495
-0.4781741633125023	-0.023220453261217716
-0.4781131281562523	-0.030396097842697607
-0.4780520930000023	-0.03756695564273181
-0.4779910578437523	-0.044733298106344806
-0.4779300226875023	-0.051896582731698115
-0.4778689875312523	-0.05905813580423382
-0.4778079523750023	-0.0662179295268996
-0.4777469172187523	-0.07337416544796167
-0.4776858820625023	-0.08052388416409507
-0.4776248469062523	-0.08766421404557613
-0.4775638117500023	-0.09479353871057586
-0.4775027765937523	-0.10191190799395551
-0.4774417414375023	-0.10902047523906955
-0.4773807062812523	-0.1161203371769048
-0.4773196711250023	-0.1232114405133663
-0.4772586359687523	-0.13029215826548476
-0.4771976008125023	-0.13735978784543895
-0.4771365656562523	-0.14441167610823122
-0.4770755305000023	-0.15144628985363867
-0.4770144953437523	-0.15846359492409207
-0.4769534601875023	-0.16546455229112844
-0.4768924250312523	-0.17245006467436094
-0.4768313898750023	-0.1794199855367601
-0.4767703547187523	-0.18637274884802008
-0.4767093195625023	-0.19330582903719923
-0.4766482844062523	-0.20021675616208173
-0.4765872492500023	-0.20710408604505728
-0.4765262140937523	-0.21396776682635105
-0.4764651789375023	-0.22080869637504547
-0.4764041437812523	-0.22762772890606306
-0.4763431086250023	-0.2344247066470549
-0.4762820734687523	-0.24119807300372811
-0.4762210383125023	-0.24794531153977625
-0.4761600031562523	-0.2546639702233463
-0.4760989680000023	-0.26135263793589264
-0.4760379328437523	-0.2680112925046097
-0.4759768976875023	-0.27464085026983326
-0.4759158625312523	-0.2812421827155526
-0.4758548273750023	-0.28781516303093546
-0.4757937922187523	-0.2943582943003205
-0.4757327570625023	-0.30086912527270243
-0.4756717219062523	-0.3073452210490365
-0.4756106867500023	-0.3137851405789344
-0.4755496515937523	-0.3201888453182494
-0.4754886164375023	-0.3265572842903657
-0.4754275812812523	-0.3328914027609938
-0.4753665461250023	-0.3391911681850787
-0.4753055109687523	-0.3454551646752135
-0.4752444758125023	-0.3516809692274166
-0.4751834406562523	-0.3578661026677206
-0.4751224055000023	-0.3640090265148013
-0.4750613703437523	-0.3701096154989977
-0.4750003351875023	-0.37616882844975996
-0.4749393000312523	-0.3821877575799824
-0.4748782648750023	-0.3881665891356206
-0.4748172297187523	-0.3941040768978559
-0.4747561945625023	-0.3999978536344793
-0.4746951594062523	-0.4058453929436277
-0.4746341242500023	-0.41164504818091874
-0.4745730890937523	-0.41739658644907834
-0.4745120539375023	-0.42310091959450724
-0.4744510187812523	-0.42875918660302476
-0.4743899836250023	-0.43437172997352475
-0.4743289484687523	-0.4399375381031225
-0.4742679133125023	-0.44545444698091446
-0.4742068781562523	-0.45092000063386334
-0.4741458430000023	-0.4563324882750215
-0.4740848078437523	-0.4616915436327441
-0.4740237726875023	-0.4669979559634399
-0.4739627375312523	-0.4722528288993979
-0.4739017023750023	-0.4774565912545515
-0.4738406672187523	-0.48260841733223897
-0.4737796320625023	-0.4877063723883299
-0.4737185969062523	-0.4927481879999377
-0.4736575617500023	-0.49773221794638506
-0.4735965265937523	-0.5026580210755965
-0.4735354914375023	-0.5075262358759133
-0.4734744562812523	-0.5123378371249737
-0.4734134211250023	-0.5170932242582993
-0.4733523859687523	-0.5217916774601317
-0.4732913508125023	-0.5264314778019642
-0.4732303156562523	-0.5310105985371866
-0.4731692805000023	-0.5355275723279653
-0.4731082453437523	-0.5399820284992616
-0.4730472101875023	-0.5443745752080237
-0.4729861750312523	-0.5487061037277596
-0.4729251398750023	-0.5529769312755223
-0.4728641047187523	-0.5571862906960151
-0.4728030695625023	-0.5613324846458445
-0.4727420344062523	-0.5654136220029591
-0.4726809992500023	-0.5694284720686664
-0.4726199640937523	-0.5733769040211829
-0.4725589289375023	-0.5772596699522207
-0.4724978937812523	-0.5810776715619025
-0.4724368586250023	-0.5848311238548347
-0.4723758234687523	-0.5885191118859233
-0.4723147883125023	-0.5921398383158645
-0.4722537531562523	-0.5956914335219305
-0.4721927180000023	-0.5991728272769886
-0.4721316828437523	-0.6025841503071517
-0.4720706476875023	-0.6059264335063137
-0.4720096125312523	-0.6092007706554015
-0.4719485773750023	-0.612407414563609
-0.4718875422187523	-0.6155453432013437
-0.4718265070625023	-0.6186125825005533
-0.4717654719062523	-0.621607120783692
-0.4717044367500023	-0.624527884613257
-0.4716434015937523	-0.6273751970307734
-0.4715823664375023	-0.6301504258174075
-0.4715213312812523	-0.6328549976903111
-0.4714602961250023	-0.6354893441737192
-0.4713992609687523	-0.6380524069204235
-0.4713382258125023	-0.640542011603094
-0.4712771906562523	-0.6429559168809487
-0.4712161555000023	-0.6452929448427761
-0.4711551203437523	-0.647553528903057
-0.4710940851875023	-0.6497393395107837
-0.4710330500312523	-0.6518521818614283
-0.4709720148750023	-0.6538927859891386
-0.4709109797187523	-0.6558601905169975
-0.4708499445625023	-0.6577520986151999
-0.4707889094062523	-0.6595660254317283
-0.4707278742500023	-0.6613005898639642
-0.4706668390937523	-0.6629562066156535
-0.4706058039375023	-0.6645347623098328
-0.4705447687812523	-0.666038434615113
-0.4704837336250023	-0.6674683169884069
-0.4704226984687523	-0.6688236443676572
-0.4703616633125023	-0.6701020829312104
-0.4703006281562523	-0.6713009385056691
-0.4702395930000023	-0.6724186036719494
-0.4701785578437523	-0.67345541165025
-0.4701175226875023	-0.6744133919789671
-0.4700564875312523	-0.6752950476261954
-0.4699954523750023	-0.6761018411652213
-0.4699344172187523	-0.6768332591517539
-0.4698733820625023	-0.6774870048640089
-0.4698123469062523	-0.6780602273350945
-0.4697513117500023	-0.6785510940104755
-0.4696902765937523	-0.6789598052430416
-0.4696292414375023	-0.6792884603359368
-0.4695682062812523	-0.67953983763749
-0.4695071711250023	-0.6797157720456928
-0.4694461359687523	-0.6798160545362659
