Time	Frequency
-0.5000572187187515	-0.5584881516502428
-0.49999618356250153	-0.559473504502964
-0.49993514840625153	-0.560423491657467
-0.49987411325000153	-0.5613455196872403
-0.49981307809375153	-0.5622381199754509
-0.49975204293750153	-0.5630917712735594
-0.49969100778125153	-0.5638941349155258
-0.49962997262500153	-0.564636782653507
-0.49956893746875153	-0.5653197164087345
-0.49950790231250153	-0.5659512357222903
-0.49944686715625153	-0.5665432830970579
-0.49938583200000153	-0.5671048679383537
-0.49932479684375153	-0.5676371837450255
-0.49926376168750153	-0.5681330521445688
-0.49920272653125153	-0.5685809239913022
-0.49914169137500153	-0.5689711870737779
-0.49908065621875153	-0.5693013162689164
-0.49901962106250153	-0.5695770854098174
-0.49895858590625153	-0.5698092525181786
-0.49889755075000153	-0.5700076112031665
-0.49883651559375153	-0.5701756937672813
-0.49877548043750153	-0.5703089830156769
-0.49871444528125153	-0.570397526559818
-0.49865341012500153	-0.5704314417897651
-0.49859237496875153	-0.5704062589724875
-0.49853133981250153	-0.5703252063561899
-0.49847030465625153	-0.5701972693334538
-0.49840926950000153	-0.5700321698918547
-0.49834823434375153	-0.5698350624348543
-0.49828719918750153	-0.5696038461525409
-0.49822616403125153	-0.5693304979685703
-0.49816512887500153	-0.5690055961407583
-0.49810409371875153	-0.5686234928817573
-0.49804305856250153	-0.5681853022820946
-0.49798202340625153	-0.5676981262535375
-0.49792098825000153	-0.5671710387288375
-0.49785995309375153	-0.5666100990230295
-0.49779891793750153	-0.5660151356796048
-0.49773788278125153	-0.5653800144944582
-0.49767684762500153	-0.5646961593003524
-0.49761581246875153	-0.5639573250221129
-0.49755477731250153	-0.5631629856648824
-0.49749374215625153	-0.5623185150470182
-0.49743270700000153	-0.5614321332884685
-0.49737167184375153	-0.5605103632344623
-0.49731063668750153	-0.5595545240201175
-0.49724960153125153	-0.5585601598651658
-0.49718856637500153	-0.5575196435675615
-0.49712753121875153	-0.556426462742048
-0.49706649606250153	-0.5552788157902666
-0.49700546090625153	-0.554080555378993
-0.49694442575000153	-0.5528390014992646
-0.49688339059375153	-0.5515608907914735
-0.49682235543750153	-0.5502487313741684
-0.49676132028125153	-0.5488995471444436
-0.49670028512500153	-0.5475066520610997
-0.49663924996875153	-0.5460634415964263
-0.49657821481250153	-0.5445670906167686
-0.49651717965625153	-0.543020113497815
-0.49645614450000153	-0.5414289615550141
-0.49639510934375153	-0.5398004800784023
-0.49633407418750153	-0.5381381924299179
-0.49627303903125153	-0.5364404619373611
-0.49621200387500153	-0.53470152931732
-0.49615096871875153	-0.5329148017405773
-0.49608993356250153	-0.5310765546664078
-0.49602889840625153	-0.5291880178376656
-0.49596786325000153	-0.5272547139508571
-0.49590682809375153	-0.5252834510891512
-0.49584579293750153	-0.5232786548473842
-0.49578475778125153	-0.5212400501216271
-0.49572372262500153	-0.519162942058555
-0.49566268746875153	-0.517040918669236
-0.49560165231250153	-0.5148694639909288
-0.49554061715625153	-0.5126484844756348
-0.49547958200000153	-0.5103824031747319
-0.49541854684375153	-0.5080778119786241
-0.49535751168750153	-0.5057399507528053
-0.49529647653125153	-0.5033699369955039
-0.49523544137500153	-0.5009642836801678
-0.49517440621875153	-0.49851694195481194
-0.49511337106250153	-0.496022710510844
-0.49505233590625153	-0.4934801527527205
-0.49499130075000153	-0.49089244471776716
-0.49493026559375153	-0.4882657149877287
-0.49486923043750153	-0.4856058186893551
-0.49480819528125153	-0.4829152878781174
-0.49474716012500153	-0.4801920843657416
-0.49468612496875153	-0.4774308403520314
-0.49462508981250153	-0.4746259033843117
-0.49456405465625153	-0.4717745018158277
-0.49450301950000153	-0.46887831565951626
-0.49444198434375153	-0.46594264343858877
-0.49438094918750153	-0.46297364681311715
-0.49431991403125153	-0.4599751540240252
-0.49425887887500153	-0.4569467494190017
-0.49419784371875153	-0.4538841749507433
-0.49413680856250153	-0.4507817839186244
-0.49407577340625153	-0.44763569550492094
-0.49401473825000153	-0.44444596165392153
-0.49395370309375153	-0.44121661122917616
-0.49389266793750153	-0.4379535801340526
-0.49383163278125153	-0.43466165032446097
-0.49377059762500153	-0.43134204137852633
-0.49370956246875153	-0.4279919617002152
-0.49364852731250153	-0.424606328449764
-0.49358749215625153	-0.4211806493128365
-0.49352645700000153	-0.4177135109461081
-0.49346542184375153	-0.41420740475859463
-0.49340438668750153	-0.41066747339526194
-0.49334335153125153	-0.4070988531486846
-0.49328231637500153	-0.4035040811211593
-0.49322128121875153	-0.3998819770906155
-0.49316024606250153	-0.3962285306426979
-0.49309921090625153	-0.3925392425646406
-0.49303817575000153	-0.388811662883026
-0.49297714059375153	-0.38504679646264284
-0.49291610543750153	-0.38124863488064453
-0.49285507028125153	-0.37742208298822283
-0.49279403512500153	-0.37357045496263663
-0.49273299996875153	-0.36969391808316354
-0.49267196481250153	-0.3657896730165939
-0.49261092965625153	-0.3618537135766463
-0.49254989450000153	-0.3578831719843822
-0.49248885934375153	-0.3538779727793869
-0.49242782418750153	-0.34984094531558085
-0.49236678903125153	-0.34577637905703557
-0.49230575387500153	-0.34168783730276353
-0.49224471871875153	-0.3375764390047561
-0.49218368356250153	-0.33344050826736354
-0.49212264840625153	-0.32927672928560153
-0.49206161325000153	-0.32508216640156634
-0.49200057809375153	-0.32085603356904707
-0.49193954293750153	-0.31660023247695784
-0.49187850778125153	-0.31231840749702305
-0.49181747262500153	-0.3080141000265047
-0.49175643746875153	-0.30368901877969495
-0.49169540231250153	-0.29934232929892557
-0.49163436715625153	-0.29497133234743983
-0.49157333200000153	-0.29057316793560484
-0.49151229684375153	-0.2861465872233977
-0.49145126168750153	-0.2816927899139034
-0.49139022653125153	-0.27721490938979915
-0.49132919137500153	-0.2727164683129245
-0.49126815621875153	-0.26819962199228886
-0.49120712106250153	-0.2636641650583347
-0.49114608590625153	-0.25910788833326087
-0.49108505075000153	-0.2545280334412631
-0.49102401559375153	-0.24992299128457154
-0.49096298043750153	-0.24529336577226213
-0.49090194528125153	-0.24064184815505343
-0.49084091012500153	-0.235971925055357
-0.49077987496875153	-0.2312861338594204
-0.49071883981250153	-0.22658487000537203
-0.49065780465625153	-0.22186639146343815
-0.49059676950000153	-0.21712798400642888
-0.49053573434375153	-0.21236765297138588
-0.49047469918750153	-0.20758543109815789
-0.49041366403125153	-0.2027835731426177
-0.49035262887500153	-0.19796552407489026
-0.49029159371875153	-0.19313423698098597
-0.49023055856250153	-0.18829074768791895
-0.49016952340625153	-0.1834337916623806
-0.49010848825000153	-0.1785607014332506
-0.49004745309375153	-0.17366909061068253
-0.48998641793750153	-0.16875838899175183
-0.48992538278125153	-0.16383037957952257
-0.48986434762500153	-0.15888844665038418
-0.48980331246875153	-0.15393594467228605
-0.48974227731250153	-0.14897455945115187
-0.48968124215625153	-0.1440035752711004
-0.48962020700000153	-0.13902048361510916
-0.48955917184375153	-0.13402258180417118
-0.48949813668750153	-0.12900866830126806
-0.48943710153125153	-0.12397991910923845
-0.48937606637500153	-0.1189394560565518
-0.48931503121875153	-0.1138908458976113
-0.48925399606250153	-0.1088363755096344
-0.48919296090625153	-0.10377602831944108
-0.48913192575000153	-0.09870770717781376
-0.48907089059375153	-0.09362860644841361
-0.48900985543750153	-0.08853698605116281
-0.48894882028125153	-0.08343335073160561
-0.48888778512500153	-0.07832037838234493
-0.48882674996875153	-0.07320165086021205
-0.48876571481250153	-0.06807989750701224
-0.48870467965625153	-0.06295572451213934
-0.48864364450000153	-0.057827529422814064
-0.48858260934375153	-0.052692639880408274
-0.48852157418750153	-0.047549031205228305
-0.48846053903125153	-0.042396658210114846
-0.48839950387500153	-0.03723767211104932
-0.48833846871875153	-0.03207541498950768
-0.48827743356250153	-0.026912775523792273
-0.48821639840625153	-0.021750842090301502
-0.48815536325000153	-0.016588572974164904
-0.48809432809375153	-0.011423637659675339
-0.48803329293750153	-0.006253957544488579
-0.48797225778125153	-0.0010790834738626943
-0.48791122262500153	0.0040993490108251675
-0.48785018746875153	0.009278332929998079
-0.48778915231250153	0.01445498094762852
-0.48772811715625153	0.019627936740882406
-0.48766708200000153	0.02479786877484712
-0.48760604684375153	0.029966794629582107
-0.48754501168750153	0.035136677042435734
-0.48748397653125153	0.04030807369790608
-0.48742294137500153	0.045479597660444036
-0.48736190621875153	0.0506485169097446
-0.48730087106250153	0.05581211789247224
-0.48723983590625153	0.06096902141382036
-0.48717880075000153	0.06611971597323918
-0.48711776559375153	0.07126601172669372
-0.48705673043750153	0.07640973249651706
-0.48699569528125153	0.08155141780396202
-0.48693466012500153	0.08668978505132578
-0.48687362496875153	0.09182225056334029
-0.48681258981250153	0.0969462015676867
-0.48675155465625153	0.10206027938036664
-0.48669051950000153	0.10716491898226607
-0.48662948434375153	0.11226183870123728
-0.48656844918750153	0.1173528079296969
-0.48650741403125153	0.12243839429887417
-0.48644637887500153	0.1275173866267097
-0.48638534371875153	0.13258723600942998
-0.48632430856250153	0.13764528242796034
-0.48626327340625153	0.14269007748823076
-0.48620223825000153	0.1477220170911912
-0.48614120309375153	0.15274288801533534
-0.48608016793750153	0.15775460989326553
-0.48601913278125153	0.16275789858409004
-0.48595809762500153	0.16775159124307276
-0.48589706246875153	0.17273304519531957
-0.48583602731250153	0.1776994130558683
-0.48577499215625153	0.18264904128329013
-0.48571395700000153	0.1875821828520709
-0.48565292184375153	0.19250064815642712
-0.48559188668750153	0.19740658843365666
-0.48553085153125153	0.20230105558599937
-0.48546981637500153	0.20718315581919772
-0.48540878121875153	0.21205031311297096
-0.48534774606250153	0.2168994872247952
-0.48528671090625153	0.22172864387125507
-0.48522567575000153	0.22653767045790307
-0.48516464059375153	0.23132823651337697
-0.48510360543750153	0.23610266891761036
-0.48504257028125153	0.24086246131710223
-0.48498153512500153	0.2456072382042083
-0.48492049996875153	0.2503347390217316
-0.48485946481250153	0.2550418232273761
-0.48479842965625153	0.25972594764917106
-0.48473739450000153	0.26438633735646533
-0.48467635934375153	0.2690242336318976
-0.48461532418750153	0.27364204617122057
-0.48455428903125153	0.2782418487079605
-0.48449325387500153	0.28282405550094164
-0.48443221871875153	0.2873869678836211
-0.48437118356250153	0.2919274343678004
-0.48431014840625153	0.2964423218362941
-0.48424911325000153	0.3009300143306465
-0.48418807809375153	0.30539111858022827
-0.48412704293750153	0.30982798396044775
-0.48406600778125153	0.3142432752511779
-0.48400497262500153	0.31863835747224417
-0.48394393746875153	0.32301234319235644
-0.48388290231250153	0.32736230828065227
-0.48382186715625153	0.33168460092012664
-0.48376083200000153	0.3359765852829754
-0.48369979684375153	0.34023790254323794
-0.48363876168750153	0.34447055844074714
-0.48357772653125153	0.3486777466825219
-0.48351669137500153	0.35286198641935596
-0.48345565621875153	0.35702354519439333
-0.48339462106250153	0.3611600104219456
-0.48333358590625153	0.36526728104598966
-0.48327255075000153	0.3693415204112143
-0.48321151559375153	0.3733810814632477
-0.48315048043750153	0.3773873393030995
-0.48308944528125153	0.38136390964256117
-0.48302841012500153	0.38531460520732164
-0.48296737496875153	0.3892411734154769
-0.48290633981250153	0.39314204474459885
-0.48284530465625153	0.3970128418856013
-0.48278426950000153	0.4008484488894478
-0.48272323434375153	0.40464559273308165
-0.48266219918750153	0.4084045813509298
-0.48260116403125153	0.4121291829173475
-0.48254012887500153	0.41582456872746565
-0.48247909371875153	0.4194943540484413
-0.48241805856250153	0.42313833393149114
-0.48235702340625153	0.426752192808738
-0.48229598825000153	0.4303294818923696
-0.48223495309375153	0.43386492046467645
-0.48217391793750153	0.43735724492935774
-0.48211288278125153	0.44080999220703415
-0.48205184762500153	0.4442296569008879
-0.48199081246875153	0.4476220638843561
-0.48192977731250153	0.4509888888357149
-0.48186874215625153	0.45432631628496234
-0.48180770700000153	0.45762671247722275
-0.48174667184375153	0.4608825469253775
-0.48168563668750153	0.46409048093573074
-0.48162460153125153	0.4672533166558232
-0.48156356637500153	0.4703785981675883
-0.48150253121875153	0.47347446958117484
-0.48144149606250153	0.4765449611519687
-0.48138046090625153	0.47958734846375384
-0.48131942575000153	0.4825932022853351
-0.48125839059375153	0.4855527195541829
-0.48119735543750153	0.4884600531787335
-0.48113632028125153	0.49131666939250396
-0.48107528512500153	0.49413071869731395
-0.48101424996875153	0.49691258821671525
-0.48095321481250153	0.4996689888714357
-0.48089217965625153	0.5023988659590887
-0.48083114450000153	0.5050935389778675
-0.48077010934375153	0.5077411681846169
-0.48070907418750153	0.5103331839331021
-0.48064803903125153	0.5128691261151767
-0.48058700387500153	0.5153570946006586
-0.48052596871875153	0.517809369994569
-0.48046493356250153	0.5202355026956564
-0.48040389840625153	0.5226367055283945
-0.48034286325000153	0.5250047713817736
-0.48028182809375153	0.5273262706162538
-0.48022079293750153	0.5295898277155635
-0.48015975778125153	0.5317924729486543
-0.48009872262500153	0.5339414588492304
-0.48003768746875153	0.5360503817270511
-0.47997665231250153	0.5381316208187434
-0.47991561715625153	0.540189245009528
-0.47985458200000153	0.5422164025789344
-0.47979354684375153	0.5441987822543465
-0.47973251168750153	0.5461223457640796
-0.47967147653125153	0.5479810964085418
-0.47961044137500153	0.5497805331560279
-0.47954940621875153	0.551534753128086
-0.47948837106250153	0.5532586802670897
-0.47942733590625153	0.5549596597803115
-0.47936630075000153	0.5566331018712075
-0.47930526559375153	0.5582646999642464
-0.47924423043750153	0.5598381232617357
-0.47918319528125153	0.5613440003281008
-0.47912216012500153	0.562785211941724
-0.47906112496875153	0.5641754598090905
-0.47900008981250153	0.5655317698793884
-0.47893905465625153	0.566865000971624
-0.47887801950000153	0.5681736094797143
-0.47881698434375153	0.5694442001120684
-0.47875594918750153	0.5706586886848055
-0.47869491403125153	0.5718042155485573
-0.47863387887500153	0.572880338332568
-0.47857284371875153	0.5738994471521028
-0.47851180856250153	0.5748800507034978
-0.47845077340625153	0.5758365422600144
-0.47838973825000153	0.5767710715458455
-0.47832870309375153	0.5776720798558365
-0.47826766793750153	0.5785204318963342
-0.47820663278125153	0.5792998645173616
-0.47814559762500153	0.5800060160759553
-0.47808456246875153	0.580648999380176
-0.47802352731250153	0.5812479918323005
-0.47796249215625153	0.5818207219337856
-0.47790145700000153	0.5823735979966091
-0.47784042184375153	0.5828979510435182
-0.47777938668750153	0.5833745575283505
-0.47771835153125153	0.5837840548085813
-0.47765731637500153	0.5841175798133115
-0.47759628121875153	0.584381780938602
-0.47753524606250153	0.5845953840829261
-0.47747421090625153	0.5847790880797696
-0.47741317575000153	0.5849442316656724
-0.47735214059375153	0.5850864099861056
-0.47729110543750153	0.5851875896766633
-0.47723007028125153	0.5852256821206506
-0.47716903512500153	0.5851864833017202
-0.47710799996875153	0.5850715603694476
-0.47704696481250153	0.5848977456983473
-0.47698592965625153	0.5846883327144546
-0.47692489450000153	0.5844605705114324
-0.47686385934375153	0.5842161628947774
-0.47680282418750153	0.5839399660303557
-0.47674178903125153	0.5836077484196902
-0.47668075387500153	0.5831990357666891
-0.47661971871875153	0.5827082693252142
-0.47655868356250153	0.5821482612714118
-0.47649764840625153	0.581543885608282
-0.47643661325000153	0.5809190857421203
-0.47637557809375153	0.5802839368683546
-0.47631454293750153	0.5796286989542428
-0.47625350778125153	0.5789283075034937
-0.47619247262500153	0.5781552961723787
-0.47613143746875153	0.5772945711850327
-0.47607040231250153	0.5763521892371857
-0.47600936715625153	0.5753531268572887
-0.47594833200000153	0.574328695008673
-0.47588729684375153	0.5732998655910759
-0.47582626168750153	0.5722653191984018
-0.47576522653125153	0.5712009696230207
-0.47570419137500153	0.5700718918692385
-0.47564315621875153	0.5688508764815059
-0.47558212106250153	0.567533865748306
-0.47552108590625153	0.5661436328297396
-0.47546005075000153	0.5647189361616092
-0.47539901559375153	0.5632941769997479
-0.47533798043750153	0.5618801794992629
-0.47527694528125153	0.5604567908829128
-0.47521591012500153	0.5589821485670503
-0.47515487496875153	0.5574145602324938
-0.47509383981250153	0.5557356911371482
-0.47503280465625153	0.5539622836205342
-0.47497176950000153	0.552139160467256
-0.47491073434375153	0.5503161812807157
-0.47484969918750153	0.5485209237354917
-0.47478866403125153	0.5467420137899036
-0.47472762887500153	0.544933066372147
-0.47466659371875153	0.5430363482153913
-0.47460555856250153	0.5410142236519563
-0.47454452340625153	0.5388713827748045
-0.47448348825000153	0.5366549349303955
-0.47442245309375153	0.5344309367629447
-0.47436141793750153	0.5322489512020817
-0.47430038278125153	0.5301136343095907
-0.47423934762500153	0.5279795620706565
-0.47417831246875153	0.5257735209648033
-0.47411727731250153	0.5234334935693654
-0.47405624215625153	0.520943707871184
-0.47399520700000153	0.5183461146467538
-0.47393417184375153	0.515720599718432
-0.47387313668750153	0.5131431355810094
-0.47381210153125153	0.5106437886343607
-0.47375106637500153	0.5081877651547304
-0.47369003121875153	0.5056911820186952
-0.47362899606250153	0.5030646741419611
-0.47356796090625153	0.5002622657350266
-0.47350692575000153	0.4973089030172728
-0.47344589059375153	0.494290449557481
-0.47338485543750153	0.4913098085607615
-0.47332382028125153	0.48843163487763824
-0.47326278512500153	0.4856453997934696
-0.47320174996875153	0.4828678576534453
-0.47314071481250153	0.4799853128380611
-0.47307967965625153	0.4769143090564869
-0.47301864450000153	0.4736483545699898
-0.47295760934375153	0.47026459677394855
-0.47289657418750153	0.4668852733071587
-0.47283553903125153	0.46361329847676597
-0.47277450387500153	0.46047610394103766
-0.47271346871875153	0.4574085131767875
-0.47265243356250153	0.45428521237708874
-0.47259139840625153	0.4509867022217365
-0.47253036325000153	0.44746391523519774
-0.47246932809375153	0.4437664624218879
-0.47240829293750153	0.4400183393000365
-0.47234725778125153	0.43635305355184745
-0.47228622262500153	0.4328423832489487
-0.47222518746875153	0.4294571093324874
-0.47216415231250153	0.4260814249800428
-0.47210311715625153	0.4225739797790547
-0.47204208200000153	0.4188432414307686
-0.47198104684375153	0.4148968003780908
-0.47192001168750153	0.4108379312459654
-0.47185897653125153	0.40681097826838086
-0.47179794137500153	0.4029247078527102
-0.47173690621875153	0.39919472239408366
-0.47167587106250153	0.395535779775858
-0.47161483590625153	0.39180791219166633
-0.47155380075000153	0.38789131800574617
-0.47149276559375153	0.38374977479958156
-0.47143173043750153	0.3794488542123483
-0.47137069528125153	0.3751197923830288
-0.47130966012500153	0.37088906018842976
-0.47124862496875153	0.36681174465373445
-0.47118758981250153	0.3628441687464791
-0.47112655465625153	0.3588694842272289
-0.47106551950000153	0.3547614193072767
-0.47100448434375153	0.35045138557086924
-0.47094344918750153	0.3459632087133429
-0.47088241403125153	0.3413979346123698
-0.47082137887500153	0.33687820413007735
-0.47076034371875153	0.33248294764001224
-0.47069930856250153	0.3282074222054429
-0.47063827340625153	0.3239689569806444
-0.47057723825000153	0.31965371099491585
-0.47051620309375153	0.31517816625795114
-0.47045516793750153	0.310532235585167
-0.47039413278125153	0.3057818262314133
-0.47033309762500153	0.3010310593407289
-0.47027206246875153	0.2963657673287466
-0.47021102731250153	0.29180902328803815
