Time	Frequency
-0.5000114424374971	1.1822561433875222e-22
-0.49995040728124707	1.1972278667240432e-22
-0.49988937212499707	1.212116131915933e-22
-0.49982833696874707	1.2269195523660287e-22
-0.49976730181249707	1.2416246418735084e-22
-0.49970626665624707	1.2562262774014257e-22
-0.49964523149999707	1.2707324609190543e-22
-0.49958419634374707	1.2851482257215375e-22
-0.49952316118749707	1.299466745178934e-22
-0.49946212603124707	1.3136800590740422e-22
-0.49940109087499707	1.3277894363667904e-22
-0.49934005571874707	1.3417996507266335e-22
-0.49927902056249707	1.3557094305519914e-22
-0.49921798540624707	1.3695135917896593e-22
-0.49915695024999707	1.3832103571853995e-22
-0.49909591509374707	1.3968009617437597e-22
-0.49903487993749707	1.4102846719530143e-22
-0.49897384478124707	1.4236591079039138e-22
-0.49891280962499707	1.4369237252132514e-22
-0.49885177446874707	1.4500784678395793e-22
-0.49879073931249707	1.4631205497948097e-22
-0.49872970415624707	1.4760471169577733e-22
-0.49866866899999707	1.488859544767405e-22
-0.49860763384374707	1.501560143019991e-22
-0.49854659868749707	1.514145833344027e-22
-0.49848556353124707	1.5266106287236995e-22
-0.49842452837499707	1.538954115405812e-22
-0.49836349321874707	1.5511814664751521e-22
-0.49830245806249707	1.5632934405086009e-22
-0.49824142290624707	1.5752825613407717e-22
-0.49818038774999707	1.5871432726020117e-22
-0.49811935259374707	1.598880068910551e-22
-0.49805831743749707	1.6104991442468507e-22
-0.49799728228124707	1.6219964537677057e-22
-0.49793624712499707	1.6333622771084668e-22
-0.49787521196874707	1.6445954527056542e-22
-0.49781417681249707	1.6557038980225693e-22
-0.49775314165624707	1.6666903483096808e-22
-0.49769210649999707	1.6775466002568912e-22
-0.49763107134374707	1.6882654048829142e-22
-0.49757003618749707	1.6988505460048125e-22
-0.49750900103124707	1.7093091774445203e-22
-0.49744796587499707	1.7196390558173872e-22
-0.49738693071874707	1.7298309854934375e-22
-0.49732589556249707	1.7398822094376305e-22
-0.49726486040624707	1.749799158198661e-22
-0.49720382524999707	1.759585516955308e-22
-0.49714279009374707	1.7692352440277978e-22
-0.49708175493749707	1.7787414781412578e-22
-0.49702071978124707	1.788106201368834e-22
-0.49695968462499707	1.797335175134663e-22
-0.49689864946874707	1.8064273014735298e-22
-0.49683761431249707	1.815375740656577e-22
-0.49677657915624707	1.8241780913555806e-22
-0.49671554399999707	1.8328387354200978e-22
-0.49665450884374707	1.8413600354003945e-22
-0.49659347368749707	1.8497373740199616e-22
-0.49653243853124707	1.8579660822855714e-22
-0.49647140337499707	1.866048109317409e-22
-0.49641036821874707	1.8739872382242273e-22
-0.49634933306249707	1.8817813940415814e-22
-0.49628829790624707	1.889425117272544e-22
-0.49622726274999707	1.8969178215537356e-22
-0.49616622759374707	1.904263738392874e-22
-0.49610519243749707	1.9114635934690337e-22
-0.49604415728124707	1.9185122957991303e-22
-0.49598312212499707	1.9254066573174738e-22
-0.49592208696874707	1.9321498180612047e-22
-0.49586105181249707	1.9387448533463749e-22
-0.49580001665624707	1.9451886274715182e-22
-0.49573898149999707	1.951476213049925e-22
-0.49567794634374707	1.9576081823609884e-22
-0.49561691118749707	1.9635885529593326e-22
-0.49555587603124707	1.9694171071434752e-22
-0.49549484087499707	1.9750891179532014e-22
-0.49543380571874707	1.9806026398642176e-22
-0.49537277056249707	1.985960747330323e-22
-0.49531173540624707	1.9911652779778489e-22
-0.49525070024999707	1.99621312984007e-22
-0.49518966509374707	2.0011010846436647e-22
-0.49512862993749707	2.0058304231631859e-22
-0.49506759478124707	2.0104036647754117e-22
-0.49500655962499707	2.0148195181097456e-22
-0.49494552446874707	2.0190746820190596e-22
-0.49488448931249707	2.023169042453019e-22
-0.49482345415624707	2.0271050994082985e-22
-0.49476241899999707	2.0308827465695756e-22
-0.49470138384374707	2.0344987891267618e-22
-0.49464034868749707	2.0379521236205689e-22
-0.49457931353124707	2.0412452266077204e-22
-0.49451827837499707	2.0443791457670247e-22
-0.49445724321874707	2.0473509935261262e-22
-0.49439620806249707	2.0501584989822851e-22
-0.49433517290624707	2.0528035756444084e-22
-0.49427413774999707	2.055288593270582e-22
-0.49421310259374707	2.057611735478172e-22
-0.49415206743749707	2.0597695963416533e-22
-0.49409103228124707	2.0617627542819726e-22
-0.49402999712499707	2.063594542838324e-22
-0.49396896196874707	2.0652649159946173e-22
-0.49390792681249707	2.0667701326399393e-22
-0.49384689165624707	2.0681089094885033e-22
-0.49378585649999707	2.0692843137145666e-22
-0.49372482134374707	2.070298205387106e-22
-0.49366378618749707	2.0711478952589587e-22
-0.49360275103124707	2.0718305361499473e-22
-0.49354171587499707	2.0723477340165772e-22
-0.49348068071874707	2.0727027478233662e-22
-0.49341964556249707	2.0728948831218192e-22
-0.49335861040624707	2.072920439067515e-22
-0.49329757524999707	2.0727787640331455e-22
-0.49323654009374707	2.0724732709629286e-22
-0.49317550493749707	2.0720057470040764e-22
-0.49311446978124707	2.0713734467239642e-22
-0.49305343462499707	2.0705735917089469e-22
-0.49299239946874707	2.0696078219245329e-22
-0.49293136431249707	2.0684794825337414e-22
-0.49287032915624707	2.0671883109435447e-22
-0.49280929399999707	2.0657310905812401e-22
-0.49274825884374707	2.0641069830825178e-22
-0.49268722368749707	2.0623188537684482e-22
-0.49262618853124707	2.0603686731386878e-22
-0.49256515337499707	2.058254633675084e-22
-0.49250411821874707	2.0559744262758772e-22
-0.49244308306249707	2.0535289787363002e-22
-0.49238204790624707	2.0509208454376218e-22
-0.49232101274999707	2.048150465351543e-22
-0.49225997759374707	2.0452161929770649e-22
-0.49219894243749707	2.0421172647735801e-22
-0.49213790728124707	2.038854816172678e-22
-0.49207687212499707	2.0354301687173702e-22
-0.49201583696874707	2.0318434758507985e-22
-0.49195480181249707	2.028094173480435e-22
-0.49189376665624707	2.0241820997810588e-22
-0.49183273149999707	2.0201078694949018e-22
-0.49177169634374707	2.0158722351774692e-22
-0.49171066118749707	2.0114754772810385e-22
-0.49164962603124707	2.0069176030255915e-22
-0.49158859087499707	2.0021987961684497e-22
-0.49152755571874707	1.9973195317077397e-22
-0.49146652056249707	1.9922803678403444e-22
-0.49140548540624707	1.9870816300502416e-22
-0.49134445024999707	1.9817234623347063e-22
-0.49128341509374707	1.9762061657391687e-22
-0.49122237993749707	1.9705302270643242e-22
-0.49116134478124707	1.9646961854050768e-22
-0.49110030962499707	1.95870459677886e-22
-0.49103927446874707	1.9525558897086675e-22
-0.49097823931249707	1.9462502871069558e-22
-0.49091720415624707	1.9397880836952461e-22
-0.49085616899999707	1.9331698955069075e-22
-0.49079513384374707	1.9263964621512186e-22
-0.49073409868749707	1.9194683337729206e-22
-0.49067306353124707	1.9123858175187357e-22
-0.49061202837499707	1.9051491543297347e-22
-0.49055099321874707	1.897758869795128e-22
-0.49048995806249707	1.8902159073828187e-22
-0.49042892290624707	1.8825211338638005e-22
-0.49036788774999707	1.8746748172693146e-22
-0.49030685259374707	1.8666770222371565e-22
-0.49024581743749707	1.8585284996635323e-22
-0.49018478228124707	1.8502304852713918e-22
-0.49012374712499707	1.8417835650242652e-22
-0.49006271196874707	1.8331876738344527e-22
-0.49000167681249707	1.8244432761275702e-22
-0.48994064165624707	1.8155517200995974e-22
-0.48987960649999707	1.806514172528232e-22
-0.48981857134374707	1.7973308096298892e-22
-0.48975753618749707	1.788001650785205e-22
-0.48969650103124707	1.778527655025583e-22
-0.48963546587499707	1.7689102588897418e-22
-0.48957443071874707	1.7591502532853048e-22
-0.48951339556249707	1.7492477081185456e-22
-0.48945236040624707	1.7392029571452748e-22
-0.48939132524999707	1.7290173486514967e-22
-0.48933029009374707	1.7186924022161994e-22
-0.48926925493749707	1.7082283612784072e-22
-0.48920821978124707	1.6976248877058374e-22
-0.48914718462499707	1.6868830529823285e-22
-0.48908614946874707	1.676005095130242e-22
-0.48902511431249707	1.6649922358481929e-22
-0.48896407915624707	1.653844112508764e-22
-0.48890304399999707	1.6425606543977181e-22
-0.48884200884374707	1.6311433875607192e-22
-0.48878097368749707	1.6195943140567204e-22
-0.48871993853124707	1.607914250640681e-22
-0.48865890337499707	1.5961029682359557e-22
-0.48859786821874707	1.5841609301294147e-22
-0.48853683306249707	1.572090061465461e-22
-0.48847579790624707	1.559892144226743e-22
-0.48841476274999707	1.5475674262523153e-22
-0.48835372759374707	1.53511577613281e-22
-0.48829269243749707	1.5225383770473408e-22
-0.48823165728124707	1.5098372374775742e-22
-0.48817062212499707	1.497013551256116e-22
-0.48810958696874707	1.4840676217236545e-22
-0.48804855181249707	1.4710001050294025e-22
-0.48798751665624707	1.4578123599099008e-22
-0.48792648149999707	1.4445056512823485e-22
-0.48786544634374707	1.4310807635126387e-22
-0.48780441118749707	1.4175385329374885e-22
-0.48774337603124707	1.403880215455927e-22
-0.48768234087499707	1.3901070813696126e-22
-0.48762130571874707	1.3762200871337237e-22
-0.48756027056249707	1.3622201749532455e-22
-0.48749923540624707	1.3481084762223409e-22
-0.48743820024999707	1.3338862062237397e-22
-0.48737716509374707	1.3195546688438384e-22
-0.48731612993749707	1.3051151226355547e-22
-0.48725509478124707	1.290568427671228e-22
-0.48719405962499707	1.2759151834101732e-22
-0.48713302446874707	1.2611564864269232e-22
-0.48707198931249707	1.2462941376949675e-22
-0.48701095415624707	1.2313296889014985e-22
-0.48694991899999707	1.2162637648319133e-22
-0.48688888384374707	1.2010969918417348e-22
-0.48682784868749707	1.1858310667734713e-22
-0.48676681353124707	1.1704679462119802e-22
-0.48670577837499707	1.1550083855010872e-22
-0.48664474321874707	1.1394525779965516e-22
-0.48658370806249707	1.123802080513854e-22
-0.48652267290624707	1.108059299006095e-22
-0.48646163774999707	1.0922252249191506e-22
-0.48640060259374707	1.076299836654246e-22
-0.48633956743749707	1.0602844642219719e-22
-0.48627853228124707	1.0441817260094094e-22
-0.48621749712499707	1.0279931977593902e-22
-0.48615646196874707	1.0117188398760822e-22
-0.48609542681249707	9.953591955740493e-23
-0.48603439165624707	9.789167487118246e-23
-0.48597335649999707	9.623939487672127e-23
-0.48591232134374707	9.457911454431405e-23
-0.48585128618749707	9.291082208285106e-23
-0.48579025103124707	9.123470962270633e-23
-0.48572921587499707	8.955106471956697e-23
-0.48566818071874707	8.785999846316879e-23
-0.48560714556249707	8.616147584187804e-23
-0.48554611040624707	8.445559867245971e-23
-0.48548507524999707	8.27426799772762e-23
-0.48542404009374707	8.102296586297819e-23
-0.48536300493749707	7.929644830295101e-23
-0.48530196978124707	7.756309907693338e-23
-0.48524093462499707	7.582313266964462e-23
-0.48517989946874707	7.407686212874268e-23
-0.48511886431249707	7.23244071919808e-23
-0.48505782915624707	7.056573100915047e-23
-0.48499679399999707	6.880093745865897e-23
-0.48493575884374707	6.703034220959038e-23
-0.48487472368749707	6.525419554179681e-23
-0.48481368853124707	6.347249753671481e-23
-0.48475265337499707	6.168522151733415e-23
-0.48469161821874707	5.98926042406057e-23
-0.48463058306249707	5.809499414753122e-23
-0.48456954790624707	5.629248143910852e-23
-0.48450851274999707	5.448496580430572e-23
-0.48444747759374707	5.2672587730215447e-23
-0.48438644243749707	5.085576441972196e-23
-0.48432540728124707	4.903471055238396e-23
-0.48426437212499707	4.720928585033731e-23
-0.48420333696874707	4.5379504062059235e-23
-0.48414230181249707	4.354580582085316e-23
-0.48408126665624707	4.1708547024984847e-23
-0.48402023149999707	3.9867608347186754e-23
-0.48395919634374707	3.802286442593339e-23
-0.48389816118749707	3.617467427629893e-23
-0.48383712603124707	3.432349156600409e-23
-0.48377609087499707	3.24692945766752e-23
-0.48371505571874707	3.0611890293066767e-23
-0.48365402056249707	2.875154683042532e-23
-0.48359298540624707	2.6888784277019234e-23
-0.48353195024999707	2.502370913787725e-23
-0.48347091509374707	2.315609713535194e-23
-0.48340987993749707	2.1286062797581227e-23
-0.48334884478124707	1.941413226046026e-23
-0.48328780962499707	1.7540593512941678e-23
-0.48322677446874707	1.5665249525195264e-23
-0.48316573931249707	1.3787999546819002e-23
-0.48310470415624707	1.1909265687541019e-23
-0.48304366899999707	1.0029536228522457e-23
-0.48298263384374707	8.148778358463421e-24
-0.48292159868749707	6.266747994759856e-24
-0.48286056353124707	4.38369028493843e-24
-0.48279952837499707	2.500186664852283e-24
-0.48273849321874707	6.16408991062919e-25
-0.48267745806249707	-1.2679117672485225e-24
-0.48261642290624707	-3.1527632577397672e-24
-0.48255538774999707	-5.0376218517437714e-24
-0.48249435259374707	-6.922098125962098e-24
-0.48243331743749707	-8.806332534908392e-24
-0.48237228228124707	-1.0690470083392578e-23
-0.48231124712499707	-1.2574157878213179e-23
-0.48225021196874707	-1.445690617417571e-23
-0.48218917681249707	-1.633865238928054e-23
-0.48212814165624707	-1.821960010120464e-23
-0.48206710649999707	-2.0099638403450283e-23
-0.48200607134374707	-2.197829855668788e-23
-0.48194503618749707	-2.385527503691795e-23
-0.48188400103124707	-2.5730630798137572e-23
-0.48182296587499707	-2.760441146827718e-23
-0.48176193071874707	-2.9476361139683645e-23
-0.48170089556249707	-3.1346153006763624e-23
-0.48163986040624707	-3.3213671165175443e-23
-0.48157882524999707	-3.5078895915464187e-23
-0.48151779009374707	-3.694165889950514e-23
-0.48145675493749707	-3.88016989712352e-23
-0.48139571978124707	-4.065887133250289e-23
-0.48133468462499707	-4.2513121291249055e-23
-0.48127364946874707	-4.4364307567285954e-23
-0.48121261431249707	-4.62121994169577e-23
-0.48115157915624707	-4.805663160755159e-23
-0.48109054399999707	-4.989752780528642e-23
-0.48102950884374707	-5.1734745444978965e-23
-0.48096847368749707	-5.356805163705931e-23
-0.48090743853124707	-5.539729472675835e-23
-0.48084640337499707	-5.722243281247464e-23
-0.48078536821874707	-5.904333439072384e-23
-0.48072433306249707	-6.08597095058645e-23
-0.48066329790624707	-6.267134377446714e-23
-0.48060226274999707	-6.447825106790686e-23
-0.48054122759374707	-6.628041193434858e-23
-0.48048019243749707	-6.80775155871785e-23
-0.48041915728124707	-6.986923361341347e-23
-0.48035812212499707	-7.165556522060647e-23
-0.48029708696874707	-7.343657386339263e-23
-0.48023605181249707	-7.521200249525287e-23
-0.48017501665624707	-7.698149749400536e-23
-0.48011398149999707	-7.874498740612314e-23
-0.48005294634374707	-8.050252140904056e-23
-0.47999191118749707	-8.225391212289823e-23
-0.47993087603124707	-8.399881394886183e-23
-0.47986984087499707	-8.573707115352744e-23
-0.47980880571874707	-8.746874556209329e-23
-0.47974777056249707	-8.919377614013944e-23
-0.47968673540624707	-9.091184675807647e-23
-0.47962570024999707	-9.262268874825711e-23
-0.47956466509374707	-9.432629430551347e-23
-0.47950362993749707	-9.602268970328926e-23
-0.47944259478124707	-9.771165303930133e-23
-0.47938155962499707	-9.939283154529158e-23
-0.47932052446874707	-1.0106607455567604e-22
-0.47925948931249707	-1.0273146609383585e-22
-0.47919845415624707	-1.0438899682216675e-22
-0.47913741899999707	-1.0603835386855485e-22
-0.47907638384374707	-1.0767917545463946e-22
-0.47901534868749707	-1.0931142216573125e-22
-0.47895431353124707	-1.1093525481820556e-22
-0.47889327837499707	-1.125505535829766e-22
-0.47883224321874707	-1.1415684878967484e-22
-0.47877120806249707	-1.1575385608307223e-22
-0.47871017290624707	-1.1734178866517572e-22
-0.47864913774999707	-1.189208201199904e-22
-0.47858810259374707	-1.2049050014404929e-22
-0.47852706743749707	-1.2205021807205848e-22
-0.47846603228124707	-1.2360004967933058e-22
-0.47840499712499707	-1.2514049177442039e-22
-0.47834396196874707	-1.266714281196448e-22
-0.47828292681249707	-1.2819206319296322e-22
-0.47822189165624707	-1.297020181128583e-22
-0.47816085649999707	-1.312017920679391e-22
-0.47809982134374707	-1.3269171999939298e-22
-0.47803878618749707	-1.3417113415826388e-22
-0.47797775103124707	-1.3563926197179716e-22
-0.47791671587499707	-1.370963887930889e-22
-0.47785568071874707	-1.3854320815926998e-22
-0.47779464556249707	-1.399794077526954e-22
-0.47773361040624707	-1.4140395829139716e-22
-0.47767257524999707	-1.4281667234273106e-22
-0.47761154009374707	-1.4421834108767674e-22
-0.47755050493749707	-1.456091695222023e-22
-0.47748946978124707	-1.4698822203307035e-22
-0.47742843462499707	-1.4835484212027467e-22
-0.47736739946874707	-1.4970957217723133e-22
-0.47730636431249707	-1.5105300566305602e-22
-0.47724532915624707	-1.523845677571023e-22
-0.47718429399999707	-1.5370330270647723e-22
-0.47712325884374707	-1.550093172181392e-22
-0.47706222368749707	-1.5630342428791218e-22
-0.47700118853124707	-1.5758557956520477e-22
-0.47694015337499707	-1.588547705776172e-22
-0.47687911821874707	-1.601105724673889e-22
-0.47681808306249707	-1.6135370452408612e-22
-0.47675704790624707	-1.625846038779089e-22
-0.47669601274999707	-1.6380245846859924e-22
-0.47663497759374707	-1.6500640007976266e-22
-0.47657394243749707	-1.6619685616168375e-22
-0.47651290728124707	-1.6737469184695908e-22
-0.47645187212499707	-1.6853953165434377e-22
-0.47639083696874707	-1.6969017541032214e-22
-0.47632980181249707	-1.7082648825542708e-22
-0.47626876665624707	-1.7194951718010087e-22
-0.47620773149999707	-1.7305953438179527e-22
-0.47614669634374707	-1.7415534182303728e-22
-0.47608566118749707	-1.75236146904412e-22
-0.47602462603124707	-1.7630283446997489e-22
-0.47596359087499707	-1.773563238160582e-22
-0.47590255571874707	-1.783957535648095e-22
-0.47584152056249707	-1.7941972529877677e-22
-0.47578048540624707	-1.8042860653309859e-22
-0.47571945024999707	-1.8142386360051105e-22
-0.47565841509374707	-1.824053694638879e-22
-0.47559737993749707	-1.833713265775638e-22
-0.47553634478124707	-1.8432120312567556e-22
-0.47547530962499707	-1.8525668893484352e-22
-0.47541427446874707	-1.8617868971795539e-22
-0.47535323931249707	-1.8708541624544356e-22
-0.47529220415624707	-1.8797525222110851e-22
-0.47523116899999707	-1.88849626291874e-22
-0.47517013384374707	-1.8971052082868448e-22
-0.47510909868749707	-1.905566961350957e-22
-0.47504806353124707	-1.9138555813554965e-22
-0.47498702837499707	-1.9219773395134186e-22
-0.47492599321874707	-1.9299607881646106e-22
-0.47486495806249707	-1.9378044364908515e-22
-0.47480392290624707	-1.9454753795684143e-22
-0.47474288774999707	-1.9529662273036765e-22
-0.47468185259374707	-1.9603102031086392e-22
-0.47462081743749707	-1.9675223701803976e-22
-0.47455978228124707	-1.974568655297271e-22
-0.47449874712499707	-1.981422631332941e-22
-0.47443771196874707	-1.9881138672671468e-22
-0.47437667681249707	-1.994678124914125e-22
-0.47431564165624707	-2.0010915393348125e-22
-0.47425460649999707	-2.0073075491359697e-22
-0.47419357134374707	-2.013338175837621e-22
-0.47413253618749707	-2.0192360911199903e-22
-0.47407150103124707	-2.025002188854331e-22
-0.47401046587499707	-2.0305791464540748e-22
-0.47394943071874707	-2.0359485198714342e-22
-0.47388839556249707	-2.041165209549691e-22
-0.47382736040624707	-2.0462640398687542e-22
-0.47376632524999707	-2.0511960824843676e-22
-0.47370529009374707	-2.0559089830400065e-22
-0.47364425493749707	-2.0604380471760307e-22
-0.47358321978124707	-2.0648484376256353e-22
-0.47352218462499707	-2.069121660815653e-22
-0.47346114946874707	-2.0731823127693288e-22
-0.47340011431249707	-2.077026180592852e-22
-0.47333907915624707	-2.0807315223459818e-22
-0.47327804399999707	-2.0843265464204567e-22
-0.47321700884374707	-2.0877353922743751e-22
-0.47315597368749707	-2.0909030036322347e-22
-0.47309493853124707	-2.0938936599226559e-22
-0.47303390337499707	-2.0967873648538836e-22
-0.47297286821874707	-2.0995387046391912e-22
-0.47291183306249707	-2.1020444785424558e-22
-0.47285079790624707	-2.104321075391466e-22
-0.47278976274999707	-2.106487999015175e-22
-0.47272872759374707	-2.108566080862032e-22
-0.47266769243749707	-2.1104283851595835e-22
-0.47260665728124707	-2.1120079566120795e-22
-0.47254562212499707	-2.1134238854552573e-22
-0.47248458696874707	-2.1147934021929392e-22
-0.47242355181249707	-2.1160240300292089e-22
-0.47236251665624707	-2.1169493106616016e-22
