Time	Frequency
-0.5000495894062453	-0.650734074826313
-0.49998855424999533	-0.6485634891186751
-0.49992751909374533	-0.6463122329082921
-0.49986648393749533	-0.6439794441360768
-0.49980544878124533	-0.6415656819638557
-0.49974441362499533	-0.6390724944487463
-0.49968337846874533	-0.6365003571584744
-0.49962234331249533	-0.6338483647007446
-0.49956130815624533	-0.6311161804889796
-0.49950027299999533	-0.6283050669385843
-0.49943923784374533	-0.6254163466404284
-0.49937820268749533	-0.6224498147344719
-0.49931716753124533	-0.6194046705014266
-0.49925613237499533	-0.6162814234019012
-0.49919509721874533	-0.6130816571183816
-0.49913406206249533	-0.6098060412639715
-0.49907302690624533	-0.6064538582835942
-0.49901199174999533	-0.6030248384822712
-0.49895095659374533	-0.5995202886927348
-0.49888992143749533	-0.5959416338023968
-0.49882888628124533	-0.5922887496078305
-0.49876785112499533	-0.5885608508493326
-0.49870681596874533	-0.5847584777491501
-0.49864578081249533	-0.5808833138298903
-0.49858474565624533	-0.5769361937400165
-0.49852371049999533	-0.572916581510557
-0.49846267534374533	-0.5688242977060398
-0.49840164018749533	-0.564660614996717
-0.49834060503124533	-0.5604269321141404
-0.49827956987499533	-0.5561232561057912
-0.49821853471874533	-0.5517490446130674
-0.49815749956249533	-0.54730498308204
-0.49809646440624533	-0.5427927231501122
-0.49803542924999533	-0.5382130631559873
-0.49797439409374533	-0.533565581277439
-0.49791335893749533	-0.5288502812622449
-0.49785232378124533	-0.5240685223714601
-0.49779128862499533	-0.5192216976707509
-0.49773025346874533	-0.5143098834095705
-0.49766921831249533	-0.5093327159590115
-0.49760818315624533	-0.5042909959922499
-0.49754714799999533	-0.49918634409538387
-0.49748611284374533	-0.49401951532556415
-0.49742507768749533	-0.488790205874097
-0.49736404253124533	-0.48349864919435304
-0.49730300737499533	-0.47814631186117074
-0.49724197221874533	-0.4727345416300063
-0.49718093706249533	-0.4672633952316366
-0.49711990190624533	-0.4617326183113744
-0.49705886674999533	-0.4561432150251408
-0.49699783159374533	-0.45049696393427036
-0.49693679643749533	-0.4447946402387271
-0.49687576128124533	-0.4390358967418739
-0.49681472612499533	-0.4332209959190326
-0.49675369096874533	-0.42735153129985715
-0.49669265581249533	-0.421428944020044
-0.49663162065624533	-0.4154532865810938
-0.49657058549999533	-0.40942434030764147
-0.49650955034374533	-0.4033432541125786
-0.49644851518749533	-0.39721189685467556
-0.49638748003124533	-0.39103100519477335
-0.49632644487499533	-0.3848002358179396
-0.49626540971874533	-0.37851999019221483
-0.49620437456249533	-0.37219205976804914
-0.49614333940624533	-0.3658180239424124
-0.49608230424999533	-0.3593979140638313
-0.49602126909374533	-0.3529314359780649
-0.49596023393749533	-0.3464198502548437
-0.49589919878124533	-0.33986525992154226
-0.49583816362499533	-0.33326834621423473
-0.49577712846874533	-0.32662841043205876
-0.49571609331249533	-0.3199458575212524
-0.49565505815624533	-0.3132230446819818
-0.49559402299999533	-0.3064619060450441
-0.49553298784374533	-0.29966211212687477
-0.49547195268749533	-0.29282291663556503
-0.49541091753124533	-0.2859458318079713
-0.49534988237499533	-0.27903362395276976
-0.49528884721874533	-0.27208712952621683
-0.49522781206249533	-0.26510520365231766
-0.49516677690624533	-0.2580880311816606
-0.49510574174999533	-0.25103838788157495
-0.49504470659374533	-0.24395861627467985
-0.49498367143749533	-0.23684810751590277
-0.49492263628124533	-0.22970553859739937
-0.49486160112499533	-0.22253250452625767
-0.49480056596874533	-0.21533259025101484
-0.49473953081249533	-0.20810702416130958
-0.49467849565624533	-0.20085396388472782
-0.49461746049999533	-0.19357293930150526
-0.49455642534374533	-0.18626728137969306
-0.49449539018749533	-0.17894029303455553
-0.49443435503124533	-0.17159122530313395
-0.49437331987499533	-0.16421782217397482
-0.49431228471874533	-0.15682160887690963
-0.49425124956249533	-0.14940716333312726
-0.49419021440624533	-0.14197614682042276
-0.49412917924999533	-0.1345258176753138
-0.49406814409374533	-0.1270548712214526
-0.49400710893749533	-0.11956735232262539
-0.49394607378124533	-0.1120678998882173
-0.49388503862499533	-0.10455557523530289
-0.49382400346874533	-0.09702652295969638
-0.49376296831249533	-0.08948176870964429
-0.49370193315624533	-0.08192756759324284
-0.49364089799999533	-0.07436700444057592
-0.49357986284374533	-0.06679605179806596
-0.49351882768749533	-0.059211205558429854
-0.49345779253124533	-0.05161706096375016
-0.49339675737499533	-0.04402100670723674
-0.49333572221874533	-0.036422684487791665
-0.49327468706249533	-0.028815522711685974
-0.49321365190624533	-0.021198845520598367
-0.49315261674999533	-0.013581156378922543
-0.49309158159374533	-0.005968328234109575
-0.49303054643749533	0.0016449731820610207
-0.49296951128124533	0.0092658934153806
-0.49290847612499533	0.01688986607764419
-0.49284744096874533	0.024505322474174227
-0.49278640581249533	0.03211073798724466
-0.49272537065624533	0.03971673158858432
-0.49266433549999533	0.0473280646736722
-0.49260330034374533	0.05493344141339821
-0.49254226518749533	0.06252097577232577
-0.49248123003124533	0.07009630192393894
-0.49242019487499533	0.0776735060179293
-0.49235915971874533	0.08525104544095834
-0.49229812456249533	0.09281095216667795
-0.49223708940624533	0.10034517896164824
-0.49217605424999533	0.10786845276228726
-0.49211501909374533	0.11539491556947856
-0.49205398393749533	0.12291322986595123
-0.49199294878124533	0.13040093733557043
-0.49193191362499533	0.13785843821407018
-0.49187087846874533	0.14530895991118348
-0.49180984331249533	0.15276145704548735
-0.49174880815624533	0.1601933802162485
-0.49168777299999533	0.16758280988066912
-0.49162673784374533	0.17494213148300283
-0.49156570268749533	0.18229932575802613
-0.49150466753124533	0.18965305306685268
-0.49144363237499533	0.1969714517856104
-0.49138259721874533	0.20423921251805435
-0.49132156206249533	0.21148091821367485
-0.49126052690624533	0.2187227589502537
-0.49119949174999533	0.22595042169505367
-0.49113845659374533	0.23312890198982453
-0.49107742143749533	0.24025475211670977
-0.49101638628124533	0.24736008907409127
-0.49095535112499533	0.2544618862765245
-0.49089431596874533	0.26153492256360783
-0.49083328081249533	0.2685497179550227
-0.49077224565624533	0.27551605889883546
-0.49071121049999533	0.28246536231331554
-0.49065017534374533	0.28940078948884534
-0.49058914018749533	0.29629245066778714
-0.49052810503124533	0.3031230462949422
-0.49046706987499533	0.3099119940840275
-0.49040603471874533	0.31668248334563714
-0.49034499956249533	0.32342484724610115
-0.49028396440624533	0.3301121031685904
-0.49022292924999533	0.3367406703733667
-0.49016189409374533	0.34333281064670723
-0.49010085893749533	0.34989973548620007
-0.49003982378124533	0.356424118524831
-0.48997878862499533	0.36288718708551987
-0.48991775346874533	0.3692960101988997
-0.48985671831249533	0.3756695266653257
-0.48979568315624533	0.3820076956087026
-0.48973464799999533	0.3882919077958328
-0.48967361284374533	0.39451349678495784
-0.48961257768749533	0.40068479617046426
-0.48955154253124533	0.406817402647824
-0.48949050737499533	0.41290335334638584
-0.48942947221874533	0.418927655580638
-0.48936843706249533	0.4248905690335246
-0.48930740190624533	0.4308047786227529
-0.48924636674999533	0.4366737924648343
-0.48918533159374533	0.44248617790984274
-0.48912429643749533	0.4482331497695718
-0.48906326128124533	0.4539206648315333
-0.48900222612499533	0.45955795109475095
-0.48894119096874533	0.4651419054265423
-0.48888015581249533	0.47066164480500683
-0.48881912065624533	0.47611476379326706
-0.48875808549999533	0.4815093856932685
-0.48869705034374533	0.48684977910555155
-0.48863601518749533	0.49212888840564817
-0.48857498003124533	0.4973389014684451
-0.48851394487499533	0.5024823372251843
-0.48845290971874533	0.5075664799397636
-0.48839187456249533	0.5125908208219185
-0.48833083940624533	0.5175472910458984
-0.48826980424999533	0.5224321181357865
-0.48820876909374533	0.5272503536067731
-0.48814773393749533	0.5320065822604294
-0.48808669878124533	0.5366969709483331
-0.48802566362499533	0.5413147491832455
-0.48796462846874533	0.5458598050214173
-0.48790359331249533	0.5503374409001106
-0.48784255815624533	0.5547489944119022
-0.48778152299999533	0.5590892368284981
-0.48772048784374533	0.5633539576969505
-0.48765945268749533	0.5675453839750041
-0.48759841753124533	0.571667397115273
-0.48753738237499533	0.5757186706966156
-0.48747634721874533	0.5796943284993508
-0.48741531206249533	0.5835928876683218
-0.48735427690624533	0.587417445697201
-0.48729324174999533	0.5911697384824708
-0.48723220659374533	0.5948467673762288
-0.48717117143749533	0.5984450213845186
-0.48711013628124533	0.6019652048239328
-0.48704910112499533	0.6054101059084888
-0.48698806596874533	0.6087794099130559
-0.48692703081249533	0.6120697020688384
-0.48686599565624533	0.6152792697330801
-0.48680496049999533	0.6184099519864217
-0.48674392534374533	0.6214633921030704
-0.48668289018749533	0.6244378727899672
-0.48662185503124533	0.6273305773373867
-0.48656081987499533	0.6301413678548791
-0.48649978471874533	0.6328721549028584
-0.48643874956249533	0.6355232202418234
-0.48637771440624533	0.6380923918428102
-0.48631667924999533	0.6405780670075859
-0.48625564409374533	0.6429810859089884
-0.48619460893749533	0.6453026714152968
-0.48613357378124533	0.6475419782597198
-0.48607253862499533	0.6496971019828136
-0.48601150346874533	0.6517676870558021
-0.48595046831249533	0.6537549057356243
-0.48588943315624533	0.6556590323350816
-0.48582839799999533	0.6574786300428535
-0.48576736284374533	0.6592125304299894
-0.48570632768749533	0.6608612692701468
-0.48564529253124533	0.6624257359075992
-0.48558425737499533	0.6639053662681675
-0.48552322221874533	0.6652987809274798
-0.48546218706249533	0.6666057008300412
-0.48540115190624533	0.6678270075679644
-0.48534011674999533	0.6689629630724101
-0.48527908159374533	0.6700125440085473
-0.48521804643749533	0.6709748920420081
-0.48515701128124533	0.671850437477329
-0.48509597612499533	0.6726399047208115
-0.48503494096874533	0.673342902891407
-0.48497390581249533	0.673958397332961
-0.48491287065624533	0.6744862298055765
-0.48485183549999533	0.6749271952387902
-0.48479080034374533	0.6752815849202292
-0.48472976518749533	0.6755485829371553
-0.48466873003124533	0.6757274872003765
-0.48460769487499533	0.6758187631694785
-0.48454665971874533	0.6758232208977347
-0.48448562456249533	0.6757406468195948
-0.48442458940624533	0.6755701022674133
-0.48436355424999533	0.6753114154380677
-0.48430251909374533	0.6749654627064212
-0.48424148393749533	0.6745327744798331
-0.48418044878124533	0.6740127026949925
-0.48411941362499533	0.6734044988608144
-0.48405837846874533	0.6727085937425249
-0.48399734331249533	0.6719260276227125
-0.48393630815624533	0.6710569106006247
-0.48387527299999533	0.6701003548731195
-0.48381423784374533	0.6690559984204614
-0.48375320268749533	0.6679247312282386
-0.48369216753124533	0.6667075019688498
-0.48363113237499533	0.6654040456718812
-0.48357009721874533	0.6640134836375076
-0.48350906206249533	0.6625358844117698
-0.48344802690624533	0.6609723956960212
-0.48338699174999533	0.6593237490980545
-0.48332595659374533	0.6575894181100912
-0.48326492143749533	0.6557687072674535
-0.48320388628124533	0.6538621241324859
-0.48314285112499533	0.6518709350339442
-0.48308181596874533	0.6497955559344286
-0.48302078081249533	0.6476352537908946
-0.48295974565624533	0.64538964077808
-0.48289871049999533	0.6430596472835703
-0.48283767534374533	0.6406465109635154
-0.48277664018749533	0.6381503736740719
-0.48271560503124533	0.6355705340771025
-0.48265456987499533	0.6329069023514934
-0.48259353471874533	0.630160549749986
-0.48253249956249533	0.6273326013841705
-0.48247146440624533	0.6244230710073123
-0.48241042924999533	0.6214313303889306
-0.48234939409374533	0.6183575627293044
-0.48228835893749533	0.6152030418486274
-0.48222732378124533	0.6119687895295842
-0.48216628862499533	0.6086546205455441
-0.48210525346874533	0.60526000998776
-0.48204421831249533	0.6017854809550407
-0.48198318315624533	0.5982324316943045
-0.48192214799999533	0.5946017131278573
-0.48186111284374533	0.5908930821087175
-0.48180007768749533	0.5871062167928769
-0.48173904253124533	0.5832417862823274
-0.48167800737499533	0.5793011100731186
-0.48161697221874533	0.5752849227064099
-0.48155593706249533	0.5711930351977714
-0.48149490190624533	0.5670253704918687
-0.48143386674999533	0.5627828218288856
-0.48137283159374533	0.5584666777997845
-0.48131179643749533	0.5540774805829013
-0.48125076128124533	0.549615017662313
-0.48118972612499533	0.5450794577604487
-0.48112869096874533	0.5404719298188279
-0.48106765581249533	0.535793667661829
-0.48100662065624533	0.5310450213829125
-0.48094558549999533	0.5262258511190816
-0.48088455034374533	0.5213366367625503
-0.48082351518749533	0.5163786011353223
-0.48076248003124533	0.5113527632341017
-0.48070144487499533	0.5062593756664985
-0.48064040971874533	0.5010985397920079
-0.48057937456249533	0.49587100387764915
-0.48051833940624533	0.4905779249982261
-0.48045730424999533	0.4852200775939425
-0.48039626909374533	0.4797977490390652
-0.48033523393749533	0.47431135791885665
-0.48027419878124533	0.4687618097222656
-0.48021316362499533	0.46315013596143667
-0.48015212846874533	0.45747704049193416
-0.48009109331249533	0.4517429610492272
-0.48003005815624533	0.44594844140027695
-0.47996902299999533	0.4400943294267296
-0.47990798784374533	0.43418159503959486
-0.47984695268749533	0.4282109999843202
-0.47978591753124533	0.4221831030818326
-0.47972488237499533	0.4160985906544526
-0.47966384721874533	0.40995836602081576
-0.47960281206249533	0.4037633036469834
-0.47954177690624533	0.3975141488419473
-0.47948074174999533	0.39121164606719977
-0.47941970659374533	0.38485659289464336
-0.47935867143749533	0.37844978943006724
-0.47929763628124533	0.3719920158705534
-0.47923660112499533	0.3654840541617757
-0.47917556596874533	0.3589267150844948
-0.47911453081249533	0.35232087198343576
-0.47905349565624533	0.3456674631013681
-0.47899246049999533	0.3389673665022145
-0.47893142534374533	0.33222132678080185
-0.47887039018749533	0.32543011170876096
-0.47880935503124533	0.3185946378768875
-0.47874831987499533	0.3117158938332633
-0.47868728471874533	0.3047947704099015
-0.47862624956249533	0.2978320036737674
-0.47856521440624533	0.2908284116287525
-0.47850417924999533	0.2837850536850817
-0.47844314409374533	0.2767029380971149
-0.47838210893749533	0.269582798253529
-0.47832107378124533	0.2624253515343648
-0.47826003862499533	0.25523157577210803
-0.47819900346874533	0.24800261094894435
-0.47813796831249533	0.24073948624307867
-0.47807693315624533	0.2334429885348562
-0.47801589799999533	0.22611383439145646
-0.47795486284374533	0.21875298935759327
-0.47789382768749533	0.21136166387751937
-0.47783279253124533	0.2039409387204534
-0.47777175737499533	0.1964915623415821
-0.47771072221874533	0.1890142238345772
-0.47764968706249533	0.18150994348834912
-0.47758865190624533	0.17397996505708468
-0.47752761674999533	0.1664252722559807
-0.47746658159374533	0.15884657623504936
-0.47740554643749533	0.15124476838121423
-0.47734451128124533	0.14362099689418104
-0.47728347612499533	0.1359763520983766
-0.47722244096874533	0.12831177782960684
-0.47716140581249533	0.12062821539992646
-0.47710037065624533	0.1129266288225006
-0.47703933549999533	0.105207971081389
-0.47697830034374533	0.09747326611385865
-0.47691726518749533	0.08972357244606599
-0.47685623003124533	0.08195980866034813
-0.47679519487499533	0.07418287723045373
-0.47673415971874533	0.06639390115421753
-0.47667312456249533	0.058594061537292706
-0.47661208940624533	0.05078430639002309
-0.47655105424999533	0.04296540960305078
-0.47649001909374533	0.035138308035673395
-0.47642898393749533	0.027304243573421014
-0.47636794878124533	0.01946445497325748
-0.47630691362499533	0.011619839733037375
-0.47624587846874533	0.003771071848883479
-0.47618484331249533	-0.00408093861953188
-0.47612380815624533	-0.01193485700495742
-0.47606277299999533	-0.019789366434929106
-0.47600173784374533	-0.02764360050625911
-0.47594070268749533	-0.03549689253887178
-0.47587966753124533	-0.04334827661442971
-0.47581863237499533	-0.05119646651863936
-0.47575759721874533	-0.059040293605750714
-0.47569656206249533	-0.06687894650245318
-0.47563552690624533	-0.07471161743268508
-0.47557449174999533	-0.08253711954772151
-0.47551345659374533	-0.09035416547026405
-0.47545242143749533	-0.09816184491182116
-0.47539138628124533	-0.10595944487549969
-0.47533035112499533	-0.11374593413461771
-0.47526931596874533	-0.1215200040157063
-0.47520828081249533	-0.12928055916085873
-0.47514724565624533	-0.13702683555819237
-0.47508621049999533	-0.14475797147456826
-0.47502517534374533	-0.15247276329134787
-0.47496414018749533	-0.16017001178517667
-0.47490310503124533	-0.16784883326292763
-0.47484206987499533	-0.17550845325810258
-0.47478103471874533	-0.18314788879334884
-0.47471999956249533	-0.19076597474758708
-0.47465896440624533	-0.19836161012285727
-0.47459792924999533	-0.2059338712013464
-0.47453689409374533	-0.21348188694454764
-0.47447585893749533	-0.221004657269852
-0.47441482378124533	-0.2285011026857863
-0.47435378862499533	-0.2359702466746673
-0.47429275346874533	-0.2434111652814907
-0.47423171831249533	-0.25082285691100187
-0.47417068315624533	-0.25820428765493686
-0.47410964799999533	-0.26555449820331734
-0.47404861284374533	-0.27287264311699067
-0.47398757768749533	-0.280157848533658
-0.47392654253124533	-0.2874090381454128
-0.47386550737499533	-0.29462506748771183
-0.47380447221874533	-0.30180502778921037
-0.47374343706249533	-0.3089482400667558
-0.47368240190624533	-0.3160538642870746
-0.47362136674999533	-0.3231207399460915
-0.47356033159374533	-0.33014778286055396
-0.47349929643749533	-0.3371342164639409
-0.47343826128124533	-0.3440792434721249
-0.47337722612499533	-0.3509818350744028
-0.47331619096874533	-0.35784097074595606
-0.47325515581249533	-0.3646558512133069
-0.47319412065624533	-0.37142572566812265
-0.47313308549999533	-0.37814959699637996
-0.47307205034374533	-0.3848263375995196
-0.47301101518749533	-0.3914550785319114
-0.47294998003124533	-0.39803519328479925
-0.47288894487499533	-0.4045658959989988
-0.47282790971874533	-0.41104612717046773
-0.47276687456249533	-0.41747489345035144
-0.47270583940624533	-0.4238515018299109
-0.47264480424999533	-0.4301753214938468
-0.47258376909374533	-0.4364454469072311
-0.47252273393749533	-0.44266078444698975
-0.47246169878124533	-0.4488204539000082
-0.47240066362499533	-0.454923890302274
-0.47233962846874533	-0.46097045216779414
-0.47227859331249533	-0.46695914363986113
-0.47221755815624533	-0.47288891642553654
-0.47215652299999533	-0.4787590760787989
-0.47209548784374533	-0.48456913080721403
-0.47203445268749533	-0.49031830766621803
-0.47197341753124533	-0.49600552037918527
-0.47191238237499533	-0.5016298854899643
-0.47185134721874533	-0.5071909555809827
-0.47179031206249533	-0.5126882493386304
-0.47172927690624533	-0.5181208143527961
-0.47166824174999533	-0.5234875478554205
-0.47160720659374533	-0.5287878090415454
-0.47154617143749533	-0.5340213244164824
-0.47148513628124533	-0.5391874778086364
-0.47142410112499533	-0.544285143911712
-0.47136306596874533	-0.5493133736277238
-0.47130203081249533	-0.5542718252331135
-0.47124099565624533	-0.5591602350065704
-0.47117996049999533	-0.5639777572827077
-0.47111892534374533	-0.5687232543276642
-0.47105789018749533	-0.5733961017447898
-0.47099685503124533	-0.5779961830364132
-0.47093581987499533	-0.5825230662442115
-0.47087478471874533	-0.5869756831673933
-0.47081374956249533	-0.5913530141257962
-0.47075271440624533	-0.5956547376247358
-0.47069167924999533	-0.5998808354530335
-0.47063064409374533	-0.6040307086604143
-0.47056960893749533	-0.6081031968854038
-0.47050857378124533	-0.6120975289200404
-0.47044753862499533	-0.6160136766795125
-0.47038650346874533	-0.6198515165892783
-0.47032546831249533	-0.6236101612386493
-0.47026443315624533	-0.6272885391456383
-0.47020339799999533	-0.6308862948133911
