Time	Frequency
-0.5000381455312493	-0.4976407541054167
-0.49997711037499926	-0.4950896748826587
-0.49991607521874926	-0.492513337272158
-0.49985504006249926	-0.4898803600417764
-0.49979400490624926	-0.48716915402970684
-0.49973296974999926	-0.48437970657776025
-0.49967193459374926	-0.48153332994309656
-0.49961089943749926	-0.47866073450334673
-0.49954986428124926	-0.4757852002460425
-0.49948882912499926	-0.47291016950230236
-0.49942779396874926	-0.4700179197403259
-0.49936675881249926	-0.46707976516622474
-0.49930572365624926	-0.4640719720997166
-0.49924468849999926	-0.46098861591378454
-0.49918365334374926	-0.4578444872054402
-0.49912261818749926	-0.4546667186779126
-0.49906158303124926	-0.45147995427739057
-0.49900054787499926	-0.4482932572107483
-0.49893951271874926	-0.4450957763250403
-0.49887847756249926	-0.4418632690777255
-0.49881744240624926	-0.43857165687785815
-0.49875640724999926	-0.43521009595435545
-0.49869537209374926	-0.43178654135137845
-0.49863433693749926	-0.42832303869713867
-0.49857330178124926	-0.4248435957563308
-0.49851226662499926	-0.4213613871646026
-0.49845123146874926	-0.4178721855981301
-0.49839019631249926	-0.4143573576327886
-0.49832916115624926	-0.4107944987622238
-0.49826812599999926	-0.4071697075979144
-0.49820709084374926	-0.4034848525219175
-0.49814605568749926	-0.39975614525319864
-0.49808502053124926	-0.3960050960022891
-0.49802398537499926	-0.39224695375735097
-0.49796295021874926	-0.3884829440005243
-0.49790191506249926	-0.38470032703310475
-0.49784087990624926	-0.38087991973195745
-0.49777984474999926	-0.3770067853759138
-0.49771880959374926	-0.37307823037963855
-0.49765777443749926	-0.3691048769880762
-0.49759673928124926	-0.3651045555545251
-0.49753570412499926	-0.36109263135250314
-0.49747466896874926	-0.35707407008548675
-0.49741363381249926	-0.3530413938232674
-0.49735259865624926	-0.34897939289106505
-0.49729156349999926	-0.34487379393403306
-0.49723052834374926	-0.34071902652268954
-0.49716949318749926	-0.33652096866620146
-0.49710845803124926	-0.3322934737627462
-0.49704742287499926	-0.32805078672918203
-0.49698638771874926	-0.3238000486470442
-0.49692535256249926	-0.3195379376444712
-0.49686431740624926	-0.31525310601209855
-0.49680328224999926	-0.3109328395178973
-0.49674224709374926	-0.30657014792969645
-0.49668121193749926	-0.30216745834216585
-0.49662017678124926	-0.2977350735203941
-0.49655914162499926	-0.2932854133185392
-0.49649810646874926	-0.28882635485400177
-0.49643707131249926	-0.28435738777808783
-0.49637603615624926	-0.2798705093181724
-0.49631500099999926	-0.2753550951714732
-0.49625396584374926	-0.2708039564844985
-0.49619293068749926	-0.26621727990087685
-0.49613189553124926	-0.2616023721583869
-0.49607086037499926	-0.25696953330000694
-0.49600982521874926	-0.25232652643006886
-0.49594879006249926	-0.24767469744333145
-0.49588775490624926	-0.2430087333571015
-0.49582671974999926	-0.23832004881252844
-0.49576568459374926	-0.23360183042306507
-0.49570464943749926	-0.22885289365665112
-0.49564361428124926	-0.22407826300877473
-0.49558257912499926	-0.21928633133129413
-0.49552154396874926	-0.21448431222367187
-0.49546050881249926	-0.209674523455523
-0.49539947365624926	-0.2048535656613382
-0.49533843849999926	-0.20001471952943245
-0.49527740334374926	-0.19515198799341
-0.49521636818749926	-0.19026351647088016
-0.49515533303124926	-0.18535264489962533
-0.49509429787499926	-0.1804260893274135
-0.49503326271874926	-0.17549030684677983
-0.49497222756249926	-0.1705481299425423
-0.49491119240624926	-0.16559754209539057
-0.49485015724999926	-0.16063320455026484
-0.49478912209374926	-0.15564979811529245
-0.49472808693749926	-0.15064523095540067
-0.49466705178124926	-0.1456218973830786
-0.49460601662499926	-0.14058537672783086
-0.49454498146874926	-0.13554142870028224
-0.49448394631249926	-0.13049301128936988
-0.49442291115624926	-0.12543894212167472
-0.49436187599999926	-0.12037489286818714
-0.49430084084374926	-0.11529614239324919
-0.49423980568749926	-0.11020049230653578
-0.49417877053124926	-0.10508965232979801
-0.49411773537499926	-0.09996838701117554
-0.49405670021874926	-0.0948419848947551
-0.49399566506249926	-0.08971349260061734
-0.49393462990624926	-0.08458229304854183
-0.49387359474999926	-0.07944479280226295
-0.49381255959374926	-0.07429673345678656
-0.49375152443749926	-0.06913578737936252
-0.49369048928124926	-0.06396303174301562
-0.49362945412499926	-0.058782540118051466
-0.49356841896874926	-0.0535993139409497
-0.49350738381249926	-0.04841669234004665
-0.49344634865624926	-0.04323473220819794
-0.49338531349999926	-0.03805046714514624
-0.49332427834374926	-0.03285984956233562
-0.49326324318749926	-0.02766026062523229
-0.49320220803124926	-0.022452173226330734
-0.49314117287499926	-0.017239062545610515
-0.49308013771874926	-0.012025662250739068
-0.49301910256249926	-0.006815560840029922
-0.49295806740624926	-0.001609461982269587
-0.49289703224999926	0.003594943951652393
-0.49283599709374926	0.008801435818463108
-0.49277496193749926	0.014012912885398595
-0.49271392678124926	0.01922955770418822
-0.49265289162499926	0.024448555279080537
-0.49259185646874926	0.029665494183215752
-0.49253082131249926	0.03487657576121741
-0.49246978615624926	0.040080407538416234
-0.49240875099999926	0.04527848590019866
-0.49234771584374926	0.0504741272336781
-0.49228668068749926	0.05567039580750264
-0.49222564553124926	0.060868187459460904
-0.49216461037499926	0.06606556781844475
-0.49210357521874926	0.07125868738260546
-0.49204254006249926	0.07644370221557971
-0.49198150490624926	0.08161862599781083
-0.49192046974999926	0.08678410946518667
-0.49185943459374926	0.09194277851941662
-0.49179839943749926	0.0970975462779352
-0.49173736428124926	0.10224980191372654
-0.49167632912499926	0.10739845299750521
-0.49161529396874926	0.11254036928611429
-0.49155425881249926	0.11767194979668177
-0.49149322365624926	0.12279087392135424
-0.49143218849999926	0.12789706085749725
-0.49137115334374926	0.1329923881150008
-0.49131011818749926	0.1380793965238447
-0.49124908303124926	0.1431596708546452
-0.49118804787499926	0.14823277401021714
-0.49112701271874926	0.15329635450872559
-0.49106597756249926	0.15834731098353724
-0.49100494240624926	0.16338327573770245
-0.49094390724999926	0.1684036106994204
-0.49088287209374926	0.1734094529630681
-0.49082183693749926	0.17840281398251903
-0.49076080178124926	0.1833852263074637
-0.49069976662499926	0.1883567123589605
-0.49063873146874926	0.19331562074156836
-0.49057769631249926	0.19825936774045486
-0.49051666115624926	0.20318566844976496
-0.49045562599999926	0.20809356519262948
-0.49039459084374926	0.21298367619395253
-0.49033355568749926	0.21785757021622434
-0.49027252053124926	0.2227166417603272
-0.49021148537499926	0.22756111996577175
-0.49015045021874926	0.23238976689440974
-0.49008941506249926	0.23720038856898895
-0.49002837990624926	0.24199085742690857
-0.48996734474999926	0.24676009200630455
-0.48990630959374926	0.2515084223201803
-0.48984527443749926	0.2562371384037413
-0.48978423928124926	0.26094751887113615
-0.48972320412499926	0.2656399033867844
-0.48966216896874926	0.2703133191629701
-0.48960113381249926	0.27496584859657996
-0.48954009865624926	0.27959550511703296
-0.48947906349999926	0.28420112015910276
-0.48941802834374926	0.2887827609897535
-0.48935699318749926	0.2933414563807401
-0.48929595803124926	0.2978783846869517
-0.48923492287499926	0.3023939962436649
-0.48917388771874926	0.3068875863696478
-0.48911285256249926	0.3113575282527913
-0.48905181740624926	0.3158019843096598
-0.48899078224999926	0.3202197065822627
-0.48892974709374926	0.3246105122443651
-0.48886871193749926	0.32897518179702445
-0.48880767678124926	0.3333148207289736
-0.48874664162499926	0.3376300196107031
-0.48868560646874926	0.3419203052925025
-0.48862457131249926	0.34618421976366803
-0.48856353615624926	0.35041996313065604
-0.48850250099999926	0.3546262146906194
-0.48844146584374926	0.35880267564236834
-0.48838043068749926	0.36295003342856824
-0.48831939553124926	0.36706936978999033
-0.48825836037499926	0.3711613537196477
-0.48819732521874926	0.37522567548350555
-0.48813629006249926	0.3792610378333687
-0.48807525490624926	0.38326569686286494
-0.48801421974999926	0.38723825271511075
-0.48795318459374926	0.3911782644881851
-0.48789214943749926	0.395086322460012
-0.48783111428124926	0.398963522330868
-0.48777007912499926	0.40281065214688905
-0.48770904396874926	0.40662755451314403
-0.48764800881249926	0.4104130326228832
-0.48758697365624926	0.41416534858839
-0.48752593849999926	0.41788301900991803
-0.48746490334374926	0.4215654736315298
-0.48740386818749926	0.4252132145518707
-0.48734283303124926	0.4288273688875779
-0.48728179787499926	0.4324088787925062
-0.48722076271874926	0.43595779813649105
-0.48715972756249926	0.43947309390455186
-0.48709869240624926	0.4429530510207117
-0.48703765724999926	0.4463960616836558
-0.48697662209374926	0.4498013768854194
-0.48691558693749926	0.4531693802965823
-0.48685455178124926	0.4565012040624566
-0.48679351662499926	0.4597979272369802
-0.48673248146874926	0.46305982299446397
-0.48667144631249926	0.4662860498891829
-0.48661041115624926	0.4694749544406832
-0.48654937599999926	0.472624834193881
-0.48648834084374926	0.4757347382764527
-0.48642730568749926	0.4788048559573882
-0.48636627053124926	0.48183627809630564
-0.48630523537499926	0.4848302518894242
-0.48624420021874926	0.48778733571141225
-0.48618316506249926	0.49070693761316064
-0.48612212990624926	0.4935874977172622
-0.48606109474999926	0.4964272105688422
-0.48600005959374926	0.4992248984437059
-0.48593902443749926	0.5019805513165124
-0.48587798928124926	0.5046952154156601
-0.48581695412499926	0.5073702815798331
-0.48575591896874926	0.5100065694985062
-0.48569488381249926	0.5126037266172309
-0.48563384865624926	0.5151602858938987
-0.48557281349999926	0.5176743496146708
-0.48551177834374926	0.5201445246626779
-0.48545074318749926	0.5225705975414492
-0.48538970803124926	0.5249535593782085
-0.48532867287499926	0.5272949457082918
-0.48526763771874926	0.529595854925776
-0.48520660256249926	0.5318562003130249
-0.48514556740624926	0.5340746253938974
-0.48508453224999926	0.536249146049282
-0.48502349709374926	0.5383781668173543
-0.48496246193749926	0.540461290651743
-0.48490142678124926	0.5424994563248849
-0.48484039162499926	0.5444943173460574
-0.48477935646874926	0.5464471988832399
-0.48471832131249926	0.5483582283934684
-0.48465728615624926	0.5502261528927268
-0.48459625099999926	0.5520489483268656
-0.48453521584374926	0.5538248764575036
-0.48447418068749926	0.5555534016033356
-0.48441314553124926	0.557235431881454
-0.48435211037499926	0.5588727143886915
-0.48429107521874926	0.5604667323692132
-0.48423004006249926	0.5620177587515071
-0.48416900490624926	0.5635246062946095
-0.48410796974999926	0.5649852196904571
-0.48404693459374926	0.5663977883298382
-0.48398589943749926	0.5677617343706124
-0.48392486428124926	0.5690779874673443
-0.48386382912499926	0.5703483778678243
-0.48380279396874926	0.5715744963834339
-0.48374175881249926	0.5727566858076005
-0.48368072365624926	0.5738937555823104
-0.48361968849999926	0.5749835992598088
-0.48355865334374926	0.5760243734736502
-0.48349761818749926	0.5770155490208763
-0.48343658303124926	0.5779581922925435
-0.48337554787499926	0.5788542869594251
-0.48331451271874926	0.5797054920524981
-0.48325347756249926	0.5805120799061109
-0.48319244240624926	0.5812726969062457
-0.48313140724999926	0.5819851074500801
-0.48307037209374926	0.5826474950476785
-0.48300933693749926	0.583259543650174
-0.48294830178124926	0.5838226298032279
-0.48288726662499926	0.5843389816005641
-0.48282623146874926	0.5848102914071841
-0.48276519631249926	0.5852366171925496
-0.48270416115624926	0.5856162547877388
-0.48264312599999926	0.5859466947357429
-0.48258209084374926	0.5862261222277738
-0.48252105568749926	0.5864545588385158
-0.48246002053124926	0.5866339159729652
-0.48239898537499926	0.5867668687570913
-0.48233795021874926	0.5868551950459313
-0.48227691506249926	0.5868985955202403
-0.48221587990624926	0.5868947601688197
-0.48215484474999926	0.5868406985094032
-0.48209380959374926	0.5867345621318953
-0.48203277443749926	0.5865768562980637
-0.48197173928124926	0.5863702638239229
-0.48191070412499926	0.5861181076782442
-0.48184966896874926	0.5858223194928645
-0.48178863381249926	0.5854821451895047
-0.48172759865624926	0.5850944372282748
-0.48166656349999926	0.5846554593034021
-0.48160552834374926	0.5841631882946723
-0.48154449318749926	0.5836187075053176
-0.48148345803124926	0.5830257584494345
-0.48142242287499926	0.5823886205121359
-0.48136138771874926	0.5817095284221256
-0.48130035256249926	0.5809871775657734
-0.48123931740624926	0.58021730787648
-0.48117828224999926	0.5793951539695312
-0.48111724709374926	0.5785183673050897
-0.48105621193749926	0.5775886448197962
-0.48099517678124926	0.5766109999542477
-0.48093414162499926	0.5755909672629134
-0.48087310646874926	0.5745312976942907
-0.48081207131249926	0.5734301311183465
-0.48075103615624926	0.5722818686798903
-0.48069000099999926	0.571080389562735
-0.48062896584374926	0.5698228013266048
-0.48056793068749926	0.5685114588638387
-0.48050689553124926	0.5671529000223732
-0.48044586037499926	0.5657541738196175
-0.48038482521874926	0.5643186515777601
-0.48032379006249926	0.5628438341077783
-0.48026275490624926	0.5613226018404933
-0.48020171974999926	0.5597473364628649
-0.48014068459374926	0.5581145698553568
-0.48007964943749926	0.5564273657896994
-0.48001861428124926	0.5546938663393652
-0.47995757912499926	0.5529226992750528
-0.47989654396874926	0.5511178732484808
-0.47983550881249926	0.549276225196674
-0.47977447365624926	0.5473890929304778
-0.47971343849999926	0.5454473828501377
-0.47965240334374926	0.5434471074186265
-0.47959136818749926	0.541392072834884
-0.47953033303124926	0.5392919898228726
-0.47946929787499926	0.5371569701669712
-0.47940826271874926	0.5349915659994068
-0.47934722756249926	0.5327919143201617
-0.47928619240624926	0.5305478419439974
-0.47922515724999926	0.5282488559791412
-0.47916412209374926	0.5258905485442521
-0.47910308693749926	0.5234775644946563
-0.47904205178124926	0.5210212129525078
-0.47898101662499926	0.5185329894555549
-0.47891998146874926	0.5160177983368369
-0.47885894631249926	0.5134709334804102
-0.47879791115624926	0.5108807203059762
-0.47873687599999926	0.5082354234772218
-0.47867584084374926	0.5055304264923921
-0.47861480568749926	0.5027713469938849
-0.47855377053124926	0.4999710700035253
-0.47849273537499926	0.49714232503059
-0.47843170021874926	0.49429016538633624
-0.47837066506249926	0.4914088677397734
-0.47830962990624926	0.48848522686336354
-0.47824859474999926	0.48550643281947137
-0.47818755959374926	0.4824679038795674
-0.47812652443749926	0.4793763612050789
-0.47806548928124926	0.4762462003922274
-0.47800445412499926	0.47309118980333137
-0.47794341896874926	0.46991636312251023
-0.47788238381249926	0.466714972480609
-0.47782134865624926	0.4634724231954705
-0.47776031349999926	0.4601749688955037
-0.47769927834374926	0.4568180860640863
-0.47763824318749926	0.4534095269417826
-0.47757720803124926	0.4499651041764286
-0.47751617287499926	0.44649956209508534
-0.47745513771874926	0.44301790607987535
-0.47739410256249926	0.4395124185040752
-0.47733306740624926	0.43596723740776
-0.47727203224999926	0.432367848179863
-0.47721099709374926	0.42870988625232703
-0.47714996193749926	0.4250020113688726
-0.47708892678124926	0.42126108831509007
-0.47702789162499926	0.41750245562668425
-0.47696685646874926	0.41373101092977194
-0.47690582131249926	0.40993840737742687
-0.47684478615624926	0.40610806442138003
-0.47678375099999926	0.4022250852856548
-0.47672271584374926	0.39828524400257054
-0.47666168068749926	0.3942977033806558
-0.47660064553124926	0.3902798258541827
-0.47653961037499926	0.3862471396886835
-0.47647857521874926	0.38220439868284456
-0.47641754006249926	0.37814302119058346
-0.47635650490624926	0.3740463935008757
-0.47629546974999926	0.3698998437624206
-0.47623443459374926	0.3656993626080109
-0.47617339943749926	0.36145398531865175
-0.47611236428124926	0.3571805510150759
-0.47605132912499926	0.352894009914296
-0.47599029396874926	0.34859900354976614
-0.47592925881249926	0.34428760353991156
-0.47586822365624926	0.3399444013548578
-0.47580718849999926	0.3355558209580969
-0.47574615334374926	0.3311180771600269
-0.47568511818749926	0.3266391695521851
-0.47562408303124926	0.32213401398564745
-0.47556304787499926	0.31761580429813635
-0.47550201271874926	0.3130887666986333
-0.47544097756249926	0.3085464796604821
-0.47537994240624926	0.3039764065758137
-0.47531890724999926	0.29936759828176784
-0.47525787209374926	0.2947169270948103
-0.47519683693749926	0.2900303969051304
-0.47513580178124926	0.2853191896749244
-0.47507476662499926	0.28059318957938456
-0.47501373146874926	0.27585590927862136
-0.47495269631249926	0.2711035380921549
-0.47489166115624926	0.2663281922845903
-0.47483062599999926	0.2615229861657452
-0.47476959084374926	0.2566857093987082
-0.47470855568749926	0.2518192269163356
-0.47464752053124926	0.24692908246792497
-0.47458648537499926	0.24202030411493855
-0.47452545021874926	0.23709540536447707
-0.47446441506249926	0.23215441235652579
-0.47440337990624926	0.22719618992767773
-0.47434234474999926	0.22221959569367003
-0.47428130959374926	0.21722356670271473
-0.47422027443749926	0.2122064950556351
-0.47415923928124926	0.2071661170138701
-0.47409820412499926	0.2021007883552237
-0.47403716896874926	0.19701163852036407
-0.47397613381249926	0.19190381849843763
-0.47391509865624926	0.18678514123714068
-0.47385406349999926	0.1816620892721243
-0.47379302834374926	0.17653524209104185
-0.47373199318749926	0.17139728423151157
-0.47367095803124926	0.16623588625943975
-0.47360992287499926	0.16104078720672627
-0.47354888771874926	0.15581118550059592
-0.47348785256249926	0.15055854256526036
-0.47342681740624926	0.1453019946947378
-0.47336578224999926	0.14005788826847468
-0.47330474709374926	0.13482919216225248
-0.47324371193749926	0.1296016720444792
-0.47318267678124926	0.12435038405550625
-0.47312164162499926	0.11905391827708693
-0.47306060646874926	0.11370850103089773
-0.47299957131249926	0.10833304782799236
-0.47293853615624926	0.1029607551546167
-0.47287750099999926	0.09762070634282155
-0.47281646584374926	0.09231972885745242
-0.47275543068749926	0.08703584565395917
-0.47269439553124926	0.08172869511793386
-0.47263336037499926	0.07636238107848677
-0.47257232521874926	0.07092808535654761
-0.47251129006249926	0.06545255949099554
-0.47245025490624926	0.05998584249186451
-0.47238921974999926	0.054573595410715256
-0.47232818459374926	0.04922936731437231
-0.47226714943749926	0.04392364757090378
-0.47220611428124926	0.03859789787761153
-0.47214507912499926	0.03319732806870131
-0.47208404396874926	0.02770431079464238
-0.47202300881249926	0.022152371912367075
-0.47196197365624926	0.01661073480131488
-0.47190093849999926	0.011146318584457629
-0.47183990334374926	0.005784104535605691
-0.47177886818749926	0.0004893260096607646
-0.47171783303124926	-0.004816267727145351
-0.47165679787499926	-0.010211173700980574
-0.47159576271874926	-0.015727619224781973
-0.47153472756249926	-0.021329098973190297
-0.47147369240624926	-0.026926872728814326
-0.47141265724999926	-0.032428241617664735
-0.47135162209374926	-0.03779021730930312
-0.47129058693749926	-0.04304741318574287
-0.47122955178124926	-0.048296251029167035
-0.47116851662499926	-0.05364221282349382
-0.47110748146874926	-0.05913894762075524
-0.47104644631249926	-0.06475426027186687
-0.47098541115624926	-0.07038407505167982
-0.47092437599999926	-0.07590864728998369
-0.47086334084374926	-0.08126046368593239
-0.47080230568749926	-0.08646504458124074
-0.47074127053124926	-0.09162990409142158
-0.47068023537499926	-0.09688596582117776
-0.47061920021874926	-0.10231340602412295
-0.47055816506249926	-0.10789402289336567
-0.47049712990624926	-0.11351830264922519
-0.47043609474999926	-0.11904472503226626
-0.47037505959374926	-0.12437883341145664
-0.47031402443749926	-0.12952749088111393
-0.47025298928124926	-0.1345968606961878
-0.47019195412499926	-0.1397340986488869
