Time	Frequency
-0.500049589156248	0.439235458562179
-0.499988553999998	0.44259386589726457
-0.499927518843748	0.44593344110058436
-0.499866483687498	0.4492461348670233
-0.499805448531248	0.4525198091475015
-0.499744413374998	0.4557443897207181
-0.499683378218748	0.4589168475699119
-0.499622343062498	0.46204251200247404
-0.499561307906248	0.46513210090330026
-0.499500272749998	0.46819602045637104
-0.499439237593748	0.47123884034245694
-0.499378202437498	0.4742567392267122
-0.499317167281248	0.47723928951822614
-0.499256132124998	0.48017475902038914
-0.499195096968748	0.48305619297534974
-0.499134061812498	0.4858850869781186
-0.499073026656248	0.4886706508428
-0.499011991499998	0.49142488875413
-0.498950956343748	0.4941560137129474
-0.498889921187498	0.49686373730969635
-0.498828886031248	0.4995390686369373
-0.498767850874998	0.5021689058004325
-0.498706815718748	0.5047430504721719
-0.498645780562498	0.5072598111501612
-0.498584745406248	0.5097270336670422
-0.498523710249998	0.5121578556086532
-0.498462675093748	0.5145633989442464
-0.498401639937498	0.5169464057243595
-0.498340604781248	0.5192994071428327
-0.498279569624998	0.5216085586259718
-0.498218534468748	0.5238611375455148
-0.498157499312498	0.5260525864228255
-0.498096464156248	0.528189116195517
-0.498035428999998	0.5302843031294667
-0.497974393843748	0.5323514821216797
-0.497913358687498	0.5343961576163484
-0.497852323531248	0.536412720155179
-0.497791288374998	0.5383873787451209
-0.497730253218748	0.5403057323200475
-0.497669218062498	0.5421607568860664
-0.497608182906248	0.5439566921073147
-0.497547147749998	0.5457066093167825
-0.497486112593748	0.547425013571106
-0.497425077437498	0.5491196234403499
-0.497364042281248	0.5507869608913849
-0.497303007124998	0.5524142617195464
-0.497241971968748	0.5539866120888807
-0.497180936812498	0.5554952457034692
-0.497119901656248	0.5569423255320309
-0.497058866499998	0.5583395485030038
-0.496997831343748	0.5597013967920643
-0.496936796187498	0.5610368881262527
-0.496875761031248	0.5623445182839267
-0.496814725874998	0.5636132276246878
-0.496753690718748	0.5648287443787406
-0.496692655562498	0.5659816084382054
-0.496631620406248	0.5670723123642547
-0.496570585249998	0.5681107307714152
-0.496509550093748	0.56911028497255
-0.496448514937498	0.5700802459443758
-0.496387479781248	0.5710205687776808
-0.496326444624998	0.5719221301997567
-0.496265409468748	0.5727720977903719
-0.496204374312498	0.5735612420486591
-0.496143339156248	0.5742889875422493
-0.496082303999998	0.5749634072041547
-0.496021268843748	0.5755963234255981
-0.495960233687498	0.5761964535849985
-0.495899198531248	0.5767645503326376
-0.495838163374998	0.577293228758435
-0.495777128218748	0.577771425296165
-0.495716093062498	0.5781907923859126
-0.495655057906248	0.5785503076593193
-0.495594022749998	0.5788565258129618
-0.495532987593748	0.5791195021102036
-0.495471952437498	0.5793469005273456
-0.495410917281248	0.5795397290997597
-0.495349882124998	0.5796920623488847
-0.495288846968748	0.5797947273300558
-0.495227811812498	0.5798406671825979
-0.495166776656248	0.5798288427985109
-0.495105741499998	0.5797645068680659
-0.495044706343748	0.5796558691914685
-0.494983671187498	0.5795092549331046
-0.494922636031248	0.5793256039306774
-0.494861600874998	0.5791002375411684
-0.494800565718748	0.578825860612807
-0.494739530562498	0.5784968993072402
-0.494678495406248	0.5781125932829098
-0.494617460249998	0.5776771355263113
-0.494556425093748	0.5771969583750376
-0.494495389937498	0.5766768966770512
-0.494434354781248	0.5761175157916975
-0.494373319624998	0.5755150952588705
-0.494312284468748	0.5748641204522806
-0.494251249312498	0.5741606531442742
-0.494190214156248	0.5734045276917231
-0.494129178999998	0.5725991710027216
-0.494068143843748	0.5717493329035511
-0.494007108687498	0.5708582104979649
-0.493946073531248	0.5699257127045163
-0.493885038374998	0.5689488255780836
-0.493824003218748	0.567923711632287
-0.493762968062498	0.5668481457204179
-0.493701932906248	0.5657227780822146
-0.493640897749998	0.5645505314833201
-0.493579862593748	0.5633346402186492
-0.493518827437498	0.5620766579690406
-0.493457792281248	0.5607756752688519
-0.493396757124998	0.5594291389001008
-0.493335721968748	0.5580346624691493
-0.493274686812498	0.5565916393177467
-0.493213651656248	0.5551016344551528
-0.493152616499998	0.553567331599817
-0.493091581343748	0.5519907527758242
-0.493030546187498	0.5503719585515907
-0.492969511031248	0.5487091005955629
-0.492908475874998	0.5469997639754371
-0.492847440718748	0.545242690142561
-0.492786405562498	0.5434387528581308
-0.492725370406248	0.541590550944092
-0.492664335249998	0.5397008314245945
-0.492603300093748	0.5377707145168503
-0.492542264937498	0.5357989134899979
-0.492481229781248	0.5337825427361623
-0.492420194624998	0.5317190459451343
-0.492359159468748	0.5296079988855552
-0.492298124312498	0.5274515941015241
-0.492237089156248	0.5252534832351232
-0.492176053999998	0.5230166743409103
-0.492115018843748	0.5207417247946383
-0.492053983687498	0.518426339908573
-0.491992948531248	0.5160667191740596
-0.491931913374998	0.5136599375579116
-0.491870878218748	0.5112059239455407
-0.491809843062498	0.5087077630909422
-0.491748807906248	0.5061700831586828
-0.491687772749998	0.5035964436113823
-0.491626737593748	0.5009872444934063
-0.491565702437498	0.4983394602867355
-0.491504667281248	0.49564843366455874
-0.491443632124998	0.4929107040272857
-0.491382596968748	0.49012623790183757
-0.491321561812498	0.4872987074496185
-0.491260526656248	0.48443356306056723
-0.491199491499998	0.4815350034501664
-0.491138456343748	0.4786036013759496
-0.491077421187498	0.47563600030616493
-0.491016386031248	0.4726269386914071
-0.490955350874998	0.4695724316453616
-0.490894315718748	0.46647224788717373
-0.490833280562498	0.46333024195061906
-0.490772245406248	0.4601523077269286
-0.490711210249998	0.45694311537430937
-0.490650175093748	0.4537035302876327
-0.490589139937498	0.4504302143377602
-0.490528104781248	0.44711766924058044
-0.490467069624998	0.4437615754426705
-0.490406034468748	0.4403614680265633
-0.490344999312498	0.4369211627553679
-0.490283964156248	0.43344669610470643
-0.490222928999998	0.4299429878689384
-0.490161893843748	0.4264111623369632
-0.490100858687498	0.42284805796234387
-0.490039823531248	0.419248202060437
-0.489978788374998	0.4156071622966983
-0.489917753218748	0.41192432281478675
-0.489856718062498	0.40820339270786243
-0.489795682906248	0.404450366332225
-0.489734647749998	0.40067017270446126
-0.489673612593748	0.39686395682071135
-0.489612577437498	0.3930286076171788
-0.489551542281248	0.3891588322936765
-0.489490507124998	0.38525047815098484
-0.489429471968748	0.3813031232110542
-0.489368436812498	0.3773204742292296
-0.489307401656248	0.3733083272232651
-0.489246366499998	0.3692713057118558
-0.489185331343748	0.3652103660710418
-0.489124296187498	0.3611224851979874
-0.489063261031248	0.3570026477123864
-0.489002225874998	0.3528469978040063
-0.488941190718748	0.3486552939649373
-0.488880155562498	0.3444311960602211
-0.488819120406248	0.34018026247579847
-0.488758085249998	0.3359068656874989
-0.488697050093748	0.3316118198530344
-0.488636014937498	0.32729211870175
-0.488574979781248	0.32294295646624527
-0.488513944624998	0.31856080217648947
-0.488452909468748	0.31414567812827915
-0.488391874312498	0.3097013299181735
-0.488330839156248	0.305233194660363
-0.488269803999998	0.3007453629564084
-0.488208768843748	0.2962383608169527
-0.488147733687498	0.2917090725040815
-0.488086698531248	0.28715284719703227
-0.488025663374998	0.2825665109704262
-0.487964628218748	0.2779504638444254
-0.487903593062498	0.2733086387723267
-0.487842557906248	0.2686463464057973
-0.487781522749998	0.2639672899421438
-0.487720487593748	0.2592715845731281
-0.487659452437498	0.25455595412063076
-0.487598417281248	0.24981594408418578
-0.487537382124998	0.24504884238839525
-0.487476346968748	0.2402555403201776
-0.487415311812498	0.23544019392622934
-0.487354276656248	0.23060792172402012
-0.487293241499998	0.22576193538464182
-0.487232206343748	0.22090184074230484
-0.487171171187498	0.2160241377739671
-0.487110136031248	0.21112459171653847
-0.487049100874998	0.20620103384192698
-0.486988065718748	0.20125489735771954
-0.486927030562498	0.1962905740452206
-0.486865995406248	0.191313019631082
-0.486804960249998	0.1863250433220666
-0.486743925093748	0.1813258370724347
-0.486682889937498	0.1763116358406536
-0.486621854781248	0.17127821270816868
-0.486560819624998	0.16622370315898685
-0.486499784468748	0.16115000465880822
-0.486438749312498	0.1560619227193279
-0.486377714156248	0.1509645628916777
-0.486316678999998	0.14586049368024526
-0.486255643843748	0.14074838214986982
-0.486194608687498	0.1356239589618275
-0.486133573531248	0.1304828260894524
-0.486072538374998	0.12532343662054843
-0.486011503218748	0.12014832824380677
-0.485950468062498	0.11496286251065413
-0.485889432906248	0.10977227791705035
-0.485828397749998	0.1045787598283905
-0.485767362593748	0.0993803201129674
-0.485706327437498	0.09417222952724992
-0.485645292281248	0.08895010673325608
-0.485584257124998	0.08371281775020091
-0.485523221968748	0.07846346693240785
-0.485462186812498	0.07320782872810011
-0.485401151656248	0.0679511034155666
-0.485340116499998	0.06269497777251404
-0.485279081343748	0.057436855270878336
-0.485218046187498	0.05217170971800016
-0.485157011031248	0.046895369193979755
-0.485095975874998	0.041607293030357526
-0.485034940718748	0.03631121377281832
-0.484973905562498	0.031013183682417136
-0.484912870406248	0.02571814633881571
-0.484851835249998	0.02042714929605377
-0.484790800093748	0.015136948688431007
-0.484729764937498	0.009842255175928872
-0.484668729781248	0.004539232672080524
-0.484607694624998	-0.0007718972782240846
-0.484546659468748	-0.006086732783822718
-0.484485624312498	-0.011399116032105432
-0.484424589156248	-0.016704620198053747
-0.484363553999998	-0.022002998024221482
-0.484302518843748	-0.027298099160615864
-0.484241483687498	-0.03259522956299329
-0.484180448531248	-0.037897572044106986
-0.484119413374998	-0.043203961410132316
-0.484058378218748	-0.0485093710281322
-0.483997343062498	-0.053807739125105405
-0.483936307906248	-0.05909541223033313
-0.483875272749998	-0.06437313828579797
-0.483814237593748	-0.06964538431635468
-0.483753202437498	-0.07491733668340352
-0.483692167281248	-0.08019138746271226
-0.483631132124998	-0.08546533803240529
-0.483570096968748	-0.09073347220123075
-0.483509061812498	-0.09598979887204895
-0.483448026656248	-0.10123148721310184
-0.483386991499998	-0.10646041613425689
-0.483325956343748	-0.11168182610262906
-0.483264921187498	-0.11690082798527687
-0.483203886031248	-0.12211892257715198
-0.483142850874998	-0.12733272759100403
-0.483081815718748	-0.13253574258666678
-0.483020780562498	-0.13772209970865318
-0.482959745406248	-0.14288997706528028
-0.482898710249998	-0.14804252536436502
-0.482837675093748	-0.1531857140379733
-0.482776639937498	-0.15832439209941748
-0.482715604781248	-0.1634589902414037
-0.482654569624998	-0.16858493898313678
-0.482593534468748	-0.1736951528617293
-0.482532499312498	-0.17878406970613706
-0.482471464156248	-0.1838508452299041
-0.482410428999998	-0.18889973243364594
-0.482349393843748	-0.19393731185025878
-0.482288358687498	-0.19896821439847331
-0.482227323531248	-0.20399195621152486
-0.482166288374998	-0.2090028548565585
-0.482105253218748	-0.21399316646003824
-0.482044218062498	-0.21895758525767803
-0.481983182906248	-0.2238963073141174
-0.481922147749998	-0.22881475142956625
-0.481861112593748	-0.23372008265661395
-0.481800077437498	-0.23861657325782348
-0.481739042281248	-0.2435026443407485
-0.481678007124998	-0.24837148600566897
-0.481616971968748	-0.2532149145633675
-0.481555936812498	-0.2580281403998061
-0.481494901656248	-0.2628125442187006
-0.481433866499998	-0.2675747032750545
-0.481372831343748	-0.27232216409277876
-0.481311796187498	-0.2770585157413031
-0.481250761031248	-0.28178084036328394
-0.481189725874998	-0.28648116635080256
-0.481128690718748	-0.29115107110336935
-0.481067655562498	-0.29578666080416266
-0.481006620406248	-0.30039087624221233
-0.480945585249998	-0.3049715773526217
-0.480884550093748	-0.3095364631232618
-0.480823514937498	-0.3140879910946771
-0.480762479781248	-0.3186215046938754
-0.480701444624998	-0.32312778361215483
-0.480640409468748	-0.3275984966426557
-0.480579374312498	-0.33203119006965365
-0.480518339156248	-0.33643069610601267
-0.480457303999998	-0.34080601880886946
-0.480396268843748	-0.3451645437526578
-0.480335233687498	-0.3495071387133823
-0.480274198531248	-0.35382721569138603
-0.480213163374998	-0.358114445662078
-0.480152128218748	-0.36236095344266345
-0.480091093062498	-0.3665661434010111
-0.480030057906248	-0.37073703090399357
-0.479969022749998	-0.3748837685717104
-0.479907987593748	-0.3790131053221865
-0.479846952437498	-0.38312382913932064
-0.479785917281248	-0.3872070858607697
-0.479724882124998	-0.3912515145226179
-0.479663846968748	-0.39525011755152045
-0.479602811812498	-0.3992045946696422
-0.479541776656248	-0.40312432827267025
-0.479480741499998	-0.40702049181400823
-0.479419706343748	-0.4108988521379206
-0.479358671187498	-0.4147557630573629
-0.479297636031248	-0.4185799578139229
-0.479236600874998	-0.42235919215846973
-0.479175565718748	-0.4260877130041078
-0.479114530562498	-0.429769853375797
-0.479053495406248	-0.433417395996498
-0.478992460249998	-0.43704224954050724
-0.478931425093748	-0.44064885950701127
-0.478870389937498	-0.4442309927194858
-0.478809354781248	-0.4477750523988238
-0.478748319624998	-0.4512681307972778
-0.478687284468748	-0.45470590648130504
-0.478626249312498	-0.45809540451385705
-0.478565214156248	-0.4614507704846093
-0.478504178999998	-0.4647845425495767
-0.478443143843748	-0.4680996860146866
-0.478382108687498	-0.47138728151996434
-0.478321073531248	-0.47463146853026206
-0.478260038374998	-0.47781884184103784
-0.478199003218748	-0.48094663548354916
-0.478137968062498	-0.48402460354724236
-0.478076932906248	-0.4870692481758401
-0.478015897749998	-0.4900937176601594
-0.477954862593748	-0.49309946118192693
-0.477893827437498	-0.4960748128911477
-0.477832792281248	-0.49900157166510684
-0.477771757124998	-0.5018657855316305
-0.477710721968748	-0.5046662639206158
-0.477649686812498	-0.507415548594941
-0.477588651656248	-0.5101325391654834
-0.477527616499998	-0.5128310252742045
-0.477466581343748	-0.5155109786318489
-0.477405546187498	-0.518157968440132
-0.477344511031248	-0.5207513154017785
-0.477283475874998	-0.5232763405785048
-0.477222440718748	-0.5257333817885347
-0.477161405562498	-0.5281379526264027
-0.477100370406248	-0.5305116632669729
-0.477039335249998	-0.5328691361450392
-0.476978300093748	-0.5352087390340351
-0.476917264937498	-0.5375128987940948
-0.476856229781248	-0.5397581386615398
-0.476795194624998	-0.5419290682477392
-0.476734159468748	-0.5440279325942837
-0.476673124312498	-0.5460737296573077
-0.476612089156248	-0.5480910577117065
-0.476551053999998	-0.5500951510717451
-0.476490018843748	-0.552082140779988
-0.476428983687498	-0.5540306788091742
-0.476367948531248	-0.5559143102663033
-0.476306913374998	-0.5577173898767517
-0.476245878218748	-0.5594449200426709
-0.476184843062498	-0.5611200712395731
-0.476123807906248	-0.5627704721711411
-0.476062772749998	-0.5644112931988022
-0.476001737593748	-0.5660354148020819
-0.475940702437498	-0.5676169814599232
-0.475879667281248	-0.5691266245557022
-0.475818632124998	-0.5705493692741455
-0.475757596968748	-0.5718942443252363
-0.475696561812498	-0.5731893746459391
-0.475635526656248	-0.5744651298526726
-0.475574491499998	-0.5757353693588364
-0.475513456343748	-0.5769883154305937
-0.475452421187498	-0.5781929950621866
-0.475391386031248	-0.5793177384580225
-0.475330350874998	-0.5803496474446187
-0.475269315718748	-0.5813030192061298
-0.475208280562498	-0.5822111949270964
-0.475147245406248	-0.5831064002292419
-0.475086210249998	-0.5839997187307812
-0.475025175093748	-0.5848736141544464
-0.474964139937498	-0.5856919870114867
-0.474903104781248	-0.5864220061956908
-0.474842069624998	-0.5870544860431296
-0.474781034468748	-0.5876101270316823
-0.474719999312498	-0.5881273791592859
-0.474658964156248	-0.5886389884954321
-0.474597928999998	-0.5891515083194233
-0.474536893843748	-0.5896405823419413
-0.474475858687498	-0.5900653109915918
-0.474414823531248	-0.5903932232586453
-0.474353788374998	-0.590620594261418
-0.474292753218748	-0.5907753871495738
-0.474231718062498	-0.590900589259661
-0.474170682906248	-0.5910278419901173
-0.474109647749998	-0.5911575288593027
-0.474048612593748	-0.5912578356529005
-0.473987577437498	-0.5912837818490263
-0.473926542281248	-0.5912048440072172
-0.473865507124998	-0.5910242103606925
-0.473804471968748	-0.590777528491706
-0.473743436812498	-0.5905114865577478
-0.473682401656248	-0.5902551004085952
-0.473621366499998	-0.5900013453997438
-0.473560331343748	-0.5897107127937663
-0.473499296187498	-0.5893349592351612
-0.473438261031248	-0.5888467873551009
-0.473377225874998	-0.5882572276487735
-0.473316190718748	-0.58760972281899
-0.473255155562498	-0.5869540523810649
-0.473194120406248	-0.5863157255788953
-0.473133085249998	-0.5856796163065204
-0.473072050093748	-0.5849982699075554
-0.473011014937498	-0.584220361406992
-0.472949979781248	-0.5833222818509256
-0.472888944624998	-0.5823235124314708
-0.472827909468748	-0.5812759251878324
-0.472766874312498	-0.5802328644353116
-0.472705839156248	-0.5792163867350566
-0.472644803999998	-0.5782026902923666
-0.472583768843748	-0.5771352369481207
-0.472522733687498	-0.5759584065394259
-0.472461698531248	-0.5746517472275336
-0.472400663374998	-0.5732439089082794
-0.472339628218748	-0.5717970448812586
-0.472278593062498	-0.5703701082147054
-0.472217557906248	-0.5689826331029327
-0.472156522749998	-0.5676011325054835
-0.472095487593748	-0.5661573316939116
-0.472034452437498	-0.5645884589060088
-0.471973417281248	-0.5628759849957654
-0.471912382124998	-0.5610591296400262
-0.471851346968748	-0.5592137672122885
-0.471790311812498	-0.5574079865518573
-0.471729276656248	-0.5556602690122708
-0.471668241499998	-0.5539258291088431
-0.471607206343748	-0.5521207143770964
-0.471546171187498	-0.5501708637517456
-0.471485136031248	-0.5480576683889735
-0.471424100874998	-0.5458322785714381
-0.471363065718748	-0.5435884008284596
-0.471302030562498	-0.541407984581492
-0.471240995406248	-0.5393112608482851
-0.471179960249998	-0.5372413931138149
-0.471118925093748	-0.5350946823139097
-0.471057889937498	-0.5327804957729363
-0.470996854781248	-0.530276403015071
-0.470935819624998	-0.5276452054404501
-0.470874784468748	-0.5250018391774152
-0.470813749312498	-0.5224475473424747
-0.470752714156248	-0.5200090898331411
-0.470691678999998	-0.5176194241801808
-0.470630643843748	-0.5151531725504668
-0.470569608687498	-0.5124982271741745
-0.470508573531248	-0.5096225878761557
-0.470447538374998	-0.5065966945761422
-0.470386503218748	-0.503556322612223
-0.470325468062498	-0.5006256488448564
-0.470264432906248	-0.4978443230766773
-0.470203397749998	-0.49514153013462237
-0.470142362593748	-0.49237377141800265
-0.470081327437498	-0.4894061900503888
-0.470020292281248	-0.48619114249344103
-0.469959257124998	-0.48279811739298306
-0.469898221968748	-0.4793764668735472
-0.469837186812498	-0.47607117592666903
-0.469776151656248	-0.4729395702621014
-0.469715116499998	-0.4699171729440194
-0.469654081343748	-0.4668531765318331
-0.469593046187498	-0.46359592061022825
-0.469532011031248	-0.4600796185790527
-0.469470975874998	-0.4563624594811971
-0.469409940718748	-0.4525939748213687
-0.469348905562498	-0.44893022829277973
-0.469287870406248	-0.44544544537172803
-0.469226835249998	-0.44209064287575756
-0.469165800093748	-0.43872252089605424
-0.469104764937498	-0.4351855093842011
-0.469043729781248	-0.43139976945358666
-0.468982694624998	-0.42740510129110004
-0.468921659468748	-0.423336549287617
-0.468860624312498	-0.41934679579346695
-0.468799589156248	-0.41552030679350066
-0.468738553999998	-0.4118278909080795
-0.468677518843748	-0.40814631665937895
