Time	Frequency
-0.5000305153125026	0.388660088919013
-0.49996948015625264	0.3927959988270826
-0.49990844500000264	0.39684143744966627
-0.49984740984375264	0.40086197073000746
-0.49978637468750264	0.4049228928076129
-0.49972533953125264	0.40906218881669915
-0.49966430437500264	0.4132733783598227
-0.49960326921875264	0.4175058562486047
-0.49954223406250264	0.4216834601565819
-0.49948119890625264	0.425734423449843
-0.49942016375000264	0.429620851705509
-0.49935912859375264	0.43335555140965754
-0.49929809343750264	0.43699870889431286
-0.49923705828125264	0.4406349416574923
-0.49917602312500264	0.44433946452608775
-0.49911498796875264	0.44814693697031527
-0.49905395281250264	0.4520358467617836
-0.49899291765625264	0.45593533447019424
-0.49893188250000264	0.4597524056525492
-0.49887084734375264	0.4634089984899079
-0.49880981218750264	0.4668739697342576
-0.49874877703125264	0.47017675424254773
-0.49868774187500264	0.47339667850937805
-0.49862670671875264	0.4766317378488604
-0.49856567156250264	0.47995913097627796
-0.49850463640625264	0.4834035186608866
-0.49844360125000264	0.4869261247640559
-0.49838256609375264	0.4904394585582104
-0.49832153093750264	0.4938420077084644
-0.49826049578125264	0.4970589711260706
-0.49819946062500264	0.5000724619388398
-0.49813842546875264	0.5029288336757156
-0.49807739031250264	0.5057200794228426
-0.49801635515625264	0.50854677405716
-0.49795532000000264	0.5114775423481848
-0.49789428484375264	0.514521477176245
-0.49783324968750264	0.517624681846076
-0.49777221453125264	0.5206922629427203
-0.49771117937500264	0.5236266795169824
-0.49765014421875264	0.526366755512061
-0.49758910906250264	0.5289115877407132
-0.49752807390625264	0.5313198981858426
-0.49746703875000264	0.5336854275760917
-0.49740600359375264	0.5360986641262755
-0.49734496843750264	0.5386106062978444
-0.49728393328125264	0.5412131512136088
-0.49722289812500264	0.5438436507553092
-0.49716186296875264	0.5464112591564195
-0.49710082781250264	0.5488339541324638
-0.49703979265625264	0.551071029375913
-0.49697875750000264	0.5531380581639173
-0.49691772234375264	0.5550987946007833
-0.49685668718750264	0.5570379791094399
-0.49679565203125264	0.5590265993436564
-0.49673461687500264	0.5610938331836386
-0.49667358171875264	0.5632167734330689
-0.49661254656250264	0.5653315073786959
-0.49655151140625264	0.5673603207010207
-0.49649047625000264	0.5692434152973356
-0.49642944109375264	0.5709621620987709
-0.49636840593750264	0.5725448352886898
-0.49630737078125264	0.5740531750340937
-0.49624633562500264	0.5755559635291388
-0.49618530046875264	0.5771008566670203
-0.49612426531250264	0.578695973438647
-0.49606323015625264	0.5803083064293638
-0.49600219500000264	0.5818788919877567
-0.49594115984375264	0.5833478747773557
-0.49588012468750264	0.5846788471716142
-0.49581908953125264	0.5858725495948078
-0.49575805437500264	0.5869647931106902
-0.49569701921875264	0.5880101621021298
-0.49563598406250264	0.5890587779292654
-0.49557494890625264	0.5901359213137977
-0.49551391375000264	0.5912327547401587
-0.49545287859375264	0.5923114850989889
-0.49539184343750264	0.59332220732929
-0.49533080828125264	0.5942239814208289
-0.49526977312500264	0.5950012856571216
-0.49520873796875264	0.5956692625806798
-0.49514770281250264	0.5962660540217971
-0.49508666765625264	0.5968359304342673
-0.49502563250000264	0.597410590247899
-0.49496459734375264	0.5979964684495905
-0.49490356218750264	0.5985730916280447
-0.49484252703125264	0.5991027266488286
-0.49478149187500264	0.5995468513802606
-0.49472045671875264	0.5998823034676201
-0.49465942156250264	0.6001103727343553
-0.49459838640625264	0.6002553007456521
-0.49453735125000264	0.6003532032172162
-0.49447631609375264	0.6004364043112362
-0.49441528093750264	0.600519925770495
-0.49435424578125264	0.6005957281248612
-0.49429321062500264	0.6006368583725195
-0.49423217546875264	0.6006094519396004
-0.49417114031250264	0.6004873009964463
-0.49411010515625264	0.6002627571393719
-0.49404907000000264	0.599949455833941
-0.49398803484375264	0.5995759398195423
-0.49392699968750264	0.5991731363256227
-0.49386596453125264	0.598761145939336
-0.49380492937500264	0.5983409328964948
-0.49374389421875264	0.5978943279133144
-0.49368285906250264	0.5973921828219675
-0.49362182390625264	0.5968070334730197
-0.49356078875000264	0.5961247923768808
-0.49349975359375264	0.5953505444831494
-0.49343871843750264	0.5945061050803682
-0.49337768328125264	0.5936205142303126
-0.49331664812500264	0.5927175972359352
-0.49325561296875264	0.5918058914901942
-0.49319457781250264	0.5908751865651619
-0.49313354265625264	0.5899010680187741
-0.49307250750000264	0.5888554396083543
-0.49301147234375264	0.5877185224184637
-0.49295043718750264	0.5864872491233495
-0.49288940203125264	0.5851765238629772
-0.49282836687500264	0.5838128825076083
-0.49276733171875264	0.5824232878164235
-0.49270629656250264	0.5810237871063095
-0.49264526140625264	0.5796127803277167
-0.49258422625000264	0.5781717116905507
-0.49252319109375264	0.5766728951567576
-0.49246215593750264	0.5750911742973581
-0.49240112078125264	0.5734145313277471
-0.49234008562500264	0.5716492444022013
-0.49227905046875264	0.5698174251515836
-0.49221801531250264	0.5679479243548442
-0.49215698015625264	0.5660643985126649
-0.49209594500000264	0.5641754884210055
-0.49203490984375264	0.5622711749638067
-0.49197387468750264	0.5603268573418868
-0.49191283953125264	0.5583134912701312
-0.49185180437500264	0.5562096114420668
-0.49179076921875264	0.5540103055520524
-0.49172973406250264	0.5517294480811691
-0.49166869890625264	0.5493942457368038
-0.49160766375000264	0.5470342998298278
-0.49154662859375264	0.54466962657202
-0.49148559343750264	0.5423024865253295
-0.49142455828125264	0.5399163710827566
-0.49136352312500264	0.537482617325328
-0.49130248796875264	0.5349719890357078
-0.49124145281250264	0.5323665545648815
-0.49118041765625264	0.5296670878245977
-0.49111938250000264	0.5268929971414864
-0.49105834734375264	0.5240747861261066
-0.49099731218750264	0.5212420286564048
-0.49093627703125264	0.5184116204316662
-0.49087524187500264	0.5155810261883412
-0.49081420671875264	0.5127292716863189
-0.49075317156250264	0.5098252849627486
-0.49069213640625264	0.5068402655432299
-0.49063110125000264	0.5037591977976157
-0.49057006609375264	0.5005869512586758
-0.49050903093750264	0.497346510637761
-0.49044799578125264	0.49407002564154223
-0.49038696062500264	0.49078627616832704
-0.49032592546875264	0.487509520791433
-0.49026489031250264	0.484234059944223
-0.49020385515625264	0.48093658533696143
-0.49014282000000264	0.47758539025641894
-0.49008178484375264	0.47415285041848765
-0.49002074968750264	0.47062628181133154
-0.48995971453125264	0.46701293861135135
-0.48989867937500264	0.463337228930555
-0.48983764421875264	0.4596312654600502
-0.48977660906250264	0.45592248769100713
-0.48971557390625264	0.45222319962212326
-0.48965453875000264	0.44852604617572367
-0.48959350359375264	0.44480714097613405
-0.48953246843750264	0.4410355891111876
-0.48947143328125264	0.4371856311018969
-0.48941039812500264	0.43324665627981385
-0.48934936296875264	0.42922721399505
-0.48928832781250264	0.4251515426995287
-0.48922729265625264	0.42105012554887555
-0.48916625750000264	0.41694801710238577
-0.48910522234375264	0.4128554424240052
-0.48904418718750264	0.40876427874535826
-0.48898315203125264	0.40465166384926116
-0.48892211687500264	0.4004891894487015
-0.48886108171875264	0.3962540791692648
-0.48880004656250264	0.39193799267422935
-0.48873901140625264	0.3875500321804192
-0.48867797625000264	0.3831129287439507
-0.48861694109375264	0.37865410108170083
-0.48855590593750264	0.3741951511549083
-0.48849487078125264	0.36974383318070725
-0.48843383562500264	0.3652915779071359
-0.48837280046875264	0.360817468251003
-0.48831176531250264	0.35629687911497543
-0.48825073015625264	0.35171122750839223
-0.48818969500000264	0.34705507433433924
-0.48812865984375264	0.34233791351246207
-0.48806762468750264	0.3375801262913843
-0.48800658953125264	0.3328048916678612
-0.48794555437500264	0.328029285014623
-0.48788451921875264	0.3232580406996935
-0.48782348406250264	0.3184823631159266
-0.48776244890625264	0.3136840594611622
-0.48770141375000264	0.3088431270278176
-0.48764037859375264	0.30394572014056737
-0.48757934343750264	0.2989894536154313
-0.48751830828125264	0.2939840574930799
-0.48745727312500264	0.2889472384465597
-0.48739623796875264	0.2838975673256043
-0.48733520281250264	0.2788473316808849
-0.48727416765625264	0.2737981549072137
-0.48721313250000264	0.26874100149524816
-0.48715209734375264	0.26366040697119264
-0.48709106218750264	0.2585410516906448
-0.48703002703125264	0.2533739697744932
-0.48696899187500264	0.24815999878066108
-0.48690795671875264	0.24290919650983867
-0.48684692156250264	0.23763659119207625
-0.48678588640625264	0.23235613576655786
-0.48672485125000264	0.2270753562977992
-0.48666381609375264	0.22179281971502104
-0.48660278093750264	0.2164993392206851
-0.48654174578125264	0.21118223477528245
-0.48648071062500264	0.20583074891579983
-0.48641967546875264	0.20044039942292394
-0.48635864031250264	0.195014678177178
-0.48629760515625264	0.18956355124003055
-0.48623657000000264	0.1840993600283865
-0.48617553484375264	0.1786318735550561
-0.48611449968750264	0.17316463162127815
-0.48605346453125264	0.16769400852311564
-0.48599242937500264	0.16221119746187335
-0.48593139421875264	0.15670617469917678
-0.48587035906250264	0.15117202416088785
-0.48580932390625264	0.14560784571310237
-0.48574828875000264	0.140019046985517
-0.48568725359375264	0.13441507033129663
-0.48562621843750264	0.12880560968632934
-0.48556518328125264	0.12319682934905797
-0.48550414812500264	0.11758917179836526
-0.48544311296875264	0.11197764374144643
-0.48538207781250264	0.10635428173648269
-0.48532104265625264	0.10071170084885844
-0.48526000750000264	0.09504630307361635
-0.48519897234375264	0.08935979800087751
-0.48513793718750264	0.08365846852548664
-0.48507690203125264	0.07795065141398234
-0.48501586687500264	0.07224349509788121
-0.48495483171875264	0.06654026840187595
-0.48489379656250264	0.060839338899731595
-0.48483276140625264	0.05513523278718329
-0.48477172625000264	0.04942126309763853
-0.48471069109375264	0.04369256447986278
-0.48464965593750264	0.03794822848177008
-0.48458862078125264	0.032191695511618254
-0.48452758562500264	0.026429370882069418
-0.48446655046875264	0.020668114399717736
-0.48440551531250264	0.01491262471893935
-0.48434448015625264	0.009163761349810813
-0.48428344500000264	0.003418503002058709
-0.48422240984375264	-0.0023284356774735363
-0.48416137468750264	-0.008082088925435079
-0.48410033953125264	-0.013844944944992846
-0.48403930437500264	-0.019615783609592315
-0.48397826921875264	-0.025390081472753845
-0.48391723406250264	-0.031161793358813458
-0.48385619890625264	-0.0369257107783026
-0.48379516375000264	-0.04267937918327394
-0.48373412859375264	-0.04842382845437721
-0.48367309343750264	-0.05416286256102862
-0.48361205828125264	-0.059901211242387654
-0.48355102312500264	-0.06564232156730837
-0.48348998796875264	-0.07138672621649209
-0.48342895281250264	-0.07713167554231487
-0.48336791765625264	-0.08287210982029956
-0.48330688250000264	-0.08860252652866916
-0.48324584734375264	-0.09431905120590617
-0.48318481218750264	-0.10002084680008366
-0.48312377703125264	-0.1057102344023486
-0.48306274187500264	-0.11139152373211672
-0.48300170671875264	-0.11706902966929522
-0.48294067156250264	-0.1227450650322836
-0.48287963640625264	-0.12841876625958415
-0.48281860125000264	-0.13408623861157618
-0.48275756609375264	-0.13974193851086958
-0.48269653093750264	-0.14538070272324005
-0.48263549578125264	-0.15099962492880617
-0.48257446062500264	-0.15659907126214953
-0.48251342546875264	-0.16218236806094882
-0.48245239031250264	-0.1677542747045097
-0.48239135515625264	-0.17331891144895964
-0.48233032000000264	-0.17887789634197565
-0.48226928484375264	-0.1844294139254467
-0.48220824968750264	-0.18996868557491195
-0.48214721453125264	-0.1954896546362049
-0.48208617937500264	-0.20098718110560454
-0.48202514421875264	-0.20645888451087138
-0.48196410906250264	-0.21190593037806152
-0.48190307390625264	-0.21733246251004676
-0.48184203875000264	-0.22274384708471803
-0.48178100359375264	-0.22814437660500217
-0.48171996843750264	-0.23353536112057563
-0.48165893328125264	-0.23891436057420953
-0.48159789812500264	-0.24427586198038462
-0.48153686296875264	-0.2496131951134774
-0.48147582781250264	-0.25492095279125926
-0.48141479265625264	-0.26019691259460825
-0.48135375750000264	-0.26544275230078024
-0.48129272234375264	-0.2706633314001029
-0.48123168718750264	-0.27586470018886583
-0.48117065203125264	-0.28105154142248784
-0.48110961687500264	-0.28622511993661004
-0.48104858171875264	-0.29138255826995124
-0.48098754656250264	-0.2965176864973444
-0.48092651140625264	-0.30162318870665067
-0.48086547625000264	-0.30669327865597684
-0.48080444109375264	-0.3117258276697011
-0.48074340593750264	-0.3167230604767933
-0.48068237078125264	-0.3216905563402667
-0.48062133562500264	-0.32663493712250646
-0.48056030046875264	-0.33156112190740655
-0.48049926531250264	-0.33647022329458104
-0.48043823015625264	-0.3413588963453884
-0.48037719500000264	-0.3462204104328337
-0.48031615984375264	-0.351047066311564
-0.48025512468750264	-0.3558330159759286
-0.48019408953125264	-0.36057639983362744
-0.48013305437500264	-0.36527996632679566
-0.48007201921875264	-0.36994984601836606
-0.48001098406250264	-0.37459294887486505
-0.47994994890625264	-0.3792140793389323
-0.47988891375000264	-0.38381389121416015
-0.47982787859375264	-0.3883884654526356
-0.47976684343750264	-0.3929307105490903
-0.47970580828125264	-0.39743302515115225
-0.47964477312500264	-0.4018901315923157
-0.47958373796875264	-0.40630096884330147
-0.47952270281250264	-0.41066890618080026
-0.47946166765625264	-0.4150001779539243
-0.47940063250000264	-0.4193012005166552
-0.47933959734375264	-0.4235758753558035
-0.47927856218750264	-0.4278239414620761
-0.47921752703125264	-0.4320410130141944
-0.47915649187500264	-0.4362202556615854
-0.47909545671875264	-0.4403550262784549
-0.47903442156250264	-0.4444413959742264
-0.47897338640625264	-0.4484794898663339
-0.47891235125000264	-0.4524731250109312
-0.47885131609375264	-0.45642798450838534
-0.47879028093750264	-0.4603491214540521
-0.47872924578125264	-0.46423878232945626
-0.47866821062500264	-0.468095441312901
-0.47860717546875264	-0.47191444363605395
-0.47854614031250264	-0.4756899176276765
-0.47848510515625264	-0.4794171224716631
-0.47842407000000264	-0.48309421908648065
-0.47836303484375264	-0.4867227175212456
-0.47830199968750264	-0.490306515604304
-0.47824096453125264	-0.4938499868787252
-0.47817992937500264	-0.4973559524748687
-0.47811889421875264	-0.5008244467299522
-0.47805785906250264	-0.5042527480587066
-0.47799682390625264	-0.5076365771344253
-0.47793578875000264	-0.5109719058450698
-0.47787475359375264	-0.5142565646339591
-0.47781371843750264	-0.5174909457774562
-0.47775268328125264	-0.5206775224322149
-0.47769164812500264	-0.5238194580547426
-0.47763061296875264	-0.526918982814036
-0.47756957781250264	-0.5299762901004261
-0.47750854265625264	-0.5329894480963544
-0.47744750750000264	-0.5359553110817736
-0.47738647234375264	-0.538870945089764
-0.47732543718750264	-0.5417348812611623
-0.47726440203125264	-0.5445476210203756
-0.47720336687500264	-0.547311179023485
-0.47714233171875264	-0.5500279052820018
-0.47708129656250264	-0.5526991776292605
-0.47702026140625264	-0.5553245997870951
-0.47695922625000264	-0.5579020752653766
-0.47689819109375264	-0.5604287236949919
-0.47683715593750264	-0.5629022146436917
-0.47677612078125264	-0.5653218644513247
-0.47671508562500264	-0.5676889178492055
-0.47665405046875264	-0.5700058463569755
-0.47659301531250264	-0.5722750137299156
-0.47653198015625264	-0.5744973616563338
-0.47647094500000264	-0.5766717525175812
-0.47640990984375264	-0.5787953212828062
-0.47634887468750264	-0.5808647141899275
-0.47628783953125264	-0.5828776331068208
-0.47622680437500264	-0.58483393635896
-0.47616576921875264	-0.5867357431475481
-0.47610473406250264	-0.5885864344432343
-0.47604369890625264	-0.5903889809002708
-0.47598266375000264	-0.5921443856113081
-0.47592162859375264	-0.593850992714099
-0.47586059343750264	-0.5955050348219549
-0.47579955828125264	-0.5971022327075396
-0.47573852312500264	-0.5986397362874365
-0.47567748796875264	-0.6001174925929592
-0.47561645281250264	-0.6015383658338154
-0.47555541765625264	-0.6029068872478631
-0.47549438250000264	-0.6042271450950646
-0.47543334734375264	-0.605500761615752
-0.47537231218750264	-0.6067259180763833
-0.47531127703125264	-0.6078979449911717
-0.47525024187500264	-0.6090112810798298
-0.47518920671875264	-0.6100619559633172
-0.47512817156250264	-0.6110494706029961
-0.47506713640625264	-0.6119771742478975
-0.47500610125000264	-0.6128508867024043
-0.47494506609375264	-0.61367630921175
-0.47488403093750264	-0.6144563507442885
-0.47482299578125264	-0.615189594048744
-0.47476196062500264	-0.6158706636491752
-0.47470092546875264	-0.6164924213022495
-0.47463989031250264	-0.6170490794188113
-0.47457885515625264	-0.6175388703006165
-0.47451782000000264	-0.6179650431518193
-0.47445678484375264	-0.6183346445835033
-0.47439574968750264	-0.6186555092569797
-0.47433471453125264	-0.6189327261504415
-0.47427367937500264	-0.61916616443981
-0.47421264421875264	-0.6193502476108854
-0.47415160906250264	-0.6194761778221284
-0.47409057390625264	-0.6195357077457244
-0.47402953875000264	-0.6195248459448577
-0.47396850359375264	-0.6194458441585904
-0.47390746843750264	-0.6193064950395821
-0.47384643328125264	-0.6191169234582256
-0.47378539812500264	-0.6188851827583488
-0.47372436296875264	-0.6186135630074364
-0.47366332781250264	-0.6182972937382211
-0.47360229265625264	-0.6179263295612298
-0.47354125750000264	-0.6174895725484308
-0.47348022234375264	-0.6169797752185326
-0.47341918718750264	-0.6163969506223396
-0.47335815203125264	-0.615748686831916
-0.47329711687500264	-0.6150471205657262
-0.47323608171875264	-0.6143037927902193
-0.47317504656250264	-0.6135245612136395
-0.47311401140625264	-0.6127068011166694
-0.47305297625000264	-0.611840223233971
-0.47299194109375264	-0.6109111097283266
-0.47293090593750264	-0.6099082355829264
-0.47286987078125264	-0.6088279242728285
-0.47280883562500264	-0.607675991310328
-0.47274780046875264	-0.606465600118771
-0.47268676531250264	-0.6052118035761918
-0.47262573015625264	-0.6039250618329385
-0.47256469500000264	-0.6026065589693378
-0.47250365984375264	-0.6012474184697894
-0.47244262468750264	-0.5998322801943774
-0.47238158953125264	-0.5983458121487338
-0.47232055437500264	-0.5967793990960927
-0.47225951921875264	-0.5951351175224233
-0.47219848406250264	-0.593425221920042
-0.47213744890625264	-0.591667227240101
-0.47207641375000264	-0.5898765642788297
-0.47201537859375264	-0.5880599309779658
-0.47195434343750264	-0.5862122373058885
-0.47189330828125264	-0.5843185188567278
-0.47183227312500264	-0.5823601396384982
-0.47177123796875264	-0.5803227740944346
-0.47171020281250264	-0.5782027530311562
-0.47164916765625264	-0.5760089853375048
-0.47158813250000264	-0.5737595393938303
-0.47152709734375264	-0.5714742051716276
-0.47146606218750264	-0.5691661414880594
-0.47140502703125264	-0.5668361958600686
-0.47134399187500264	-0.5644723811980946
-0.47128295671875264	-0.5620548095594868
-0.47122192156250264	-0.5595640605034936
-0.47116088640625264	-0.5569895163344082
-0.47109985125000264	-0.5543341154986106
-0.47103881609375264	-0.5516133887694469
-0.47097778093750264	-0.5488491481217708
-0.47091674578125264	-0.5460604929386362
-0.47085571062500264	-0.5432558542388346
-0.47079467546875264	-0.5404294194518716
-0.47073364031250264	-0.5375635208228164
-0.47067260515625264	-0.5346360376434849
-0.47061157000000264	-0.5316297319909882
-0.47055053484375264	-0.5285395887006378
-0.47048949968750264	-0.5253750586517371
-0.47042846453125264	-0.5221562880378333
-0.47036742937500264	-0.5189058899653196
-0.47030639421875264	-0.5156396637034443
-0.47024535906250264	-0.5123601664183804
-0.47018432390625264	-0.5090557913038097
-0.47012328875000264	-0.5057056687504986
