Time	Frequency
-0.500045774593751	1.977085158229343e-22
-0.499984739437501	1.9781530463529277e-22
-0.499923704281251	1.97905709578974e-22
-0.499862669125001	1.9798371100116903e-22
-0.499801633968751	1.9804990272382092e-22
-0.499740598812501	1.9810106046624548e-22
-0.499679563656251	1.9813307774571353e-22
-0.499618528500001	1.9814463447211668e-22
-0.499557493343751	1.9813837822773674e-22
-0.499496458187501	1.9811860149390455e-22
-0.499435423031251	1.980874451089237e-22
-0.499374387875001	1.9804293054887747e-22
-0.499313352718751	1.979805593503941e-22
-0.499252317562501	1.9789715951405977e-22
-0.499191282406251	1.9779370588472224e-22
-0.499130247250001	1.9767466598702614e-22
-0.499069212093751	1.9754433724913585e-22
-0.499008176937501	1.974031962662044e-22
-0.498947141781251	1.9724733734049792e-22
-0.498886106625001	1.9707155873714664e-22
-0.498825071468751	1.9687362676702412e-22
-0.498764036312501	1.9665622450939439e-22
-0.498703001156251	1.9642493384522722e-22
-0.498641966000001	1.9618380979093568e-22
-0.498580930843751	1.9593208358959952e-22
-0.498519895687501	1.956646769903985e-22
-0.498458860531251	1.9537618086675027e-22
-0.498397825375001	1.9506515868437976e-22
-0.498336790218751	1.9473534264476077e-22
-0.498275755062501	1.9439275064715498e-22
-0.498214719906251	1.9404099293334676e-22
-0.498153684750001	1.9367847129545977e-22
-0.498092649593751	1.9329966693777284e-22
-0.498031614437501	1.9289947984202626e-22
-0.497970579281251	1.924771998590225e-22
-0.497909544125001	1.9203701804354414e-22
-0.497848508968751	1.915847236014445e-22
-0.497787473812501	1.9112321396958518e-22
-0.497726438656251	1.9065034460576632e-22
-0.497665403500001	1.901607509397238e-22
-0.497604368343751	1.896501166507275e-22
-0.497543333187501	1.891184983771198e-22
-0.497482298031251	1.8857016038868292e-22
-0.497421262875001	1.8801015566380043e-22
-0.497360227718751	1.8744041414296982e-22
-0.497299192562501	1.8685840091031557e-22
-0.497238157406251	1.86259299358953e-22
-0.497177122250001	1.8563988880954742e-22
-0.497116087093751	1.8500102270893406e-22
-0.497055051937501	1.843468212432552e-22
-0.496994016781251	1.8368134333464354e-22
-0.496932981625001	1.830054491557503e-22
-0.496871946468751	1.8231630402527914e-22
-0.496810911312501	1.8160980601997519e-22
-0.496749876156251	1.8088391699739394e-22
-0.496688841000001	1.8014023343231592e-22
-0.496627805843751	1.7938261383922733e-22
-0.496566770687501	1.786140659815146e-22
-0.496505735531251	1.778344362007511e-22
-0.496444700375001	1.7704070008710465e-22
-0.496383665218751	1.7622952391509472e-22
-0.496322630062501	1.753999876409808e-22
-0.496261594906251	1.7455429371063032e-22
-0.496200559750001	1.7369595315510342e-22
-0.496139524593751	1.7282698221512923e-22
-0.496078489437501	1.7194638462389304e-22
-0.496017454281251	1.710510945232253e-22
-0.495956419125001	1.7013854846729254e-22
-0.495895383968751	1.6920877724167732e-22
-0.495834348812501	1.6826436335698118e-22
-0.495773313656251	1.6730835962140054e-22
-0.495712278500001	1.6634189228512093e-22
-0.495651243343751	1.653633797834626e-22
-0.495590208187501	1.643699381568397e-22
-0.495529173031251	1.6335977309616896e-22
-0.495468137875001	1.6233362859206199e-22
-0.495407102718751	1.6129418329773204e-22
-0.495346067562501	1.6024393398229501e-22
-0.495285032406251	1.5918329275861395e-22
-0.495223997250001	1.5811040314939082e-22
-0.495162962093751	1.5702275551564075e-22
-0.495101926937501	1.559192545577433e-22
-0.495040891781251	1.5480108376577748e-22
-0.494979856625001	1.5367073510308957e-22
-0.494918821468751	1.5253005718529364e-22
-0.494857786312501	1.5137890800008449e-22
-0.494796751156251	1.5021544694278878e-22
-0.494735716000001	1.4903775196626847e-22
-0.494674680843751	1.4784540322829518e-22
-0.494613645687501	1.4663978467701393e-22
-0.494552610531251	1.4542295358503936e-22
-0.494491575375001	1.4419605568684673e-22
-0.494430540218751	1.4295856264417104e-22
-0.494369505062501	1.4170888715068533e-22
-0.494308469906251	1.4044579665636273e-22
-0.494247434750001	1.3916944278500587e-22
-0.494186399593751	1.3788120854766015e-22
-0.494125364437501	1.3658258612299747e-22
-0.494064329281251	1.352740559690298e-22
-0.494003294125001	1.3395486236794086e-22
-0.493942258968751	1.326238154258631e-22
-0.493881223812501	1.3128038719760387e-22
-0.493820188656251	1.2992516165888333e-22
-0.493759153500001	1.2855934274990938e-22
-0.493698118343751	1.2718381356032186e-22
-0.493637083187501	1.257985283307504e-22
-0.493576048031251	1.2440271050609319e-22
-0.493515012875001	1.2299564826359415e-22
-0.493453977718751	1.2157738366957594e-22
-0.493392942562501	1.2014871690859982e-22
-0.493331907406251	1.1871056520267732e-22
-0.493270872250001	1.1726328044561977e-22
-0.493209837093751	1.158065008629994e-22
-0.493148801937501	1.1433959767873165e-22
-0.493087766781251	1.128623119451096e-22
-0.493026731625001	1.1137504949272326e-22
-0.492965696468751	1.098785910046524e-22
-0.492904661312501	1.0837349891272305e-22
-0.492843626156251	1.0685976624403625e-22
-0.492782591000001	1.0533698435856541e-22
-0.492721555843751	1.0380482206787371e-22
-0.492660520687501	1.0226338490957883e-22
-0.492599485531251	1.0071318194436067e-22
-0.492538450375001	9.915476744900669e-23
-0.492477415218751	9.758837930196038e-23
-0.492416380062501	9.601388454244014e-23
-0.492355344906251	9.44310538971897e-23
-0.492294309750001	9.28398820051217e-23
-0.492233274593751	9.124066561491334e-23
-0.492172239437501	8.963380332075009e-23
-0.492111204281251	8.80195270627837e-23
-0.492050169125001	8.639782183373434e-23
-0.491989133968751	8.476860175985457e-23
-0.491928098812501	8.313196340400315e-23
-0.491867063656251	8.148825152650016e-23
-0.491806028500001	7.983784482606925e-23
-0.491744993343751	7.818086564353475e-23
-0.491683958187501	7.651712562755955e-23
-0.491622923031251	7.484639555053494e-23
-0.491561887875001	7.316876628128862e-23
-0.491500852718751	7.148475486574261e-23
-0.491439817562501	6.979501862290981e-23
-0.491378782406251	6.809990536605965e-23
-0.491317747250001	6.639922834543912e-23
-0.491256712093751	6.469247757949991e-23
-0.491195676937501	6.297933469216109e-23
-0.491134641781251	6.126009171118861e-23
-0.491073606625001	5.953558889896144e-23
-0.491012571468751	5.780665896560839e-23
-0.490951536312501	5.60735338828865e-23
-0.490890501156251	5.433574005174233e-23
-0.490829466000001	5.259258681506391e-23
-0.490768430843751	5.084384405336135e-23
-0.490707395687501	4.9090052564925837e-23
-0.490646360531251	4.7332219127145016e-23
-0.490585325375001	4.5571129277316704e-23
-0.490524290218751	4.3806824407882154e-23
-0.490463255062501	4.2038673280749326e-23
-0.490402219906251	4.02659845466148e-23
-0.490341184750001	3.8488673656489464e-23
-0.490280149593751	3.6707446521697344e-23
-0.490219114437501	3.492335589160152e-23
-0.490158079281251	3.313708547881031e-23
-0.490097044125001	3.1348515580155095e-23
-0.490036008968751	2.955693485765065e-23
-0.489974973812501	2.7761748093609994e-23
-0.489913938656251	2.5963078059959233e-23
-0.489852903500001	2.4161761595582753e-23
-0.489791868343751	2.235876702960989e-23
-0.489730833187501	2.055452085366394e-23
-0.489669798031251	1.8748703492929795e-23
-0.489608762875001	1.6940673833183474e-23
-0.489547727718751	1.5130133457219206e-23
-0.489486692562501	1.3317462644107804e-23
-0.489425657406251	1.1503477428343093e-23
-0.489364622250001	9.688852006901468e-24
-0.489303587093751	7.873700550908269e-24
-0.489242551937501	6.0576448685141764e-24
-0.489181516781251	4.240293911149025e-24
-0.489120481625001	2.4217164803930988e-24
-0.489059446468751	6.0248542732626515e-25
-0.488998411312501	-1.2167279305000735e-24
-0.488937376156251	-3.0356242527983205e-24
-0.488876341000001	-4.8543861383517265e-24
-0.488815305843751	-6.673345289612287e-24
-0.488754270687501	-8.492541228289769e-24
-0.488693235531251	-1.0311571104816005e-23
-0.488632200375001	-1.212984166154358e-23
-0.488571165218751	-1.394698838611321e-23
-0.488510130062501	-1.5763076327139902e-23
-0.488449094906251	-1.7578392891227895e-23
-0.488388059750001	-1.9393032766316302e-23
-0.488327024593751	-2.1206662197480895e-23
-0.488265989437501	-2.301866584148186e-23
-0.488204954281251	-2.482856509570439e-23
-0.488143919125001	-2.6636359533397185e-23
-0.488082883968751	-2.844243643196193e-23
-0.488021848812501	-3.0247079038789443e-23
-0.487960813656251	-3.2050033420932566e-23
-0.487899778500001	-3.3850560032254505e-23
-0.487838743343751	-3.564794796705734e-23
-0.487777708187501	-3.7442037436211436e-23
-0.487716673031251	-3.923326961832041e-23
-0.487655637875001	-4.102219598774418e-23
-0.487594602718751	-4.2808862773002324e-23
-0.487533567562501	-4.4592603450909896e-23
-0.487472532406251	-4.637244077631543e-23
-0.487411497250001	-4.814779801245003e-23
-0.487350462093751	-4.9918914785770954e-23
-0.487289426937501	-5.168656389834334e-23
-0.487228391781251	-5.345127770971506e-23
-0.487167356625001	-5.521274402491784e-23
-0.487106321468751	-5.696989321386397e-23
-0.487045286312501	-5.872163448371014e-23
-0.486984251156251	-6.046766398432102e-23
-0.486923216000001	-6.220865575875825e-23
-0.486862180843751	-6.3945626999813e-23
-0.486801145687501	-6.567897353689229e-23
-0.486740110531251	-6.740797356237455e-23
-0.486679075375001	-6.913120987669729e-23
-0.486618040218751	-7.084760483581985e-23
-0.486557005062501	-7.255721485958138e-23
-0.486495969906251	-7.426110717172403e-23
-0.486434934750001	-7.596039316266017e-23
-0.486373899593751	-7.765519459098038e-23
-0.486312864437501	-7.934439665264802e-23
-0.486251829281251	-8.102641372343674e-23
-0.486190794125001	-8.270036690324043e-23
-0.486129758968751	-8.436671393032666e-23
-0.486068723812501	-8.602678972105731e-23
-0.486007688656251	-8.768161017685347e-23
-0.485946653500001	-8.933091167320035e-23
-0.485885618343751	-9.097322724304262e-23
-0.485824583187501	-9.260697222163716e-23
-0.485763548031251	-9.423164308727596e-23
-0.485702512875001	-9.584811862781501e-23
-0.485641477718751	-9.745782372128087e-23
-0.485580442562501	-9.906144282201412e-23
-0.485519407406251	-1.0065824016987535e-22
-0.485458372250001	-1.0224655408938006e-22
-0.485397337093751	-1.0382505616432064e-22
-0.485336301937501	-1.0539373967918682e-22
-0.485275266781251	-1.0695381688743952e-22
-0.485214231625001	-1.0850660916270336e-22
-0.485153196468751	-1.1005235118872426e-22
-0.485092161312501	-1.115898913849966e-22
-0.485031126156251	-1.131175384920146e-22
-0.484970091000001	-1.1463435140544744e-22
-0.484909055843751	-1.1614080072191838e-22
-0.484848020687501	-1.1763826717947542e-22
-0.484786985531251	-1.19127793187608e-22
-0.484725950375001	-1.2060911362719187e-22
-0.484664915218751	-1.2208077978464798e-22
-0.484603880062501	-1.2354127334622556e-22
-0.484542844906251	-1.2499016465541645e-22
-0.484481809750001	-1.264283515478703e-22
-0.484420774593751	-1.2785719453643202e-22
-0.484359739437501	-1.292772758510404e-22
-0.484298704281251	-1.3068781997279786e-22
-0.484237669125001	-1.3208725471993242e-22
-0.484176633968751	-1.334744336120949e-22
-0.484115598812501	-1.348494960813645e-22
-0.484054563656251	-1.362136475809387e-22
-0.483993528500001	-1.375680367501841e-22
-0.483932493343751	-1.3891267956074062e-22
-0.483871458187501	-1.4024635706675304e-22
-0.483810423031251	-1.4156756436543832e-22
-0.483749387875001	-1.4287568313334114e-22
-0.483688352718751	-1.441713955392495e-22
-0.483627317562501	-1.4545601089997371e-22
-0.483566282406251	-1.467302661132416e-22
-0.483505247250001	-1.4799360829742817e-22
-0.483444212093751	-1.4924457350325988e-22
-0.483383176937501	-1.5048193598192994e-22
-0.483322141781251	-1.51705650696711e-22
-0.483261106625001	-1.5291679961701112e-22
-0.483200071468751	-1.5411659190699803e-22
-0.483139036312501	-1.5530525108700831e-22
-0.483078001156251	-1.5648172815270148e-22
-0.483016966000001	-1.576445041548003e-22
-0.482955930843751	-1.5879280342237964e-22
-0.482894895687501	-1.5992717085715297e-22
-0.482833860531251	-1.6104892319406775e-22
-0.482772825375001	-1.6215894684330188e-22
-0.482711790218751	-1.6325686039360845e-22
-0.482650755062501	-1.6434125032578067e-22
-0.482589719906251	-1.654107856332122e-22
-0.482528684750001	-1.664652736500699e-22
-0.482467649593751	-1.6750575603438827e-22
-0.482406614437501	-1.685335508615116e-22
-0.482345579281251	-1.6954905046094183e-22
-0.482284544125001	-1.70551298065952e-22
-0.482223508968751	-1.715387164312577e-22
-0.482162473812501	-1.725103814868261e-22
-0.482101438656251	-1.734667453420275e-22
-0.482040403500001	-1.7440918558910559e-22
-0.481979368343751	-1.75338765462732e-22
-0.481918333187501	-1.7625524927597331e-22
-0.481857298031251	-1.771572152432251e-22
-0.481796262875001	-1.780431907669548e-22
-0.481735227718751	-1.7891285125670476e-22
-0.481674192562501	-1.7976724921220919e-22
-0.481613157406251	-1.8060786310596296e-22
-0.481552122250001	-1.8143526971520482e-22
-0.481491087093751	-1.822485721487258e-22
-0.481430051937501	-1.8304608542800379e-22
-0.481369016781251	-1.8382671064469853e-22
-0.481307981625001	-1.8459082514358855e-22
-0.481246946468751	-1.8533991808174068e-22
-0.481185911312501	-1.8607526745474488e-22
-0.481124876156251	-1.867967840995356e-22
-0.481063841000001	-1.8750301814046614e-22
-0.481002805843751	-1.8819233041799724e-22
-0.480941770687501	-1.8886423743129397e-22
-0.480880735531251	-1.895197833281785e-22
-0.480819700375001	-1.901606112940705e-22
-0.480758665218751	-1.90787514349714e-22
-0.480697630062501	-1.9139969956496258e-22
-0.480636594906251	-1.9199540449952646e-22
-0.480575559750001	-1.925733489533464e-22
-0.480514524593751	-1.9313378396335346e-22
-0.480453489437501	-1.9367823976584297e-22
-0.480392454281251	-1.9420818151041992e-22
-0.480331419125001	-1.9472371558728177e-22
-0.480270383968751	-1.9522345209438147e-22
-0.480209348812501	-1.9570564772890537e-22
-0.480148313656251	-1.9616965516891154e-22
-0.480087278500001	-1.9661643502065783e-22
-0.480026243343751	-1.9704769441203403e-22
-0.479965208187501	-1.9746439400621985e-22
-0.479904173031251	-1.978658991941505e-22
-0.479843137875001	-1.9825049751437624e-22
-0.479782102718751	-1.98616832264431e-22
-0.479721067562501	-1.9896502217563434e-22
-0.479660032406251	-1.9929651754590223e-22
-0.479598997250001	-1.9961282370840172e-22
-0.479537962093751	-1.9991418511989566e-22
-0.479476926937501	-2.0019935813193742e-22
-0.479415891781251	-2.0046666583392777e-22
-0.479354856625001	-2.0071542182499504e-22
-0.479293821468751	-2.009464918656037e-22
-0.479232786312501	-2.0116151133959616e-22
-0.479171751156251	-2.0136144133022893e-22
-0.479110716000001	-2.0154571676526078e-22
-0.479049680843751	-2.0171272614902662e-22
-0.478988645687501	-2.01861204075674e-22
-0.478927610531251	-2.0199131971042766e-22
-0.478866575375001	-2.0210451007878587e-22
-0.478805540218751	-2.022022047773192e-22
-0.478744505062501	-2.0228455744172378e-22
-0.478683469906251	-2.023502950642702e-22
-0.478622434750001	-2.023978225010064e-22
-0.478561399593751	-2.024266195106904e-22
-0.478500364437501	-2.0243770164278368e-22
-0.478439329281251	-2.0243272938780493e-22
-0.478378294125001	-2.0241253957754918e-22
-0.478317258968751	-2.0237639041872221e-22
-0.478256223812501	-2.0232259448494354e-22
-0.478195188656251	-2.0224999780577538e-22
-0.478134153500001	-2.0215900865171472e-22
-0.478073118343751	-2.0205126141270868e-22
-0.478012083187501	-2.0192819565899707e-22
-0.477951048031251	-2.0178978753776324e-22
-0.477890012875001	-2.016345517353572e-22
-0.477828977718751	-2.014608278867707e-22
-0.477767942562501	-2.0126823941041445e-22
-0.477706907406251	-2.010580561690956e-22
-0.477645872250001	-2.008321269063635e-22
-0.477584837093751	-2.0059128221147202e-22
-0.477523801937501	-2.0033459916825307e-22
-0.477462766781251	-2.0006019367775533e-22
-0.477401731625001	-1.9976686422561596e-22
-0.477340696468751	-1.9945515820457936e-22
-0.477279661312501	-1.9912693588461952e-22
-0.477218626156251	-1.9878379864122669e-22
-0.477157591000001	-1.984257215571715e-22
-0.477096555843751	-1.980510713019047e-22
-0.477035520687501	-1.976580137251977e-22
-0.476974485531251	-1.9724611563093364e-22
-0.476913450375001	-1.9681676257457014e-22
-0.476852415218751	-1.9637201682229152e-22
-0.476791380062501	-1.9591287760304789e-22
-0.476730344906251	-1.954384341351544e-22
-0.476669309750001	-1.9494665236134749e-22
-0.476608274593751	-1.9443613790039093e-22
-0.476547239437501	-1.9390736912879421e-22
-0.476486204281251	-1.9336233674503628e-22
-0.476425169125001	-1.9280288876289444e-22
-0.476364133968751	-1.9222918638547124e-22
-0.476303098812501	-1.916395830493976e-22
-0.476242063656251	-1.9103204262580884e-22
-0.476181028500001	-1.90405915132297e-22
-0.476119993343751	-1.8976255914428469e-22
-0.476058958187501	-1.8910424977379639e-22
-0.475997923031251	-1.8843228117077689e-22
-0.475936887875001	-1.8774588847365945e-22
-0.475875852718751	-1.8704292085134505e-22
-0.475814817562501	-1.8632170293244704e-22
-0.475753782406251	-1.8558251901042202e-22
-0.475692747250001	-1.8482745238318265e-22
-0.475631712093751	-1.8405868252604394e-22
-0.475570676937501	-1.8327667303896458e-22
-0.475509641781251	-1.824797964191132e-22
-0.475448606625001	-1.8166573583424226e-22
-0.475387571468751	-1.808335070463038e-22
-0.475326536312501	-1.7998438421013062e-22
-0.475265501156251	-1.7912091050305298e-22
-0.475204466000001	-1.7824480275479272e-22
-0.475143430843751	-1.7735551346354371e-22
-0.475082395687501	-1.7645070083205511e-22
-0.475021360531251	-1.7552826683307012e-22
-0.474960325375001	-1.7458823984945874e-22
-0.474899290218751	-1.7363285818399085e-22
-0.474838255062501	-1.7266475394925673e-22
-0.474777219906251	-1.7168477235087604e-22
-0.474716184750001	-1.7069127540607543e-22
-0.474655149593751	-1.6968154628522636e-22
-0.474594114437501	-1.6865414862045313e-22
-0.474533079281251	-1.6761025012697572e-22
-0.474472044125001	-1.6655275754895053e-22
-0.474411008968751	-1.654839592189053e-22
-0.474349973812501	-1.6440363791524364e-22
-0.474288938656251	-1.6330925750192516e-22
-0.474227903500001	-1.621981340259359e-22
-0.474166868343751	-1.6106979998357163e-22
-0.474105833187501	-1.5992653417269113e-22
-0.474044798031251	-1.5877156892179344e-22
-0.473983762875001	-1.5760646563430038e-22
-0.473922727718751	-1.5642984734688398e-22
-0.473861692562501	-1.5523856320263581e-22
-0.473800657406251	-1.540303686129949e-22
-0.473739622250001	-1.5280591146984257e-22
-0.473678587093751	-1.5156834059924176e-22
-0.473617551937501	-1.5032082666267193e-22
-0.473556516781251	-1.4906401585944498e-22
-0.473495481625001	-1.4779550624386857e-22
-0.473434446468751	-1.4651182444540502e-22
-0.473373411312501	-1.452113494935275e-22
-0.473312376156251	-1.4389579996191142e-22
-0.473251341000001	-1.425690090027839e-22
-0.473190305843751	-1.412339237835606e-22
-0.473129270687501	-1.3989025224740876e-22
-0.473068235531251	-1.3853469359959445e-22
-0.473007200375001	-1.3716362503326334e-22
-0.472946165218751	-1.3577613016082093e-22
-0.472885130062501	-1.3437492388249268e-22
-0.472824094906251	-1.3296435395624787e-22
-0.472763059750001	-1.3154700965704204e-22
-0.472702024593751	-1.3012165396109064e-22
-0.472640989437501	-1.2868419463559557e-22
-0.472579954281251	-1.2723098922046837e-22
-0.472518919125001	-1.257618941199438e-22
-0.472457883968751	-1.2428060839034591e-22
-0.472396848812501	-1.2279193058172514e-22
-0.472335813656251	-1.2129801223676394e-22
-0.472274778500001	-1.1979659683192437e-22
-0.472213743343751	-1.1828275510723775e-22
-0.472152708187501	-1.1675287386940951e-22
-0.472091673031251	-1.1520776660729775e-22
-0.472030637875001	-1.1365232759305107e-22
-0.471969602718751	-1.120918478543624e-22
-0.471908567562501	-1.1052783003109315e-22
-0.471847532406251	-1.0895666771717048e-22
-0.471786497250001	-1.0737240748927416e-22
-0.471725462093751	-1.0577158988034813e-22
-0.471664426937501	-1.041563562196383e-22
-0.471603391781251	-1.0253315915355915e-22
-0.471542356625001	-1.0090783305367834e-22
-0.471481321468751	-9.928082848901887e-23
-0.471420286312501	-9.764656871009284e-23
-0.471359251156251	-9.599777796145951e-23
-0.471298216000001	-9.433154318541607e-23
-0.471237180843751	-9.265218902887387e-23
