Time	Frequency
-0.5000038132812534	-0.5178898818295875
-0.49994277812500343	-0.5205744752866914
-0.49988174296875343	-0.523445432998462
-0.49982070781250343	-0.5264530523625824
-0.49975967265625343	-0.5295120578961271
-0.49969863750000343	-0.5325177426493316
-0.49963760234375343	-0.5353660590588329
-0.49957656718750343	-0.5379737809073025
-0.49951553203125343	-0.5402947987749641
-0.49945449687500343	-0.5423293368878709
-0.49939346171875343	-0.5441242381085507
-0.49933242656250343	-0.5457641928415733
-0.49927139140625343	-0.5473555576488942
-0.49921035625000343	-0.5490058564316327
-0.49914932109375343	-0.5508029240590622
-0.49908828593750343	-0.5527977600481033
-0.49902725078125343	-0.5549944433367424
-0.49896621562500343	-0.5573490952598474
-0.49890518046875343	-0.5597781407262039
-0.49884414531250343	-0.5621743028836211
-0.49878311015625343	-0.5644272383178142
-0.49872207500000343	-0.5664448065733896
-0.49866103984375343	-0.5681708506267059
-0.49860000468750343	-0.5695960426851541
-0.49853896953125343	-0.570759683715133
-0.49847793437500343	-0.5717420988968214
-0.49841689921875343	-0.5726491016634185
-0.49835586406250343	-0.5735915416559537
-0.49829482890625343	-0.5746639113357979
-0.49823379375000343	-0.5759261640673935
-0.49817275859375343	-0.5773922521244382
-0.49811172343750343	-0.5790275733978102
-0.49805068828125343	-0.5807557921626041
-0.49798965312500343	-0.5824736849271877
-0.49792861796875343	-0.5840711029194118
-0.49786758281250343	-0.5854521625589569
-0.49780654765625343	-0.5865535596449339
-0.49774551250000343	-0.5873564851037059
-0.49768447734375343	-0.5878898855970599
-0.49762344218750343	-0.5882245035523538
-0.49756240703125343	-0.5884589193625748
-0.49750137187500343	-0.5887003604617276
-0.49744033671875343	-0.589044032421155
-0.49737930156250343	-0.5895549735905146
-0.49731826640625343	-0.5902559040125736
-0.49725723125000343	-0.5911233461269245
-0.49719619609375343	-0.5920926721190294
-0.49713516093750343	-0.5930709985320375
-0.49707412578125343	-0.5939553445864955
-0.49701309062500343	-0.5946524873818908
-0.49695205546875343	-0.5950966650993043
-0.49689102031250343	-0.5952617476778089
-0.49682998515625343	-0.5951656150745797
-0.49676895000000343	-0.5948660207743043
-0.49670791484375343	-0.5944488691820287
-0.49664687968750343	-0.594011285154332
-0.49658584453125343	-0.5936428242226715
-0.49652480937500343	-0.5934084752991018
-0.49646377421875343	-0.5933366894415016
-0.49640273906250343	-0.5934146377005342
-0.49634170390625343	-0.5935914791427881
-0.49628066875000343	-0.5937888637027675
-0.49621963359375343	-0.5939165013212431
-0.49615859843750343	-0.593889695220132
-0.49609756328125343	-0.5936454291664602
-0.49603652812500343	-0.5931539418584996
-0.49597549296875343	-0.5924236602296238
-0.49591445781250343	-0.591498699235754
-0.49585342265625343	-0.5904495771455764
-0.49579238750000343	-0.5893590840322803
-0.49573135234375343	-0.588306131228125
-0.49567031718750343	-0.5873507372540315
-0.49560928203125343	-0.5865230261138061
-0.49554824687500343	-0.5858182571375486
-0.49548721171875343	-0.5851986728972234
-0.49542617656250343	-0.5846016364410686
-0.49536514140625343	-0.5839523414440793
-0.49530410625000343	-0.5831785217512424
-0.49524307109375343	-0.5822242632409013
-0.49518203593750343	-0.5810602805761889
-0.49512100078125343	-0.5796887770279865
-0.49505996562500343	-0.5781420998379814
-0.49499893046875343	-0.5764756245884186
-0.49493789531250343	-0.5747564213569483
-0.49487686015625343	-0.5730500207846811
-0.49481582500000343	-0.5714078740734829
-0.49475478984375343	-0.5698579090593187
-0.49469375468750343	-0.5683999256952992
-0.49463271953125343	-0.5670065722437374
-0.49457168437500343	-0.5656295454925087
-0.49451064921875343	-0.5642096389891689
-0.49444961406250343	-0.5626885578536762
-0.49438857890625343	-0.5610201781800606
-0.49432754375000343	-0.5591790868991126
-0.49426650859375343	-0.5571648042645732
-0.49420547343750343	-0.5550010159326703
-0.49414443828125343	-0.5527301474107381
-0.49408340312500343	-0.5504044931895248
-0.49402236796875343	-0.5480757443919633
-0.49396133281250343	-0.5457850081375579
-0.49390029765625343	-0.543555243168426
-0.49383926250000343	-0.5413875038948216
-0.49377822734375343	-0.5392615885892514
-0.49371719218750343	-0.5371408117912174
-0.49365615703125343	-0.5349798406482495
-0.49359512187500343	-0.5327339386823515
-0.49353408671875343	-0.53036772502903
-0.49347305156250343	-0.5278617647546889
-0.49341201640625343	-0.5252157873914466
-0.49335098125000343	-0.5224480093480092
-0.49328994609375343	-0.5195908438817342
-0.49322891093750343	-0.5166839941655619
-0.49316787578125343	-0.5137663782856245
-0.49310684062500343	-0.5108685126978669
-0.49304580546875343	-0.5080068690885793
-0.49298477031250343	-0.5051812659153666
-0.49292373515625343	-0.5023756690462866
-0.49286270000000343	-0.49956208617623293
-0.49280166484375343	-0.49670667604228236
-0.49274062968750343	-0.4937767934461442
-0.49267959453125343	-0.49074751550100065
-0.49261855937500343	-0.4876063399532752
-0.49255752421875343	-0.48435518858186377
-0.49249648906250343	-0.48100943177362326
-0.49243545390625343	-0.4775942551417026
-0.49237441875000343	-0.4741392155283342
-0.49231338359375343	-0.47067214961856413
-0.49225234843750343	-0.46721366429001177
-0.49219131328125343	-0.46377330500809727
-0.49213027812500343	-0.46034815671500373
-0.49206924296875343	-0.456924067651326
-0.49200820781250343	-0.4534791015836995
-0.49194717265625343	-0.4499884329724415
-0.49188613750000343	-0.446429647780648
-0.49182510234375343	-0.44278732584377667
-0.49176406718750343	-0.43905598529048384
-0.49170303203125343	-0.4352408576933785
-0.49164199687500343	-0.43135642130243984
-0.49158096171875343	-0.4274230790771948
-0.49151992656250343	-0.4234627002677842
-0.49145889140625343	-0.4194939887333423
-0.49139785625000343	-0.41552872316593237
-0.49133682109375343	-0.4115696176470887
-0.49127578593750343	-0.4076101367589109
-0.49121475078125343	-0.40363628243481375
-0.49115371562500343	-0.39962994768401255
-0.49109268046875343	-0.3955730319236332
-0.49103164531250343	-0.39145140825004054
-0.49097061015625343	-0.38725793166146544
-0.49090957500000343	-0.3829938672701617
-0.49084853984375343	-0.3786684704787649
-0.49078750468750343	-0.3742968639596227
-0.49072646953125343	-0.3698966718970183
-0.49066543437500343	-0.3654841541867635
-0.49060439921875343	-0.36107072647959637
-0.49054336406250343	-0.35666061121984066
-0.49048232890625343	-0.35225009114777994
-0.49042129375000343	-0.3478285058784987
-0.49036025859375343	-0.3433807475740335
-0.49029922343750343	-0.33889069947971223
-0.49023818828125343	-0.334344899398023
-0.49017715312500343	-0.3297356451088563
-0.49011611796875343	-0.32506281116989116
-0.49005508281250343	-0.320333959500097
-0.48999404765625343	-0.3155627600668233
-0.48993301250000343	-0.31076608768401853
-0.48987197734375343	-0.3059604258702201
-0.48981094218750343	-0.30115832469711323
-0.48974990703125343	-0.29636566514069346
-0.48968887187500343	-0.29158036408339444
-0.48962783671875343	-0.2867928192685463
-0.48956680156250343	-0.2819879946804028
-0.48950576640625343	-0.27714869858828695
-0.48944473125000343	-0.2722593519827314
-0.48938369609375343	-0.26730946399982125
-0.48932266093750343	-0.2622960922560371
-0.48926162578125343	-0.2572247378182075
-0.48920059062500343	-0.25210845004861987
-0.48913955546875343	-0.24696529981994625
-0.48907852031250343	-0.24181471057676995
-0.48901748515625343	-0.2366734237345549
-0.48895645000000343	-0.23155197615762596
-0.48889541484375343	-0.22645242239837296
-0.48883437968750343	-0.22136778540314744
-0.48877334453125343	-0.21628339120263243
-0.48871230937500343	-0.21117986310568035
-0.48865127421875343	-0.20603718459175718
-0.48859023906250343	-0.20083896731043158
-0.48852920390625343	-0.19557603280171032
-0.48846816875000343	-0.19024858638701034
-0.48840713359375343	-0.18486650060981039
-0.48834609843750343	-0.17944758647197062
-0.48828506328125343	-0.1740141800953712
-0.48822402812500343	-0.16858874354979722
-0.48816299296875343	-0.16318936934068737
-0.48810195781250343	-0.15782606457926093
-0.48804092265625343	-0.1524985689779375
-0.48797988750000343	-0.14719624200805417
-0.48791885234375343	-0.14190011941096914
-0.48785781718750343	-0.13658672303262487
-0.48779678203125343	-0.13123284819919834
-0.48773574687500343	-0.1258203698829916
-0.48767471171875343	-0.12034010212903853
-0.48761367656250343	-0.11479393441715655
-0.48755264140625343	-0.10919477197019008
-0.48749160625000343	-0.1035642288489822
-0.48743057109375343	-0.09792853410353466
-0.48736953593750343	-0.0923134697676503
-0.48730850078125343	-0.0867392952697301
-0.48724746562500343	-0.08121665738687363
-0.48718643046875343	-0.07574437216978064
-0.48712539531250343	-0.07030955629498663
-0.48706436015625343	-0.06489007312653527
-0.48700332500000343	-0.0594588626722287
-0.48694228984375343	-0.05398936466640239
-0.48688125468750343	-0.04846093743079254
-0.48682021953125343	-0.04286314434500567
-0.48675918437500343	-0.037198066722912815
-0.48669814921875343	-0.03148018715529486
-0.48663711406250343	-0.025733803414439187
-0.48657607890625343	-0.019988452806813807
-0.48651504375000343	-0.014273268845433238
-0.48645400859375343	-0.008611344423767094
-0.48639297343750343	-0.003015159185215854
-0.48633193828125343	0.0025159778326350165
-0.48627090312500343	0.007995873729326431
-0.48620986796875343	0.013448761649527859
-0.48614883281250343	0.018904547766409242
-0.48608779765625343	0.024392942810051124
-0.48602676250000343	0.029937551731397092
-0.48596572734375343	0.03555106293065029
-0.48590469218750343	0.041232531251825376
-0.48584365703125343	0.046967313597554385
-0.48578262187500343	0.05272969576140263
-0.48572158671875343	0.058487713263596065
-0.48566055156250343	0.06420923397041745
-0.48559951640625343	0.06986813702513299
-0.48553848125000343	0.07544938853357147
-0.48547744609375343	0.08095199717246976
-0.48541641093750343	0.08638923839608709
-0.48535537578125343	0.09178608202742858
-0.48529434062500343	0.09717430956161746
-0.48523330546875343	0.10258628491264118
-0.48517227031250343	0.10804858920642753
-0.48511123515625343	0.11357672048691841
-0.48505020000000343	0.11917190841874244
-0.48498916484375343	0.12482068951763141
-0.48492812968750343	0.13049731583417462
-0.48486709453125343	0.1361685642497233
-0.48480605937500343	0.14180004482392847
-0.48474502421875343	0.1473627811105676
-0.48468398906250343	0.152838783813444
-0.48462295390625343	0.1582245078182328
-0.48456191875000343	0.1635315039100705
-0.48450088359375343	0.16878415171055114
-0.48443984843750343	0.17401490127240252
-0.48437881328125343	0.17925793550990893
-0.48431777812500343	0.18454247687319558
-0.48425674296875343	0.18988701486211837
-0.48419570781250343	0.1952955857089118
-0.48413467265625343	0.20075685681567085
-0.48407363750000343	0.20624620722105888
-0.48401260234375343	0.21173038696903113
-0.48395156718750343	0.2171738267071053
-0.48389053203125343	0.2225453995781152
-0.48382949687500343	0.2278243559737826
-0.48376846171875343	0.23300425773352595
-0.48370742656250343	0.23809414321587855
-0.48364639140625343	0.24311671720634281
-0.48358535625000343	0.24810389796391366
-0.48352432109375343	0.25309056499433963
-0.48346328593750343	0.2581077281343148
-0.48340225078125343	0.26317643790387135
-0.48334121562500343	0.26830362240707406
-0.48328018046875343	0.2734806769355576
-0.48321914531250343	0.2786850532255354
-0.48315811015625343	0.2838845177710005
-0.48309707500000343	0.28904329842750986
-0.48303603984375343	0.294128935760306
-0.48297500468750343	0.29911847132572855
-0.48291396953125343	0.3040027964109489
-0.48285293437500343	0.30878832835677483
-0.48279189921875343	0.31349566029238446
-0.48273086406250343	0.31815546896026176
-0.48266982890625343	0.3228024732523367
-0.48260879375000343	0.3274685917598407
-0.48254775859375343	0.33217666320526923
-0.48248672343750343	0.3369359698490065
-0.48242568828125343	0.3417404059910408
-0.48236465312500343	0.3465696209746026
-0.48230361796875343	0.35139290929892203
-0.48224258281250343	0.35617510406269504
-0.48218154765625343	0.36088332924717476
-0.48212051250000343	0.3654932949757581
-0.48205947734375343	0.3699939263461368
-0.48199844218750343	0.37438942528504415
-0.48193740703125343	0.37869834326530494
-0.48187637187500343	0.3829498414064643
-0.48181533671875343	0.3871778912188615
-0.48175430156250343	0.3914145703078253
-0.48169326640625343	0.39568375162710545
-0.48163223125000343	0.39999640003552855
-0.48157119609375343	0.4043483876943208
-0.48151016093750343	0.40872125635578893
-0.48144912578125343	0.41308578307992294
-0.48138809062500343	0.41740763783031015
-0.48132705546875343	0.42165402345180925
-0.48126602031250343	0.42580002320136573
-0.48120498515625343	0.4298334075848148
-0.48114395000000343	0.43375693314134184
-0.48108291484375343	0.4375876849122117
-0.48102187968750343	0.44135361237498105
-0.48096084453125343	0.4450879481422893
-0.48089980937500343	0.44882260434558024
-0.48083877421875343	0.4525818427096648
-0.48077773906250343	0.4563774565205454
-0.48071670390625343	0.4602064111900527
-0.48065566875000343	0.46405140899757547
-0.48059463359375343	0.4678842530502441
-0.48053359843750343	0.47167134443003295
-0.48047256328125343	0.4753802417886241
-0.48041152812500343	0.4789859874759626
-0.48035049296875343	0.4824759515549044
-0.48028945781250343	0.48585224978432334
-0.48022842265625343	0.48913125533281027
-0.48016738750000343	0.4923402856580753
-0.48010635234375343	0.49551211958482266
-0.48004531718750343	0.4986784499469409
-0.47998428203125343	0.5018635680618345
-0.47992324687500343	0.5050795012109289
-0.47986221171875343	0.5083235675481242
-0.47980117656250343	0.5115788530803063
-0.47974014140625343	0.5148175107541351
-0.47967910625000343	0.5180062290080144
-0.47961807109375343	0.5211127928724433
-0.47955703593750343	0.5241124301685712
-0.47949600078125343	0.5269926812434456
-0.47943496562500343	0.529755821946781
-0.47937393046875343	0.5324183561856739
-0.47931289531250343	0.5350076846101464
-0.47925186015625343	0.5375566064837625
-0.47919082500000343	0.5400967399899488
-0.47912978984375343	0.5426521769893851
-0.47906875468750343	0.5452346346539776
-0.47900771953125343	0.5478410600082746
-0.47894668437500343	0.5504541713320207
-0.47888564921875343	0.5530458403147761
-0.47882461406250343	0.5555826459084006
-0.47876357890625343	0.558032493439087
-0.47870254375000343	0.5603709789552315
-0.47864150859375343	0.5625862313533052
-0.47858047343750343	0.5646812597532851
-0.47851943828125343	0.5666733326042404
-0.47845840312500343	0.5685905147911716
-0.47839736796875343	0.5704660441708733
-0.47833633281250343	0.5723316564364707
-0.47827529765625343	0.5742111900727143
-0.47821426250000343	0.5761157567441115
-0.47815322734375343	0.5780414509790595
-0.47809219218750343	0.5799700600689569
-0.47803115703125343	0.581872636706322
-0.47797012187500343	0.5837152343782381
-0.47790908671875343	0.5854656655354935
-0.47784805156250343	0.5870999247750998
-0.47778701640625343	0.588606991524329
-0.47772598125000343	0.5899910480798666
-0.47766494609375343	0.5912706565801973
-0.47760391093750343	0.5924750501319406
-0.47754287578125343	0.5936382732209899
-0.47748184062500343	0.5947923396342873
-0.47742080546875343	0.5959607769561767
-0.47735977031250343	0.5971538506224107
-0.47729873515625343	0.5983664315839257
-0.47723770000000343	0.5995789492026057
-0.47717666484375343	0.6007612487977688
-0.47711562968750343	0.6018785866124767
-0.47705459453125343	0.6028985663913403
-0.47699355937500343	0.6037976310476316
-0.47693252421875343	0.6045658077588254
-0.47687148906250343	0.6052087473739867
-0.47681045390625343	0.6057466343079091
-0.47674941875000343	0.6062101715870561
-0.47668838359375343	0.6066344378142712
-0.47662734843750343	0.6070518429997978
-0.47656631328125343	0.6074855941272573
-0.47650527812500343	0.6079449842635624
-0.47644424296875343	0.6084234576040564
-0.47638320781250343	0.6088998488720663
-0.47632217265625343	0.6093425627099627
-0.47626113750000343	0.6097158685650466
-0.47620010234375343	0.6099870543171071
-0.47613906718750343	0.6101330043107611
-0.47607803203125343	0.6101448782410251
-0.47601699687500343	0.6100299407657332
-0.47595596171875343	0.6098101629066737
-0.47589492656250343	0.6095178675500098
-0.47583389140625343	0.6091892837734364
-0.47577285625000343	0.6088572928397338
-0.47571182109375343	0.6085448150646708
-0.47565078593750343	0.6082601678885436
-0.47558975078125343	0.6079953370487928
-0.47552871562500343	0.6077275181657998
-0.47546768046875343	0.6074236298942153
-0.47540664531250343	0.6070469047302713
-0.47534561015625343	0.606564245013457
-0.47528457500000343	0.605952877215077
-0.47522353984375343	0.6052049695992818
-0.47516250468750343	0.6043292801691518
-0.47510146953125343	0.6033494936587515
-0.47504043437500343	0.6022995551260003
-0.47497939921875343	0.601216919752705
-0.47491836406250343	0.6001350759831322
-0.47485732890625343	0.5990768374686332
-0.47479629375000343	0.5980497427626508
-0.47473525859375343	0.59704448975277
-0.47467422343750343	0.5960367319826825
-0.47461318828125343	0.5949918950817755
-0.47455215312500343	0.5938720680371253
-0.47449111796875343	0.5926435961212503
-0.47443008281250343	0.5912838464960789
-0.47436904765625343	0.5897857942388566
-0.47430801250000343	0.5881595231823131
-0.47424697734375343	0.5864303262321424
-0.47418594218750343	0.5846337440742947
-0.47412490703125343	0.582808528203515
-0.47406387187500343	0.5809889540882486
-0.47400283671875343	0.5791979933624899
-0.47394180156250343	0.5774426855553448
-0.47388076640625343	0.5757126729742317
-0.47381973125000343	0.5739822195614713
-0.47375869609375343	0.5722152995558506
-0.47369766093750343	0.5703727520105368
-0.47363662578125343	0.5684201046803846
-0.47357559062500343	0.5663345069938824
-0.47351455546875343	0.5641093739765091
-0.47345352031250343	0.5617558179429601
-0.47339248515625343	0.5593005766972707
-0.47333145000000343	0.5567808174625833
-0.47327041484375343	0.5542368253663783
-0.47320937968750343	0.5517040283505585
-0.47314834453125343	0.5492059505179969
-0.47308730937500343	0.5467495067599336
-0.47302627421875343	0.5443235777695866
-0.47296523906250343	0.5419011502341198
-0.47290420390625343	0.5394446233898298
-0.47284316875000343	0.5369132550561128
-0.47278213359375343	0.5342712884563215
-0.47272109843750343	0.5314951558946552
-0.47266006328125343	0.5285782989325721
-0.47259902812500343	0.5255326224499399
-0.47253799296875343	0.522386292710318
-0.47247695781250343	0.5191783017358306
-0.47241592265625343	0.5159508536129971
-0.47235488750000343	0.5127410571653838
-0.47229385234375343	0.5095735558357674
-0.47223281718750343	0.5064555767322468
-0.47217178203125343	0.5033754174428687
-0.47211074687500343	0.500304686060203
-0.47204971171875343	0.4972038652233183
-0.47198867656250343	0.49403013344254126
-0.47192764140625343	0.4907459111144895
-0.47186660625000343	0.48732643225215333
-0.47180557109375343	0.48376483025767225
-0.47174453593750343	0.4800737029693928
-0.47168350078125343	0.47628282876176287
-0.47162246562500343	0.47243346509551115
-0.47156143046875343	0.46857031405214605
-0.47150039531250343	0.4647327306567932
-0.47143936015625343	0.46094692916226215
-0.47137832500000343	0.4572207252952365
-0.47131728984375343	0.45354185762790983
-0.47125625468750343	0.44988027512901607
-0.47119521953125343	0.4461939975064182
-0.47113418437500343	0.44243740095167644
-0.47107314921875343	0.43857030086437404
-0.47101211406250343	0.4345660490491699
-0.47095107890625343	0.43041702801410714
-0.47089004375000343	0.4261364426145899
-0.47082900859375343	0.42175601686246633
-0.47076797343750343	0.41731997657535125
-0.47070693828125343	0.41287647985310416
-0.47064590312500343	0.4084681764103414
-0.47058486796875343	0.40412372862984053
-0.47052383281250343	0.39985201007130733
-0.47046279765625343	0.3956402042228182
-0.47040176250000343	0.3914561872380963
-0.47034072734375343	0.3872547235771497
-0.47027969218750343	0.38298631404754
-0.47021865703125343	0.3786070208742609
-0.47015762187500343	0.37408734212363903
