Time	Frequency
-0.5000114424374971	0.32971814847054864
-0.49995040728124707	0.3338935963424336
-0.49988937212499707	0.33804576866182817
-0.49982833696874707	0.34217427872213607
-0.49976730181249707	0.3462753653712669
-0.49970626665624707	0.3503475998509385
-0.49964523149999707	0.3543932138217837
-0.49958419634374707	0.35841361101408925
-0.49952316118749707	0.36240688755634887
-0.49946212603124707	0.3663708234321206
-0.49940109087499707	0.3703057725402783
-0.49934005571874707	0.374213066204379
-0.49927902056249707	0.3780923497888211
-0.49921798540624707	0.38194217751856363
-0.49915695024999707	0.3857620537370775
-0.49909591509374707	0.3895523228734572
-0.49903487993749707	0.39331278035940365
-0.49897384478124707	0.39704276246457776
-0.49891280962499707	0.40074211736653037
-0.49885177446874707	0.4044108294359221
-0.49879073931249707	0.4080481216915218
-0.49872970415624707	0.411653198150536
-0.49866866899999707	0.4152264424076549
-0.49860763384374707	0.41876849863948873
-0.49854659868749707	0.42227850832230857
-0.49848556353124707	0.4257548017436925
-0.49842452837499707	0.4291972635124551
-0.49836349321874707	0.43260733634466697
-0.49830245806249707	0.4359852317990215
-0.49824142290624707	0.4393288648557681
-0.49818038774999707	0.4426366859049307
-0.49811935259374707	0.44590994844576937
-0.49805831743749707	0.449150379910855
-0.49799728228124707	0.452356852238202
-0.49793624712499707	0.4555266545257335
-0.49787521196874707	0.4586594628262561
-0.49781417681249707	0.4617574852326225
-0.49775314165624707	0.46482148457590367
-0.49769210649999707	0.4678491730437403
-0.49763107134374707	0.47083852897551215
-0.49757003618749707	0.47379060763590364
-0.49750900103124707	0.47670740414664503
-0.49744796587499707	0.4795882928525963
-0.49738693071874707	0.4824307091943711
-0.49732589556249707	0.4852338842654224
-0.49726486040624707	0.48799961147458226
-0.49720382524999707	0.49072891857740986
-0.49714279009374707	0.4934201206163097
-0.49708175493749707	0.49607130405768773
-0.49702071978124707	0.49868302167979894
-0.49695968462499707	0.5012568802800447
-0.49689864946874707	0.5037925736480828
-0.49683761431249707	0.5062881942592649
-0.49677657915624707	0.5087430724097363
-0.49671554399999707	0.5111584301488229
-0.49665450884374707	0.513534926365636
-0.49659347368749707	0.5158712733528793
-0.49653243853124707	0.5181661689800369
-0.49647140337499707	0.5204201568351473
-0.49641036821874707	0.5226342919853556
-0.49634933306249707	0.5248079957460519
-0.49628829790624707	0.5269397455239905
-0.49622726274999707	0.5290293777889172
-0.49616622759374707	0.5310780726614834
-0.49610519243749707	0.5330860325255482
-0.49604415728124707	0.5350518375622968
-0.49598312212499707	0.5369745986555061
-0.49592208696874707	0.5388551915267684
-0.49586105181249707	0.5406944738476807
-0.49580001665624707	0.5424915711058225
-0.49573898149999707	0.5442451091075963
-0.49567794634374707	0.5459552474553887
-0.49561691118749707	0.5476231066007021
-0.49555587603124707	0.5492486258290036
-0.49549484087499707	0.5508304868434263
-0.49543380571874707	0.5523681470587851
-0.49537277056249707	0.5538624639062043
-0.49531173540624707	0.5553139498793215
-0.49525070024999707	0.5567217398739619
-0.49518966509374707	0.5580849363493291
-0.49512862993749707	0.559403896499265
-0.49506759478124707	0.5606793229500587
-0.49500655962499707	0.5619108555527489
-0.49494552446874707	0.5630975736539515
-0.49488448931249707	0.564239445446291
-0.49482345415624707	0.5653371681511601
-0.49476241899999707	0.5663907121183924
-0.49470138384374707	0.5673991863508274
-0.49464034868749707	0.568362283105887
-0.49457931353124707	0.5692806930678209
-0.49451827837499707	0.570154708422649
-0.49445724321874707	0.5709835238584124
-0.49439620806249707	0.5717665060454803
-0.49433517290624707	0.5725041886403006
-0.49427413774999707	0.5731972325421657
-0.49421310259374707	0.5738451311820697
-0.49415206743749707	0.5744469346850942
-0.49409103228124707	0.575002804366437
-0.49402999712499707	0.5755136699132702
-0.49396896196874707	0.5759795184922161
-0.49390792681249707	0.5763993067488623
-0.49384689165624707	0.5767726767890115
-0.49378585649999707	0.5771004840136043
-0.49372482134374707	0.5773832471752838
-0.49366378618749707	0.5776202162727913
-0.49360275103124707	0.5778105972590992
-0.49354171587499707	0.5779548380176962
-0.49348068071874707	0.5780538474377025
-0.49341964556249707	0.578107431845122
-0.49335861040624707	0.5781145591154215
-0.49329757524999707	0.5780750475169596
-0.49323654009374707	0.5779898488820903
-0.49317550493749707	0.577859461626384
-0.49311446978124707	0.577683120079079
-0.49305343462499707	0.5774600493713721
-0.49299239946874707	0.5771907068714861
-0.49293136431249707	0.5768760255083493
-0.49287032915624707	0.5765159320476738
-0.49280929399999707	0.5761095294229467
-0.49274825884374707	0.5756565838236442
-0.49268722368749707	0.5751578943560883
-0.49262618853124707	0.5746140105708158
-0.49256515337499707	0.5740244283710266
-0.49250411821874707	0.5733885037738063
-0.49244308306249707	0.5727064955309727
-0.49238204790624707	0.57197911603118
-0.49232101274999707	0.571206487698775
-0.49225997759374707	0.570388151621748
-0.49219894243749707	0.569523894857078
-0.49213790728124707	0.5686140340640634
-0.49207687212499707	0.5676589378064182
-0.49201583696874707	0.5666586488777354
-0.49195480181249707	0.5656130099588546
-0.49189376665624707	0.5645219759185135
-0.49183273149999707	0.5633857182015144
-0.49177169634374707	0.5622044466872553
-0.49171066118749707	0.5609782395907711
-0.49164962603124707	0.5597070989256346
-0.49158859087499707	0.5583910759397286
-0.49152755571874707	0.5570303031047711
-0.49146652056249707	0.5556249360956924
-0.49140548540624707	0.5541750656863702
-0.49134445024999707	0.5526807320360505
-0.49128341509374707	0.5511420191029706
-0.49122237993749707	0.5495590626504543
-0.49116134478124707	0.5479320130261016
-0.49110030962499707	0.5462610252970185
-0.49103927446874707	0.5445462189735232
-0.49097823931249707	0.5427876562234317
-0.49091720415624707	0.5409854192413134
-0.49085616899999707	0.5391396798320541
-0.49079513384374707	0.5372506442644925
-0.49073409868749707	0.5353184659679059
-0.49067306353124707	0.5333432306021143
-0.49061202837499707	0.5313250053629152
-0.49055099321874707	0.5292639368313196
-0.49048995806249707	0.5271602881300798
-0.49042892290624707	0.5250143009920286
-0.49036788774999707	0.522826050168112
-0.49030685259374707	0.5205955536850952
-0.49024581743749707	0.5183230209596161
-0.49018478228124707	0.5160087966211238
-0.49012374712499707	0.5136530440883591
-0.49006271196874707	0.511255745209083
-0.49000167681249707	0.5088170295064578
-0.48994064165624707	0.5063372729774149
-0.48987960649999707	0.5038168010233358
-0.48981857134374707	0.5012556627890274
-0.48975753618749707	0.49865386367953496
-0.48969650103124707	0.49601167115809813
-0.48963546587499707	0.4933294858594604
-0.48957443071874707	0.49060752835900096
-0.48951339556249707	0.4878458181528054
-0.48945236040624707	0.48504444832167404
-0.48939132524999707	0.4822037948876454
-0.48933029009374707	0.47932428164447444
-0.48926925493749707	0.4764059764846094
-0.48920821978124707	0.4734487851067006
-0.48914718462499707	0.47045300633572734
-0.48908614946874707	0.46741926433134695
-0.48902511431249707	0.4643478998117765
-0.48896407915624707	0.46123881164424424
-0.48890304399999707	0.4580919801073326
-0.48884200884374707	0.45490783079828084
-0.48878097368749707	0.4516869220691641
-0.48871993853124707	0.44842948170389746
-0.48865890337499707	0.44513544581554054
-0.48859786821874707	0.4418049436096722
-0.48853683306249707	0.43843851198775136
-0.48847579790624707	0.43503664792500846
-0.48841476274999707	0.43159942054101197
-0.48835372759374707	0.428126793187144
-0.48829269243749707	0.42461909583895885
-0.48823165728124707	0.4210768886397558
-0.48817062212499707	0.41750050453623083
-0.48810958696874707	0.4138900281267427
-0.48804855181249707	0.4102456424040424
-0.48798751665624707	0.40656772630470694
-0.48792648149999707	0.40285663260013815
-0.48786544634374707	0.3991125800412991
-0.48780441118749707	0.3953358018732403
-0.48774337603124707	0.39152664835229556
-0.48768234087499707	0.38768547375153284
-0.48762130571874707	0.38381254481571153
-0.48756027056249707	0.37990812431536986
-0.48749923540624707	0.37597252778381296
-0.48743820024999707	0.3720060941499386
-0.48737716509374707	0.36800918705322655
-0.48731612993749707	0.3639821574901507
-0.48725509478124707	0.3599252453253635
-0.48719405962499707	0.35583861774143066
-0.48713302446874707	0.3517225805608484
-0.48707198931249707	0.34757763605518255
-0.48701095415624707	0.34340421697281054
-0.48694991899999707	0.3392024975594621
-0.48688888384374707	0.3349726524987576
-0.48682784868749707	0.3307151550212851
-0.48676681353124707	0.32643055079689853
-0.48670577837499707	0.32211905048262734
-0.48664474321874707	0.3177807080032523
-0.48658370806249707	0.3134159575373736
-0.48652267290624707	0.30902547007867237
-0.48646163774999707	0.3046095221304261
-0.48640060259374707	0.3001681076689758
-0.48633956743749707	0.2957015976195493
-0.48627853228124707	0.2912107222213129
-0.48621749712499707	0.2866959209314958
-0.48615646196874707	0.28215718270725876
-0.48609542681249707	0.27759465904512903
-0.48603439165624707	0.2730090426657501
-0.48597335649999707	0.2684010167013615
-0.48591232134374707	0.26377067868023746
-0.48585128618749707	0.2591179957182786
-0.48579025103124707	0.25444350364582535
-0.48572921587499707	0.2497480044238511
-0.48566818071874707	0.24503180786932893
-0.48560714556249707	0.24029481633868902
-0.48554611040624707	0.23553731378761567
-0.48548507524999707	0.23076017320081993
-0.48542404009374707	0.2259640809425015
-0.48536300493749707	0.22114901462732062
-0.48530196978124707	0.2163148955520935
-0.48524093462499707	0.2114623218909546
-0.48517989946874707	0.20659216669916097
-0.48511886431249707	0.20170476391204922
-0.48505782915624707	0.1968000107584679
-0.48499679399999707	0.1918781969437938
-0.48493575884374707	0.18694020283415147
-0.48487472368749707	0.18198672643233718
-0.48481368853124707	0.17701776796546848
-0.48475265337499707	0.17203325303431766
-0.48469161821874707	0.167033841927807
-0.48463058306249707	0.16202050640931098
-0.48456954790624707	0.15699349803942553
-0.48450851274999707	0.151952537061789
-0.48444747759374707	0.14689801527934818
-0.48438644243749707	0.14183109622475462
-0.48432540728124707	0.13675237861552836
-0.48426437212499707	0.1316614712322382
-0.48420333696874707	0.12655841241786447
-0.48414230181249707	0.12144443104990349
-0.48408126665624707	0.11632051968921328
-0.48402023149999707	0.11118634554525686
-0.48395919634374707	0.10604155899861967
-0.48389816118749707	0.10088716130259347
-0.48383712603124707	0.09572441768622116
-0.48377609087499707	0.09055326757936295
-0.48371505571874707	0.0853731726838702
-0.48365402056249707	0.08018488074347993
-0.48359298540624707	0.07498984222678849
-0.48353195024999707	0.0697883541645287
-0.48347091509374707	0.06457979107117373
-0.48340987993749707	0.059364472353020004
-0.48334884478124707	0.05414386534482525
-0.48328780962499707	0.04891877321589236
-0.48322677446874707	0.04368864647184
-0.48316573931249707	0.038453204130952205
-0.48310470415624707	0.03321362341052474
-0.48304366899999707	0.02797126607265356
-0.48298263384374707	0.022726040610256144
-0.48292159868749707	0.01747726630397428
-0.48286056353124707	0.012225626843117343
-0.48279952837499707	0.00697274378790354
-0.48273849321874707	0.0017190964272547318
-0.48267745806249707	-0.003536065535995766
-0.48261642290624707	-0.008792707652532946
-0.48255538774999707	-0.014049369579980348
-0.48249435259374707	-0.019304965259876093
-0.48243331743749707	-0.024559886404307445
-0.48237228228124707	-0.029814537415634567
-0.48231124712499707	-0.03506793411379115
-0.48225021196874707	-0.04031871065365401
-0.48218917681249707	-0.04556669250095491
-0.48212814165624707	-0.050812447411294454
-0.48206710649999707	-0.05605566607873047
-0.48200607134374707	-0.06129504124117139
-0.48194503618749707	-0.06652972082601061
-0.48188400103124707	-0.07175988040497575
-0.48182296587499707	-0.07698564722931309
-0.48176193071874707	-0.08220630760091167
-0.48170089556249707	-0.08742095009515558
-0.48163986040624707	-0.09262925146766851
-0.48157882524999707	-0.09783115677885189
-0.48151779009374707	-0.10302619649653653
-0.48145675493749707	-0.10821364231326669
-0.48139571978124707	-0.11339309040302968
-0.48133468462499707	-0.11856438823572846
-0.48127364946874707	-0.12372714179656129
-0.48121261431249707	-0.12888070756701978
-0.48115157915624707	-0.13402462473136276
-0.48109054399999707	-0.13915868040312596
-0.48102950884374707	-0.14428247698379865
-0.48096847368749707	-0.14939536497015543
-0.48090743853124707	-0.15449692141383653
-0.48084640337499707	-0.1595870294559151
-0.48078536821874707	-0.16466532234773318
-0.48072433306249707	-0.16973099143511033
-0.48066329790624707	-0.17478343882639863
-0.48060226274999707	-0.17982270320732768
-0.48054122759374707	-0.18484873032888277
-0.48048019243749707	-0.1898606534416084
-0.48041915728124707	-0.19485755663805657
-0.48035812212499707	-0.1998394377081797
-0.48029708696874707	-0.20480647361992976
-0.48023605181249707	-0.20975794749902535
-0.48017501665624707	-0.2146928731323547
-0.48011398149999707	-0.21961105124394206
-0.48005294634374707	-0.22451261898420694
-0.47999191118749707	-0.2293970537714682
-0.47993087603124707	-0.23426339176884112
-0.47986984087499707	-0.23911119865310512
-0.47980880571874707	-0.24394064684789307
-0.47974777056249707	-0.2487515661349658
-0.47968673540624707	-0.25354307486390004
-0.47962570024999707	-0.2583144237503742
-0.47956466509374707	-0.2630655910266398
-0.47950362993749707	-0.26779664996642183
-0.47944259478124707	-0.27250698170882137
-0.47938155962499707	-0.2771956024222251
-0.47932052446874707	-0.28186209191700123
-0.47925948931249707	-0.28650668452505684
-0.47919845415624707	-0.2911293542048473
-0.47913741899999707	-0.2957292283906879
-0.47907638384374707	-0.30030529812278683
-0.47901534868749707	-0.3048574534779393
-0.47895431353124707	-0.30938614295521066
-0.47889327837499707	-0.3138910323645483
-0.47883224321874707	-0.3183708118472928
-0.47877120806249707	-0.3228246883681972
-0.47871017290624707	-0.3272532565240532
-0.47864913774999707	-0.3316570004214321
-0.47858810259374707	-0.33603466421382144
-0.47852706743749707	-0.34038454482332986
-0.47846603228124707	-0.34470685357891384
-0.47840499712499707	-0.34900297602462665
-0.47834396196874707	-0.3532725879864399
-0.47828292681249707	-0.3575134708414629
-0.47822189165624707	-0.36172456793109325
-0.47816085649999707	-0.36590727143709084
-0.47809982134374707	-0.37006251547334335
-0.47803878618749707	-0.3741884377619448
-0.47797775103124707	-0.3782828836830219
-0.47791671587499707	-0.38234664905476545
-0.47785568071874707	-0.3863816680754448
-0.47779464556249707	-0.39038706972572823
-0.47773361040624707	-0.3943599834521689
-0.47767257524999707	-0.39829988652587467
-0.47761154009374707	-0.40220898546299805
-0.47755050493749707	-0.4060878519745972
-0.47748946978124707	-0.40993387673894377
-0.47742843462499707	-0.4137452288502079
-0.47736739946874707	-0.4175234209835735
-0.47730636431249707	-0.4212701082308063
-0.47724532915624707	-0.4249836874807678
-0.47718429399999707	-0.42866149324446046
-0.47712325884374707	-0.4323038231157764
-0.47706222368749707	-0.435912944450054
-0.47700118853124707	-0.43948873355840445
-0.47694015337499707	-0.44302836676740537
-0.47687911821874707	-0.446530659195803
-0.47681808306249707	-0.4499976168625579
-0.47675704790624707	-0.4534304588753992
-0.47669601274999707	-0.4568269204881782
-0.47663497759374707	-0.4601845803414996
-0.47657394243749707	-0.4635046305468795
-0.47651290728124707	-0.46678948386334257
-0.47645187212499707	-0.47003809311527006
-0.47639083696874707	-0.4732471111516102
-0.47632980181249707	-0.4764161618642404
-0.47626876665624707	-0.47954816519358145
-0.47620773149999707	-0.4826438802681886
-0.47614669634374707	-0.48569996589419645
-0.47608566118749707	-0.4887142115995931
-0.47602462603124707	-0.49168908511647924
-0.47596359087499707	-0.4946271502605412
-0.47590255571874707	-0.49752600474432007
-0.47584152056249707	-0.5003817485363751
-0.47578048540624707	-0.5031954065957364
-0.47571945024999707	-0.5059710683620526
-0.47565841509374707	-0.5087083795428449
-0.47559737993749707	-0.5114023269822762
-0.47553634478124707	-0.5140514275047872
-0.47547530962499707	-0.5166603938497243
-0.47541427446874707	-0.5192317519500509
-0.47535323931249707	-0.5217605118426059
-0.47529220415624707	-0.5242421658562451
-0.47523116899999707	-0.5266806983290591
-0.47517013384374707	-0.5290816378741244
-0.47510909868749707	-0.5314415271153167
-0.47504806353124707	-0.5337531314631202
-0.47498702837499707	-0.5360181998893938
-0.47492599321874707	-0.538244695325601
-0.47486495806249707	-0.540432201999046
-0.47480392290624707	-0.542571543090824
-0.47474288774999707	-0.5446606575856466
-0.47468185259374707	-0.5467088111252724
-0.47462081743749707	-0.5487202046685912
-0.47455978228124707	-0.5506853355713347
-0.47449874712499707	-0.552596833600574
-0.47443771196874707	-0.5544629452173709
-0.47437667681249707	-0.5562936439957612
-0.47431564165624707	-0.558082274268473
-0.47425460649999707	-0.5598158505784585
-0.47419357134374707	-0.5614977255945506
-0.47413253618749707	-0.5631425888651836
-0.47407150103124707	-0.5647506896811532
-0.47401046587499707	-0.5663060414077401
-0.47394943071874707	-0.5678035002042285
-0.47388839556249707	-0.5692583771963928
-0.47382736040624707	-0.5706803845182155
-0.47376632524999707	-0.5720558765962166
-0.47370529009374707	-0.5733702523800279
-0.47364425493749707	-0.5746333582218424
-0.47358321978124707	-0.5758633672864679
-0.47352218462499707	-0.5770551219211084
-0.47346114946874707	-0.5781875927915184
-0.47340011431249707	-0.5792596049682588
-0.47333907915624707	-0.5802929837577249
-0.47327804399999707	-0.5812955961680495
-0.47321700884374707	-0.5822462855340229
-0.47315597368749707	-0.5831296972699896
-0.47309493853124707	-0.5839637581968917
-0.47303390337499707	-0.5847707804631582
-0.47297286821874707	-0.5855380986664921
-0.47291183306249707	-0.5862369312642258
-0.47285079790624707	-0.5868718489189724
-0.47278976274999707	-0.587476179925482
-0.47272872759374707	-0.5880557339440822
-0.47266769243749707	-0.5885751099932666
-0.47260665728124707	-0.5890156349823781
-0.47254562212499707	-0.589410521859599
-0.47248458696874707	-0.5897924649144712
-0.47242355181249707	-0.590135673392515
-0.47236251665624707	-0.5903937239161967
-0.47230148149999707	-0.5905785044123586
-0.47224044634374707	-0.5907468053891324
-0.47217941118749707	-0.5909067054480168
-0.47211837603124707	-0.5909976157624549
-0.47205734087499707	-0.590987224273351
-0.47199630571874707	-0.59093011207197
-0.47193527056249707	-0.5908828440475459
-0.47187423540624707	-0.59080776552084
-0.47181320024999707	-0.5906293780403232
-0.47175216509374707	-0.5903591029457503
-0.47169112993749707	-0.5900808664572167
-0.47163009478124707	-0.589813945580699
-0.47156905962499707	-0.5894791809212441
-0.47150802446874707	-0.5890286677562238
-0.47144698931249707	-0.5885245264999434
-0.47138595415624707	-0.5880352593119044
-0.47132491899999707	-0.5875239502073335
-0.47126388384374707	-0.5869130837522262
-0.47120284868749707	-0.5862121431218963
-0.47114181353124707	-0.58549610615869
-0.47108077837499707	-0.5847799498656696
-0.47101974321874707	-0.5840004186487607
-0.47095870806249707	-0.5831248102629225
-0.47089767290624707	-0.5821996355287044
-0.47083663774999707	-0.5812676636356243
-0.47077560259374707	-0.5803007446037965
-0.47071456743749707	-0.5792535775557804
-0.47065353228124707	-0.5781376464296581
-0.47059249712499707	-0.5769952242112655
-0.47053146196874707	-0.5758284521830251
-0.47047042681249707	-0.57460228273712
-0.47040939165624707	-0.5733055430547334
-0.47034835649999707	-0.5719645040565292
-0.47028732134374707	-0.5705952900318452
-0.47022628618749707	-0.56918080909361
-0.47016525103124707	-0.5677043143897816
-0.47010421587499707	-0.5661756730418122
