Time	Frequency
-0.5000152572812482	-0.49794976970515165
-0.4999542221249982	-0.5006406544923317
-0.4998931869687482	-0.5032995417339122
-0.4998321518124982	-0.5059176148887965
-0.4997711166562482	-0.5084878602234935
-0.4997100814999982	-0.511007956286021
-0.4996490463437482	-0.5134802438051315
-0.4995880111874982	-0.5159094504074512
-0.4995269760312482	-0.5182998733240515
-0.4994659408749982	-0.5206535881324483
-0.4994049057187482	-0.5229702676784125
-0.4993438705624982	-0.5252481182814492
-0.4992828354062482	-0.5274849688370421
-0.4992218002499982	-0.5296788321988387
-0.4991607650937482	-0.5318279389987604
-0.4990997299374982	-0.533930753237505
-0.4990386947812482	-0.5359864213062046
-0.4989776596249982	-0.537995542231843
-0.4989166244687482	-0.5399605699904686
-0.4988555893124982	-0.5418851575766681
-0.4987945541562482	-0.543772403881057
-0.4987335189999982	-0.5456228077878329
-0.4986724838437482	-0.547433206356621
-0.4986114486874982	-0.5491976772239932
-0.4985504135312482	-0.5509103250743284
-0.4984893783749982	-0.5525685952407143
-0.4984283432187482	-0.5541751592042086
-0.4983673080624982	-0.5557370152053953
-0.4983062729062482	-0.5572619561555836
-0.4982452377499982	-0.5587541597420072
-0.4981842025937482	-0.5602113780035727
-0.4981231674374982	-0.5616255251047657
-0.4980621322812482	-0.562986666261826
-0.4980010971249982	-0.5642884018907918
-0.4979400619687482	-0.5655316418525131
-0.4978790268124982	-0.5667245020867304
-0.4978179916562482	-0.5678781379329696
-0.4977569564999982	-0.5690006225870148
-0.4976959213437482	-0.5700922233424173
-0.4976348861874982	-0.5711448276395666
-0.4975738510312482	-0.5721460461342761
-0.4975128158749982	-0.5730858813005151
-0.4974517807187482	-0.5739623101553578
-0.4973907455624982	-0.5747826105113626
-0.4973297104062482	-0.5755595537438792
-0.4972686752499982	-0.576304441000103
-0.4972076400937482	-0.5770207815415368
-0.4971466049374982	-0.5777021535738633
-0.4970855697812482	-0.578335528403616
-0.4970245346249982	-0.5789083079753998
-0.4969634994687482	-0.5794152294667057
-0.4969024643124982	-0.5798613122265039
-0.4968414291562482	-0.5802591653152545
-0.4967803939999982	-0.5806220824882732
-0.4967193588437482	-0.5809567138039476
-0.4966583236874982	-0.5812593726951768
-0.4965972885312482	-0.5815180339491676
-0.4965362533749982	-0.5817189217903883
-0.4964752182187482	-0.5818540478561371
-0.4964141830624982	-0.5819255422477082
-0.4963531479062482	-0.5819444036216156
-0.4962921127499982	-0.5819243863649882
-0.4962310775937482	-0.581874427350578
-0.4961700424374982	-0.5817937999759318
-0.4961090072812482	-0.5816726388289344
-0.4960479721249982	-0.5814974794584434
-0.4959869369687482	-0.5812586921636426
-0.4959259018124982	-0.5809556940264411
-0.4958648666562482	-0.580597109709295
-0.4958038314999982	-0.5801958696842177
-0.4957427963437482	-0.5797620298739873
-0.4956817611874982	-0.5792973156656981
-0.4956207260312482	-0.5787943704141117
-0.4955596908749982	-0.5782410321437949
-0.4954986557187482	-0.5776271646023786
-0.4954376205624982	-0.5769502050070556
-0.4953765854062482	-0.5762163990427458
-0.4953155502499982	-0.5754371478685185
-0.4952545150937482	-0.5746226056441913
-0.4951934799374982	-0.5737761396696421
-0.4951324447812482	-0.5728926928707825
-0.4950714096249982	-0.5719618485574972
-0.4950103744687482	-0.5709737767219826
-0.4949493393124982	-0.569924686963622
-0.4948883041562482	-0.5688187742438396
-0.4948272689999982	-0.5676656917733575
-0.4947662338437482	-0.5664750929683999
-0.4947051986874982	-0.5652513369748418
-0.4946441635312482	-0.5639912882356793
-0.4945831283749982	-0.5626863483951464
-0.4945220932187482	-0.5613274456892414
-0.4944610580624982	-0.5599101150285591
-0.4944000229062482	-0.5584368629999232
-0.4943389877499982	-0.5569156011711176
-0.4942779525937482	-0.5553551411578121
-0.4942169174374982	-0.5537603403419709
-0.4941558822812482	-0.5521296175394583
-0.4940948471249982	-0.5504561504706438
-0.4940338119687482	-0.548731933937859
-0.4939727768124982	-0.546952317294462
-0.4939117416562482	-0.5451185013102786
-0.4938507064999982	-0.5432367042549096
-0.4937896713437482	-0.5413145768457712
-0.4937286361874982	-0.5393569668723636
-0.4936676010312482	-0.5373634505729762
-0.4936065658749982	-0.5353289196499698
-0.4935455307187482	-0.5332467181089745
-0.4934844955624982	-0.5311124852123256
-0.4934234604062482	-0.5289265540052855
-0.4933624252499982	-0.5266936181419191
-0.4933013900937482	-0.524419985815921
-0.4932403549374982	-0.5221100683497196
-0.4931793197812482	-0.519764105138196
-0.4931182846249982	-0.5173783731880571
-0.4930572494687482	-0.5149476167130189
-0.4929962143124982	-0.512468174824197
-0.4929351791562482	-0.5099400393372899
-0.4928741439999982	-0.5073667515647672
-0.4928131088437482	-0.5047532928891348
-0.4927520736874982	-0.5021032849532038
-0.4926910385312482	-0.49941712780552516
-0.4926300033749982	-0.49669208607223886
-0.4925689682187482	-0.49392420078173516
-0.4925079330624982	-0.491110802312521
-0.4924468979062482	-0.4882520746586213
-0.4923858627499982	-0.48535084300499126
-0.4923248275937482	-0.48241087305886166
-0.4922637924374982	-0.47943475135753694
-0.4922027572812482	-0.4764225785672447
-0.4921417221249982	-0.4733722054155597
-0.4920806869687482	-0.47028080557811947
-0.4920196518124982	-0.46714677740225347
-0.4919586166562482	-0.463970799277876
-0.4918975814999982	-0.4607554352579303
-0.4918365463437482	-0.45750361252350863
-0.4917755111874982	-0.4542169400692408
-0.4917144760312482	-0.4508948991254882
-0.4916534408749982	-0.44753540375573014
-0.4915924057187482	-0.4441363381085119
-0.4915313705624982	-0.4406970612211056
-0.4914703354062482	-0.437218960862752
-0.4914093002499982	-0.4337047561751355
-0.4913482650937482	-0.4301569773951463
-0.4912872299374982	-0.42657652823906944
-0.4912261947812482	-0.422962225619513
-0.4911651596249982	-0.4193116412650367
-0.4911041244687482	-0.41562275495545115
-0.4910430893124982	-0.41189543212236557
-0.4909820541562482	-0.40813179964433194
-0.4909210189999982	-0.4043352075787807
-0.4908599838437482	-0.4005083942398776
-0.4907989486874982	-0.3966519885721404
-0.4907379135312482	-0.3927642255692499
-0.4906768783749982	-0.38884206691313933
-0.4906158432187482	-0.38488313467603935
-0.4905548080624982	-0.3808873463890905
-0.4904937729062482	-0.3768572699617788
-0.4904327377499982	-0.37279692089734834
-0.4903717025937482	-0.3687096306942031
-0.4903106674374982	-0.3645962416423445
-0.4902496322812482	-0.3604547328925906
-0.4901885971249982	-0.35628150456375224
-0.4901275619687482	-0.35207358182451365
-0.4900665268124982	-0.347830514781135
-0.4900054916562482	-0.3435549146029674
-0.4899444564999982	-0.33925127176230574
-0.4898834213437482	-0.3349236540706734
-0.4898223861874982	-0.33057357712829655
-0.4897613510312482	-0.32619927183418373
-0.4897003158749982	-0.3217967846969397
-0.4896392807187482	-0.3173623565537387
-0.4895782455624982	-0.31289476644725245
-0.4895172104062482	-0.30839626720252733
-0.4894561752499982	-0.3038715692464168
-0.4893951400937482	-0.2993254257570506
-0.4893341049374982	-0.29476014398098266
-0.4892730697812482	-0.2901744600185343
-0.4892120346249982	-0.285564433163801
-0.4891509994687482	-0.28092585147557475
-0.4890899643124982	-0.2762568137344526
-0.4890289291562482	-0.2715590394035455
-0.4889678939999982	-0.26683715032081723
-0.4889068588437482	-0.26209628485032627
-0.4888458236874982	-0.2573394042971638
-0.4887847885312482	-0.2525658574356287
-0.4887237533749982	-0.24777195396451784
-0.4886627182187482	-0.2429532252959253
-0.4886016830624982	-0.2381071796775334
-0.4885406479062482	-0.23323495186856819
-0.4884796127499982	-0.22834086054663216
-0.4884185775937482	-0.22343017174677052
-0.4883575424374982	-0.21850637578614576
-0.4882965072812482	-0.2135694711619979
-0.4882354721249982	-0.20861616950888504
-0.4881744369687482	-0.2036419543276511
-0.4881134018124982	-0.1986438637535558
-0.4880523666562482	-0.1936223923238628
-0.4879913314999982	-0.18858145150551164
-0.4879302963437482	-0.18352641312602358
-0.4878692611874982	-0.17846130535700178
-0.4878082260312482	-0.17338674687979044
-0.4877471908749982	-0.16829980382123216
-0.4876861557187482	-0.16319587337386748
-0.4876251205624982	-0.15807154067006376
-0.4875640854062482	-0.15292676735522806
-0.4875030502499982	-0.14776516125599645
-0.4874420150937482	-0.14259218936425708
-0.4873809799374982	-0.13741232368176653
-0.4873199447812482	-0.13222671049027995
-0.4872589096249982	-0.1270327493437326
-0.4871978744687482	-0.12182584722118094
-0.4871368393124982	-0.11660225870745598
-0.4870758041562482	-0.1113614044085924
-0.4870147689999982	-0.10610644765118511
-0.4869537338437482	-0.10084277802534722
-0.4868926986874982	-0.0955751952376701
-0.4868316635312482	-0.09030541976206015
-0.4867706283749982	-0.08503137868436708
-0.4867095932187482	-0.07974863245284733
-0.4866485580624982	-0.0744531022353924
-0.4865875229062482	-0.06914360119067603
-0.4865264877499982	-0.0638227833103584
-0.4864654525937482	-0.058495923803194384
-0.4864044174374982	-0.05316817068693994
-0.4863433822812482	-0.04784184964408866
-0.4862823471249982	-0.04251537601329977
-0.4862213119687482	-0.03718440993587868
-0.4861602768124982	-0.03184459112804391
-0.4860992416562482	-0.02649425835281043
-0.4860382064999982	-0.021135615372711844
-0.4859771713437482	-0.015773729890435642
-0.4859161361874982	-0.010413952940106875
-0.4858551010312482	-0.005059169390781919
-0.4857940658749982	0.0002916142462249277
-0.4857330307187482	0.0056424858732823605
-0.4856719955624982	0.010998047132931411
-0.4856109604062482	0.016360572413467087
-0.4855499252499982	0.02172851598120423
-0.4854888900937482	0.027097124468329636
-0.4854278549374982	0.03246082347971185
-0.4853668197812482	0.03781609912036242
-0.4853057846249982	0.0431632557364236
-0.4852447494687482	0.04850601843212533
-0.4851837143124982	0.0538491734499097
-0.4851226791562482	0.05919559339633288
-0.4850616439999982	0.06454437030193627
-0.4850006088437482	0.06989109553715288
-0.4849395736874982	0.0752300746479776
-0.4848785385312482	0.0805572678746983
-0.4848175033749982	0.0858723593804215
-0.4847564682187482	0.09117873167754027
-0.4846954330624982	0.09648130099300624
-0.4846343979062482	0.10178347561498279
-0.4845733627499982	0.10708496962711117
-0.4845123275937482	0.11238167371704896
-0.4844512924374982	0.1176676960392674
-0.4843902572812482	0.12293847965274733
-0.4843292221249982	0.12819318740017963
-0.4842681869687482	0.13343493307445806
-0.4842071518124982	0.13866875698984132
-0.4841461166562482	0.14389852569153755
-0.4840850814999982	0.1491244636530547
-0.4840240463437482	0.15434272059395587
-0.4839630111874982	0.15954729891583344
-0.4839019760312482	0.16473325247275858
-0.4838409408749982	0.16989928504018473
-0.4837799057187482	0.1750482609185894
-0.4837188705624982	0.18018535717170342
-0.4836578354062482	0.18531487462323207
-0.4835968002499982	0.19043748635866772
-0.4835357650937482	0.1955495648166077
-0.4834747299374982	0.20064502150654046
-0.4834136947812482	0.20571855513630238
-0.4833526596249982	0.21076845526446997
-0.4832916244687482	0.21579738404534285
-0.4832305893124982	0.22081062328527237
-0.4831695541562482	0.22581275723221517
-0.4831085189999982	0.23080474088302497
-0.4830474838437482	0.23578309257502075
-0.4829864486874982	0.2407416904332364
-0.4829254135312482	0.24567507867917068
-0.4828643783749982	0.2505813753616434
-0.4828033432187482	0.25546316361241295
-0.4827423080624982	0.26032578598119244
-0.4826812729062482	0.2651739650867254
-0.4826202377499982	0.2700087898207277
-0.4825592025937482	0.2748268463686901
-0.4824981674374982	0.27962194231654397
-0.4824371322812482	0.2843884542435839
-0.4823760971249982	0.28912439908809356
-0.4823150619687482	0.2938324000856367
-0.4822540268124982	0.29851795099860173
-0.4821929916562482	0.3031859792175962
-0.4821319564999982	0.30783770736610866
-0.4820709213437482	0.31246966894637357
-0.4820098861874982	0.3170754732032559
-0.4819488510312482	0.32164930526560465
-0.4818878158749982	0.32618913491643065
-0.4818267807187482	0.3306977386623295
-0.4817657455624982	0.33518088648854577
-0.4817047104062482	0.33964373518610635
-0.4816436752499982	0.3440875559831254
-0.4815826400937482	0.3485087105727724
-0.4815216049374982	0.3529004908569109
-0.4814605697812482	0.3572568217640509
-0.4813995346249982	0.361575678318387
-0.4813384994687482	0.365860127425586
-0.4812774643124982	0.37011634322803977
-0.4812164291562482	0.37434977798642294
-0.4811553939999982	0.37856170580182424
-0.4810943588437482	0.3827481675138509
-0.4810333236874982	0.3869020091963054
-0.4809722885312482	0.3910168782426832
-0.4809112533749982	0.3950908314369605
-0.4808502182187482	0.39912737358383515
-0.4807891830624982	0.40313325137044786
-0.4807281479062482	0.40711427371102754
-0.4806671127499982	0.411071620637251
-0.4806060775937482	0.4150008613972706
-0.4805450424374982	0.41889430901175895
-0.4804840072812482	0.42274533607417536
-0.4804229721249982	0.4265521335179893
-0.4803619369687482	0.43031869511537685
-0.4803009018124982	0.4340523623825018
-0.4802398666562482	0.4377592959261669
-0.4801788314999982	0.4414405491561846
-0.4801177963437482	0.44509114027362123
-0.4800567611874982	0.44870274068206917
-0.4799957260312482	0.45226841201077456
-0.4799346908749982	0.4557866040533459
-0.4798736557187482	0.4592620203047413
-0.4798126205624982	0.46270276019747564
-0.4797515854062482	0.4661153664455954
-0.4796905502499982	0.46950067372325865
-0.4796295150937482	0.4728529699191899
-0.4795684799374982	0.4761630942742371
-0.4795074447812482	0.47942368569900756
-0.4794464096249982	0.48263345783368927
-0.4793853744687482	0.4857979525074297
-0.4793243393124982	0.48892624901582665
-0.4792633041562482	0.4920254650330202
-0.4792022689999982	0.4950962637578428
-0.4791412338437482	0.4981321021900524
-0.4790801986874982	0.5011227856380434
-0.4790191635312482	0.5040603091765523
-0.4789581283749982	0.5069435539115166
-0.4788970932187482	0.5097790060809447
-0.4788360580624982	0.5125769573795419
-0.4787750229062482	0.5153453206353592
-0.4787139877499982	0.5180846907249248
-0.4786529525937482	0.5207876399372819
-0.4785919174374982	0.5234427606198383
-0.4785308822812482	0.5260411630261768
-0.4784698471249982	0.5285816674743762
-0.4784088119687482	0.5310715998816835
-0.4783477768124982	0.5335225856021496
-0.4782867416562482	0.5359436846531525
-0.4782257064999982	0.5383358461098641
-0.4781646713437482	0.5406909728613419
-0.4781036361874982	0.5429962815436257
-0.4780426010312482	0.5452415632588172
-0.4779815658749982	0.5474251512916937
-0.4779205307187482	0.5495550350841202
-0.4778594955624982	0.5516443415005299
-0.4777984604062482	0.5537036909685731
-0.4777374252499982	0.5557348005214076
-0.4776763900937482	0.5577290889034024
-0.4776153549374982	0.5596722549258591
-0.4775543197812482	0.5615523521586296
-0.4774932846249982	0.5633667496542148
-0.4774322494687482	0.565123873774184
-0.4773712143124982	0.5668385520862353
-0.4773101791562482	0.5685234744526978
-0.4772491439999982	0.5701816244986415
-0.4771881088437482	0.5718041250294532
-0.4771270736874982	0.5733749287615265
-0.4770660385312482	0.5748798407298544
-0.4770050033749982	0.5763147673257252
-0.4769439682187482	0.5776883732501104
-0.4768829330624982	0.5790174011311293
-0.4768218979062482	0.5803171164970484
-0.4767608627499982	0.581592276997484
-0.4766998275937482	0.5828339103986029
-0.4766387924374982	0.5840239856142334
-0.4765777572812482	0.5851455358221522
-0.4765167221249982	0.5861925265933673
-0.4764556869687482	0.5871737073587683
-0.4763946518124982	0.5881079849278448
-0.4763336166562482	0.5890137019764111
-0.4762725814999982	0.5898978467191002
-0.4762115463437482	0.5907515005477965
-0.4761505111874982	0.5915544207294037
-0.4760894760312482	0.5922864084530081
-0.4760284408749982	0.5929390635097682
-0.4759674057187482	0.5935210779993035
-0.4759063705624982	0.5940537366404631
-0.4758453354062482	0.5945588816849003
-0.4757843002499982	0.5950461085062981
-0.4757232650937482	0.5955066742756397
-0.4756622299374982	0.5959179352759935
-0.4756011947812482	0.5962560943005043
-0.4755401596249982	0.5965100861430248
-0.4754791244687482	0.5966884884812217
-0.4754180893124982	0.5968151489048978
-0.4753570541562482	0.596915699869722
-0.4752960189999982	0.5970025550726676
-0.4752349838437482	0.5970671404611118
-0.4751739486874982	0.5970841893344674
-0.4751129135312482	0.5970260115398167
-0.4750518783749982	0.5968786903017851
-0.4749908432187482	0.5966507439482399
-0.4749298080624982	0.5963688840154341
-0.4748687729062482	0.5960628946804204
-0.4748077377499982	0.5957481729526151
-0.4747467025937482	0.5954161801814275
-0.4746856674374982	0.5950387149850553
-0.4746246322812482	0.5945839295676963
-0.4745635971249982	0.5940350088092058
-0.4745025619687482	0.5934005573874102
-0.4744415268124982	0.5927102895880558
-0.4743804916562482	0.59199812270257
-0.4743194564999982	0.5912822938075922
-0.4742584213437482	0.5905541789783606
-0.4741973861874982	0.5897826897117341
-0.4741363510312482	0.5889320688791406
-0.4740753158749982	0.5879829185639962
-0.4740142807187482	0.5869441200448179
-0.4739532455624982	0.5858483473551113
-0.4738922104062482	0.5847333954682227
-0.4738311752499982	0.5836200182451069
-0.4737701400937482	0.5824992998636057
-0.4737091049374982	0.5813372612307316
-0.4736480697812482	0.5800944003151787
-0.4735870346249982	0.5787489661193677
-0.4735259994687482	0.5773102758239305
-0.4734649643124982	0.5758139640639044
-0.4734039291562482	0.5743015882503201
-0.4733428939999982	0.572796306576588
-0.4732818588437482	0.5712888764133395
-0.4732208236874982	0.5697424514695947
-0.4731597885312482	0.5681137725049555
-0.4730987533749982	0.5663785948440212
-0.4730377182187482	0.5645464470082734
-0.4729766830624982	0.5626558297692702
-0.4729156479062482	0.5607522839269455
-0.4728546127499982	0.5588618521551655
-0.4727935775937482	0.5569754215842379
-0.4727325424374982	0.5550533770062599
-0.4726715072812482	0.5530482576716442
-0.4726104721249982	0.5509324805863401
-0.4725494369687482	0.5487150046962266
-0.4724884018124982	0.5464370206294966
-0.4724273666562482	0.5441487712840841
-0.4723663314999982	0.5418805591841661
-0.4723052963437482	0.5396246475005259
-0.4722442611874982	0.5373388599733676
-0.4721832260312482	0.5349703294776601
-0.4721221908749982	0.5324860837160296
-0.4720611557187482	0.5298928858294872
-0.4720001205624982	0.5272345597508824
-0.4719390854062482	0.5245677641929969
-0.4718780502499982	0.5219296550277074
-0.4718170150937482	0.5193158782846117
-0.4717559799374982	0.5166818697784845
-0.4716949447812482	0.5139674213118303
-0.4716339096249982	0.5111310731876935
-0.4715728744687482	0.5081748266922018
-0.4715118393124982	0.5051446763976684
-0.4714508041562482	0.50210586234919
-0.4713897689999982	0.4991061570064902
-0.4713287338437482	0.49614782742563684
-0.4712676986874982	0.49318469212209853
-0.4712066635312482	0.49014688501307635
-0.4711456283749982	0.4869801440063985
-0.4710845932187482	0.4836776988841199
-0.4710235580624982	0.48028628017425296
-0.4709625229062482	0.4768818008805803
-0.4709014877499982	0.47352735287217973
-0.4708404525937482	0.4702367518556058
-0.4707794174374982	0.4669646601285843
-0.4707183822812482	0.4636300032804095
-0.4706573471249982	0.46016072018043547
-0.4705963119687482	0.4565353076402528
-0.4705352768124982	0.45279743049355825
-0.4704742416562482	0.4490341798441664
-0.4704132064999982	0.4453287858656672
-0.4703521713437482	0.4417134949761133
-0.4702911361874982	0.4381492871219328
-0.4702301010312482	0.43454499630816223
-0.4701690658749982	0.4308066517197327
-0.4701080307187482	0.42689045679981
-0.4700469955624982	0.4228296850501067
-0.4699859604062482	0.4187193054540958
-0.4699249252499982	0.4146653384338375
-0.4698638900937482	0.4107260413311611
-0.4698028549374982	0.4068776671000395
-0.4697418197812482	0.4030249148676497
-0.4696807846249982	0.3990517723980809
-0.4696197494687482	0.3948856765535141
-0.4695587143124982	0.39053953564184785
-0.4694976791562482	0.3861073800656975
-0.4694366439999982	0.3817146537722227
-0.4693756088437482	0.37744963030610124
