Time	Frequency
-0.5000343302187531	-0.07198416345426545
-0.4999732950625031	-0.0666094337064767
-0.4999122599062531	-0.061243581745074806
-0.4998512247500031	-0.05581290708312152
-0.4997901895937531	-0.050258166966839296
-0.4997291544375031	-0.04455216324556544
-0.4996681192812531	-0.03870865965266192
-0.4996070841250031	-0.03277972002079185
-0.4995460489687531	-0.02684191243395505
-0.4994850138125031	-0.0209751452997635
-0.4994239786562531	-0.015240013311267038
-0.4993629435000031	-0.009660080182868666
-0.4993019083437531	-0.004214325870595189
-0.4992408731875031	0.0011577758603000773
-0.4991798380312531	0.006539663114941266
-0.4991188028750031	0.012014091434089826
-0.4990577677187531	0.017639246023891973
-0.4989967325625031	0.023431504884410297
-0.4989356974062531	0.02935988391940945
-0.4988746622500031	0.035353872719352336
-0.4988136270937531	0.04132268828809522
-0.4987525919375031	0.04718069815680191
-0.4986915567812531	0.05287181958596097
-0.4986305216250031	0.05838583983406328
-0.4985694864687531	0.06376181801238935
-0.4985084513125031	0.069077392411694
-0.4984474161562531	0.07442693701169506
-0.4983863810000031	0.0798947430718847
-0.4983253458437531	0.08553077600716914
-0.4982643106875031	0.09133599649805686
-0.4982032755312531	0.09726164320915624
-0.4981422403750031	0.10322269947670652
-0.4980812052187531	0.10912167469931043
-0.4980201700625031	0.11487604282865874
-0.4979591349062531	0.12044156340864348
-0.4978980997500031	0.1258247664908806
-0.4978370645937531	0.13108102664855223
-0.4977760294375031	0.13629872455394923
-0.4977149942812531	0.1415739694037089
-0.4976539591250031	0.1469831926312327
-0.4975929239687531	0.15256148080407633
-0.4975318888125031	0.15829275974880527
-0.4974708536562531	0.16411452940144622
-0.4974098185000031	0.16993570722905368
-0.4973487833437531	0.1756624534479791
-0.4972877481875031	0.18122454938765184
-0.4972267130312531	0.18659478670214344
-0.4971656778750031	0.19179598306743428
-0.4971046427187531	0.19689378814325462
-0.4970436075625031	0.20197745689341928
-0.4969825724062531	0.20713421044200897
-0.4969215372500031	0.21242457122533023
-0.4968605020937531	0.21786564284541587
-0.4967994669375031	0.22342694939564953
-0.4967384317812531	0.22903981947207877
-0.4966773966250031	0.2346173695821362
-0.4966163614687531	0.24007916601823015
-0.4965553263125031	0.24537352259589276
-0.4964942911562531	0.2504912352371764
-0.4964332560000031	0.25546701085633555
-0.4963722208437531	0.2603684409927442
-0.4963111856875031	0.26527601481793905
-0.4962501505312531	0.2702600392008452
-0.4961891153750031	0.27536102724725
-0.4961280802187531	0.28057905043242387
-0.4960670450625031	0.2858748361625945
-0.4960060099062531	0.29118193214549215
-0.4959449747500031	0.29642613487928643
-0.4958839395937531	0.3015464303525114
-0.4958229044375031	0.30651150181625186
-0.4957618692812531	0.31132737575656894
-0.4957008341250031	0.3160343271667528
-0.4956397989687531	0.320694180551582
-0.4955787638125031	0.32537196465446244
-0.4955177286562531	0.33011738724249956
-0.4954566935000031	0.33495134649765707
-0.4953956583437531	0.33986107287176415
-0.4953346231875031	0.3448049403031049
-0.4952735880312531	0.349725220386111
-0.4952125528750031	0.354564903483207
-0.4951515177187531	0.35928366233317416
-0.4950904825625031	0.3638684059926194
-0.4950294474062531	0.368335636133679
-0.4949684122500031	0.3727253226749729
-0.4949073770937531	0.3770884231114031
-0.4948463419375031	0.3814718633782906
-0.4947853067812531	0.3859053477374402
-0.4947242716250031	0.39039364719760855
-0.4946632364687531	0.3949163113871406
-0.4946022013125031	0.3994345621125044
-0.4945411661562531	0.40390307555269245
-0.4944801310000031	0.40828305959291733
-0.4944190958437531	0.412552843042997
-0.4943580606875031	0.4167130884182058
-0.4942970255312531	0.42078539179097063
-0.4942359903750031	0.4248049526284241
-0.4941749552187531	0.428809682375363
-0.4941139200625031	0.4328290915719127
-0.4940528849062531	0.43687618299258557
-0.4939918497500031	0.4409444917888183
-0.4939308145937531	0.4450108448094439
-0.4938697794375031	0.44904278731906405
-0.4938087442812531	0.45300832521839035
-0.4937477091250031	0.4568850467352986
-0.4936866739687531	0.4606660014673854
-0.4936256388125031	0.46436077238091494
-0.4935646036562531	0.46799166665788844
-0.4935035685000031	0.471586436462808
-0.4934425333437531	0.47516983689290204
-0.4933814981875031	0.4787564740455927
-0.4933204630312531	0.4823469786601461
-0.4932594278750031	0.48592850313323355
-0.4931983927187531	0.4894791371192637
-0.4931373575625031	0.49297472671313664
-0.4930763224062531	0.4963960002794692
-0.4930152872500031	0.499733887213504
-0.4929542520937531	0.5029915526266443
-0.4928932169375031	0.5061827205297743
-0.4928321817812531	0.5093269617371523
-0.4927711466250031	0.5124434842329627
-0.4927101114687531	0.5155453270234428
-0.4926490763125031	0.5186356752046809
-0.4925880411562531	0.5217073201860433
-0.4925270060000031	0.5247452747222495
-0.4924659708437531	0.5277315870968108
-0.4924049356875031	0.5306507915843122
-0.4923439005312531	0.533494363701599
-0.4922828653750031	0.5362629196231697
-0.4922218302187531	0.5389655644432367
-0.4921607950625031	0.5416166755513945
-0.4920997599062531	0.5442312042111777
-0.4920387247500031	0.5468199957795085
-0.4919776895937531	0.549386551083315
-0.4919166544375031	0.5519261463310638
-0.4918556192812531	0.5544275010524465
-0.4917945841250031	0.5568764024657373
-0.4917335489687531	0.5592601052547725
-0.4916725138125031	0.5615711415392173
-0.4916114786562531	0.5638094082142822
-0.4915504435000031	0.5659819446248735
-0.4914894083437531	0.5681005206941826
-0.4914283731875031	0.5701778320846271
-0.4913673380312531	0.5722234967781519
-0.4913063028750031	0.5742410684178844
-0.4912452677187531	0.5762269700364185
-0.4911842325625031	0.5781716422300006
-0.4911231974062531	0.5800625076375537
-0.4910621622500031	0.5818878266659161
-0.4910011270937531	0.5836402507108063
-0.4909400919375031	0.585318983546397
-0.4908790567812531	0.5869299257530605
-0.4908180216250031	0.5884837896591235
-0.4907569864687531	0.5899927657787281
-0.4906959513125031	0.5914667557342947
-0.4906349161562531	0.5929103122303809
-0.4905738810000031	0.5943212018585057
-0.4905128458437531	0.5956910212708807
-0.4904518106875031	0.5970076887581358
-0.4903907755312531	0.5982590564351004
-0.4903297403750031	0.5994365401243507
-0.4902687052187531	0.6005376718233045
-0.4902076700625031	0.6015668175697549
-0.4901466349062531	0.6025338581290128
-0.4900855997500031	0.6034512329817344
-0.4900245645937531	0.6043302216202053
-0.4899635294375031	0.6051775585549287
-0.4899024942812531	0.6059933820631307
-0.4898414591250031	0.6067711235856496
-0.4897804239687531	0.6074993786271105
-0.4897193888125031	0.6081652172684792
-0.4896583536562531	0.6087579622631467
-0.4895973185000031	0.6092723240055276
-0.4895362833437531	0.6097099711922745
-0.4894752481875031	0.6100790704478207
-0.4894142130312531	0.6103919181893793
-0.4893531778750031	0.6106613493907077
-0.4892921427187531	0.6108969721564601
-0.4892311075625031	0.6111023286799039
-0.4891700724062531	0.6112738135502765
-0.4891090372500031	0.6114016716416655
-0.4890480020937531	0.6114727923534217
-0.4889869669375031	0.6114744963170659
-0.4889259317812531	0.6113982225925921
-0.4888648966250031	0.6112420435500718
-0.4888038614687531	0.6110112667487358
-0.4887428263125031	0.6107169333780441
-0.4886817911562531	0.6103726372493622
-0.4886207560000031	0.6099905893471738
-0.4885597208437531	0.6095780663177097
-0.4884986856875031	0.6091352698749591
-0.4884376505312531	0.6086552362842356
-0.4883766153750031	0.6081258339152854
-0.4883155802187531	0.6075332676990134
-0.4882545450625031	0.606866084613786
-0.4881935099062531	0.6061185236513048
-0.4881324747500031	0.6052922287664907
-0.4880714395937531	0.6043958308003182
-0.4880104044375031	0.60344250956
-0.4879493692812531	0.6024462063150952
-0.4878883341250031	0.6014175826408776
-0.4878272989687531	0.6003609138648487
-0.4877662638125031	0.5992728191015466
-0.4877052286562531	0.5981432205120056
-0.4876441935000031	0.5969582698715267
-0.4875831583437531	0.5957043834931613
-0.4875221231875031	0.594372226068295
-0.4874610880312531	0.5929594994839161
-0.4874000528750031	0.5914717100378065
-0.4873390177187531	0.5899206565527616
-0.4872779825625031	0.5883210574386041
-0.4872169474062531	0.5866862963360152
-0.4871559122500031	0.5850245222949892
-0.4870948770937531	0.583336250342374
-0.4870338419375031	0.5816141935054641
-0.4869728067812531	0.5798453952032322
-0.4869117716250031	0.5780150219838331
-0.4868507364687531	0.5761107128654259
-0.4867897013125031	0.5741262580618619
-0.4867286661562531	0.5720635309860163
-0.4866676310000031	0.5699320672843289
-0.4866065958437531	0.5677463871220233
-0.4865455606875031	0.5655218382423871
-0.4864845255312531	0.5632701620030004
-0.4864234903750031	0.5609960612028579
-0.4863624552187531	0.5586958082036974
-0.4863014200625031	0.5563583320123001
-0.4862403849062531	0.5539684525513646
-0.4861793497500031	0.5515113411276682
-0.4861183145937531	0.5489769246821178
-0.4860572794375031	0.5463629145686658
-0.4859962442812531	0.5436755804717235
-0.4859352091250031	0.5409280663716456
-0.4858741739687531	0.5381366992374714
-0.4858131388125031	0.535316323408184
-0.4857521036562531	0.5324760391157392
-0.4856910685000031	0.5296165935258078
-0.4856300333437531	0.5267301505045879
-0.4855689981875031	0.5238025455261475
-0.4855079630312531	0.520817448456219
-0.4854469278750031	0.5177611919996578
-0.4853858927187531	0.5146268055228174
-0.4853248575625031	0.5114161391718512
-0.4852638224062531	0.5081394903597758
-0.4852027872500031	0.5048127566039455
-0.4851417520937531	0.5014529124274674
-0.4850807169375031	0.49807316562851117
-0.4850196817812531	0.4946792096920727
-0.4849586466250031	0.49126765627327995
-0.4848976114687531	0.4878270812720391
-0.4848365763125031	0.48434136763467056
-0.4847755411562531	0.48079442363526625
-0.4847145060000031	0.47717493284814505
-0.4846534708437531	0.4734797246488195
-0.4845924356875031	0.4697147762610442
-0.4845314005312531	0.4658935701467063
-0.4844703653750031	0.462033288542864
-0.4844093302187531	0.4581499533187589
-0.4843482950625031	0.4542539180217103
-0.4842872599062531	0.45034700360982516
-0.4842262247500031	0.44642210927788045
-0.4841651895937531	0.44246539703224436
-0.4841041544375031	0.4384603890205604
-0.4840431192812531	0.4343928046015229
-0.4839820841250031	0.43025475620333453
-0.4839210489687531	0.4260470892767092
-0.4838600138125031	0.421779180331053
-0.4837989786562531	0.4174662658636449
-0.4837379435000031	0.4131251133781854
-0.4836769083437531	0.40876930208914447
-0.4836158731875031	0.40440548167219614
-0.4835548380312531	0.4000316721437916
-0.4834938028750031	0.39563805125056184
-0.4834327677187531	0.3912099493990596
-0.4833717325625031	0.3867321901787438
-0.4833106974062531	0.3821936004684261
-0.4832496622500031	0.3775903256321208
-0.4831886270937531	0.3729268822711653
-0.4831275919375031	0.3682147891508438
-0.4830665567812531	0.36346931916717373
-0.4830055216250031	0.3587052318552365
-0.4829444864687531	0.3539326567508902
-0.4828834513125031	0.34915436088649515
-0.4828224161562531	0.3443652006300289
-0.4827613810000031	0.3395538747261383
-0.4827003458437531	0.33470642053412897
-0.4826393106875031	0.32981039780596
-0.4825782755312531	0.32485854399728
-0.4825172403750031	0.3198508687072172
-0.4824562052187531	0.3147946097336927
-0.4823951700625031	0.30970211192776426
-0.4823341349062531	0.3045873136237709
-0.4822730997500031	0.29946186826027676
-0.4822120645937531	0.2943319905726106
-0.4821510294375031	0.2891969408980647
-0.4820899942812531	0.28404954434394664
-0.4820289591250031	0.27887851705683797
-0.4819679239687531	0.2736719196674798
-0.4819068888125031	0.2684207485971487
-0.4818458536562531	0.26312156568113687
-0.4817848185000031	0.2577774165738323
-0.4817237833437531	0.25239691282661486
-0.4816627481875031	0.246991788444856
-0.4816017130312531	0.24157359517689495
-0.4815406778750031	0.23615052344560175
-0.4814796427187531	0.2307253200981531
-0.4814186075625031	0.22529485294675225
-0.4813575724062531	0.2198513373445102
-0.4812965372500031	0.21438483795046132
-0.4812355020937531	0.2088863082929383
-0.4811744669375031	0.20335025405635096
-0.4811134317812531	0.1977762716571236
-0.4810523966250031	0.19216908249702383
-0.4809913614687531	0.18653713191496743
-0.4809303263125031	0.18089022776892097
-0.4808692911562531	0.17523690763064953
-0.4808082560000031	0.1695822478166721
-0.4807472208437531	0.16392671355400068
-0.4806861856875031	0.15826635379854084
-0.4806251505312531	0.15259426072508142
-0.4805641153750031	0.14690282253677178
-0.4805030802187531	0.1411860110568813
-0.4804420450625031	0.13544104308175153
-0.4803810099062531	0.1296690783411915
-0.4803199747500031	0.12387485278106412
-0.4802589395937531	0.11806536201758049
-0.4801979044375031	0.11224798638129575
-0.4801368692812531	0.10642862554706381
-0.4800758341250031	0.10061035908743106
-0.4800147989687531	0.09479294647883761
-0.4799537638125031	0.08897321865873402
-0.4798927286562531	0.0831462065661054
-0.4798316935000031	0.07730670139861627
-0.4797706583437531	0.0714507804797729
-0.4797096231875031	0.0655768341685335
-0.4796485880312531	0.05968590614725894
-0.4795875528750031	0.053781426647631726
-0.4795265177187531	0.0478684028696021
-0.4794654825625031	0.04195218817952681
-0.4794044474062531	0.036037239188797136
-0.4793434122500031	0.03012625255084683
-0.4792823770937531	0.024219802482750366
-0.4792213419375031	0.018316448977909038
-0.4791603067812531	0.01241322353576615
-0.4790992716250031	0.006506436636953045
-0.4790382364687531	0.0005926975595015984
-0.4789772013125031	-0.005330140338853086
-0.4789161661562531	-0.011262362866636637
-0.4788551310000031	-0.017202212233736115
-0.4787940958437531	-0.023146157523877137
-0.4787330606875031	-0.029089558402907875
-0.4786720255312531	-0.035027614543361146
-0.4786109903750031	-0.04095640954274613
-0.4785499552187531	-0.04687376072237337
-0.4784889200625031	-0.05277968249021878
-0.4784278849062531	-0.05867639702207614
-0.4783668497500031	-0.06456781425427309
-0.4783058145937531	-0.0704584702770094
-0.4782447794375031	-0.07635215679130183
-0.4781837442812531	-0.08225068054505735
-0.4781227091250031	-0.08815311664296746
-0.4780616739687531	-0.09405573309157597
-0.4780006388125031	-0.09995271243530467
-0.4779396036562531	-0.10583755772266593
-0.4778785685000031	-0.11170470729888807
-0.4778175333437531	-0.11755094582555525
-0.4777564981875031	-0.12337631622101919
-0.4776954630312531	-0.12918417590580583
-0.4776344278750031	-0.13498027555237604
-0.4775733927187531	-0.14077107908578623
-0.4775123575625031	-0.1465617543670214
-0.4774513224062531	-0.15235443465134946
-0.4773902872500031	-0.15814728935123212
-0.4773292520937531	-0.1639346830659819
-0.4772682169375031	-0.16970845471875423
-0.4772071817812531	-0.1754600499759612
-0.4771461466250031	-0.1811829215957115
-0.4770851114687531	-0.18687445282222112
-0.4770240763125031	-0.1925367599349268
-0.4769630411562531	-0.19817609499979993
-0.4769020060000031	-0.20380099032924184
-0.4768409708437531	-0.2094196333483358
-0.4767799356875031	-0.21503724966675145
-0.4767189005312531	-0.2206542819544516
-0.4766578653750031	-0.2262658958557112
-0.4765968302187531	-0.23186304542493777
-0.4765357950625031	-0.23743487608320887
-0.4764747599062531	-0.2429717686217708
-0.4764137247500031	-0.24846812056479384
-0.4763526895937531	-0.25392402502027345
-0.4762916544375031	-0.25934531808253775
-0.4762306192812531	-0.26474190743706216
-0.4761695841250031	-0.27012478715065885
-0.4761085489687531	-0.27550258897849966
-0.4760475138125031	-0.28087871679899273
-0.4759864786562531	-0.2862499652135785
-0.4759254435000031	-0.2916070964082418
-0.4758644083437531	-0.2969372929804421
-0.4758033731875031	-0.3022277903963766
-0.4757423380312531	-0.30746957944004966
-0.4756813028750031	-0.3126600907632508
-0.4756202677187531	-0.31780404722854677
-0.4755592325625031	-0.32291214318380473
-0.4754981974062531	-0.32799786087741956
-0.4754371622500031	-0.3330733270804821
-0.4753761270937531	-0.33814546271146523
-0.4753150919375031	-0.34321360073328877
-0.4752540567812531	-0.3482693006120301
-0.4751930216250031	-0.35329849703076543
-0.4751319864687531	-0.3582854322177573
-0.4750709513125031	-0.3632172262306122
-0.4750099161562531	-0.36808771729497675
-0.4749488810000031	-0.3728993978146181
-0.4748878458437531	-0.377662790032845
-0.4748268106875031	-0.3823933421330769
-0.4747657755312531	-0.38710674082645813
-0.4747047403750031	-0.39181407152092806
-0.4746437052187531	-0.39651824390019386
-0.4745826700625031	-0.4012127327370884
-0.4745216349062531	-0.4058831284826027
-0.4744605997500031	-0.4105111608131701
-0.4743995645937531	-0.41507998860027623
-0.4743385294375031	-0.41957916462566136
-0.4742774942812531	-0.42400782323189457
-0.4742164591250031	-0.42837508454853146
-0.4741554239687531	-0.4326974404968809
-0.4740943888125031	-0.4369938341538357
-0.4740333536562531	-0.44127986446899903
-0.4739723185000031	-0.44556285119520156
-0.4739112833437531	-0.44983931060832905
-0.4738502481875031	-0.45409565126702356
-0.4737892130312531	-0.45831191067843763
-0.4737281778750031	-0.46246750201334413
-0.4736671427187531	-0.46654730062905864
-0.4736061075625031	-0.47054621800336977
-0.4735450724062531	-0.4744708481790985
-0.4734840372500031	-0.4783376104609105
-0.4734230020937531	-0.482167874753938
-0.4733619669375031	-0.4859815068691585
-0.4733009317812531	-0.4897907395959692
-0.4732398966250031	-0.4935962148941871
-0.4731788614687531	-0.49738645525875846
-0.4731178263125031	-0.5011409998265025
-0.4730567911562531	-0.5048363052600497
-0.4729957560000031	-0.5084526696628433
-0.4729347208437531	-0.5119801287707217
-0.4728736856875031	-0.5154215317298637
-0.4728126505312531	-0.5187918014191543
-0.4727516153750031	-0.5221135321789924
-0.4726905802187531	-0.5254102018721903
-0.4726295450625031	-0.5286990182617469
-0.4725685099062531	-0.5319855525726361
-0.4725074747500031	-0.5352617885382945
-0.4724464395937531	-0.53850823497134
-0.4723854044375031	-0.5416995580414741
-0.4723243692812531	-0.5448120495161498
-0.4722633341250031	-0.5478306545069112
-0.4722022989687531	-0.5507534819763445
-0.4721412638125031	-0.5535924483946704
-0.4720802286562531	-0.5563697858258433
-0.4720191935000031	-0.5591114115352529
-0.4719581583437531	-0.5618391298004533
-0.4718971231875031	-0.5645639824449213
-0.4718360880312531	-0.5672827422615665
-0.4717750528750031	-0.5699786493240593
-0.4717140177187531	-0.5726262386035829
-0.4716529825625031	-0.575198833402531
-0.4715919474062531	-0.5776764329043728
-0.4715309122500031	-0.5800516276494085
-0.4714698770937531	-0.5823317974074124
-0.4714088419375031	-0.5845369261892889
-0.4713478067812531	-0.5866936500420857
-0.4712867716250031	-0.5888273042074835
-0.4712257364687531	-0.5909543444642551
-0.4711647013125031	-0.5930773908257315
-0.4711036661562531	-0.5951843678165182
-0.4710426310000031	-0.5972519992781293
-0.4709815958437531	-0.5992526077187429
-0.4709205606875031	-0.6011621955230099
-0.4708595255312531	-0.6029674346978926
-0.4707984903750031	-0.6046695172838166
-0.4707374552187531	-0.6062837336420348
-0.4706764200625031	-0.6078349188454635
-0.4706153849062531	-0.6093501237768038
-0.4705543497500031	-0.6108506664816618
-0.4704933145937531	-0.6123458947793304
-0.4704322794375031	-0.6138304711614823
-0.4703712442812531	-0.6152859384666384
-0.4703102091250031	-0.6166860740988842
-0.4702491739687531	-0.6180044541203698
-0.4701881388125031	-0.6192220318176144
-0.4701271036562531	-0.6203325482866157
-0.4700660685000031	-0.621344231227017
-0.4700050333437531	-0.6222773276814901
-0.4699439981875031	-0.6231582199046716
-0.4698829630312531	-0.6240118315398481
-0.4698219278750031	-0.6248544950657358
-0.4697608927187531	-0.625689306537286
-0.4696998575625031	-0.6265052717200168
-0.4696388224062531	-0.6272804539472912
-0.4695777872500031	-0.6279881975751623
-0.4695167520937531	-0.6286046483842916
-0.4694557169375031	-0.6291154507453347
-0.4693946817812531	-0.6295197514591154
