Time	Frequency
-0.500049589062499	0.4388666544497412
-0.49998855390624897	0.43345787078596104
-0.49992751874999897	0.42801751868275156
-0.49986648359374897	0.4225567522976914
-0.49980544843749897	0.41708136996736606
-0.49974441328124897	0.4115907457067272
-0.49968337812499897	0.40607791398336557
-0.49962234296874897	0.4005308166026194
-0.49956130781249897	0.3949345038009196
-0.49950027265624897	0.38927393014728223
-0.49943923749999897	0.38353685511136193
-0.49937820234374897	0.3777162950144773
-0.49931716718749897	0.3718120667786405
-0.49925613203124897	0.36583112169213067
-0.49919509687499897	0.35978655308252305
-0.49913406171874897	0.35369543649300683
-0.49907302656249897	0.34757589540648925
-0.49901199140624897	0.3414439161610793
-0.49895095624999897	0.33531048507594363
-0.49888992109374897	0.3291795589330952
-0.49882888593749897	0.3230472747812778
-0.49876785078124897	0.3169026095849309
-0.49870681562499897	0.3107293782736325
-0.49864578046874897	0.30450921812326137
-0.49858474531249897	0.29822506133933124
-0.49852371015624897	0.29186447226734835
-0.49846267499999897	0.28542221492882813
-0.49840163984374897	0.2789015352447623
-0.49834060468749897	0.27231389382008747
-0.49827956953124897	0.2656771904418462
-0.49821853437499897	0.259012759392399
-0.49815749921874897	0.2523416426128373
-0.49809646406249897	0.2456808268077448
-0.49803542890624897	0.23904013977197056
-0.49797439374999897	0.2324203925472095
-0.49791335859374897	0.22581315598963816
-0.49785232343749897	0.21920223181742268
-0.49779128828124897	0.21256657521730873
-0.49773025312499897	0.20588420026448148
-0.49766921796874897	0.19913636905175464
-0.49760818281249897	0.19231129248957363
-0.49754714765624897	0.18540666039750558
-0.49748611249999897	0.17843048391212407
-0.49742507734374897	0.17140002560678494
-0.49736404218749897	0.16433895491781153
-0.49730300703124897	0.15727325675988876
-0.49724197187499897	0.15022666182274594
-0.49718093671874897	0.14321636346055636
-0.49711990156249897	0.13624978850386993
-0.49705886640624897	0.12932311511922548
-0.49699783124999897	0.12242185898309986
-0.49693679609374897	0.11552342159739336
-0.49687576093749897	0.10860119984599448
-0.49681472578124897	0.1016295719929535
-0.49675369062499897	0.09458883385135432
-0.49669265546874897	0.08746913739443253
-0.49663162031249897	0.08027269942472963
-0.49657058515624897	0.07301386533909922
-0.49650954999999897	0.06571695454893105
-0.49644851484374897	0.05841219041962456
-0.49638747968749897	0.05113039464893133
-0.49632644453124897	0.04389743082510872
-0.49626540937499897	0.03672945303583982
-0.49620437421874897	0.029629829386432712
-0.49614333906249897	0.02258833762578405
-0.49608230390624897	0.01558286000994321
-0.49602126874999897	0.008583334477489437
-0.49596023359374897	0.0015572726676527043
-0.49589919843749897	-0.005524156034360039
-0.49583816328124897	-0.012680559062626167
-0.49577712812499897	-0.019918289265348714
-0.49571609296874897	-0.027228768762268603
-0.49565505781249897	-0.034589550933953016
-0.49559402265624897	-0.04196796186618226
-0.49553298749999897	-0.04932671462798627
-0.49547195234374897	-0.05663052033438935
-0.49541091718749897	-0.06385249898526697
-0.49534988203124897	-0.0709792039496661
-0.49528884687499897	-0.07801328427516463
-0.49522781171874897	-0.08497322567978256
-0.49516677656249897	-0.09189016787209436
-0.49510574140624897	-0.09880231831701858
-0.49504470624999897	-0.10574793050337578
-0.49498367109374897	-0.11275811642166272
-0.49492263593749897	-0.11985078908208951
-0.49486160078124897	-0.1270268704206419
-0.49480056562499897	-0.13426955506925717
-0.49473953046874897	-0.14154684235973744
-0.49467849531249897	-0.14881692871700936
-0.49461746015624897	-0.15603551917553304
-0.49455642499999897	-0.16316375393928975
-0.49449538984374897	-0.17017532941055769
-0.49443435468749897	-0.17706147554817306
-0.49437331953124897	-0.18383280437868169
-0.49431228437499897	-0.1905176375428313
-0.49425124921874897	-0.1971570421241853
-0.49419021406249897	-0.20379741433758286
-0.49412917890624897	-0.21048193213764368
-0.49406814374999897	-0.21724240748973156
-0.49400710859374897	-0.22409305284674855
-0.49394607343749897	-0.23102737017659122
-0.49388503828124897	-0.23801878253061026
-0.49382400312499897	-0.24502494963129848
-0.49376296796874897	-0.2519950511750048
-0.49370193281249897	-0.2588787774649707
-0.49364089765624897	-0.2656354140069496
-0.49357986249999897	-0.27224132618228036
-0.49351882734374897	-0.2786944465099132
-0.49345779218749897	-0.285014920499462
-0.49339675703124897	-0.29124170102577723
-0.49333572187499897	-0.29742560609708
-0.49327468671874897	-0.30362007471025404
-0.49321365156249897	-0.3098713176758872
-0.49315261640624897	-0.3162096447513894
-0.49309158124999897	-0.3226435301458517
-0.49303054609374897	-0.3291575546360056
-0.49296951093749897	-0.33571470620477795
-0.49290847578124897	-0.34226268073519345
-0.49284744062499897	-0.34874305927764127
-0.49278640546874897	-0.35510172462751977
-0.49272537031249897	-0.36129863825777436
-0.49266433515624897	-0.36731517553407494
-0.49260329999999897	-0.37315765157863534
-0.49254226484374897	-0.37885636886525736
-0.49248122968749897	-0.3844602948147148
-0.49242019453124897	-0.3900282425205786
-0.49235915937499897	-0.39561813447468497
-0.49229812421874897	-0.4012763417157701
-0.49223708906249897	-0.4070290349551242
-0.49217605390624897	-0.41287710594289
-0.49211501874999897	-0.4187956367590378
-0.49205398359374897	-0.4247380799299982
-0.49199294843749897	-0.43064439541203975
-0.49193191328124897	-0.43645167583523387
-0.49187087812499897	-0.4421053924117815
-0.49180984296874897	-0.4475692316187895
-0.49174880781249897	-0.4528316749453378
-0.49168777265624897	-0.45790809880669336
-0.49162673749999897	-0.4628380202334182
-0.49156570234374897	-0.46767796740447737
-0.49150466718749897	-0.47249122513221015
-0.49144363203124897	-0.4773363013473901
-0.49138259687499897	-0.4822562252956354
-0.49132156171874897	-0.48727061912845926
-0.49126052656249897	-0.4923719788837054
-0.49119949140624897	-0.49752686516434635
-0.49113845624999897	-0.5026818090790061
-0.49107742109374897	-0.5077728508256928
-0.49101638593749897	-0.5127369615354885
-0.49095535078124897	-0.5175232922867751
-0.49089431562499897	-0.5221022322543865
-0.49083328046874897	-0.5264706227859718
-0.49077224531249897	-0.5306521717994573
-0.49071121015624897	-0.534693007153648
-0.49065017499999897	-0.5386532027007117
-0.49058913984374897	-0.5425958264401348
-0.49052810468749897	-0.5465754820564105
-0.49046706953124897	-0.5506284209337527
-0.49040603437499897	-0.5547660253847787
-0.49034499921874897	-0.5589728188001369
-0.49028396406249897	-0.563209329287548
-0.49022292890624897	-0.5674192645067543
-0.49016189374999897	-0.5715396653010039
-0.49010085859374897	-0.5755121797949696
-0.49003982343749897	-0.5792934268088392
-0.48997878828124897	-0.5828625798627811
-0.48991775312499897	-0.5862248099109809
-0.48985671796874897	-0.5894100119219957
-0.48979568281249897	-0.5924671054082545
-0.48973464765624897	-0.5954549709170783
-0.48967361249999897	-0.5984316845156196
-0.48961257734374897	-0.601444028298557
-0.48955154218749897	-0.6045191737049236
-0.48949050703124897	-0.6076599931100511
-0.48942947187499897	-0.6108447919067275
-0.48936843671874897	-0.6140314668696817
-0.48930740156249897	-0.6171652877065021
-0.48924636640624897	-0.6201888387630269
-0.48918533124999897	-0.6230522927049251
-0.48912429609374897	-0.6257221638899011
-0.48906326093749897	-0.6281869894923895
-0.48900222578124897	-0.630458962488984
-0.48894119062499897	-0.6325712891366528
-0.48888015546874897	-0.6345718170060299
-0.48881912031249897	-0.6365141415761868
-0.48875808515624897	-0.6384478367506897
-0.48869704999999897	-0.6404095857666999
-0.48863601484374897	-0.6424167934758687
-0.48857497968749897	-0.6444647856468982
-0.48851394453124897	-0.6465280362850114
-0.48845290937499897	-0.6485651260768938
-0.48839187421874897	-0.6505264602931135
-0.48833083906249897	-0.6523632953052619
-0.48826980390624897	-0.6540364255187225
-0.48820876874999897	-0.6555229795987799
-0.48814773359374897	-0.6568201371205792
-0.48808669843749897	-0.6579451560857362
-0.48802566328124897	-0.6589317884249506
-0.48796462812499897	-0.6598238095297732
-0.48790359296874897	-0.6606668911408466
-0.48784255781249897	-0.6615003214463488
-0.48778152265624897	-0.6623500679004666
-0.48772048749999897	-0.6632244013890107
-0.48765945234374897	-0.6641128136439248
-0.48759841718749897	-0.6649883467690109
-0.48753738203124897	-0.66581283195598
-0.48747634687499897	-0.6665440212568028
-0.48741531171874897	-0.66714327913821
-0.48735427656249897	-0.6675824319893289
-0.48729324140624897	-0.667848558423404
-0.48723220624999897	-0.6679459071181237
-0.48717117109374897	-0.6678946721501187
-0.48711013593749897	-0.667726926584688
-0.48704910078124897	-0.6674805180327495
-0.48698806562499897	-0.6671920803237291
-0.48692703046874897	-0.6668904505411497
-0.48686599531249897	-0.6665916763145955
-0.48680496015624897	-0.6662964719655472
-0.48674392499999897	-0.6659905130835467
-0.48668288984374897	-0.6656474440184219
-0.48662185468749897	-0.6652339857426778
-0.48656081953124897	-0.6647161588725644
-0.48649978437499897	-0.6640654592365594
-0.48643874921874897	-0.6632638657179831
-0.48637771406249897	-0.6623068091984333
-0.48631667890624897	-0.661203628743497
-0.48625564374999897	-0.6599754980056914
-0.48619460859374897	-0.658651263116719
-0.48613357343749897	-0.6572620106018467
-0.48607253828124897	-0.6558353875148694
-0.48601150312499897	-0.654390711848316
-0.48595046796874897	-0.6529357413934621
-0.48588943281249897	-0.651465633742744
-0.48582839765624897	-0.649964219943923
-0.48576736249999897	-0.6484073022048024
-0.48570632734374897	-0.64676732216664
-0.48564529218749897	-0.6450185095069195
-0.48558425703124897	-0.643141553354223
-0.48552322187499897	-0.6411269526926686
-0.48546218671874897	-0.6389764827644401
-0.48540115156249897	-0.6367025737023344
-0.48534011640624897	-0.6343257695396854
-0.48527908124999897	-0.6318707834547821
-0.48521804609374897	-0.6293619091954751
-0.48515701093749897	-0.6268186465227337
-0.48509597578124897	-0.6242523404231345
-0.48503494062499897	-0.6216644168880686
-0.48497390546874897	-0.6190464845119444
-0.48491287031249897	-0.6163822262456662
-0.48485183515624897	-0.6136506776173551
-0.48479079999999897	-0.6108302499060309
-0.48472976484374897	-0.6079027442442578
-0.48466872968749897	-0.604856627287925
-0.48460769453124897	-0.6016889950619027
-0.48454665937499897	-0.5984059049131674
-0.48448562421874897	-0.5950210598276698
-0.48442458906249897	-0.5915531258789865
-0.48436355390624897	-0.5880222239356409
-0.48430251874999897	-0.5844462805010028
-0.48424148359374897	-0.5808378946474524
-0.48418044843749897	-0.5772022656252994
-0.48411941328124897	-0.5735365438472194
-0.48405837812499897	-0.5698306834688895
-0.48399734296874897	-0.566069579831122
-0.48393630781249897	-0.5622360639439462
-0.48387527265624897	-0.5583141961087011
-0.48381423749999897	-0.5542922392541375
-0.48375320234374897	-0.5501647609370316
-0.48369216718749897	-0.545933517129482
-0.48363113203124897	-0.5416070000250112
-0.48357009687499897	-0.5371987591540474
-0.48350906171874897	-0.5327248420632323
-0.48344802656249897	-0.5282008615818035
-0.48338699140624897	-0.5236392376726525
-0.48332595624999897	-0.5190471115898528
-0.48326492109374897	-0.5144252905021388
-0.48320388593749897	-0.5097683843999378
-0.48314285078124897	-0.5050660900835292
-0.48308181562499897	-0.5003053531562595
-0.48302078046874897	-0.4954729636612806
-0.48295974531249897	-0.4905580897895802
-0.48289871015624897	-0.4855542931948804
-0.48283767499999897	-0.48046067629013695
-0.48277663984374897	-0.4752819759159809
-0.48271560468749897	-0.4700276195813326
-0.48265456953124897	-0.46470995897068407
-0.48259353437499897	-0.4593420256245867
-0.48253249921874897	-0.4539352244470258
-0.48247146406249897	-0.44849738900023256
-0.48241042890624897	-0.44303155839504726
-0.48234939374999897	-0.4375357025276426
-0.48228835859374897	-0.43200339694629836
-0.48222732343749897	-0.4264252546008724
-0.48216628828124897	-0.42079084348928614
-0.48210525312499897	-0.4150907561746147
-0.48204421796874897	-0.40931844270648726
-0.48198318281249897	-0.40347144929169504
-0.48192214765624897	-0.3975518560569417
-0.48186111249999897	-0.39156587962214934
-0.48180007734374897	-0.38552272513693
-0.48173904218749897	-0.37943291877015695
-0.48167800703124897	-0.3733064542161746
-0.48161697187499897	-0.36715109809563007
-0.48155593671874897	-0.3609711748213596
-0.48149490156249897	-0.3547670273918196
-0.48143386640624897	-0.3485352137929874
-0.48137283124999897	-0.342269403119593
-0.48131179609374897	-0.3359617771724961
-0.48125076093749897	-0.32960464373730314
-0.48118972578124897	-0.32319197814015915
-0.48112869062499897	-0.316720614952181
-0.48106765546874897	-0.31019087171812526
-0.48100662031249897	-0.30360651259462296
-0.48094558515624897	-0.29697407805303777
-0.48088454999999897	-0.2903017324524723
-0.48082351484374897	-0.28359785492966516
-0.48076247968749897	-0.27686961604579324
-0.48070144453124897	-0.2701218301427811
-0.48064040937499897	-0.26335632789615127
-0.48057937421874897	-0.25657189966421273
-0.48051833906249897	-0.24976475522626274
-0.48045730390624897	-0.24292945160618368
-0.48039626874999897	-0.23606011871318952
-0.48033523359374897	-0.22915168991498433
-0.48027419843749897	-0.2222009317322259
-0.48021316328124897	-0.21520713913993178
-0.48015212812499897	-0.20817234206419324
-0.48009109296874897	-0.20110096735675795
-0.48003005781249897	-0.19399907560656504
-0.47996902265624897	-0.18687335135094013
-0.47990798749999897	-0.17973001331819588
-0.47984695234374897	-0.17257383532632994
-0.47978591718749897	-0.16540747171892417
-0.47972488203124897	-0.15823120749447023
-0.47966384687499897	-0.15104315520788789
-0.47960281171874897	-0.14383984824176238
-0.47954177656249897	-0.1366171106250206
-0.47948074140624897	-0.1293710196515341
-0.47941970624999897	-0.12209876377086991
-0.47935867109374897	-0.11479925843618426
-0.47929763593749897	-0.10747344591913399
-0.47923660078124897	-0.10012421277093948
-0.47917556562499897	-0.09275593306192033
-0.47911453046874897	-0.08537376000192406
-0.47905349531249897	-0.07798279629327003
-0.47899246015624897	-0.07058729741837011
-0.47893142499999897	-0.06319009906226071
-0.47887038984374897	-0.05579234502574287
-0.47880935468749897	-0.048393498325116156
-0.47874831953124897	-0.04099164794258311
-0.47868728437499897	-0.03358408532362862
-0.47862624921874897	-0.02616802280099808
-0.47856521406249897	-0.018741288879125444
-0.47850417890624897	-0.011302871985864217
-0.47844314374999897	-0.003853226047732812
-0.47838210859374897	0.003605719429134251
-0.47832107343749897	0.011070827753994246
-0.47826003828124897	0.01853822133001579
-0.47819900312499897	0.02600385774777281
-0.47813796796874897	0.03346412419541848
-0.47807693281249897	0.04091634299529228
-0.47801589765624897	0.0483590703773758
-0.47795486249999897	0.055792135601256225
-0.47789382734374897	0.06321645856453455
-0.47783279218749897	0.07063368135649051
-0.47777175703124897	0.07804565691930028
-0.47771072187499897	0.08545390926755969
-0.47764968671874897	0.0928591830437474
-0.47758865156249897	0.10026115535456162
-0.47752761640624897	0.10765837172280265
-0.47746658124999897	0.11504841763742467
-0.47740554609374897	0.12242824933755841
-0.47734451093749897	0.12979460685281444
-0.47728347578124897	0.1371444621884913
-0.47722244062499897	0.14447541644989637
-0.47716140546874897	0.15178596484457563
-0.47710037031249897	0.15907559816630018
-0.47703933515624897	0.16634471322336636
-0.47697829999999897	0.17359434749317848
-0.47691726484374897	0.18082579935504783
-0.47685622968749897	0.18804019241650088
-0.47679519453124897	0.19523808738513132
-0.47673415937499897	0.20241924309993853
-0.47667312421874897	0.20958252926622695
-0.47661208906249897	0.21672598172346386
-0.47655105390624897	0.22384702478245824
-0.47649001874999897	0.23094281384709336
-0.47642898359374897	0.23801059810759043
-0.47636794843749897	0.24504804805817487
-0.47630691328124897	0.25205352440210715
-0.47624587812499897	0.2590262429686237
-0.47618484296874897	0.26596627331722267
-0.47612380781249897	0.2728743572070865
-0.47606277265624897	0.27975159899384383
-0.47600173749999897	0.28659909839781156
-0.47594070234374897	0.2934175938189745
-0.47587966718749897	0.3002071786871144
-0.47581863203124897	0.3069671422330618
-0.47575759687499897	0.3136959553267628
-0.47569656171874897	0.32039139223360336
-0.47563552656249897	0.32705077106685554
-0.47557449140624897	0.33367128670689045
-0.47551345624999897	0.34025038179993106
-0.47545242109374897	0.3467860634027902
-0.47539138593749897	0.3532770963545003
-0.47533035078124897	0.3597230691612782
-0.47526931562499897	0.36612434537036753
-0.47520828046874897	0.3724818945466659
-0.47514724531249897	0.3787969998068078
-0.47508621015624897	0.38507089446032333
-0.47502517499999897	0.39130441431608953
-0.47496413984374897	0.3974977160064942
-0.47490310468749897	0.40365009577754535
-0.47484206953124897	0.4097599585929628
-0.47478103437499897	0.41582495376708867
-0.47471999921874897	0.42184223965992873
-0.47465896406249897	0.42780883133024034
-0.47459792890624897	0.4337219775763455
-0.47453689374999897	0.43957949842037536
-0.47447585859374897	0.44538003701527806
-0.47441482343749897	0.45112319322118016
-0.47435378828124897	0.4568095060976665
-0.47429275312499897	0.46244028186763686
-0.47423171796874897	0.4680172822254796
-0.47417068281249897	0.4735423152673504
-0.47410964765624897	0.4790168138707303
-0.47404861249999897	0.48444146502144836
-0.47398757734374897	0.4898159326774572
-0.47392654218749897	0.49513875002753466
-0.47386550703124897	0.5004074309536858
-0.47380447187499897	0.5056187616086998
-0.47374343671874897	0.5107692047778964
-0.47368240156249897	0.515855373740957
-0.47362136640624897	0.5208745138019066
-0.47356033124999897	0.5258249009476643
-0.47349929609374897	0.530706075041745
-0.47343826093749897	0.535518852638545
-0.47337722578124897	0.5402651232328142
-0.47331619062499897	0.5449474706194012
-0.47325515546874897	0.5495686537668893
-0.47319412031249897	0.5541310195652073
-0.47313308515624897	0.5586359765282009
-0.47307204999999897	0.563083627256321
-0.47301101484374897	0.5674726000454801
-0.47294997968749897	0.571800117218035
-0.47288894453124897	0.5760623215857628
-0.47282790937499897	0.5802548258428294
-0.47276687421874897	0.5843733847925743
-0.47270583906249897	0.5884145521615697
-0.47264480390624897	0.5923762134477443
-0.47258376874999897	0.5962579206635331
-0.47252273359374897	0.6000609575493858
-0.47246169843749897	0.6037880940046603
-0.47240066328124897	0.6074430547323072
-0.47233962812499897	0.611029801033759
-0.47227859296874897	0.6145517601819636
-0.47221755781249897	0.6180111243827378
-0.47215652265624897	0.6214083353872617
-0.47209548749999897	0.6247418620119508
-0.47203445234374897	0.6280083261153279
-0.47197341718749897	0.631202966621966
-0.47191238203124897	0.6343203706011296
-0.47185134687499897	0.6373553458336724
-0.47179031171874897	0.6403037832140704
-0.47172927656249897	0.6431633575651694
-0.47166824140624897	0.6459339347850255
-0.47160720624999897	0.6486176000707934
-0.47154617109374897	0.6512182879981391
-0.47148513593749897	0.6537410670936936
-0.47142410078124897	0.6561911989742567
-0.47136306562499897	0.6585731386978911
-0.47130203046874897	0.6608896541285959
-0.47124099531249897	0.6631412233521911
-0.47117996015624897	0.6653258293302217
-0.47111892499999897	0.6674392025003786
-0.47105788984374897	0.669475478582708
-0.47099685468749897	0.6714281642959908
-0.47093581953124897	0.6732912447223337
-0.47087478437499897	0.6750602340190107
-0.47081374921874897	0.6767329774385544
-0.47075271406249897	0.6783100552727732
-0.47069167890624897	0.6797947059090447
-0.47063064374999897	0.6811922665448141
-0.47056960859374897	0.6825092191657846
-0.47050857343749897	0.6837520070279044
-0.47044753828124897	0.6849258326340526
-0.47038650312499897	0.6860336545948243
-0.47032546796874897	0.6870755701900298
