Time	Frequency
-0.5000429132499988	-0.46727359096249205
-0.49998187809374883	-0.47256542250329914
-0.49992084293749883	-0.47779291389012035
-0.49985980778124883	-0.482968251911949
-0.49979877262499883	-0.4881028325646312
-0.49973773746874883	-0.4932045573917832
-0.49967670231249883	-0.49827584729432983
-0.49961566715624883	-0.5033128341914602
-0.49955463199999883	-0.5083059569643025
-0.49949359684374883	-0.5132418695804833
-0.49943256168749883	-0.5181062441479305
-0.49937152653124883	-0.5228868345651073
-0.49931049137499883	-0.5275761309214251
-0.49924945621874883	-0.5321730090237535
-0.49918842106249883	-0.5366829739008125
-0.49912738590624883	-0.5411169216065767
-0.49906635074999883	-0.5454886758049846
-0.49900531559374883	-0.5498118155980634
-0.49894428043749883	-0.554096490283622
-0.49888324528124883	-0.5583469462183455
-0.49882221012499883	-0.5625603283312138
-0.49876117496874883	-0.5667270438922805
-0.49870013981249883	-0.570832650188073
-0.49863910465624883	-0.5748608772464937
-0.49857806949999883	-0.5787971243061888
-0.49851703434374883	-0.5826316585721647
-0.49845599918749883	-0.5863617931248605
-0.49839496403124883	-0.5899925329663547
-0.49833392887499883	-0.5935355235913359
-0.49827289371874883	-0.5970065023418643
-0.49821185856249883	-0.6004217735810832
-0.49815082340624883	-0.6037944656498454
-0.49808978824999883	-0.6071314044386451
-0.49802875309374883	-0.6104313276442521
-0.49796771793749883	-0.6136848780241143
-0.49790668278124883	-0.6168764099265605
-0.49784564762499883	-0.6199872417585257
-0.49778461246874883	-0.6229996692204406
-0.49772357731249883	-0.625900863183295
-0.49766254215624883	-0.628685771585121
-0.49760150699999883	-0.6313583542356296
-0.49754047184374883	-0.6339308458021565
-0.49747943668749883	-0.636421162771645
-0.49741840153124883	-0.6388489750755008
-0.49735736637499883	-0.6412312845940904
-0.49729633121874883	-0.6435784883894421
-0.49723529606249883	-0.6458918137592528
-0.49717426090624883	-0.6481627329721007
-0.49711322574999883	-0.6503745411016538
-0.49705219059374883	-0.6525057961360465
-0.49699115543749883	-0.654534902302953
-0.49693012028124883	-0.656444850700541
-0.49686908512499883	-0.6582270699896313
-0.49680804996874883	-0.6598835081770493
-0.49674701481249883	-0.6614264328828817
-0.49668597965624883	-0.6628759327312056
-0.49662494449999883	-0.6642556167532788
-0.49656390934374883	-0.6655874205171283
-0.49650287418749883	-0.6668866459471708
-0.49644183903124883	-0.6681583374628601
-0.49638080387499883	-0.6693958346220175
-0.49631976871874883	-0.6705818839224849
-0.49625873356249883	-0.671692130872549
-0.49619769840624883	-0.6727002814285021
-0.49613666324999883	-0.6735838369475694
-0.49607562809374883	-0.6743291512089861
-0.49601459293749883	-0.6749346727667372
-0.49595355778124883	-0.6754116051253354
-0.49589252262499883	-0.6757817685396341
-0.49583148746874883	-0.6760730601772242
-0.49577045231249883	-0.6763134481044248
-0.49570941715624883	-0.6765247822754502
-0.49564838199999883	-0.6767177826833058
-0.49558734684374883	-0.6768893430791311
-0.49552631168749883	-0.6770228078950039
-0.49546527653124883	-0.6770912442354688
-0.49540424137499883	-0.6770630732995924
-0.49534320621874883	-0.6769088862765223
-0.49528217106249883	-0.6766079770084895
-0.49522113590624883	-0.6761531480196689
-0.49516010074999883	-0.6755526832449446
-0.49509906559374883	-0.6748289753523725
-0.49503803043749883	-0.6740140218445431
-0.49497699528124883	-0.6731426896204333
-0.49491596012499883	-0.6722451619966157
-0.49485492496874883	-0.6713402044536323
-0.49479388981249883	-0.6704307413263164
-0.49473285465624883	-0.6695027749796072
-0.49467181949999883	-0.6685279858331196
-0.49461078434374883	-0.6674695454854581
-0.49454974918749883	-0.6662899544597831
-0.49448871403124883	-0.6649592512833802
-0.49442767887499883	-0.6634618071003153
-0.49436664371874883	-0.6618001700351375
-0.49430560856249883	-0.6599950425630606
-0.49424457340624883	-0.6580813061428962
-0.49418353824999883	-0.656100855838055
-0.49412250309374883	-0.654093712829847
-0.49406146793749883	-0.6520893020581073
-0.49400043278124883	-0.6500998018237188
-0.49393939762499883	-0.6481170654900832
-0.49387836246874883	-0.646113883978039
-0.49381732731249883	-0.6440494392470654
-0.49375629215624883	-0.6418778649997717
-0.49369525699999883	-0.6395581247050137
-0.49363422184374883	-0.6370630967602261
-0.49357318668749883	-0.6343858745064664
-0.49351215153124883	-0.6315418498937349
-0.49345111637499883	-0.6285660242504854
-0.49339008121874883	-0.6255059971337075
-0.49332904606249883	-0.6224120452368327
-0.49326801090624883	-0.6193263810525197
-0.49320697574999883	-0.6162739054503984
-0.49314594059374883	-0.6132564851966665
-0.49308490543749883	-0.6102520678600707
-0.49302387028124883	-0.6072189540333717
-0.49296283512499883	-0.6041044225300972
-0.49290179996874883	-0.6008559169397379
-0.49284076481249883	-0.5974324413471537
-0.49277972965624883	-0.5938137334823383
-0.49271869449999883	-0.5900051742962533
-0.49265765934374883	-0.5860372635335319
-0.49259662418749883	-0.5819596813118074
-0.49253558903124883	-0.5778311194848204
-0.49247455387499883	-0.5737069651489285
-0.49241351871874883	-0.569627449682279
-0.49235248356249883	-0.5656088372114313
-0.49229144840624883	-0.5616395797121684
-0.49223041324999883	-0.5576823584584856
-0.49216937809374883	-0.5536817095357381
-0.49210834293749883	-0.5495756829270096
-0.49204730778124883	-0.5453090809560481
-0.49198627262499883	-0.5408454723538654
-0.49192523746874883	-0.5361753986153317
-0.49186420231249883	-0.5313189433323516
-0.49180316715624883	-0.5263220151405088
-0.49174213199999883	-0.521247046917335
-0.49168109684374883	-0.5161600240765531
-0.49162006168749883	-0.511116585170225
-0.49155902653124883	-0.5061501693886136
-0.49149799137499883	-0.5012647581247524
-0.49143695621874883	-0.49643380774552154
-0.49137592106249883	-0.49160566774877973
-0.49131488590624883	-0.4867144109813192
-0.49125385074999883	-0.4816938357759327
-0.49119281559374883	-0.4764916591722653
-0.49113178043749883	-0.47108086482525446
-0.49107074528124883	-0.4654657774485208
-0.49100971012499883	-0.4596815180831197
-0.49094867496874883	-0.45378690308537084
-0.49088763981249883	-0.44785227918225545
-0.49082660465624883	-0.44194484814121293
-0.49076556949999883	-0.4361145637754744
-0.49070453434374883	-0.43038362508022127
-0.49064349918749883	-0.42474183240055347
-0.49058246403124883	-0.41914878840548836
-0.49052142887499883	-0.4135424963859066
-0.49046039371874883	-0.40785256648580087
-0.49039935856249883	-0.4020152332375804
-0.49033832340624883	-0.3959869807746966
-0.49027728824999883	-0.38975386419802044
-0.49021625309374883	-0.3833345612367848
-0.49015521793749883	-0.376776537928882
-0.49009418278124883	-0.3701461486274331
-0.49003314762499883	-0.36351477171794655
-0.48997211246874883	-0.3569439261001647
-0.48991107731249883	-0.3504725129580438
-0.48985004215624883	-0.34410888280169183
-0.48978900699999883	-0.3378294099805501
-0.48972797184374883	-0.33158383904018635
-0.48966693668749883	-0.32530620706251645
-0.48960590153124883	-0.3189289833126515
-0.48954486637499883	-0.3123974258865255
-0.48948383121874883	-0.30568114957458464
-0.48942279606249883	-0.29878048622448433
-0.48936176090624883	-0.2917263007376503
-0.48930072574999883	-0.28457334407037693
-0.48923969059374883	-0.27738864223205145
-0.48917865543749883	-0.2702374538458312
-0.48911762028124883	-0.26316977751218035
-0.48905658512499883	-0.25621023092976514
-0.48899554996874883	-0.24935338960739645
-0.48893451481249883	-0.24256551655178543
-0.48887347965624883	-0.2357922497154606
-0.48881244449999883	-0.2289704995431175
-0.48875140934374883	-0.2220419652951662
-0.48869037418749883	-0.21496546205879358
-0.48862933903124883	-0.20772549655803468
-0.48856830387499883	-0.20033529402626954
-0.48850726871874883	-0.1928337155000596
-0.48844623356249883	-0.1852768254933222
-0.48838519840624883	-0.17772598985715368
-0.48832416324999883	-0.17023507935798154
-0.48826312809374883	-0.16283947090427267
-0.48820209293749883	-0.15554914522464827
-0.48814105778124883	-0.148347300928138
-0.48808002262499883	-0.14119464685545577
-0.48801898746874883	-0.13403830931919128
-0.48795795231249883	-0.12682339960907077
-0.48789691715624883	-0.11950477269017143
-0.48783588199999883	-0.11205648729546197
-0.48777484684374883	-0.10447703431888182
-0.48771381168749883	-0.09678932628247755
-0.48765277653124883	-0.08903553687668743
-0.48759174137499883	-0.08126799008151937
-0.48753070621874883	-0.07353809840092133
-0.48746967106249883	-0.06588572170296891
-0.48740863590624883	-0.058331227257918505
-0.48734760074999883	-0.0508718709256162
-0.48728656559374883	-0.04348314273070215
-0.48722553043749883	-0.03612467227347053
-0.48716449528124883	-0.028749312230050606
-0.48710346012499883	-0.021313426900104213
-0.48704242496874883	-0.013786224805692497
-0.48698138981249883	-0.006156147865070675
-0.48692035465624883	0.0015669871471285213
-0.48685931949999883	0.00935441549374724
-0.48679828434374883	0.017164778706867178
-0.48673724918749883	0.024952977094144596
-0.48667621403124883	0.03267960401836864
-0.48661517887499883	0.04031894332263307
-0.48655414371874883	0.04786386126585007
-0.48649310856249883	0.055326637312867806
-0.48643207340624883	0.06273566114594106
-0.48637103824999883	0.07012880360992074
-0.48631000309374883	0.0775449401424841
-0.48624896793749883	0.08501546391355075
-0.48618793278124883	0.09255761772434622
-0.48612689762499883	0.10017101281263083
-0.48606586246874883	0.10783797360539726
-0.48600482731249883	0.11552756615118961
-0.48594379215624883	0.1232023515898531
-0.48588275699999883	0.13082631574648665
-0.48582172184374883	0.1383722717646674
-0.48576068668749883	0.1458272041351518
-0.48569965153124883	0.1531944731719317
-0.48563861637499883	0.16049246804560297
-0.48557758121874883	0.16775007489260868
-0.48551654606249883	0.17500004084887275
-0.48545551090624883	0.18227170517338365
-0.48539447574999883	0.18958463402906528
-0.48533344059374883	0.19694451603334712
-0.48527240543749883	0.2043421564415793
-0.48521137028124883	0.21175565640169766
-0.48515033512499883	0.21915520670737673
-0.48508929996874883	0.22650944748113483
-0.48502826481249883	0.23379201789452328
-0.48496722965624883	0.240986871478253
-0.48490619449999883	0.24809122970571346
-0.48484515934374883	0.25511562355965867
-0.48478412418749883	0.2620811150978758
-0.48472308903124883	0.26901432291458743
-0.48466205387499883	0.2759413638505531
-0.48460101871874883	0.28288209864672603
-0.48453998356249883	0.2898458907808465
-0.48447894840624883	0.29682969870374265
-0.48441791324999883	0.3038188684912007
-0.48435687809374883	0.31079039295337696
-0.48429584293749883	0.3177178597112141
-0.48423480778124883	0.3245770001291438
-0.48417377262499883	0.3313506471827628
-0.48411273746874883	0.33803205217320703
-0.48405170231249883	0.34462588293570395
-0.48399066715624883	0.35114673673761043
-0.48392963199999883	0.3576155647836252
-0.48386859684374883	0.36405484100563495
-0.48380756168749883	0.3704835216944221
-0.48374652653124883	0.3769128917039503
-0.48368549137499883	0.38334418995612196
-0.48362445621874883	0.3897684516750842
-0.48356342106249883	0.39616852428389027
-0.48350238590624883	0.4025227839144772
-0.48344135074999883	0.4088097204901806
-0.48338031559374883	0.4150123819110794
-0.48331928043749883	0.42112172128824055
-0.48325824528124883	0.42713815523046833
-0.48319721012499883	0.43307104500075044
-0.48313617496874883	0.43893627258672263
-0.48307513981249883	0.4447524946777442
-0.48301410465624883	0.4505369210910484
-0.48295306949999883	0.4563015264378641
-0.48289203434374883	0.4620504697538306
-0.48283099918749883	0.46777924557705175
-0.48276996403124883	0.47347572366253154
-0.48270892887499883	0.4791228032887772
-0.48264789371874883	0.4847020674308618
-0.48258685856249883	0.4901976167109974
-0.48252582340624883	0.49559924897698904
-0.48246478824999883	0.5009043394414485
-0.48240375309374883	0.5061180519908888
-0.48234271793749883	0.5112518720138085
-0.48228168278124883	0.5163208261123875
-0.48222064762499883	0.5213400107890622
-0.48215961246874883	0.5263212096197741
-0.48209857731249883	0.5312703345823795
-0.48203754215624883	0.5361861890685509
-0.48197650699999883	0.5410607921491103
-0.48191547184374883	0.5458811637732883
-0.48185443668749883	0.5506321264762065
-0.48179340153124883	0.5552994963373683
-0.48173236637499883	0.5598729635246151
-0.48167133121874883	0.5643480435510135
-0.48161029606249883	0.5687267282206975
-0.48154926090624883	0.5730167466641849
-0.48148822574999883	0.5772296165848926
-0.48142719059374883	0.5813779311853499
-0.48136615543749883	0.5854725054186917
-0.48130512028124883	0.5895200059004164
-0.48124408512499883	0.5935215453751205
-0.48118304996874883	0.5974725100590632
-0.48112201481249883	0.6013636287208394
-0.48106097965624883	0.6051830117163114
-0.48099994449999883	0.6089186785580285
-0.48093890934374883	0.6125610212311224
-0.48087787418749883	0.6161046837928434
-0.48081683903124883	0.6195494669182462
-0.48075580387499883	0.6229000943842844
-0.48069476871874883	0.6261649265729833
-0.48063373356249883	0.6293539297092433
-0.48057269840624883	0.6324763802692214
-0.48051166324999883	0.6355388115668829
-0.48045062809374883	0.6385436220031052
-0.48038959293749883	0.6414886278353858
-0.48032855778124883	0.6443676302146882
-0.48026752262499883	0.6471718302674567
-0.48020648746874883	0.64989175095936
-0.48014545231249883	0.652519229606996
-0.48008441715624883	0.6550490496918465
-0.48002338199999883	0.6574798725587964
-0.47996234684374883	0.6598142894817552
-0.47990131168749883	0.6620580206596982
-0.47984027653124883	0.664218474032042
-0.47977924137499883	0.6663029989279008
-0.47971820621874883	0.6683172232177478
-0.47965717106249883	0.6702638402163491
-0.47959613590624883	0.6721420988336855
-0.47953510074999883	0.6739480742200582
-0.47947406559374883	0.6756756240397372
-0.47941303043749883	0.6773177951943433
-0.47935199528124883	0.6788683468892689
-0.47929096012499883	0.6803230408423111
-0.47922992496874883	0.6816804257297969
-0.47916888981249883	0.6829419691818183
-0.47910785465624883	0.6841115362015233
-0.47904681949999883	0.6851943586757737
-0.47898578434374883	0.6861957529328705
-0.47892474918749883	0.6871198874636666
-0.47886371403124883	0.6879688759534514
-0.47880267887499883	0.6887423857269458
-0.47874164371874883	0.6894378258744007
-0.47868060856249883	0.690051042167037
-0.47861957340624883	0.6905773349429835
-0.47855853824999883	0.6910125520669935
-0.47849750309374883	0.6913540004742605
-0.47843646793749883	0.6916009736173137
-0.47837543278124883	0.6917547917060364
-0.47831439762499883	0.6918183654381773
-0.47825336246874883	0.6917954035286858
-0.47819232731249883	0.6916894693112534
-0.47813129215624883	0.6915031205517418
-0.47807025699999883	0.6912373351113604
-0.47800922184374883	0.6908913504828541
-0.47794818668749883	0.690462938517253
-0.47788715153124883	0.6899490305084833
-0.47782611637499883	0.6893465313042433
-0.47776508121874883	0.6886531167403734
-0.47770404606249883	0.6878678167829235
-0.47764301090624883	0.6869912496524592
-0.47758197574999883	0.6860254545466089
-0.47752094059374883	0.684973365123126
-0.47745990543749883	0.6838380628067547
-0.47739887028124883	0.6826219994319022
-0.47733783512499883	0.6813263801195055
-0.47727679996874883	0.6799508673845953
-0.47721576481249883	0.678493686541874
-0.47715472965624883	0.6769521074301127
-0.47709369449999883	0.6753231817186852
-0.47703265934374883	0.6736045436397945
-0.47697162418749883	0.6717950805059708
-0.47691058903124883	0.6698953144729192
-0.47684955387499883	0.6679073799823454
-0.47678851871874883	0.6658345918751714
-0.47672748356249883	0.663680718258641
-0.47666644840624883	0.6614491235210462
-0.47660541324999883	0.6591419798121515
-0.47654437809374883	0.6567597414676308
-0.47648334293749883	0.6543010147799395
-0.47642230778124883	0.6517628792725987
-0.47636127262499883	0.6491416048185528
-0.47630023746874883	0.6464335881473695
-0.47623920231249883	0.6436362810607466
-0.47617816715624883	0.6407489092658186
-0.47611713199999883	0.6377728278889739
-0.47605609684374883	0.6347113887792976
-0.47599506168749883	0.6315693063291956
-0.47593402653124883	0.6283516850471278
-0.47587299137499883	0.6250629372763203
-0.47581195621874883	0.6217058237386637
-0.47575092106249883	0.6182808508305698
-0.47568988590624883	0.6147861735190158
-0.47562885074999883	0.6112180249425772
-0.47556781559374883	0.6075715915243557
-0.47550678043749883	0.6038421694223256
-0.47544574528124883	0.6000263490346494
-0.47538471012499883	0.5961229296706331
-0.47532367496874883	0.5921333491519102
-0.47526263981249883	0.5880615399068845
-0.47520160465624883	0.5839132306730767
-0.47514056949999883	0.5796948301697454
-0.47507953434374883	0.5754121274358055
-0.47501849918749883	0.5710690959985958
-0.47495746403124883	0.5666670761489621
-0.47489642887499883	0.5622045305325885
-0.47483539371874883	0.5576774407803801
-0.47477435856249883	0.5530802634522628
-0.47471332340624883	0.5484072447195412
-0.47465228824999883	0.5436538135452954
-0.47459125309374883	0.5388177416505427
-0.47453021793749883	0.5338998051806793
-0.47446918278124883	0.5289037881734581
-0.47440814762499883	0.5238358274038802
-0.47434711246874883	0.5187032507637496
-0.47428607731249883	0.5135131319379442
-0.47422504215624883	0.5082708591799928
-0.47416400699999883	0.5029790674022724
-0.47410297184374883	0.4976371778932984
-0.47404193668749883	0.49224161778858494
-0.47398090153124883	0.4867866906940964
-0.47391986637499883	0.481265952636323
-0.47385883121874883	0.4756737706385992
-0.47379779606249883	0.47000670823491425
-0.47373676090624883	0.4642644629755077
-0.47367572574999883	0.45845013457359496
-0.47361469059374883	0.4525697353024507
-0.47355365543749883	0.4466310395989213
-0.47349262028124883	0.44064202177703804
-0.47343158512499883	0.434609256930656
-0.47337054996874883	0.4285366531811098
-0.47330951481249883	0.4224247590313437
-0.47324847965624883	0.41627078996118894
-0.47318744449999883	0.41006939118925173
-0.47312640934374883	0.403813962909315
-0.47306537418749883	0.3974982549916541
-0.47300433903124883	0.39111790834424465
-0.47294330387499883	0.38467160218520996
-0.47288226871874883	0.37816153075066605
-0.47282123356249883	0.3715931169971843
-0.47276019840624883	0.36497402904379356
-0.47269916324999883	0.3583126782332088
-0.47263812809374883	0.3516165298764371
-0.47257709293749883	0.34489062101349155
-0.47251605778124883	0.3381366122665285
-0.47245502262499883	0.33135260663696775
-0.47239398746874883	0.32453377378071346
-0.47233295231249883	0.31767360556111607
-0.47227191715624883	0.3107655248381883
-0.47221088199999883	0.3038045030743217
-0.47214984684374883	0.29678836125656294
-0.47208881168749883	0.28971848991384364
-0.47202777653124883	0.2825997707904477
-0.47196674137499883	0.2754396720553706
-0.47190570621874883	0.26824675746424925
-0.47184467106249883	0.2610289873792534
-0.47178363590624883	0.2537921842076651
-0.47172260074999883	0.24653895462513764
-0.47166156559374883	0.2392682867580268
-0.47160053043749883	0.2319759533989852
-0.47153949528124883	0.22465564572839494
-0.47147846012499883	0.21730057513314024
-0.47141742496874883	0.2099051975235945
-0.47135638981249883	0.20246664945694484
-0.47129535465624883	0.19498557020592575
-0.47123431949999883	0.1874661787125246
-0.47117328434374883	0.17991559078039832
-0.47111224918749883	0.17234247752760018
-0.47105121403124883	0.16475533985228039
-0.47099017887499883	0.1571608087499235
-0.47092914371874883	0.14956237171046577
-0.47086810856249883	0.14195979737630243
-0.47080707340624883	0.1343493811089899
-0.47074603824999883	0.12672496548644752
-0.47068500309374883	0.11907951275720853
-0.47062396793749883	0.11140687651400498
-0.47056293278124883	0.10370338293392543
-0.47050189762499883	0.09596888909461423
-0.47044086246874883	0.08820707641633234
-0.47037982731249883	0.08042487688010562
-0.47031879215624883	0.07263114361162082
-0.47025775699999883	0.06483488240655795
-0.47019672184374883	0.05704347505279452
-0.47013568668749883	0.04926128126137183
