Time	Frequency
-0.5000190715624981	0.5000475542514812
-0.49995803640624814	0.5027097796322444
-0.49989700124999814	0.5053274967580619
-0.49983596609374814	0.5078796014077712
-0.49977493093749814	0.5103596812508523
-0.49971389578124814	0.5127791855634843
-0.49965286062499814	0.5151605165305305
-0.49959182546874814	0.5175240896706417
-0.49953079031249814	0.5198767049806543
-0.49946975515624814	0.5222077442481348
-0.49940871999999814	0.5244952454495386
-0.49934768484374814	0.5267183497255361
-0.49928664968749814	0.5288690693230231
-0.49922561453124814	0.5309567069056698
-0.49916457937499814	0.5330023885628495
-0.49910354421874814	0.5350268091376192
-0.49904250906249814	0.5370382072513722
-0.49898147390624814	0.5390274861832608
-0.49892043874999814	0.5409733443350869
-0.49885940359374814	0.5428545308010682
-0.49879836843749814	0.5446621392409425
-0.49873733328124814	0.5464047524489068
-0.49867629812499814	0.5481033691344995
-0.49861526296874814	0.5497790036713622
-0.49855422781249814	0.5514402190622472
-0.49849319265624814	0.5530779700079735
-0.49843215749999814	0.5546708491561815
-0.49837112234374814	0.5561976824380932
-0.49831008718749814	0.5576500216146222
-0.49824905203124814	0.5590370785481251
-0.49818801687499814	0.5603801228525006
-0.49812698171874814	0.5616996727085182
-0.49806594656249814	0.5630031528638026
-0.49800491140624814	0.5642804338634215
-0.49794387624999814	0.5655099348469103
-0.49788284109374814	0.5666716079100342
-0.49782180593749814	0.5677589424842605
-0.49776077078124814	0.5687827114816644
-0.49769973562499814	0.5697642280088925
-0.49763870046874814	0.5707222777367305
-0.49757766531249814	0.5716617164596103
-0.49751663015624814	0.5725706525819687
-0.49745559499999814	0.573427843308367
-0.49739455984374814	0.574215692271364
-0.49733352468749814	0.5749308606519283
-0.49727248953124814	0.5755860327938389
-0.49721145437499814	0.5762018574911193
-0.49715041921874814	0.5767941379169658
-0.49708938406249814	0.577364207156139
-0.49702834890624814	0.5778983467378992
-0.49696731374999814	0.5783764597908769
-0.49690627859374814	0.5787845190201216
-0.49684524343749814	0.5791230493837088
-0.49678420828124814	0.5794064699505134
-0.49672317312499814	0.5796538762150217
-0.49666213796874814	0.5798771308607296
-0.49660110281249814	0.5800736772454007
-0.49654006765624814	0.5802284261294113
-0.49647903249999814	0.5803233640559323
-0.49641799734374814	0.5803487634101412
-0.49635696218749814	0.5803089969410705
-0.49629592703124814	0.5802194718944886
-0.49623489187499814	0.5800968058074303
-0.49617385671874814	0.5799484987847521
-0.49611282156249814	0.5797685102508974
-0.49605178640624814	0.5795413428019828
-0.49599075124999814	0.5792518948365364
-0.49592971609374814	0.5788948167840726
-0.49586868093749814	0.5784775764837311
-0.49580764578124814	0.5780155035765466
-0.49574661062499814	0.5775220950901001
-0.49568557546874814	0.5770007135165313
-0.49562454031249814	0.5764427937658183
-0.49556350515624814	0.5758334991823159
-0.49550246999999814	0.5751611089913203
-0.49544143484374814	0.5744242114156671
-0.49538039968749814	0.5736323072603067
-0.49531936453124814	0.5727996386920005
-0.49525832937499814	0.5719362716847072
-0.49519729421874814	0.5710420346743555
-0.49513625906249814	0.5701069738182736
-0.49507522390624814	0.569117848169718
-0.49501418874999814	0.568066450856625
-0.49495315359374814	0.5669545453166707
-0.49489211843749814	0.5657924847863572
-0.49483108328124814	0.5645925840236236
-0.49477004812499814	0.5633615164571639
-0.49470901296874814	0.5620964682142865
-0.49464797781249814	0.5607872876575294
-0.49458694265624814	0.5594230781124282
-0.49452590749999814	0.5579989821485554
-0.49446487234374814	0.5565189519907582
-0.49440383718749814	0.5549929911269234
-0.49434280203124814	0.5534308294152027
-0.49428176687499814	0.5518360636379515
-0.49422073171874814	0.5502043270902127
-0.49415969656249814	0.5485264169223334
-0.49409866140624814	0.5467942217711975
-0.49403762624999814	0.5450056881751933
-0.49397659109374814	0.5431658240946075
-0.49391555593749814	0.5412833280916068
-0.49385452078124814	0.539365169105434
-0.49379348562499814	0.5374125487979378
-0.49373245046874814	0.5354206196063549
-0.49367141531249814	0.5333819089020418
-0.49361038015624814	0.5312911112900102
-0.49354934499999814	0.5291482349166369
-0.49348830984374814	0.5269583208117186
-0.49342727468749814	0.5247281276629212
-0.49336623953124814	0.5224620090312614
-0.49330520437499814	0.5201595759470452
-0.49324416921874814	0.5178164244891293
-0.49318313406249814	0.515427241771979
-0.49312209890624814	0.5129892151505215
-0.49306106374999814	0.5105036214187454
-0.49300002859374814	0.5079747782422654
-0.49293899343749814	0.5054072475394039
-0.49287795828124814	0.5028031534551783
-0.49281692312499814	0.5001612565616536
-0.49275588796874814	0.49747821155874966
-0.49269485281249814	0.4947509920541915
-0.49263381765624814	0.4919788227634972
-0.49257278249999814	0.48916349312789015
-0.49251174734374814	0.4863080691873172
-0.49245071218749814	0.4834149773195234
-0.49238967703124814	0.48048471765392764
-0.49232864187499814	0.47751595728743856
-0.49226760671874814	0.4745067786797749
-0.49220657156249814	0.47145612897195605
-0.49214553640624814	0.46836451396772893
-0.49208450124999814	0.46523359490495647
-0.49202346609374814	0.46206509773744253
-0.49196243093749814	0.45885981113251195
-0.49190139578124814	0.455617310044018
-0.49184036062499814	0.4523365601128666
-0.49177932546874814	0.4490169310554031
-0.49171829031249814	0.4456588316857817
-0.49165725515624814	0.4422635238400516
-0.49159621999999814	0.4388323323987803
-0.49153518484374814	0.43536585138773964
-0.49147414968749814	0.4318637067154455
-0.49141311453124814	0.42832504270917576
-0.49135207937499814	0.42474935676415027
-0.49129104421874814	0.4211370826733999
-0.49123000906249814	0.4174895143824331
-0.49116897390624814	0.413808089754816
-0.49110793874999814	0.41009355960668614
-0.49104690359374814	0.40634566313190895
-0.49098586843749814	0.4025634945030946
-0.49092483328124814	0.3987462946608123
-0.49086379812499814	0.39489417362842594
-0.49080276296874814	0.3910082735320029
-0.49074172781249814	0.3870902207512204
-0.49068069265624814	0.383141232678747
-0.49061965749999814	0.37916152148685156
-0.49055862234374814	0.37515039124138105
-0.49049758718749814	0.3711069136711998
-0.49043655203124814	0.36703073386126417
-0.49037551687499814	0.3629224895242271
-0.49031448171874814	0.3587835722853621
-0.49025344656249814	0.3546154144713748
-0.49019241140624814	0.3504187800770244
-0.49013137624999814	0.34619351121981384
-0.49007034109374814	0.3419388818291548
-0.49000930593749814	0.33765432765650627
-0.48994827078124814	0.3333400567581089
-0.48988723562499814	0.3289970944914533
-0.48982620046874814	0.32462677515325505
-0.48976516531249814	0.32023009129533914
-0.48970413015624814	0.3158072974822436
-0.48964309499999814	0.3113579884404029
-0.48958205984374814	0.3068816236064601
-0.48952102468749814	0.30237814269758295
-0.48945998953124814	0.29784823254967085
-0.48939895437499814	0.2932930817732857
-0.48933791921874814	0.2887138119332348
-0.48927688406249814	0.28411095912204654
-0.48921584890624814	0.2794843422519048
-0.48915481374999814	0.27483343191190934
-0.48909377859374814	0.2701579978477944
-0.48903274343749814	0.26545857380673854
-0.48897170828124814	0.26073637042760733
-0.48891067312499814	0.2559926965177794
-0.48884963796874814	0.2512283182241207
-0.48878860281249814	0.24644315681892465
-0.48872756765624814	0.24163653658166664
-0.48866653249999814	0.23680790199755028
-0.48860549734374814	0.2319575169002946
-0.48854446218749814	0.2270866090826384
-0.48848342703124814	0.2221968186649589
-0.48842239187499814	0.2172893239124767
-0.48836135671874814	0.212364303235322
-0.48830032156249814	0.20742109312762932
-0.48823928640624814	0.20245887660647058
-0.48817825124999814	0.19747747285720693
-0.48811721609374814	0.1924777357726343
-0.48805618093749814	0.18746127756382586
-0.48799514578124814	0.18242968082972108
-0.48793411062499814	0.17738372151909215
-0.48787307546874814	0.17232313052022452
-0.48781204031249814	0.16724703662042267
-0.48775100515624814	0.1621547982112688
-0.48768996999999814	0.1570467015535761
-0.48762893484374814	0.15192404147504288
-0.48756789968749814	0.14678851851724342
-0.48750686453124814	0.14164139019282118
-0.48744582937499814	0.13648292754329017
-0.48738479421874814	0.1313125169595705
-0.48732375906249814	0.126129357880575
-0.48726272390624814	0.12093327911848166
-0.48720168874999814	0.11572513016316859
-0.48714065359374814	0.11050650240206424
-0.48707961843749814	0.10527894808433463
-0.48701858328124814	0.10004322752321407
-0.48695754812499814	0.09479911192593454
-0.48689651296874814	0.08954584862436749
-0.48683547781249814	0.08428294801819086
-0.48677444265624814	0.07901076823552443
-0.48671340749999814	0.07373051192524661
-0.48665237234374814	0.06844367041426704
-0.48659133718749814	0.06315131861009222
-0.48653030203124814	0.05785372049463646
-0.48646926687499814	0.052550503626674405
-0.48640823171874814	0.04724125010113849
-0.48634719656249814	0.04192606750742813
-0.48628616140624814	0.036605782388646424
-0.48622512624999814	0.03128163359940133
-0.48616409109374814	0.02595467654653152
-0.48610305593749814	0.020625341943891852
-0.48604202078124814	0.01529346256808165
-0.48598098562499814	0.009958745470828369
-0.48591995046874814	0.004621325672840811
-0.48585891531249814	-0.0007180262966940943
-0.48579788015624814	-0.006058154750554055
-0.48573684499999814	-0.011398024397018085
-0.48567580984374814	-0.016737171403172817
-0.48561477468749814	-0.02207578534899782
-0.48555373953124814	-0.027414267698746875
-0.48549270437499814	-0.03275257261862518
-0.48543166921874814	-0.038089896384380664
-0.48537063406249814	-0.04342492384078077
-0.48530959890624814	-0.04875642737988052
-0.48524856374999814	-0.054083828446335705
-0.48518752859374814	-0.05940732144518257
-0.48512649343749814	-0.06472748222599792
-0.48506545828124814	-0.07004460231714134
-0.48500442312499814	-0.07535813355420182
-0.48494338796874814	-0.08066667156625643
-0.48488235281249814	-0.08596858927392127
-0.48482131765624814	-0.09126289383872521
-0.48476028249999814	-0.09654965346725887
-0.48469924734374814	-0.10182966716015844
-0.48463821218749814	-0.10710363528245619
-0.48457717703124814	-0.1123714069421037
-0.48451614187499814	-0.11763177212357871
-0.48445510671874814	-0.12288292690978303
-0.48439407156249814	-0.12812335753686685
-0.48433303640624814	-0.13335259784825584
-0.48427200124999814	-0.1385713156998121
-0.48421096609374814	-0.14378058563238594
-0.48414993093749814	-0.14898082948921793
-0.48408889578124814	-0.15417121175314966
-0.48402786062499814	-0.15934989609397643
-0.48396682546874814	-0.16451497144113728
-0.48390579031249814	-0.16966548613713772
-0.48384475515624814	-0.17480187881595957
-0.48378371999999814	-0.17992540612777608
-0.48372268484374814	-0.18503693858153258
-0.48366164968749814	-0.19013602828968604
-0.48360061453124814	-0.1952209118974038
-0.48353957937499814	-0.2002894020935604
-0.48347854421874814	-0.20534008979823837
-0.48341750906249814	-0.21037310839443205
-0.48335647390624814	-0.2153898477823572
-0.48329543874999814	-0.22039168346275925
-0.48323440359374814	-0.2253786630597493
-0.48317336843749814	-0.2303491278425316
-0.48311233328124814	-0.23530051364591992
-0.48305129812499814	-0.24023083739716394
-0.48299026296874814	-0.24513987370576312
-0.48292922781249814	-0.2500291261095018
-0.48286819265624814	-0.2549005386564993
-0.48280715749999814	-0.2597548434686533
-0.48274612234374814	-0.2645906922218921
-0.48268508718749814	-0.2694051621152854
-0.48262405203124814	-0.2741953838734245
-0.48256301687499814	-0.27896029872455774
-0.48250198171874814	-0.2837013000488594
-0.48244094656249814	-0.28842115633150306
-0.48237991140624814	-0.29312186071261787
-0.48231887624999814	-0.29780289332464716
-0.48225784109374814	-0.30246113935376767
-0.48219680593749814	-0.30709261672192295
-0.48213577078124814	-0.3116949293463389
-0.48207473562499814	-0.31626876010764027
-0.48201370046874814	-0.32081728660922815
-0.48195266531249814	-0.3253438482931501
-0.48189163015624814	-0.3298494055874025
-0.48183059499999814	-0.33433150061503775
-0.48176955984374814	-0.3387854960919156
-0.48170852468749814	-0.3432073624474882
-0.48164748953124814	-0.3475962188734082
-0.48158645437499814	-0.35195487491523575
-0.48152541921874814	-0.35628784254291657
-0.48146438406249814	-0.3605980645300551
-0.48140334890624814	-0.3648845604183599
-0.48134231374999814	-0.3691426322003869
-0.48128127859374814	-0.3733666383556586
-0.48122024343749814	-0.37755357658943445
-0.48115920828124814	-0.3817050340554818
-0.48109817312499814	-0.3858260880130322
-0.48103713796874814	-0.38992176155736946
-0.48097610281249814	-0.3939933281074818
-0.48091506765624814	-0.3980370108329652
-0.48085403249999814	-0.4020460988933581
-0.48079299734374814	-0.406015167640952
-0.48073196218749814	-0.40994362314539784
-0.48067092703124814	-0.41383613097582145
-0.48060989187499814	-0.4176994428148908
-0.48054885671874814	-0.42153760515050737
-0.48048782156249814	-0.4253488050952211
-0.48042678640624814	-0.42912612052237675
-0.48036575124999814	-0.43286180635701055
-0.48030471609374814	-0.43655232795349797
-0.48024368093749814	-0.4402007738396237
-0.48018264578124814	-0.44381486018146626
-0.48012161062499814	-0.4474016516341911
-0.48006057546874814	-0.4509624735126903
-0.47999954031249814	-0.4544915026684437
-0.47993850515624814	-0.457979190896944
-0.47987746999999814	-0.46141843750017586
-0.47981643484374814	-0.46480937712870646
-0.47975539968749814	-0.468159399673337
-0.47969436453124814	-0.47147820717223893
-0.47963332937499814	-0.47477110892177826
-0.47957229421874814	-0.4780350332902869
-0.47951125906249814	-0.48126006301267094
-0.47945022390624814	-0.484435692409979
-0.47938918874999814	-0.48755775026014453
-0.47932815359374814	-0.490631304770897
-0.47926711843749814	-0.49366742261617247
-0.47920608328124814	-0.4966757223850445
-0.47914504812499814	-0.4996575964925761
-0.47908401296874814	-0.5026047609414811
-0.47902297781249814	-0.5055043358644977
-0.47896194265624814	-0.5083472229696991
-0.47890090749999814	-0.5111342184763263
-0.47883987234374814	-0.5138756644370593
-0.47877883718749814	-0.516584641416015
-0.47871780203124814	-0.5192680629293384
-0.47865676687499814	-0.521921618109777
-0.47859573171874814	-0.5245321300042264
-0.47853469656249814	-0.5270860086275732
-0.47847366140624814	-0.52957827161618
-0.47841262624999814	-0.5320160245373626
-0.47835159109374814	-0.5344138922994769
-0.47829055593749814	-0.5367842528300328
-0.47822952078124814	-0.5391286830723082
-0.47816848562499814	-0.5414364208608062
-0.47810745046874814	-0.5436911083799321
-0.47804641531249814	-0.5458815184800716
-0.47798538015624814	-0.5480091396772097
-0.47792434499999814	-0.5500874055276744
-0.47786330984374814	-0.5521328435927005
-0.47780227468749814	-0.5541538940334139
-0.47774123953124814	-0.5561448826556923
-0.47768020437499814	-0.5580893417213849
-0.47761916921874814	-0.5599706805684248
-0.47755813406249814	-0.5617832232248853
-0.47749709890624814	-0.5635362109618891
-0.47743606374999814	-0.5652478890618898
-0.47737502859374814	-0.5669333682590619
-0.47731399343749814	-0.5685942509886405
-0.47725295828124814	-0.5702170685405327
-0.47719192312499814	-0.5717818347472914
-0.47713088796874814	-0.5732752242963233
-0.47706985281249814	-0.5746996270054519
-0.47700881765624814	-0.5760718839075777
-0.47694778249999814	-0.5774122663655399
-0.47688674734374814	-0.5787308381668834
-0.47682571218749814	-0.580020314000323
-0.47676467703124814	-0.5812603882557151
-0.47670364187499814	-0.5824309310838497
-0.47664260671874814	-0.5835254446485167
-0.47658157156249814	-0.5845557534984177
-0.47652053640624814	-0.5855445246243709
-0.47645950124999814	-0.5865102916794647
-0.47639846609374814	-0.5874548175306703
-0.47633743093749814	-0.5883613349521832
-0.47627639578124814	-0.589205168976868
-0.47621536062499814	-0.5899699993206942
-0.47615432546874814	-0.5906590270656595
-0.47609329031249814	-0.5912933889072806
-0.47603225515624814	-0.5918984827240772
-0.47597121999999814	-0.5924870032256
-0.47591018484374814	-0.5930499719045187
-0.47584914968749814	-0.5935620366120643
-0.47578811453124814	-0.5939979346237587
-0.47572707937499814	-0.5943494159356508
-0.47566604421874814	-0.5946312749949864
-0.47560500906249814	-0.5948721059654212
-0.47554397390624814	-0.59509552042995
-0.47548293874999814	-0.5953041300070775
-0.47542190359374814	-0.5954771185538115
-0.47536086843749814	-0.5955834574911317
-0.47529983328124814	-0.5956023814665828
-0.47523879812499814	-0.5955376166419275
-0.47517776296874814	-0.5954156308116734
-0.47511672781249814	-0.5952685646418379
-0.47505569265624814	-0.5951128174864639
-0.47499465749999814	-0.5949375633930951
-0.47493362234374814	-0.5947112336236524
-0.47487258718749814	-0.5944021408018754
-0.47481155203124814	-0.5939997691541079
-0.47475051687499814	-0.593522396521269
-0.47468948171874814	-0.5930055350160961
-0.47462844656249814	-0.5924784836942792
-0.47456741140624814	-0.5919444912462729
-0.47450637624999814	-0.5913779860927008
-0.47444534109374814	-0.5907411686756793
-0.47438430593749814	-0.5900092395184986
-0.47432327078124814	-0.5891874274297064
-0.47426223562499814	-0.5883081213108536
-0.47420120046874814	-0.5874095900190668
-0.47414016531249814	-0.5865102816815063
-0.47407913015624814	-0.5855960184592773
-0.47401809499999814	-0.5846290355753998
-0.47395705984374814	-0.5835731704366895
-0.47389602468749814	-0.582418427414356
-0.47383498953124814	-0.581188240756981
-0.47377395437499814	-0.5799241829195991
-0.47371291921874814	-0.5786581041171968
-0.47365188406249814	-0.577390432348214
-0.47359084890624814	-0.576089477248527
-0.47352981374999814	-0.5747125473781881
-0.47346877859374814	-0.5732348891389386
-0.47340774343749814	-0.5716668729673987
-0.47334670828124814	-0.5700475187810038
-0.47328567312499814	-0.568418402444971
-0.47322463796874814	-0.5667954327330381
-0.47316360281249814	-0.565157699768151
-0.47310256765624814	-0.5634612486663225
-0.47304153249999814	-0.5616688029499417
-0.47298049734374814	-0.5597754349329788
-0.47291946218749814	-0.5578125659233538
-0.47285842703124814	-0.5558272000184096
-0.47279739187499814	-0.5538501617003925
-0.47273635671874814	-0.5518748038044413
-0.47267532156249814	-0.5498609029588598
-0.47261428640624814	-0.5477615932158653
-0.47255325124999814	-0.5455554073024238
-0.47249221609374814	-0.5432616460545453
-0.47243118093749814	-0.540928264086478
-0.47237014578124814	-0.5385999070873356
-0.47230911062499814	-0.5362873707249104
-0.47224807546874814	-0.5339593749119752
-0.47218704031249814	-0.531562870378658
-0.47212600515624814	-0.5290587626606715
-0.47206496999999814	-0.5264491931108595
-0.47200393484374814	-0.5237776224507843
-0.47194289968749814	-0.5211007676122326
-0.47188186453124814	-0.5184505102543728
-0.47182082937499814	-0.5158113414051376
-0.47175979421874814	-0.5131292007591582
-0.47169875906249814	-0.5103468371666328
-0.47163772390624814	-0.5074427604452921
-0.47157668874999814	-0.5044475965612659
-0.47151565359374814	-0.5014258561736578
-0.47145461843749814	-0.4984339524286529
-0.47139358328124814	-0.4954817542153354
-0.47133254812499814	-0.49252373862963783
-0.47127151296874814	-0.48948706698160205
-0.47121047781249814	-0.486319459135865
-0.47114944265624814	-0.4830256833704341
-0.47108840749999814	-0.4796676399382754
-0.47102737234374814	-0.4763261416815834
-0.47096633718749814	-0.4730479843418105
-0.47090530203124814	-0.4698128680027199
-0.47084426687499814	-0.4665432510309539
-0.47078323171874814	-0.46315292510347233
-0.47072219656249814	-0.45960413904135083
-0.47066116140624814	-0.4559357275832913
-0.47060012624999814	-0.4522419609162381
-0.47053909109374814	-0.44861348373181814
-0.47047805593749814	-0.4450773835414742
-0.47041702078124814	-0.44157590472126246
-0.47035598562499814	-0.4379998837479261
-0.47029495046874814	-0.4342577875189309
-0.47023391531249814	-0.4303368571387828
-0.47017288015624814	-0.4263158116535593
