Time	Frequency
-0.5000076279999988	0.07313109498474622
-0.49994659284374876	0.06730339952756641
-0.49988555768749876	0.061381681586807055
-0.49982452253124876	0.055448459569540254
-0.49976348737499876	0.04959056877522954
-0.49970245221874876	0.04387134945919973
-0.49964141706249876	0.03830965464871923
-0.49958038190624876	0.03287259842615957
-0.49951934674999876	0.02748474446141023
-0.49945831159374876	0.022051291660682946
-0.49939727643749876	0.016488156732452238
-0.49933624128124876	0.010749414302049166
-0.49927520612499876	0.0048432294585278165
-0.49921417096874876	-0.0011691623168022106
-0.49915313581249876	-0.0071915669536366
-0.49909210065624876	-0.0131225491246466
-0.49903106549999876	-0.018887475645194676
-0.49897003034374876	-0.02446277432388518
-0.49890899518749876	-0.02988447114576226
-0.49884796003124876	-0.03523783679916542
-0.49878692487499876	-0.040631059290143594
-0.49872588971874876	-0.046161139827178996
-0.49866485456249876	-0.051882775955904924
-0.49860381940624876	-0.05779013964406747
-0.49854278424999876	-0.06381754518335299
-0.49848174909374876	-0.06985912461451375
-0.49842071393749876	-0.07580153547967576
-0.49835967878124876	-0.08155948459070851
-0.49829864362499876	-0.08710288368245638
-0.49823760846874876	-0.09246690072037747
-0.49817657331249876	-0.0977414252503058
-0.49811553815624876	-0.10304307680522821
-0.49805450299999876	-0.10847852154213462
-0.49799346784374876	-0.11411065954245936
-0.49793243268749876	-0.11993840388157526
-0.49787139753124876	-0.12589652023324294
-0.49781036237499876	-0.1318756871888256
-0.49774932721874876	-0.13775652306495575
-0.49768829206249876	-0.14344686025064182
-0.49762725690624876	-0.14891051716652629
-0.49756622174999876	-0.15417846892515924
-0.49750518659374876	-0.1593388973631867
-0.49744415143749876	-0.1645093329952248
-0.49738311628124876	-0.16979966442002692
-0.49732208112499876	-0.17527761811594858
-0.49726104596874876	-0.1809476118673963
-0.49720001081249876	-0.18674962287732572
-0.49713897565624876	-0.1925782708434904
-0.49707794049999876	-0.19831594386861212
-0.49701690534374876	-0.20386947830726945
-0.49695587018749876	-0.2091988599189521
-0.49689483503124876	-0.21432896844703392
-0.49683379987499876	-0.21934084895916703
-0.49677276471874876	-0.2243455473606758
-0.49671172956249876	-0.2294489316324811
-0.49665069440624876	-0.23471859442033285
-0.49658965924999876	-0.2401632192138639
-0.49652862409374876	-0.24573071056380272
-0.49646758893749876	-0.2513253229928115
-0.49640655378124876	-0.25683811771358595
-0.49634551862499876	-0.2621810167861524
-0.49628448346874876	-0.2673137246818393
-0.49622344831249876	-0.27225519209698634
-0.49616241315624876	-0.277076316402294
-0.49610137799999876	-0.2818765917620034
-0.49604034284374876	-0.2867523589926442
-0.49597930768749876	-0.29176667893030844
-0.49591827253124876	-0.29693021436932726
-0.49585723737499876	-0.3021989536604664
-0.49579620221874876	-0.3074891235803162
-0.49573516706249876	-0.31270419259323773
-0.49567413190624876	-0.3177652325643215
-0.49561309674999876	-0.32263503166883073
-0.49555206159374876	-0.32732851185074724
-0.49549102643749876	-0.3319065513246565
-0.49542999128124876	-0.33645560353883136
-0.49536895612499876	-0.3410598232913427
-0.49530792096874876	-0.34577460668906945
-0.49524688581249876	-0.3506098338817789
-0.49518585065624876	-0.35552785938695264
-0.49512481549999876	-0.36045650399880735
-0.49506378034374876	-0.365312526665242
-0.49500274518749876	-0.37002793435480713
-0.49494171003124876	-0.37457083661854
-0.49488067487499876	-0.37895438844035456
-0.49481963971874876	-0.3832312576310351
-0.49475860456249876	-0.3874757762387605
-0.49469756940624876	-0.39175977765529485
-0.49463653424999876	-0.3961298841052053
-0.49457549909374876	-0.40059336215504643
-0.49451446393749876	-0.40511678950520413
-0.49445342878124876	-0.40963758914265275
-0.49439239362499876	-0.414084474598454
-0.49433135846874876	-0.418400128125438
-0.49427032331249876	-0.4225588314292978
-0.49420928815624876	-0.42657363399388915
-0.49414825299999876	-0.4304910983636145
-0.49408721784374876	-0.4343755355522948
-0.49402618268749876	-0.43828799263352647
-0.49396514753124876	-0.44226684934307414
-0.49390411237499876	-0.4463161138711755
-0.49384307721874876	-0.45040489500568287
-0.49378204206249876	-0.45447796225958137
-0.49372100690624876	-0.4584737993810043
-0.49365997174999876	-0.4623442141635799
-0.49359893659374876	-0.46606921685137986
-0.49353790143749876	-0.4696625808704602
-0.49347686628124876	-0.4731665601553419
-0.49341583112499876	-0.4766376726969169
-0.49335479596874876	-0.48012826913239337
-0.49329376081249876	-0.4836698589255694
-0.49323272565624876	-0.4872634365790829
-0.49317169049999876	-0.49087971587609924
-0.49311065534374876	-0.494469007757246
-0.49304962018749876	-0.4979773944348327
-0.49298858503124876	-0.5013638969767628
-0.49292754987499876	-0.5046131555774543
-0.49286651471874876	-0.5077396980208555
-0.49280547956249876	-0.5107826081643604
-0.49274444440624876	-0.5137924829137002
-0.49268340924999876	-0.5168149986055353
-0.49262237409374876	-0.51987637434686
-0.49256133893749876	-0.5229752927820243
-0.49250030378124876	-0.5260837313082226
-0.49243926862499876	-0.5291562829179058
-0.49237823346874876	-0.5321448488622932
-0.49231719831249876	-0.5350139312876648
-0.49225616315624876	-0.5377516205569061
-0.49219512799999876	-0.5403728609341866
-0.49213409284374876	-0.5429141389379325
-0.49207305768749876	-0.5454214453396575
-0.49201202253124876	-0.5479354257006384
-0.49195098737499876	-0.550478467837233
-0.49188995221874876	-0.553047802122703
-0.49182891706249876	-0.555616707574135
-0.49176788190624876	-0.5581433035552378
-0.49170684674999876	-0.5605840197866783
-0.49164581159374876	-0.5629073836222589
-0.49158477643749876	-0.5651037279867527
-0.49152374128124876	-0.5671878319349001
-0.49146270612499876	-0.5691938013038247
-0.49140167096874876	-0.5711639183399009
-0.49134063581249876	-0.5731350672617911
-0.49127960065624876	-0.5751270800666415
-0.49121856549999876	-0.5771366544617985
-0.49115753034374876	-0.5791386697895106
-0.49109649518749876	-0.5810943829614716
-0.49103546003124876	-0.5829638083392127
-0.49097442487499876	-0.5847182983934863
-0.49091338971874876	-0.5863493614198796
-0.49085235456249876	-0.5878709983359648
-0.49079131940624876	-0.5893149198284836
-0.49073028424999876	-0.5907202596300859
-0.49066924909374876	-0.5921210988171234
-0.49060821393749876	-0.5935357579779198
-0.49054717878124876	-0.5949612098141206
-0.49048614362499876	-0.5963742941973048
-0.49042510846874876	-0.5977392410210001
-0.49036407331249876	-0.5990190400820311
-0.49030303815624876	-0.6001870302301359
-0.49024200299999876	-0.6012350649309562
-0.49018096784374876	-0.6021757532080562
-0.49011993268749876	-0.6030381713647857
-0.49005889753124876	-0.6038584876928791
-0.48999786237499876	-0.6046685168732775
-0.48993682721874876	-0.6054858201883518
-0.48987579206249876	-0.6063084166232294
-0.48981475690624876	-0.6071156749083214
-0.48975372174999876	-0.6078750017658702
-0.48969268659374876	-0.608552144884575
-0.48963165143749876	-0.6091218476995995
-0.48957061628124876	-0.6095755411906533
-0.48950958112499876	-0.609923728427184
-0.48944854596874876	-0.610192402804485
-0.48938751081249876	-0.6104147130983443
-0.48932647565624876	-0.6106205489610408
-0.48926544049999876	-0.6108273151190875
-0.48920440534374876	-0.6110347364069892
-0.48914337018749876	-0.6112252389649618
-0.48908233503124876	-0.6113696846578399
-0.48902129987499876	-0.6114365691291668
-0.48896026471874876	-0.6114017755702994
-0.48889922956249876	-0.6112558772821246
-0.48883819440624876	-0.6110067777223434
-0.48877715924999876	-0.6106769457236105
-0.48871612409374876	-0.6102962078164611
-0.48865508893749876	-0.6098924253564064
-0.48859405378124876	-0.6094829761076496
-0.48853301862499876	-0.609069642416994
-0.48847198346874876	-0.6086384038152809
-0.48841094831249876	-0.6081640831440464
-0.48834991315624876	-0.6076183083627616
-0.48828887799999876	-0.6069782774341835
-0.48822784284374876	-0.6062336104054415
-0.48816680768749876	-0.6053892331946373
-0.48810577253124876	-0.6044635345274652
-0.48804473737499876	-0.6034824730903043
-0.48798370221874876	-0.6024715064510456
-0.48792266706249876	-0.6014478595953011
-0.48786163190624876	-0.600415497158476
-0.48780059674999876	-0.5993642809627361
-0.48773956159374876	-0.5982734584796663
-0.48767852643749876	-0.5971182746853995
-0.48761749128124876	-0.5958776069887798
-0.48755645612499876	-0.5945402886179647
-0.48749542096874876	-0.593108238628946
-0.48743438581249876	-0.5915955458761135
-0.48737335065624876	-0.5900239058201178
-0.48731231549999876	-0.5884158864153011
-0.48725128034374876	-0.5867881261767721
-0.48719024518749876	-0.5851465338532045
-0.48712921003124876	-0.5834848633074956
-0.48706817487499876	-0.5817869955084141
-0.48700713971874876	-0.5800321473895755
-0.48694610456249876	-0.5782013175465722
-0.48688506940624876	-0.576282969700484
-0.48682403424999876	-0.5742762901747333
-0.48676299909374876	-0.5721911292842421
-0.48670196393749876	-0.5700447604379116
-0.48664092878124876	-0.5678565266716953
-0.48657989362499876	-0.5656420341601103
-0.48651885846874876	-0.5634086591007649
-0.48645782331249876	-0.5611536772079718
-0.48639678815624876	-0.5588654803986127
-0.48633575299999876	-0.5565274162553251
-0.48627471784374876	-0.5541230053503793
-0.48621368268749876	-0.5516409054559795
-0.48615264753124876	-0.549078160949286
-0.48609161237499876	-0.5464408334388552
-0.48603057721874876	-0.5437419028030549
-0.48596954206249876	-0.5409971961963733
-0.48590850690624876	-0.5382206511427184
-0.48584747174999876	-0.5354203342045692
-0.48578643659374876	-0.5325963787932234
-0.48572540143749876	-0.5297413591720636
-0.48566436628124876	-0.5268428507115432
-0.48560333112499876	-0.5238873581062643
-0.48554229596874876	-0.5208644231147902
-0.48548126081249876	-0.5177696567018453
-0.48542022565624876	-0.5146058482656711
-0.48535919049999876	-0.511381922410341
-0.48529815534374876	-0.5081101306884344
-0.48523712018749876	-0.5048023888302512
-0.48517608503124876	-0.5014668685447476
-0.48511504987499876	-0.49810584151701115
-0.48505401471874876	-0.4947153761238247
-0.48499297956249876	-0.4912868617936977
-0.48493194440624876	-0.48780981079960495
-0.48487090924999876	-0.484275091203678
-0.48480987409374876	-0.4806776255348392
-0.48474883893749876	-0.4770177689494794
-0.48468780378124876	-0.47330104834631476
-0.48462676862499876	-0.4695364264068743
-0.48456573346874876	-0.46573364220474833
-0.48450469831249876	-0.46190043989759966
-0.48444366315624876	-0.45804050392735357
-0.48438262799999876	-0.4541526715694773
-0.48432159284374876	-0.4502315795237823
-0.48426055768749876	-0.4462694828930455
-0.48419952253124876	-0.4422586910201741
-0.48413848737499876	-0.43819389209569964
-0.48407745221874876	-0.43407368908464455
-0.48401641706249876	-0.42990095586800414
-0.48395538190624876	-0.42568196262682567
-0.48389434674999876	-0.42142455397212497
-0.48383331159374876	-0.41713592497445595
-0.48377227643749876	-0.41282064728244927
-0.48371124128124876	-0.4084795451760688
-0.48365020612499876	-0.4041097264601067
-0.48358917096874876	-0.3997056668038239
-0.48352813581249876	-0.39526098059065284
-0.48346710065624876	-0.39077037312603424
-0.48340606549999876	-0.3862312478685757
-0.48334503034374876	-0.38164452508177854
-0.48328399518749876	-0.37701442032398974
-0.48322296003124876	-0.3723472695445013
-0.48316192487499876	-0.3676497625797974
-0.48310088971874876	-0.3629270892002181
-0.48303985456249876	-0.3581815647254294
-0.48297881940624876	-0.35341214986459235
-0.48291778424999876	-0.3486149474445151
-0.48285674909374876	-0.34378447300421183
-0.48279571393749876	-0.3389153607444478
-0.48273467878124876	-0.33400407732305143
-0.48267364362499876	-0.32905011807140344
-0.48261260846874876	-0.3240562716645659
-0.48255157331249876	-0.3190279107810914
-0.48249053815624876	-0.3139715649531338
-0.48242950299999876	-0.30889313914791544
-0.48236846784374876	-0.30379624747388684
-0.48230743268749876	-0.29868119809740507
-0.48224639753124876	-0.2935449806157027
-0.48218536237499876	-0.2883822694231944
-0.48212432721874876	-0.2831871796072409
-0.48206329206249876	-0.27795524550530304
-0.48200225690624876	-0.27268497178516876
-0.48194122174999876	-0.26737849114323764
-0.48188018659374876	-0.2620411160234222
-0.48181915143749876	-0.25667987038058737
-0.48175811628124876	-0.2513014708167512
-0.48169708112499876	-0.24591040415961282
-0.48163604596874876	-0.24050764330293362
-0.48157501081249876	-0.23509037755354925
-0.48151397565624876	-0.22965292672944654
-0.48145294049999876	-0.2241886124071487
-0.48139190534374876	-0.21869200419267512
-0.48133087018749876	-0.21316087992022584
-0.48126983503124876	-0.2075972294992539
-0.48120879987499876	-0.20200686212020208
-0.48114776471874876	-0.196397780355835
-0.48108672956249876	-0.1907778645700979
-0.48102569440624876	-0.18515249503703485
-0.48096465924999876	-0.17952285947633226
-0.48090362409374876	-0.17388560268621792
-0.48084258893749876	-0.16823397617510022
-0.48078155378124876	-0.1625601006487518
-0.48072051862499876	-0.1568576747125502
-0.48065948346874876	-0.1511242749830263
-0.48059844831249876	-0.1453624084553786
-0.48053741315624876	-0.1395789572531561
-0.48047637799999876	-0.1337832311710455
-0.48041534284374876	-0.1279842003572727
-0.48035430768749876	-0.12218771547174972
-0.48029327253124876	-0.11639463197184202
-0.48023223737499876	-0.11060052593913672
-0.48017120221874876	-0.10479716681988824
-0.48011016706249876	-0.09897533614399055
-0.48004913190624876	-0.09312805178068607
-0.47998809674999876	-0.08725309127897905
-0.47992706159374876	-0.08135402099145686
-0.47986602643749876	-0.07543938004743615
-0.47980499128124876	-0.06952017767147993
-0.47974395612499876	-0.06360648108364503
-0.47968292096874876	-0.057704244495784776
-0.47962188581249876	-0.051813399335008004
-0.47956085065624876	-0.04592785378333912
-0.47949981549999876	-0.04003752286078033
-0.47943878034374876	-0.034131756712471935
-0.47937774518749876	-0.028203028308466608
-0.47931671003124876	-0.02224970047426878
-0.47925567487499876	-0.01627692834619079
-0.47919463971874876	-0.010295324785599186
-0.47913360456249876	-0.00431775987508407
-0.47907256940624876	0.0016446983561179468
-0.47901153424999876	0.0075863263185346145
-0.47895049909374876	0.013508568238425698
-0.47888946393749876	0.01941954967737308
-0.47882842878124876	0.02533140323953869
-0.47876739362499876	0.03125622393890225
-0.47870635846874876	0.03720190288244311
-0.47864532331249876	0.0431691640657255
-0.47858428815624876	0.04915090532123349
-0.47852325299999876	0.055134193827241454
-0.47846221784374876	0.06110424239658532
-0.47840118268749876	0.06704907156626701
-0.47834014753124876	0.07296338270630523
-0.47827911237499876	0.07885031403855253
-0.47821807721874876	0.08472041435631089
-0.47815704206249876	0.09058813214823803
-0.47809600690624876	0.09646692838821058
-0.47803497174999876	0.10236461238650775
-0.47797393659374876	0.10828047440870286
-0.47791290143749876	0.1142051574820222
-0.47785186628124876	0.12012335639276385
-0.47779083112499876	0.1260185782096946
-0.47772979596874876	0.13187842624758195
-0.47766876081249876	0.13769860415963386
-0.47760772565624876	0.14348429563451484
-0.47754669049999876	0.14924845400220715
-0.47748565534374876	0.15500749623712246
-0.47742462018749876	0.1607757684297593
-0.47736358503124876	0.16656059644061325
-0.47730254987499876	0.17235955341483145
-0.47724151471874876	0.17816090630805714
-0.47718047956249876	0.18394717941314911
-0.47711944440624876	0.18970068099730147
-0.47705840924999876	0.19540915070135523
-0.47699737409374876	0.20106969298618166
-0.47693633893749876	0.2066897058430219
-0.47687530378124876	0.212284415695771
-0.47681426862499876	0.2178717755859236
-0.47675323346874876	0.2234664001084663
-0.47669219831249876	0.22907453175050274
-0.47663116315624876	0.23469170764073674
-0.47657012799999876	0.2403039190327604
-0.47650909284374876	0.24589194563762398
-0.47644805768749876	0.25143750766848805
-0.47638702253124876	0.2569291701414966
-0.47632598737499876	0.26236598230365066
-0.47626495221874876	0.2677576912210087
-0.47620391706249876	0.2731214873952202
-0.47614288190624876	0.2784762638904267
-0.47608184674999876	0.2838361973192478
-0.47602081159374876	0.2892058161559726
-0.47595977643749876	0.2945782677844513
-0.47589874128124876	0.299937345775784
-0.47583770612499876	0.305262594656737
-0.47577667096874876	0.3105358668952278
-0.47571563581249876	0.3157471998881088
-0.47565460065624876	0.32089803290185526
-0.47559356549999876	0.32600065798620154
-0.47553253034374876	0.33107405039156135
-0.47547149518749876	0.3361374478129541
-0.47541046003124876	0.3412038266939452
-0.47534942487499876	0.3462754181135306
-0.47528838971874876	0.35134274093460555
-0.47522735456249876	0.3563875120786464
-0.47516631940624876	0.361388484442078
-0.47510528424999876	0.3663283038210353
-0.47504424909374876	0.37119914631705514
-0.47498321393749876	0.3760052376222648
-0.47492217878124876	0.38076136969454966
-0.47486114362499876	0.38548789793722404
-0.47480010846874876	0.3902038815632761
-0.47473907331249876	0.39492060414924435
-0.47467803815624876	0.39963760833030065
-0.47461700299999876	0.40434261739631555
-0.47455596784374876	0.4090153898499309
-0.47449493268749876	0.41363423735468063
-0.47443389753124876	0.418183091450015
-0.47437286237499876	0.42265675704913147
-0.47431182721874876	0.42706256974485407
-0.47425079206249876	0.4314178993974282
-0.47418975690624876	0.4357443015351538
-0.47412872174999876	0.4400602297505055
-0.47406768659374876	0.4443747155645995
-0.47400665143749876	0.44868414061975537
-0.47394561628124876	0.45297322150601
-0.47388458112499876	0.4572198975868808
-0.47382354596874876	0.46140251691751694
-0.47376251081249876	0.4655069280126663
-0.47370147565624876	0.4695310973437403
-0.47364044049999876	0.4734857323999877
-0.47357940534374876	0.47739067993747863
-0.47351837018749876	0.48126824730735185
-0.47345733503124876	0.4851356677357573
-0.47339629987499876	0.4889991983779493
-0.47333526471874876	0.49285180863038075
-0.47327422956249876	0.4966752926874827
-0.47321319440624876	0.5004461507132317
-0.47315215924999876	0.5041432898915555
-0.47309112409374876	0.5077549748852264
-0.47303008893749876	0.5112826878304649
-0.47296905378124876	0.5147405911424271
-0.47290801862499876	0.5181507605592236
-0.47284698346874876	0.5215357613594382
-0.47278594831249876	0.5249110107426486
-0.47272491315624876	0.5282794673950006
-0.47266387799999876	0.5316304628524388
-0.47260284284374876	0.5349430828568695
-0.47254180768749876	0.5381929715504756
-0.47248077253124876	0.5413603359042666
-0.47241973737499876	0.5444365028961645
-0.47235870221874876	0.5474268004504487
-0.47229766706249876	0.5503487542005446
-0.47223663190624876	0.5532261682054467
-0.47217559674999876	0.5560810678699005
-0.47211456159374876	0.5589262152004502
-0.47205352643749876	0.5617606951888113
-0.47199249128124876	0.5645700619290029
-0.47193145612499876	0.5673310330001512
-0.47187042096874876	0.5700191933337182
-0.47180938581249876	0.5726171340860197
-0.47174835065624876	0.5751202686583726
-0.47168731549999876	0.5775383340221127
-0.47162628034374876	0.5798920449397644
-0.47156524518749876	0.5822060193954405
-0.47150421003124876	0.5845003772243426
-0.47144317487499876	0.5867838604025865
-0.47138213971874876	0.589050791402244
-0.47132110456249876	0.5912829046225244
-0.47126006940624876	0.593455455039112
-0.47119903424999876	0.5955455447457244
-0.47113799909374876	0.5975398360871643
-0.47107696393749876	0.599439021577914
-0.47101592878124876	0.6012575188487073
-0.47095489362499876	0.6030184803667121
-0.47089385846874876	0.604745819827277
-0.47083282331249876	0.6064559864948564
-0.47077178815624876	0.6081522925256649
-0.47071075299999876	0.6098237286100292
-0.47064971784374876	0.6114486886506171
-0.47058868268749876	0.6130023454018971
-0.47052764753124876	0.6144651423379718
-0.47046661237499876	0.6158294646155194
-0.47040557721874876	0.6171021867273606
-0.47034454206249876	0.6183022183226522
