Time	Frequency
-0.5000317634999973	-0.4722591659569798
-0.49997072834374734	-0.4759375967156947
-0.49990969318749734	-0.4795619667821389
-0.49984865803124734	-0.4831469840470543
-0.49978762287499734	-0.48670344231669427
-0.49972658771874734	-0.4902293374131698
-0.49966555256249734	-0.4937117404321729
-0.49960451740624734	-0.4971373515457483
-0.49954348224999734	-0.500502762698572
-0.49948244709374734	-0.5038162974749619
-0.49942141193749734	-0.5070905869705579
-0.49936037678124734	-0.5103323914020167
-0.49929934162499734	-0.5135377235419217
-0.49923830646874734	-0.5166954327359368
-0.49917727131249734	-0.519795661679766
-0.49911623615624734	-0.5228364906374201
-0.49905520099999734	-0.5258243755488602
-0.49899416584374734	-0.5287689268694067
-0.49893313068749734	-0.5316761903578566
-0.49887209553124734	-0.5345448036816604
-0.49881106037499734	-0.5373668902339828
-0.49875002521874734	-0.5401327266549483
-0.49868899006249734	-0.542836634742204
-0.49862795490624734	-0.5454809799366641
-0.49856691974999734	-0.5480755559021228
-0.49850588459374734	-0.5506316724547595
-0.49844484943749734	-0.5531537629922952
-0.49838381428124734	-0.5556342632739653
-0.49832277912499734	-0.5580568649233101
-0.49826174396874734	-0.5604077968544507
-0.49820070881249734	-0.5626876635354113
-0.49813967365624734	-0.56491372197579
-0.49807863849999734	-0.5671083005460087
-0.49801760334374734	-0.5692804063357625
-0.49795656818749734	-0.5714153127250234
-0.49789553303124734	-0.5734829403463152
-0.49783449787499734	-0.5754611495008045
-0.49777346271874734	-0.5773560147647525
-0.49771242756249734	-0.5792007220406448
-0.49765139240624734	-0.5810306719439633
-0.49759035724999734	-0.5828530386957015
-0.49752932209374734	-0.5846366184747949
-0.49746828693749734	-0.5863336017977555
-0.49740725178124734	-0.5879184728348739
-0.49734621662499734	-0.5894123628068996
-0.49728518146874734	-0.5908700565315229
-0.49722414631249734	-0.592336725377643
-0.49716311115624734	-0.5938084176743663
-0.49710207599999734	-0.5952305555364997
-0.49704104084374734	-0.5965393335358306
-0.49698000568749734	-0.5977145856231126
-0.49691897053124734	-0.5988001486141065
-0.49685793537499734	-0.59987187216534
-0.49679690021874734	-0.6009764251597519
-0.49673586506249734	-0.6020904524599155
-0.49667482990624734	-0.6031356841432131
-0.49661379474999734	-0.6040405968629428
-0.49655275959374734	-0.6047996036670281
-0.49649172443749734	-0.6054803974134636
-0.49643068928124734	-0.6061711982263774
-0.49636965412499734	-0.6069093530211727
-0.49630861896874734	-0.6076495645971354
-0.49624758381249734	-0.6082988489207565
-0.49618654865624734	-0.6087909044127628
-0.49612551349999734	-0.6091397347949138
-0.49606447834374734	-0.609428673319697
-0.49600344318749734	-0.6097434602600676
-0.49594240803124734	-0.6101036388155033
-0.49588137287499734	-0.6104477047119736
-0.49582033771874734	-0.6106833890475556
-0.49575930256249734	-0.6107616189625544
-0.49569826740624734	-0.610714306930618
-0.49563723224999734	-0.6106265576202481
-0.49557619709374734	-0.6105674010980869
-0.49551516193749734	-0.6105357730960176
-0.49545412678124734	-0.6104643352397452
-0.49539309162499734	-0.6102757903503157
-0.49533205646874734	-0.6099445371486963
-0.49527102131249734	-0.6095142628740088
-0.49520998615624734	-0.6090595538314831
-0.49514895099999734	-0.6086249851433008
-0.49508791584374734	-0.6081915098028573
-0.49502688068749734	-0.6076954708380775
-0.49496584553124734	-0.6070820613229617
-0.49490481037499734	-0.6063485263353996
-0.49484377521874734	-0.6055431242983477
-0.49478274006249734	-0.6047232698409998
-0.49472170490624734	-0.6039089154711669
-0.49466066974999734	-0.6030689525018748
-0.49459963459374734	-0.6021495596832496
-0.49453859943749734	-0.6011191034544014
-0.49447756428124734	-0.5999923720113272
-0.49441652912499734	-0.5988158242274336
-0.49435549396874734	-0.5976280991577776
-0.49429445881249734	-0.5964291869206011
-0.49423342365624734	-0.595182741184287
-0.49417238849999734	-0.5938477860068029
-0.49411135334374734	-0.5924124359343425
-0.49405031818749734	-0.5909021094354263
-0.49398928303124734	-0.5893569328084495
-0.49392824787499734	-0.5877983528773769
-0.49386721271874734	-0.5862126639772252
-0.49380617756249734	-0.5845639854764386
-0.49374514240624734	-0.582824680572252
-0.49368410724999734	-0.5809976503542017
-0.49362307209374734	-0.5791127681318385
-0.49356203693749734	-0.5772014907118546
-0.49350100178124734	-0.5752712626767876
-0.49343996662499734	-0.5733005806193108
-0.49337893146874734	-0.571257803958627
-0.49331789631249734	-0.5691273997869227
-0.49325686115624734	-0.5669220701622685
-0.49319582599999734	-0.5646715265778305
-0.49313479084374734	-0.5623979070284202
-0.49307375568749734	-0.5600982617637275
-0.49301272053124734	-0.5577480131092443
-0.49295168537499734	-0.5553217758621221
-0.49289065021874734	-0.5528140636797304
-0.49282961506249734	-0.5502431912718063
-0.49276857990624734	-0.5476358659324755
-0.49270754474999734	-0.5450055828903636
-0.49264650959374734	-0.5423423945670693
-0.49258547443749734	-0.5396218526186181
-0.49252443928124734	-0.5368252942344942
-0.49246340412499734	-0.5339548281686523
-0.49240236896874734	-0.531031186880439
-0.49234133381249734	-0.5280767452640237
-0.49228029865624734	-0.5250977906206032
-0.49221926349999734	-0.5220801943658303
-0.49215822834374734	-0.5190014787625404
-0.49209719318749734	-0.5158491982521002
-0.49203615803124734	-0.5126308268791345
-0.49197512287499734	-0.5093674765631065
-0.49191408771874734	-0.5060769052001696
-0.49185305256249734	-0.5027596887824307
-0.49179201740624734	-0.4993994642206531
-0.49173098224999734	-0.4959766273741383
-0.49166994709374734	-0.49248423192802177
-0.49160891193749734	-0.48893343774016923
-0.49154787678124734	-0.48534449859170503
-0.49148684162499734	-0.4817307486060992
-0.49142580646874734	-0.47808838654038466
-0.49136477131249734	-0.47440007342702045
-0.49130373615624734	-0.4706492118249098
-0.49124270099999734	-0.4668333318942963
-0.49118166584374734	-0.46296601743368254
-0.49112063068749734	-0.45906614558638065
-0.49105959553124734	-0.4551432470752328
-0.49099856037499734	-0.4511905171944922
-0.49093752521874734	-0.4471907128043279
-0.49087649006249734	-0.443130089156803
-0.49081545490624734	-0.43900934661224605
-0.49075441974999734	-0.43484306977993153
-0.49069338459374734	-0.43064835311529603
-0.49063234943749734	-0.4264317952727206
-0.49057131428124734	-0.42218500935101133
-0.49051027912499734	-0.41789179905318297
-0.49044924396874734	-0.4135410974604567
-0.49038820881249734	-0.40913555242783495
-0.49032717365624734	-0.40468929094597894
-0.49026613849999734	-0.4002170025808688
-0.49020510334374734	-0.39572309496630464
-0.49014406818749734	-0.39119916074704003
-0.49008303303124734	-0.3866312850432249
-0.49002199787499734	-0.38201115996742085
-0.48996096271874734	-0.3773423034736262
-0.48989992756249734	-0.3726369768009565
-0.48983889240624734	-0.36790675280451945
-0.48977785724999734	-0.36315420302309015
-0.48971682209374734	-0.35837192239919113
-0.48965578693749734	-0.35354918003262176
-0.48959475178124734	-0.34868061214085216
-0.48953371662499734	-0.34377019746396215
-0.48947268146874734	-0.3388277912297201
-0.48941164631249734	-0.3338614267442313
-0.48935061115624734	-0.32887167226706365
-0.48928957599999734	-0.3238522290696975
-0.48922854084374734	-0.3187957618186479
-0.48916750568749734	-0.31369999949360383
-0.48910647053124734	-0.30856939249531107
-0.48904543537499734	-0.30341140900254665
-0.48898440021874734	-0.29823077493434225
-0.48892336506249734	-0.29302637909065105
-0.48886232990624734	-0.28779304143246276
-0.48880129474999734	-0.2825263061138022
-0.48874025959374734	-0.2772263010981573
-0.48867922443749734	-0.27189771499511267
-0.48861818928124734	-0.2665461306294077
-0.48855715412499734	-0.26117387364279354
-0.48849611896874734	-0.25577875213672613
-0.48843508381249734	-0.2503564909545198
-0.48837404865624734	-0.24490464371085022
-0.48831301349999734	-0.23942479670044817
-0.48825197834374734	-0.23392148628161094
-0.48819094318749734	-0.22839887072299123
-0.48812990803124734	-0.22285786648762615
-0.48806887287499734	-0.21729602938580792
-0.48800783771874734	-0.21171009094155685
-0.48794680256249734	-0.20609889912336404
-0.48788576740624734	-0.20046453719015003
-0.48782473224999734	-0.19481096392246153
-0.48776369709374734	-0.18914128883294132
-0.48770266193749734	-0.18345583058077852
-0.48764162678124734	-0.17775245516173369
-0.48758059162499734	-0.17202878722972983
-0.48751955646874734	-0.16628443628253575
-0.48745852131249734	-0.16052153782033474
-0.48739748615624734	-0.15474335691960264
-0.48733645099999734	-0.14895214349971525
-0.48727541584374734	-0.14314788440058987
-0.48721438068749734	-0.13732884650807523
-0.48715334553124734	-0.13149341515550156
-0.48709231037499734	-0.1256417473059265
-0.48703127521874734	-0.1197759575545629
-0.48697024006249734	-0.11389880101096866
-0.48690920490624734	-0.10801198997745105
-0.48684816974999734	-0.10211540781796333
-0.48678713459374734	-0.09620768854803896
-0.48672609943749734	-0.0902876750850281
-0.48666506428124734	-0.08435568263906609
-0.48660402912499734	-0.07841361295235433
-0.48654299396874734	-0.07246386368167364
-0.48648195881249734	-0.06650793868439775
-0.48642092365624734	-0.060545814466921644
-0.48635988849999734	-0.05457642615725949
-0.48629885334374734	-0.048598866516426274
-0.48623781818749734	-0.04261350571204505
-0.48617678303124734	-0.036622161957199896
-0.48611574787499734	-0.030627060264509978
-0.48605471271874734	-0.024629498461033104
-0.48599367756249734	-0.018629381623120753
-0.48593264240624734	-0.012625802796182759
-0.48587160724999734	-0.006618137561008474
-0.48581057209374734	-0.0006069267345642915
-0.48574953693749734	0.005406149618543364
-0.48568850178124734	0.011419212009832393
-0.48562746662499734	0.01743123495074966
-0.48556643146874734	0.02344235990325377
-0.48550539631249734	0.02945322794087863
-0.48544436115624734	0.035463938483175285
-0.48538332599999734	0.041473574009609424
-0.48532229084374734	0.04748061779534102
-0.48526125568749734	0.05348378658419289
-0.48520022053124734	0.05948256249052897
-0.48513918537499734	0.06547703711077835
-0.48507815021874734	0.07146729179204295
-0.48501711506249734	0.07745287831418021
-0.48495607990624734	0.08343277965861774
-0.48489504474999734	0.08940585834131437
-0.48483400959374734	0.09537143206720669
-0.48477297443749734	0.10132941856712163
-0.48471193928124734	0.10727984836595222
-0.48465090412499734	0.11322222305555008
-0.48458986896874734	0.11915540543346152
-0.48452883381249734	0.1250781902390795
-0.48446779865624734	0.13098997075561952
-0.48440676349999734	0.13689082546773929
-0.48434572834374734	0.14278094609320777
-0.48428469318749734	0.14865990669901372
-0.48422365803124734	0.15452645567136508
-0.48416262287499734	0.1603791172418824
-0.48410158771874734	0.16621709433609816
-0.48404055256249734	0.17204059742154568
-0.48397951740624734	0.17785021619603036
-0.48391848224999734	0.18364585523552107
-0.48385744709374734	0.1894261936422203
-0.48379641193749734	0.19518920835814785
-0.48373537678124734	0.20093342193394728
-0.48367434162499734	0.2066588415311342
-0.48361330646874734	0.21236669817085074
-0.48355227131249734	0.21805806781264675
-0.48349123615624734	0.2237324256559365
-0.48343020099999734	0.22938741568129684
-0.48336916584374734	0.2350202397218328
-0.48330813068749734	0.24062958193415962
-0.48324709553124734	0.2462163819772222
-0.48318606037499734	0.25178273699692083
-0.48312502521874734	0.2573297901118033
-0.48306399006249734	0.26285629423694307
-0.48300295490624734	0.26835905850641734
-0.48294191974999734	0.27383502533268905
-0.48288088459374734	0.2792833474232328
-0.48281984943749734	0.2847057607191584
-0.48275881428124734	0.29010485749170667
-0.48269777912499734	0.29548157719944834
-0.48263674396874734	0.30083400256230947
-0.48257570881249734	0.30615844774921924
-0.48251467365624734	0.3114519331348096
-0.48245363849999734	0.31671415979121903
-0.48239260334374734	0.3219473905429
-0.48233156818749734	0.32715422724615273
-0.48227053303124734	0.33233513215082994
-0.48220949787499734	0.3374877218040407
-0.48214846271874734	0.3426083162041107
-0.48208742756249734	0.3476944690892214
-0.48202639240624734	0.35274650425485266
-0.48196535724999734	0.3577668383236341
-0.48190432209374734	0.3627575734517987
-0.48184328693749734	0.3677183771274588
-0.48178225178124734	0.3726464809202747
-0.48172121662499734	0.3775386571847748
-0.48166018146874734	0.3823934100154632
-0.48159914631249734	0.38721169828137897
-0.48153811115624734	0.3919957096823762
-0.48147707599999734	0.39674667969355315
-0.48141604084374734	0.4014635597949532
-0.48135500568749734	0.40614359480214046
-0.48129397053124734	0.41078424460289864
-0.48123293537499734	0.41538487163578486
-0.48117190021874734	0.41994685034743096
-0.48111086506249734	0.42447201731260825
-0.48104982990624734	0.42896075383980836
-0.48098879474999734	0.4334113359679816
-0.48092775959374734	0.43782108823488414
-0.48086672443749734	0.4421882842453203
-0.48080568928124734	0.4465131624390178
-0.48074465412499734	0.4507973003028373
-0.48068361896874734	0.4550419631189114
-0.48062258381249734	0.45924676104439255
-0.48056154865624734	0.46340967175101533
-0.48050051349999734	0.46752841616708585
-0.48043947834374734	0.4716020117869903
-0.48037844318749734	0.4756311849873285
-0.48031740803124734	0.4796173562020537
-0.48025637287499734	0.4835611284682045
-0.48019533771874734	0.4874615487869991
-0.48013430256249734	0.49131664039226264
-0.48007326740624734	0.49512469908155704
-0.48001223224999734	0.49888534827215136
-0.47995119709374734	0.5025995021348809
-0.47989016193749734	0.5062682799798012
-0.47982912678124734	0.5098918152308495
-0.47976809162499734	0.5134688960956512
-0.47970705646874734	0.5169976956037874
-0.47964602131249734	0.5204769932633144
-0.47958498615624734	0.5239068460708548
-0.47952395099999734	0.5272881936172601
-0.47946291584374734	0.5306218023262874
-0.47940188068749734	0.5339074040067563
-0.47934084553124734	0.5371436983195246
-0.47927981037499734	0.5403291982629681
-0.47921877521874734	0.5434631839567672
-0.47915774006249734	0.5465459655000775
-0.47909670490624734	0.5495783035489368
-0.47903566974999734	0.5525605389284366
-0.47897463459374734	0.5554921327176987
-0.47891359943749734	0.5583719332941033
-0.47885256428124734	0.5611989065541001
-0.47879152912499734	0.5639727119667236
-0.47873049396874734	0.5666936750979923
-0.47866945881249734	0.5693622214476715
-0.47860842365624734	0.571978290563425
-0.47854738849999734	0.5745412241501852
-0.47848635334374734	0.5770501511942799
-0.47842531818749734	0.579504502033092
-0.47836428303124734	0.581904235296638
-0.47830324787499734	0.5842496355965602
-0.47824221271874734	0.5865408916079221
-0.47818117756249734	0.5887777747704812
-0.47812014240624734	0.5909596389781616
-0.47805910724999734	0.5930857499273622
-0.47799807209374734	0.5951556860017715
-0.47793703693749734	0.5971694911894161
-0.47787600178124734	0.5991274791564664
-0.47781496662499734	0.6010298396775248
-0.47775393146874734	0.6028763367532185
-0.47769289631249734	0.6046663177301148
-0.47763186115624734	0.6063990162652392
-0.47757082599999734	0.6080739655196863
-0.47750979084374734	0.609691261484888
-0.47744875568749734	0.6112514472577163
-0.47738772053124734	0.6127550310615263
-0.47732668537499734	0.6142019454616369
-0.47726565021874734	0.6155913674300209
-0.47720461506249734	0.616922126241133
-0.47714357990624734	0.6181934834668441
-0.47708254474999734	0.6194056900789855
-0.47702150959374734	0.620559801001189
-0.47696047443749734	0.6216568071825403
-0.47689943928124734	0.6226967258292287
-0.47683840412499734	0.6236783642515417
-0.47677736896874734	0.6246000366486328
-0.47671633381249734	0.6254608075393074
-0.47665529865624734	0.6262612890643922
-0.47659426349999734	0.627003219740497
-0.47653322834374734	0.6276880252760688
-0.47647219318749734	0.6283155006329261
-0.47641115803124734	0.6288837677217458
-0.47635012287499734	0.6293906565080474
-0.47628908771874734	0.6298354561493885
-0.47622805256249734	0.630219580235157
-0.47616701740624734	0.6305454702511192
-0.47610598224999734	0.6308145236824354
-0.47604494709374734	0.6310257786434379
-0.47598391193749734	0.6311765626452678
-0.47592287678124734	0.6312646583607955
-0.47586184162499734	0.6312901954585604
-0.47580080646874734	0.6312556387273236
-0.47573977131249734	0.6311637848521061
-0.47567873615624734	0.6310153609985626
-0.47561770099999734	0.6308082702237715
-0.47555666584374734	0.6305392582904664
-0.47549563068749734	0.6302066984961483
-0.47543459553124734	0.6298121023040475
-0.47537356037499734	0.629358960031714
-0.47531252521874734	0.6288498012050567
-0.47525149006249734	0.6282839590050708
-0.47519045490624734	0.6276580309736127
-0.47512941974999734	0.6269687601521253
-0.47506838459374734	0.626215912750735
-0.47500734943749734	0.6254026378948577
-0.47494631428124734	0.6245328979760261
-0.47488527912499734	0.6236080828232399
-0.47482424396874734	0.6226257470392187
-0.47476320881249734	0.6215816871399772
-0.47470217365624734	0.6204736360573236
-0.47464113849999734	0.6193033646420428
-0.47458010334374734	0.6180753360128145
-0.47451906818749734	0.6167929965375862
-0.47445803303124734	0.6154558263012782
-0.47439699787499734	0.614059744889067
-0.47433596271874734	0.612600648201159
-0.47427492756249734	0.6110780838733176
-0.47421389240624734	0.6094958584690352
-0.47415285724999734	0.6078589503687295
-0.47409182209374734	0.6061693212433351
-0.47403078693749734	0.60442426403153
-0.47396975178124734	0.602618776628475
-0.47390871662499734	0.6007499774476265
-0.47384768146874734	0.5988197742119649
-0.47378664631249734	0.5968334380285598
-0.47372561115624734	0.5947952398437707
-0.47366457599999734	0.5927048638427405
-0.47360354084374734	0.5905577476762166
-0.47354250568749734	0.5883491537186472
-0.47348147053124734	0.5860784528001618
-0.47342043537499734	0.5837498613392482
-0.47335940021874734	0.5813689715189755
-0.47329836506249734	0.5789381002446694
-0.47323732990624734	0.5764544931248989
-0.47317629474999734	0.5739128985181661
-0.47311525959374734	0.5713102894084514
-0.47305422443749734	0.5686486811656514
-0.47299318928124734	0.5659335739197984
-0.47293215412499734	0.5631693592542665
-0.47287111896874734	0.5603557097023525
-0.47281008381249734	0.557488090603393
-0.47274904865624734	0.5545619580041578
-0.47268801349999734	0.5515769616603857
-0.47262697834374734	0.5485374374593797
-0.47256594318749734	0.5454487981876027
-0.47250490803124734	0.5423130412617557
-0.47244387287499734	0.5391273053666061
-0.47238283771874734	0.5358866769961728
-0.47232180256249734	0.5325887278135467
-0.47226076740624734	0.5292358470005668
-0.47219973224999734	0.5258333858196778
-0.47213869709374734	0.5223852384652713
-0.47207766193749734	0.5188907138808518
-0.47201662678124734	0.5153454378681401
-0.47195559162499734	0.511745490905067
-0.47189455646874734	0.5080911120587207
-0.47183352131249734	0.5043867146153351
-0.47177248615624734	0.5006372811011558
-0.47171145099999734	0.49684432418787733
-0.47165041584374734	0.49300490627994226
-0.47158938068749734	0.4891145560800958
-0.47152834553124734	0.48517148440328645
-0.47146731037499734	0.4811783823099356
-0.47140627521874734	0.47714030270402813
-0.47134524006249734	0.4730605796529386
-0.47128420490624734	0.46893838453000203
-0.47122316974999734	0.4647699297083434
-0.47116213459374734	0.4605521000469798
-0.47110109943749734	0.45628532692442164
-0.47104006428124734	0.4519733309929085
-0.47097902912499734	0.44762016045686387
-0.47091799396874734	0.44322716438180615
-0.47085695881249734	0.4387923684977803
-0.47079592365624734	0.4343126403537312
-0.47073488849999734	0.42978672513701793
-0.47067385334374734	0.4252165516130911
-0.47061281818749734	0.42060578247903685
-0.47055178303124734	0.41595698942112386
-0.47049074787499734	0.41126993367554554
-0.47042971271874734	0.4065423352615437
-0.47036867756249734	0.4017722660041534
-0.47030764240624734	0.39696002572530553
-0.47024660724999734	0.39210805548732214
-0.47018557209374734	0.3872191473764979
