Time	Frequency
-0.5000152566875045	0.403356489377557
-0.49995422153125446	0.3972772953205924
-0.49989318637500446	0.3911331203192055
-0.49983215121875446	0.38491790030493866
-0.49977111606250446	0.37863236153285695
-0.49971008090625446	0.37228409406738944
-0.49964904575000446	0.36588530352315707
-0.49958801059375446	0.3594490134319189
-0.49952697543750446	0.35298498496643466
-0.49946594028125446	0.346496677593903
-0.49940490512500446	0.33998026600164555
-0.49934386996875446	0.33342612663389704
-0.49928283481250446	0.32682233137277605
-0.49922179965625446	0.3201589289282681
-0.49916076450000446	0.3134315615084705
-0.49909972934375446	0.3066432242460421
-0.49903869418750446	0.2998035948742333
-0.49897765903125446	0.2929261431241462
-0.49891662387500446	0.28602393224039446
-0.49885558871875446	0.2791054983764678
-0.49879455356250446	0.2721722340380072
-0.49873351840625446	0.2652181632177407
-0.49867248325000446	0.2582321631946758
-0.49861144809375446	0.25120193663697793
-0.49855041293750446	0.2441184428821031
-0.49848937778125446	0.2369792706316951
-0.49842834262500446	0.2297898008548754
-0.49836730746875446	0.2225617687988962
-0.49830627231250446	0.21530967096097953
-0.49824523715625446	0.2080462015183647
-0.49818420200000446	0.20077827826143133
-0.49812316684375446	0.1935049828962038
-0.49806213168750446	0.1862180960599252
-0.49800109653125446	0.17890510191751843
-0.49794006137500446	0.17155367090042636
-0.49787902621875446	0.16415610345404733
-0.49781799106250446	0.15671226927698023
-0.49775695590625446	0.14923003414889777
-0.49769592075000446	0.1417230060211841
-0.49763488559375446	0.13420637137380223
-0.49757385043750446	0.12669215095371605
-0.49751281528125446	0.11918541527503888
-0.49745178012500446	0.11168278587392011
-0.49739074496875446	0.10417377635765047
-0.49732970981250446	0.09664455004131232
-0.49726867465625446	0.08908285412567571
-0.49720763950000446	0.08148248116348607
-0.49714660434375446	0.07384574740741134
-0.49708556918750446	0.06618314323215647
-0.49702453403125446	0.05851026735605148
-0.49696349887500446	0.05084301892647343
-0.49690246371875446	0.0431925809105918
-0.49684142856250446	0.03556188733065362
-0.49678039340625446	0.027944844529999933
-0.49671935825000446	0.020328580101557848
-0.49665832309375446	0.012697946889855153
-0.49659728793750446	0.005040846376687908
-0.49653625278125446	-0.0026473507066033532
-0.49647521762500446	-0.010361779036268597
-0.49641418246875446	-0.018089174563663667
-0.49635314731250446	-0.02581181544136066
-0.49629211215625446	-0.03351304766230018
-0.49623107700000446	-0.041182550801749734
-0.49617004184375446	-0.04881960348573886
-0.49610900668750446	-0.056433232840090865
-0.49604797153125446	-0.06403908834341081
-0.49598693637500446	-0.07165402118141873
-0.49592590121875446	-0.07929016853512234
-0.49586486606250446	-0.08695046646801846
-0.49580383090625446	-0.09462709936052645
-0.49574279575000446	-0.10230350856348865
-0.49568176059375446	-0.10995937630623993
-0.49562072543750446	-0.1175770047536705
-0.49555969028125446	-0.12514700071382215
-0.49549865512500446	-0.13267130332227903
-0.49543761996875446	-0.14016249591918156
-0.49537658481250446	-0.14763960006260596
-0.49531554965625446	-0.1551216174009598
-0.49525451450000446	-0.1626208377830683
-0.49519347934375446	-0.17013818646549553
-0.49513244418750446	-0.1776622716204623
-0.49507140903125446	-0.1851725087195912
-0.49501037387500446	-0.19264539439583592
-0.49494933871875446	-0.20006195236873336
-0.49488830356250446	-0.20741388515529577
-0.49482726840625446	-0.2147063684281748
-0.49476623325000446	-0.22195646014644158
-0.49470519809375446	-0.22918748424325672
-0.49464416293750446	-0.2364211402549165
-0.49458312778125446	-0.24366990474920497
-0.49452209262500446	-0.25093224872095293
-0.49446105746875446	-0.25819234878432895
-0.49440002231250446	-0.2654245630001817
-0.49433898715625446	-0.2726013478247263
-0.49427795200000446	-0.27970206245776974
-0.49421691684375446	-0.2867197510791647
-0.49415588168750446	-0.2936636238990129
-0.49409484653125446	-0.30055629569225056
-0.49403381137500446	-0.30742647374187115
-0.49397277621875446	-0.3142993292631383
-0.49391174106250446	-0.32118769486299187
-0.49385070590625446	-0.3280870525358856
-0.49378967075000446	-0.3349760978717865
-0.49372863559375446	-0.34182290446033325
-0.49366760043750446	-0.3485948568066972
-0.49360656528125446	-0.3552691693294014
-0.49354553012500446	-0.3618404895290827
-0.49348449496875446	-0.3683229900692067
-0.49342345981250446	-0.37474613578971144
-0.49336242465625446	-0.3811452687792464
-0.49330138950000446	-0.38754986171835687
-0.49324035434375446	-0.3939732635137126
-0.49317931918750446	-0.4004074161177949
-0.49311828403125446	-0.40682445892675634
-0.49305724887500446	-0.4131849271264066
-0.49299621371875446	-0.4194500589212875
-0.49293517856250446	-0.42559429292642614
-0.49287414340625446	-0.43161388062712974
-0.49281310825000446	-0.4375286755910387
-0.49275207309375446	-0.443376230847315
-0.49269103793750446	-0.4491998407216388
-0.49263000278125446	-0.4550342772657115
-0.49256896762500446	-0.46089384537218475
-0.49250793246875446	-0.46676674051969264
-0.49244689731250446	-0.47261775839091
-0.49238586215625446	-0.4783987444041799
-0.49232482700000446	-0.48406362379515755
-0.49226379184375446	-0.4895832531741249
-0.49220275668750446	-0.4949552399499218
-0.49214172153125446	-0.5002053795670769
-0.49208068637500446	-0.5053799822314224
-0.49201965121875446	-0.5105312663604138
-0.49195861606250446	-0.5157003432912232
-0.49189758090625446	-0.5209032963888611
-0.49183654575000446	-0.5261249841298854
-0.49177551059375446	-0.5313227831570287
-0.49171447543750446	-0.536439348224352
-0.49165344028125446	-0.5414205140389322
-0.49159240512500446	-0.5462326765268736
-0.49153136996875446	-0.5508740074866076
-0.49147033481250446	-0.5553756920665397
-0.49140929965625446	-0.5597925328852537
-0.49134826450000446	-0.5641857102811637
-0.49128722934375446	-0.5686030680953765
-0.49122619418750446	-0.5730632326634757
-0.49116515903125446	-0.577548797458587
-0.49110412387500446	-0.5820109532970934
-0.49104308871875446	-0.5863842846548618
-0.49098205356250446	-0.5906071868734395
-0.49092101840625446	-0.5946414616713981
-0.49085998325000446	-0.59848476732157
-0.49079894809375446	-0.602171795688499
-0.49073791293750446	-0.6057636147158797
-0.49067687778125446	-0.609328420132827
-0.49061584262500446	-0.6129197631410026
-0.49055480746875446	-0.6165591925200542
-0.49049377231250446	-0.6202288985129144
-0.49043273715625446	-0.6238768176504484
-0.49037170200000446	-0.6274326990134798
-0.49031066684375446	-0.6308300929876449
-0.49024963168750446	-0.6340272868361552
-0.49018859653125446	-0.6370205061656898
-0.49012756137500446	-0.6398451290896272
-0.49006652621875446	-0.6425644789237976
-0.49000549106250446	-0.6452497323309598
-0.48994445590625446	-0.6479573234882136
-0.48988342075000446	-0.6507110363264673
-0.48982238559375446	-0.6534944657162245
-0.48976135043750446	-0.6562562053704363
-0.48970031528125446	-0.6589260775102292
-0.48963928012500446	-0.6614372145945043
-0.48957824496875446	-0.6637469591360575
-0.48951720981250446	-0.665849968817582
-0.48945617465625446	-0.6677794445072411
-0.48939513950000446	-0.6695962077761757
-0.48933410434375446	-0.6713692056923733
-0.48927306918750446	-0.6731536971047474
-0.48921203403125446	-0.6749740373953508
-0.48915099887500446	-0.6768164274117637
-0.48908996371875446	-0.6786337652822412
-0.48902892856250446	-0.6803608873897194
-0.48896789340625446	-0.6819352275889686
-0.48890685825000446	-0.6833162877655065
-0.48884582309375446	-0.6844978044110634
-0.48878478793750446	-0.6855089272487399
-0.48872375278125446	-0.6864042680565249
-0.48866271762500446	-0.6872461847016884
-0.48860168246875446	-0.6880850429654525
-0.48854064731250446	-0.6889437103644094
-0.48847961215625446	-0.6898110560248952
-0.48841857700000446	-0.690646277670151
-0.48835754184375446	-0.6913924218329361
-0.48829650668750446	-0.691994611652544
-0.48823547153125446	-0.6924171286161022
-0.48817443637500446	-0.6926540105589866
-0.48811340121875446	-0.6927300210157817
-0.48805236606250446	-0.6926919600229104
-0.48799133090625446	-0.6925933206667909
-0.48793029575000446	-0.6924773115248323
-0.48786926059375446	-0.6923636370745493
-0.48780822543750446	-0.6922430746640919
-0.48774719028125446	-0.6920813040753314
-0.48768615512500446	-0.6918304972444318
-0.48762511996875446	-0.6914447859461558
-0.48756408481250446	-0.6908946098325909
-0.48750304965625446	-0.6901754488684191
-0.48744201450000446	-0.6893083860020842
-0.48738097934375446	-0.6883326156683744
-0.48731994418750446	-0.6872925180442299
-0.48725890903125446	-0.6862235429557809
-0.48719787387500446	-0.6851414039716534
-0.48713683871875446	-0.6840378734314053
-0.48707580356250446	-0.6828842646022252
-0.48701476840625446	-0.6816412490185002
-0.48695373325000446	-0.6802716982815321
-0.48689269809375446	-0.6787523697331845
-0.48683166293750446	-0.6770807809559117
-0.48677062778125446	-0.675275285967005
-0.48670959262500446	-0.6733685690602621
-0.48664855746875446	-0.6713968444688557
-0.48658752231250446	-0.6693883415265071
-0.48652648715625446	-0.667354751718044
-0.48646545200000446	-0.6652882245677361
-0.48640441684375446	-0.6631646430180416
-0.48634338168750446	-0.6609519317312842
-0.48628234653125446	-0.658620606306362
-0.48622131137500446	-0.6561531193942546
-0.48616027621875446	-0.6535490729315544
-0.48609924106250446	-0.6508248029983996
-0.48603820590625446	-0.6480076754824406
-0.48597717075000446	-0.6451270941128722
-0.48591613559375446	-0.6422051901525178
-0.48585510043750446	-0.6392501631344479
-0.48579406528125446	-0.6362542997313618
-0.48573303012500446	-0.6331971246021566
-0.48567199496875446	-0.6300524885900611
-0.48561095981250446	-0.6267972109498386
-0.48554992465625446	-0.6234184830215344
-0.48548888950000446	-0.6199177125451061
-0.48542785434375446	-0.6163096995650857
-0.48536681918750446	-0.6126175774823447
-0.48530578403125446	-0.6088652861519331
-0.48524474887500446	-0.6050700499988368
-0.48518371371875446	-0.6012372538766001
-0.48512267856250446	-0.5973592784143664
-0.48506164340625446	-0.5934185369109513
-0.48500060825000446	-0.5893935994408784
-0.48493957309375446	-0.5852663371875602
-0.48487853793750446	-0.5810277707745708
-0.48481750278125446	-0.5766807962378898
-0.48475646762500446	-0.5722390196128999
-0.48469543246875446	-0.5677222147043137
-0.48463439731250446	-0.5631499698936421
-0.48457336215625446	-0.5585356074734714
-0.48451232700000446	-0.5538823124977565
-0.48445129184375446	-0.5491826292870253
-0.48439025668750446	-0.5444213690689812
-0.48432922153125446	-0.539580901667985
-0.48426818637500446	-0.5346470721616826
-0.48420715121875446	-0.5296138214969139
-0.48414611606250446	-0.5244850755735537
-0.48408508090625446	-0.5192733849778305
-0.48402404575000446	-0.5139958382633856
-0.48396301059375446	-0.5086686485306126
-0.48390197543750446	-0.5033022011132822
-0.48384094028125446	-0.4978981277938183
-0.48377990512500446	-0.4924492683608274
-0.48371886996875446	-0.48694244108938867
-0.48365783481250446	-0.4813630698071314
-0.48359679965625446	-0.47570012515100063
-0.48353576450000446	-0.46994976123350074
-0.48347472934375446	-0.4641165542445948
-0.48341369418750446	-0.45821203630914925
-0.48335265903125446	-0.45225102719889226
-0.48329162387500446	-0.44624701940969325
-0.48323058871875446	-0.4402081540781038
-0.48316955356250446	-0.4341350302429696
-0.48310851840625446	-0.4280209941914514
-0.48304748325000446	-0.42185473519275263
-0.48298644809375446	-0.4156242645073358
-0.48292541293750446	-0.4093209909979325
-0.48286437778125446	-0.40294260661742554
-0.48280334262500446	-0.3964938902034485
-0.48274230746875446	-0.38998523551650255
-0.48268127231250446	-0.3834294387892966
-0.48262023715625446	-0.37683782707000457
-0.48255920200000446	-0.3702169699697023
-0.48249816684375446	-0.363566989119491
-0.48243713168750446	-0.3568819841130173
-0.48237609653125446	-0.35015238585692066
-0.48231506137500446	-0.34336838645943396
-0.48225402621875446	-0.33652330770466166
-0.48219299106250446	-0.32961586186263375
-0.48213195590625446	-0.32265064641941693
-0.48207092075000446	-0.31563679421682467
-0.48200988559375446	-0.308585243784253
-0.48194885043750446	-0.3015055109538461
-0.48188781528125446	-0.29440302049412453
-0.48182678012500446	-0.2872778257024667
-0.48176574496875446	-0.28012505373301366
-0.48170470981250446	-0.2729368852880579
-0.48164367465625446	-0.26570540556475014
-0.48158263950000446	-0.25842539952734594
-0.48152160434375446	-0.25109619374499303
-0.48146056918750446	-0.2437219735302661
-0.48139953403125446	-0.23631054604791937
-0.48133849887500446	-0.22887104470104347
-0.48127746371875446	-0.22141135638902187
-0.48121642856250446	-0.21393603320262458
-0.48115539340625446	-0.20644528399015266
-0.48109435825000446	-0.19893537127013666
-0.48103332309375446	-0.19140025459677815
-0.48097228793750446	-0.1838338830479589
-0.48091125278125446	-0.17623238301381994
-0.48085021762500446	-0.16859545129913103
-0.48078918246875446	-0.1609265597200193
-0.48072814731250446	-0.1532319957811087
-0.48066711215625446	-0.14551909910876556
-0.48060607700000446	-0.137794256001676
-0.48054504184375446	-0.13006127977076185
-0.48048400668750446	-0.12232068530118995
-0.48042297153125446	-0.11457003272203992
-0.48036193637500446	-0.10680515269798928
-0.48030090121875446	-0.09902184202150044
-0.48023986606250446	-0.09121746522897042
-0.48017883090625446	-0.08339193649295612
-0.48011779575000446	-0.075547857066122
-0.48005676059375446	-0.06768985887263851
-0.47999572543750446	-0.059823381254897605
-0.47993469028125446	-0.051953274734912715
-0.47987365512500446	-0.04408268321885318
-0.47981261996875446	-0.0362125401837915
-0.47975158481250446	-0.02834179423166378
-0.47969054965625446	-0.02046821808845692
-0.47962951450000446	-0.012589470185439969
-0.47956847934375446	-0.004704096186636798
-0.47950744418750446	0.003187812908517284
-0.47944640903125446	0.011084544242985142
-0.47938537387500446	0.01898319559591414
-0.47932433871875446	0.026880341615206693
-0.47926330356250446	0.034772754986955604
-0.47920226840625446	0.04265800940795781
-0.47914123325000446	0.050534758869837805
-0.47908019809375446	0.058402637996633026
-0.47901916293750446	0.06626191603404044
-0.47895812778125446	0.07411305791995357
-0.47889709262500446	0.08195630833836139
-0.47883605746875446	0.08979143561879961
-0.47877502231250446	0.09761767836190749
-0.47871398715625446	0.1054338202081906
-0.47865295200000446	0.11323832623370426
-0.47859191684375446	0.12102949021917406
-0.47853088168750446	0.12880554442332398
-0.47846984653125446	0.13656473360992635
-0.47840881137500446	0.14430541084757947
-0.47834777621875446	0.15202614735755585
-0.47828674106250446	0.15972581404636665
-0.47822570590625446	0.1674036628883226
-0.47816467075000446	0.1750593706427224
-0.47810363559375446	0.18269296400843835
-0.47804260043750446	0.1903046324196828
-0.47798156528125446	0.19789444342605148
-0.47792053012500446	0.20546199909508703
-0.47785949496875446	0.21300615040705267
-0.47779845981250446	0.22052490210649392
-0.47773742465625446	0.228015607738119
-0.47767638950000446	0.2354754278723143
-0.47761535434375446	0.24290188775774738
-0.47755431918750446	0.25029337825681436
-0.47749328403125446	0.25764945614825885
-0.47743224887500446	0.26497080448519855
-0.47737121371875446	0.2722588126412822
-0.47731017856250446	0.27951487437973477
-0.47724914340625446	0.28673963963375365
-0.47718810825000446	0.2939324623438072
-0.47712707309375446	0.30109120863344485
-0.47706603793750446	0.3082125347786846
-0.47700500278125446	0.3152925763861856
-0.47694396762500446	0.3223278348990539
-0.47688293246875446	0.3293160240311196
-0.47682189731250446	0.3362565929722594
-0.47676086215625446	0.34315069464408726
-0.47669982700000446	0.35000058919757104
-0.47663879184375446	0.35680866837308145
-0.47657775668750446	0.36357641327143475
-0.47651672153125446	0.3703036149140293
-0.47645568637500446	0.3769880957005885
-0.47639465121875446	0.38362604891069724
-0.47633361606250446	0.39021291400011715
-0.47627258090625446	0.3967445283142448
-0.47621154575000446	0.40321820341385095
-0.47615051059375446	0.4096333478502233
-0.47608947543750446	0.41599141897118397
-0.47602844028125446	0.4222952271216012
-0.47596740512500446	0.42854780627460487
-0.47590636996875446	0.43475120596907624
-0.47584533481250446	0.4409055569763827
-0.47578429965625446	0.44700870335017323
-0.47572326450000446	0.45305658462991105
-0.47566222934375446	0.459044263336306
-0.47560119418750446	0.4649672421601647
-0.47554015903125446	0.4708226565270032
-0.47547912387500446	0.4766099605842131
-0.47541808871875446	0.4823308700790597
-0.47535705356250446	0.4879885800413805
-0.47529601840625446	0.4935865038385835
-0.47523498325000446	0.4991269353173929
-0.47517394809375446	0.5046100750617797
-0.47511291293750446	0.5100337299572306
-0.47505187778125446	0.5153937817426797
-0.47499084262500446	0.5206852767072536
-0.47492980746875446	0.5259037754815302
-0.47486877231250446	0.5310465399578416
-0.47480773715625446	0.5361131914807853
-0.47474670200000446	0.541105616392667
-0.47468566684375446	0.546027136776176
-0.47462463168750446	0.5508812213896687
-0.47456359653125446	0.5556701544379353
-0.47450256137500446	0.5603940808410162
-0.47444152621875446	0.5650507536809065
-0.47438049106250446	0.5696360788305164
-0.47431945590625446	0.5741452553894049
-0.47425842075000446	0.5785741322612288
-0.47419738559375446	0.5829203479295247
-0.47413635043750446	0.5871838918966052
-0.47407531528125446	0.5913669103481622
-0.47401428012500446	0.5954728063605932
-0.47395324496875446	0.5995049346796606
-0.47389220981250446	0.6034653370047378
-0.47383117465625446	0.6073539193720904
-0.47377013950000446	0.6111683170103885
-0.47370910434375446	0.6149044888324109
-0.47364806918750446	0.6185578663449737
-0.47358703403125446	0.6221246897279864
-0.47352599887500446	0.6256030839162505
-0.47346496371875446	0.6289935129179404
-0.47340392856250446	0.6322984568170256
-0.47334289340625446	0.6355214300371734
-0.47328185825000446	0.6386656799220821
-0.47322082309375446	0.641732978595735
-0.47315978793750446	0.6447228996898161
-0.47309875278125446	0.6476328287407733
-0.47303771762500446	0.6504586902317482
-0.47297668246875446	0.6531961492917301
-0.47291564731250446	0.6558419134726372
-0.47285461215625446	0.6583947033439763
-0.47279357700000446	0.6608555552060656
-0.47273254184375446	0.663227358264456
-0.47267150668750446	0.6655137888332269
-0.47261047153125446	0.6677179915165584
-0.47254943637500446	0.6698414347172874
-0.47248840121875446	0.6718833154552148
-0.47242736606250446	0.6738407143466135
-0.47236633090625446	0.6757094549502832
-0.47230529575000446	0.6774853865064547
-0.47224426059375446	0.6791656694814532
-0.47218322543750446	0.6807496397071775
-0.47212219028125446	0.6822389629963823
-0.47206115512500446	0.6836370258612054
-0.47200011996875446	0.6849477560650222
-0.47193908481250446	0.6861742556676104
-0.47187804965625446	0.6873176981918587
-0.47181701450000446	0.6883768582893088
-0.47175597934375446	0.6893484359454459
-0.47169494418750446	0.6902280762324898
-0.47163390903125446	0.6910117546262754
-0.47157287387500446	0.6916970739555658
-0.47151183871875446	0.6922840414481939
-0.47145080356250446	0.6927750607155599
-0.47138976840625446	0.6931741297681148
-0.47132873325000446	0.6934855004290599
-0.47126769809375446	0.693712242236646
-0.47120666293750446	0.6938551824802154
-0.47114562778125446	0.6939125704066172
-0.47108459262500446	0.693880600339559
-0.47102355746875446	0.6937546454338066
-0.47096252231250446	0.6935307886519125
-0.47090148715625446	0.6932071352524161
-0.47084045200000446	0.6927844781112702
-0.47077941684375446	0.6922660928308526
-0.47071838168750446	0.6916567050716208
-0.47065734653125446	0.6909609484274659
-0.47059631137500446	0.6901818258346091
-0.47053527621875446	0.689319695235882
-0.47047424106250446	0.688372122655424
-0.47041320590625446	0.6873346690812906
-0.47035217075000446	0.6862023717649322
-0.47029113559375446	0.6849714385310752
