Time	Frequency
-0.5000228864999983	-0.6050843662536227
-0.49996185134374826	-0.60424893128305
-0.49990081618749826	-0.603394090861523
-0.49983978103124826	-0.602512907174426
-0.49977874587499826	-0.6015864177451461
-0.49971771071874826	-0.6005901221076901
-0.49965667556249826	-0.5995028157839977
-0.49959564040624826	-0.5983146073949941
-0.49953460524999826	-0.5970311235042707
-0.49947357009374826	-0.5956721746744448
-0.49941253493749826	-0.5942651222805821
-0.49935149978124826	-0.5928351597084403
-0.49929046462499826	-0.59139595638013
-0.49922942946874826	-0.5899441273021098
-0.49916839431249826	-0.5884597426377653
-0.49910735915624826	-0.5869129720023692
-0.49904632399999826	-0.5852746878946619
-0.49898528884374826	-0.5835272841224461
-0.49892425368749826	-0.5816717364034587
-0.49886321853124826	-0.5797281474159216
-0.49880218337499826	-0.5777292795773603
-0.49874114821874826	-0.5757091358297747
-0.49868011306249826	-0.5736905615948598
-0.49861907790624826	-0.5716763852149248
-0.49855804274999826	-0.5696475261773355
-0.49849700759374826	-0.5675690714217433
-0.49843597243749826	-0.5654024372815314
-0.49837493728124826	-0.5631194415285604
-0.49831390212499826	-0.5607132065509797
-0.49825286696874826	-0.5582017400265281
-0.49819183181249826	-0.555622552203517
-0.49813079665624826	-0.5530198750332157
-0.49806976149999826	-0.5504288389294819
-0.49800872634374826	-0.5478622749930123
-0.49794769118749826	-0.5453050746268097
-0.49788665603124826	-0.5427185084905037
-0.49782562087499826	-0.5400533947424053
-0.49776458571874826	-0.5372676923011365
-0.49770355056249826	-0.5343422733227959
-0.49764251540624826	-0.5312890460493327
-0.49758148024999826	-0.5281481252269604
-0.49752044509374826	-0.524974576548893
-0.49745940993749826	-0.5218191146138834
-0.49739837478124826	-0.5187095465490815
-0.49733733962499826	-0.5156397403514008
-0.49727630446874826	-0.5125704369605323
-0.49721526931249826	-0.5094421297341942
-0.49715423415624826	-0.5061958751069111
-0.49709319899999826	-0.5027948256578494
-0.49703216384374826	-0.4992386807701347
-0.49697112868749826	-0.49556549414045314
-0.49691009353124826	-0.4918396494238275
-0.49684905837499826	-0.48812979159660225
-0.49678802321874826	-0.4844843009021361
-0.49672698806249826	-0.4809130973137317
-0.49666595290624826	-0.47738261793315867
-0.49660491774999826	-0.47382628734144266
-0.49654388259374826	-0.47016729490271764
-0.49648284743749826	-0.4663459471583539
-0.49642181228124826	-0.462341912582517
-0.49636077712499826	-0.45818314869190824
-0.49629974196874826	-0.4539378019787371
-0.49623870681249826	-0.44969137437237433
-0.49617767165624826	-0.44551684554502974
-0.49611663649999826	-0.44144825164326157
-0.49605560134374826	-0.43746733330583637
-0.49599456618749826	-0.4335084758319582
-0.49593353103124826	-0.42948073572104795
-0.49587249587499826	-0.42529959264347345
-0.49581146071874826	-0.42091738744667895
-0.49575042556249826	-0.416341506143068
-0.49568939040624826	-0.41163342384681006
-0.49562835524999826	-0.40688844781320266
-0.49556732009374826	-0.4022029168756463
-0.49550628493749826	-0.39764022987817804
-0.49544524978124826	-0.3932077867227438
-0.49538421462499826	-0.38885332560403835
-0.49532317946874826	-0.3844823544358953
-0.49526214431249826	-0.3799908714304523
-0.49520110915624826	-0.3753020240287971
-0.49514007399999826	-0.37039375677552683
-0.49507903884374826	-0.3653075053091139
-0.49501800368749826	-0.3601345863179572
-0.49495696853124826	-0.35498483410002746
-0.49489593337499826	-0.34994840006563444
-0.49483489821874826	-0.3450641577856872
-0.49477386306249826	-0.3403059319482551
-0.49471282790624826	-0.3355915097190368
-0.49465179274999826	-0.3308113602689113
-0.49459075759374826	-0.32586701656076617
-0.49452972243749826	-0.3207056043646374
-0.49446868728124826	-0.3153383632514505
-0.49440765212499826	-0.3098366731620567
-0.49434661696874826	-0.30430706055246987
-0.49428558181249826	-0.29885409205896996
-0.49422454665624826	-0.29354423735999596
-0.49416351149999826	-0.2883833225392676
-0.49410247634374826	-0.283315356237443
-0.49404144118749826	-0.27824293001495437
-0.49398040603124826	-0.2730617717397701
-0.49391937087499826	-0.26769714675211925
-0.49385833571874826	-0.26212938455965373
-0.49379730056249826	-0.256399839344977
-0.49373626540624826	-0.25059554161793374
-0.49367523024999826	-0.2448182809323828
-0.49361419509374826	-0.2391492252131807
-0.49355315993749826	-0.2336215278324561
-0.49349212478124826	-0.22821028633364515
-0.49343108962499826	-0.22284289694655887
-0.49337005446874826	-0.21742566097717964
-0.49330901931249826	-0.2118769649514072
-0.49324798415624826	-0.20615532754089688
-0.49318694899999826	-0.2002726958515257
-0.49312591384374826	-0.19428878249453688
-0.49306487868749826	-0.18828898947206094
-0.49300384353124826	-0.18235412391581482
-0.49294280837499826	-0.1765327443270377
-0.49288177321874826	-0.1708256994828975
-0.49282073806249826	-0.16518780296316074
-0.49275970290624826	-0.1595454384362394
-0.49269866774999826	-0.15382339530894346
-0.49263763259374826	-0.14797125907512362
-0.49257659743749826	-0.1419801610099371
-0.49251556228124826	-0.13588438238696615
-0.49245452712499826	-0.1297478362883622
-0.49239349196874826	-0.12364074028508956
-0.49233245681249826	-0.1176150304159051
-0.49227142165624826	-0.11168719958688045
-0.49221038649999826	-0.1058342648743858
-0.49214935134374826	-0.10000371562307962
-0.49208831618749826	-0.0941333987163665
-0.49202728103124826	-0.0881739611842917
-0.49196624587499826	-0.08210581339713839
-0.49190521071874826	-0.0759448715266651
-0.49184417556249826	-0.06973558034101979
-0.49178314040624826	-0.06353419954844841
-0.49172210524999826	-0.05738861741424068
-0.49166107009374826	-0.05132199477874206
-0.49160003493749826	-0.045325892513724354
-0.49153899978124826	-0.03936490065116615
-0.49147796462499826	-0.03339062745599218
-0.49141692946874826	-0.027359677587231856
-0.49135589431249826	-0.021249061277081926
-0.49129485915624826	-0.015063674443197757
-0.49123382399999826	-0.008833518644361812
-0.49117278884374826	-0.0026020713845634723
-0.49111175368749826	0.003589653715798308
-0.49105071853124826	0.009717466368715618
-0.49098968337499826	0.015781728341272432
-0.49092864821874826	0.021805954986350223
-0.49086761306249826	0.027827149606802187
-0.49080657790624826	0.03388168298812898
-0.49074554274999826	0.03999197713931729
-0.49068450759374826	0.046158771148367146
-0.49062347243749826	0.05236154901980597
-0.49056243728124826	0.05856663492898766
-0.49050140212499826	0.06473972715899741
-0.49044036696874826	0.0708581742098519
-0.49037933181249826	0.0769185408445909
-0.49031829665624826	0.08293689518264516
-0.49025726149999826	0.08894200281902925
-0.49019622634374826	0.09496414485811362
-0.49013519118749826	0.10102376494857218
-0.49007415603124826	0.10712411505404373
-0.49001312087499826	0.11325045085617497
-0.48995208571874826	0.11937582906770715
-0.48989105056249826	0.1254711973812967
-0.48983001540624826	0.13151594885990528
-0.48976898024999826	0.13750502199131814
-0.48970794509374826	0.14345007354599398
-0.48964690993749826	0.14937449390933535
-0.48958587478124826	0.15530423852381423
-0.48952483962499826	0.16125794464691048
-0.48946380446874826	0.16723999952763066
-0.48940276931249826	0.1732390463468938
-0.48934173415624826	0.17923235114791988
-0.48928069899999826	0.18519427768177305
-0.48921966384374826	0.19110564129314447
-0.48915862868749826	0.19696048013815687
-0.48909759353124826	0.20276781068510144
-0.48903655837499826	0.20854780538008177
-0.48897552321874826	0.21432389734841245
-0.48891448806249826	0.2201138111200838
-0.48885345290624826	0.22592286618382446
-0.48879241774999826	0.2317419813459784
-0.48873138259374826	0.2375510140035979
-0.48867034743749826	0.2433261364726796
-0.48860931228124826	0.24904849662277637
-0.48854827712499826	0.2547109375624649
-0.48848724196874826	0.26032032934474014
-0.48842620681249826	0.2658947202145656
-0.48836517165624826	0.27145639654901166
-0.48830413649999826	0.27702342965133914
-0.48824310134374826	0.2826028288679239
-0.48818206618749826	0.2881878045445839
-0.48812103103124826	0.29376011320938356
-0.48805999587499826	0.2992965987324515
-0.48799896071874826	0.3047775234502155
-0.48793792556249826	0.310193622107222
-0.48787689040624826	0.3155492820916399
-0.48781585524999826	0.3208607160206018
-0.48775482009374826	0.32614983464965286
-0.48769378493749826	0.33143604943008587
-0.48763274978124826	0.33672900062387406
-0.48757171462499826	0.342024874821305
-0.48751067946874826	0.3473076062332215
-0.48744964431249826	0.3525545051678383
-0.48738860915624826	0.3577442911484652
-0.48732757399999826	0.3628646064664441
-0.48726653884374826	0.36791629638232026
-0.48720550368749826	0.37291293230959033
-0.48714446853124826	0.3778757464299095
-0.48708343337499826	0.38282582005134713
-0.48702239821874826	0.3877763539207172
-0.48696136306249826	0.392727771314074
-0.48690032790624826	0.39766737706869487
-0.48683929274999826	0.4025736931712211
-0.48677825759374826	0.4074239486099188
-0.48671722243749826	0.4122020389669257
-0.48665618728124826	0.41690408274459134
-0.48659515212499826	0.42153962048657356
-0.48653411696874826	0.4261280615377246
-0.48647308181249826	0.43069163498455737
-0.48641204665624826	0.4352473557367923
-0.48635101149999826	0.4398008660108211
-0.48628997634374826	0.4443443168596932
-0.48622894118749826	0.4488590099428183
-0.48616790603124826	0.45332184332046094
-0.48610687087499826	0.4577132806723499
-0.48604583571874826	0.4620240293167208
-0.48598480056249826	0.46625808286827053
-0.48592376540624826	0.4704311064604146
-0.48586273024999826	0.47456477085677684
-0.48580169509374826	0.47867902390937667
-0.48574065993749826	0.4827850102796312
-0.48567962478124826	0.48688111919019567
-0.48561858962499826	0.49095350775028446
-0.48555755446874826	0.49498086231813637
-0.48549651931249826	0.4989416944423935
-0.48543548415624826	0.5028216163963821
-0.48537444899999826	0.506618090357337
-0.48531341384374826	0.5103410445463887
-0.48525237868749826	0.5140091842601688
-0.48519134353124826	0.517643320874781
-0.48513030837499826	0.5212590680053986
-0.48506927321874826	0.5248614392327509
-0.48500823806249826	0.5284431668105558
-0.48494720290624826	0.5319872457859969
-0.48488616774999826	0.5354727772946583
-0.48482513259374826	0.5388820626096137
-0.48476409743749826	0.5422064719949166
-0.48470306228124826	0.5454490920716506
-0.48464202712499826	0.5486233224671981
-0.48458099196874826	0.551747992147779
-0.48451995681249826	0.5548407361370071
-0.48445892165624826	0.5579119230888003
-0.48439788649999826	0.5609611906446013
-0.48433685134374826	0.5639777166845285
-0.48427581618749826	0.5669440432408522
-0.48421478103124826	0.5698420604609268
-0.48415374587499826	0.5726590654228154
-0.48409271071874826	0.5753918250606884
-0.48403167556249826	0.5780472996946147
-0.48397064040624826	0.5806398835572727
-0.48390960524999826	0.5831862184628026
-0.48384857009374826	0.5856994092970296
-0.48378753493749826	0.5881846107828205
-0.48372649978124826	0.5906374454610888
-0.48366546462499826	0.5930457121015342
-0.48360442946874826	0.5953936999555876
-0.48354339431249826	0.5976675475273064
-0.48348235915624826	0.599859784163692
-0.48342132399999826	0.6019715488450343
-0.48336028884374826	0.6040118180145335
-0.48329925368749826	0.6059939993887017
-0.48323821853124826	0.6079311367533154
-0.48317718337499826	0.6098314163700007
-0.48311614821874826	0.6116955031999821
-0.48305511306249826	0.6135165431319599
-0.48299407790624826	0.6152827291774003
-0.48293304274999826	0.6169814616741695
-0.48287200759374826	0.6186036169399212
-0.48281097243749826	0.620146459186683
-0.48274993728124826	0.6216142531256816
-0.48268890212499826	0.6230164574462922
-0.48262786696874826	0.6243642133946572
-0.48256683181249826	0.6256663981055061
-0.48250579665624826	0.6269266149757655
-0.48244476149999826	0.6281421211115129
-0.48238372634374826	0.6293049859081878
-0.48232269118749826	0.6304049938200945
-0.48226165603124826	0.6314332224666817
-0.48220062087499826	0.6323850374917728
-0.48213958571874826	0.633261490553146
-0.48207855056249826	0.6340686908669815
-0.48201751540624826	0.6348154421480596
-0.48195648024999826	0.6355100333492678
-0.48189544509374826	0.6361573320748177
-0.48183440993749826	0.6367571803293939
-0.48177337478124826	0.6373046054642578
-0.48171233962499826	0.6377917119753709
-0.48165130446874826	0.6382105358687744
-0.48159026931249826	0.6385558275659582
-0.48152923415624826	0.6388267904598068
-0.48146819899999826	0.639027201468994
-0.48140716384374826	0.6391639192382007
-0.48134612868749826	0.6392443458487108
-0.48128509353124826	0.6392737655636914
-0.48122405837499826	0.639253510981317
-0.48116302321874826	0.6391805882340416
-0.48110198806249826	0.6390488578188753
-0.48104095290624826	0.6388513135874917
-0.48097991774999826	0.6385826169305958
-0.48091888259374826	0.6382409703451585
-0.48085784743749826	0.637828676799339
-0.48079681228124826	0.6373512187614342
-0.48073577712499826	0.636815221377287
-0.48067474196874826	0.6362260497016079
-0.48061370681249826	0.635585908070918
-0.48055267165624826	0.6348931219915742
-0.48049163649999826	0.6341428420060501
-0.48043060134374826	0.633328881791806
-0.48036956618749826	0.6324460006105491
-0.48030853103124826	0.6314918007223469
-0.48024749587499826	0.6304675683567387
-0.48018646071874826	0.6293777721362188
-0.48012542556249826	0.6282284157675535
-0.48006439040624826	0.6270248636351642
-0.48000335524999826	0.6257699355940156
-0.47994232009374826	0.6244629509651266
-0.47988128493749826	0.6231000663851094
-0.47982024978124826	0.6216757670615084
-0.47975921462499826	0.6201849371707361
-0.47969817946874826	0.6186247637781807
-0.47963714431249826	0.6169957882316586
-0.47957610915624826	0.6153017122930342
-0.47951507399999826	0.6135480583045547
-0.47945403884374826	0.611740189228543
-0.47939300368749826	0.6098813990621945
-0.47933196853124826	0.607971782318259
-0.47927093337499826	0.6060082941220827
-0.47920989821874826	0.6039859499693845
-0.47914886306249826	0.6018997247892943
-0.47908782790624826	0.5997464684343584
-0.47902679274999826	0.5975261264698728
-0.47896575759374826	0.5952418112639865
-0.47890472243749826	0.5928987027951315
-0.47884368728124826	0.5905021992502318
-0.47878265212499826	0.5880560112827015
-0.47872161696874826	0.5855608894953623
-0.47866058181249826	0.5830144403963031
-0.47859954665624826	0.5804120998194029
-0.47853851149999826	0.5777489039314169
-0.47847747634374826	0.575021399062531
-0.47841644118749826	0.572228994474817
-0.47835540603124826	0.5693742718856999
-0.47829437087499826	0.5664621277585793
-0.47823333571874826	0.5634980672122469
-0.47817230056249826	0.5604862892938766
-0.47811126540624826	0.557428250323547
-0.47805023024999826	0.5543222235334244
-0.47798919509374826	0.5511640220611727
-0.47792815993749826	0.5479486248260466
-0.47786712478124826	0.5446721245359492
-0.47780608962499826	0.5413332859836656
-0.47774505446874826	0.5379341249312324
-0.47768401931249826	0.5344792847144688
-0.47762298415624826	0.5309744430964651
-0.47756194899999826	0.5274243451639029
-0.47750091384374826	0.5238311895587011
-0.47743987868749826	0.5201939484638963
-0.47737884353124826	0.5165088543150257
-0.47731780837499826	0.5127708837853483
-0.47725677321874826	0.508975719597709
-0.47719573806249826	0.5051214643257936
-0.47713470290624826	0.5012094659595755
-0.47707366774999826	0.4972439652697285
-0.47701263259374826	0.4932306943331793
-0.47695159743749826	0.4891749288504664
-0.47689056228124826	0.4850796994271646
-0.47682952712499826	0.4809448141021935
-0.47676849196874826	0.47676706014892306
-0.47670745681249826	0.47254150819159957
-0.47664642165624826	0.4682634404285683
-0.47658538649999826	0.4639302154773155
-0.47652435134374826	0.459542386220631
-0.47646331618749826	0.45510365552186377
-0.47640228103124826	0.450619687502782
-0.47634124587499826	0.446096192769785
-0.47628021071874826	0.4415369829246045
-0.47621917556249826	0.43694272951557445
-0.47615814040624826	0.432310893279657
-0.47609710524999826	0.42763683297070415
-0.47603607009374826	0.4229156650812193
-0.47597503493749826	0.41814419367601907
-0.47591399978124826	0.4133222288314537
-0.47585296462499826	0.40845282039769193
-0.47579192946874826	0.403541299029045
-0.47573089431249826	0.398593480722677
-0.47566985915624826	0.3936137172908727
-0.47560882399999826	0.38860348393656124
-0.47554778884374826	0.38356101600689024
-0.47548675368749826	0.3784821577553937
-0.47542571853124826	0.3733620878531542
-0.47536468337499826	0.36819725305926276
-0.47530364821874826	0.36298682136802524
-0.47524261306249826	0.3577331482641938
-0.47518157790624826	0.35244107911087275
-0.47512054274999826	0.3471163469267372
-0.47505950759374826	0.341763658322595
-0.47499847243749826	0.3363851572870085
-0.47493743728124826	0.33097984568630506
-0.47487640212499826	0.3255441787756661
-0.47481536696874826	0.320073579845368
-0.47475433181249826	0.31456430940626845
-0.47469329665624826	0.3090150178667475
-0.47463226149999826	0.3034274061179095
-0.47457122634374826	0.29780575843780516
-0.47451019118749826	0.29215553574727493
-0.47444915603124826	0.28648155541027326
-0.47438812087499826	0.280786441903915
-0.47432708571874826	0.2750699062135108
-0.47426605056249826	0.26932908422014123
-0.47420501540624826	0.26355980414545577
-0.47414398024999826	0.25775833376401863
-0.47408294509374826	0.251922962414121
-0.47402190993749826	0.24605482496617068
-0.47396087478124826	0.2401576676205494
-0.47389983962499826	0.23423664165892433
-0.47383880446874826	0.22829658115374016
-0.47377776931249826	0.22234042122510947
-0.47371673415624826	0.21636834120903634
-0.47365569899999826	0.21037794621708625
-0.47359466384374826	0.20436540681943846
-0.47353362868749826	0.19832710487257083
-0.47347259353124826	0.19226117078391994
-0.47341155837499826	0.1861683652003157
-0.47335052321874826	0.1800519963502718
-0.47328948806249826	0.17391691108242563
-0.47322845290624826	0.167767929195794
-0.47316741774999826	0.16160828025880813
-0.47310638259374826	0.1554386246792565
-0.47304534743749826	0.14925704696123998
-0.47298431228124826	0.1430600091901654
-0.47292327712499826	0.1368438835882079
-0.47286224196874826	0.13060649615801825
-0.47280120681249826	0.12434812845840755
-0.47274017165624826	0.11807163547405283
-0.47267913649999826	0.11178163281232048
-0.47261810134374826	0.10548302311086928
-0.47255706618749826	0.09917940676905539
-0.47249603103124826	0.09287198708337496
-0.47243499587499826	0.08655936628476393
-0.47237396071874826	0.0802382805663252
-0.47231292556249826	0.0739050147466202
-0.47225189040624826	0.0675569938738048
-0.47219085524999826	0.061193956069561815
-0.47212982009374826	0.05481828100406632
-0.47206878493749826	0.04843434593230916
-0.47200774978124826	0.04204713072815166
-0.47194671462499826	0.035660628104403395
-0.47188567946874826	0.029276653418552574
-0.47182464431249826	0.022894433823718304
-0.47176360915624826	0.016511110315693873
-0.47170257399999826	0.01012297973202216
-0.47164153884374826	0.0037270413112045534
-0.47158050368749826	-0.002677693060673156
-0.47151946853124826	-0.00908961741773908
-0.47145843337499826	-0.01550489135865643
-0.47139739821874826	-0.021918593935014614
-0.47133636306249826	-0.028326280604914524
-0.47127532790624826	-0.034725372025531505
-0.47121429274999826	-0.04111583037555697
-0.47115325759374826	-0.047499909993912674
-0.47109222243749826	-0.05388111354875692
-0.47103118728124826	-0.060262712352418944
-0.47097015212499826	-0.06664634611517303
-0.47090911696874826	-0.0730312097010829
-0.47084808181249826	-0.07941412291001948
-0.47078704665624826	-0.08579046305049894
-0.47072601149999826	-0.0921556276186474
-0.47066497634374826	-0.09850648057115258
-0.47060394118749826	-0.10484223981843134
-0.47054290603124826	-0.11116450557412862
-0.47048187087499826	-0.11747644836609297
-0.47042083571874826	-0.12378144039000728
-0.47035980056249826	-0.13008160852823236
-0.47029876540624826	-0.13637684400661898
-0.47023773024999826	-0.14266463427917794
-0.47017669509374826	-0.14894075787724823
-0.47011565993749826	-0.15520058079582041
