Time	Frequency
-0.5000152566875045	6.297839838268552e-23
-0.49995422153125446	6.202921840108731e-23
-0.49989318637500446	6.106989256609915e-23
-0.49983215121875446	6.009947405938735e-23
-0.49977111606250446	5.911807627538597e-23
-0.49971008090625446	5.812688429506913e-23
-0.49964904575000446	5.712780385214966e-23
-0.49958801059375446	5.612286838650787e-23
-0.49952697543750446	5.511360196690906e-23
-0.49946594028125446	5.410054474011961e-23
-0.49940490512500446	5.308309943778719e-23
-0.49934386996875446	5.205976347808958e-23
-0.49928283481250446	5.1028674454496355e-23
-0.49922179965625446	4.9988278614127696e-23
-0.49916076450000446	4.893789554954816e-23
-0.49909972934375446	4.787799290826754e-23
-0.49903869418750446	4.6810081731154436e-23
-0.49897765903125446	4.573626512579184e-23
-0.49891662387500446	4.465858273265935e-23
-0.49885558871875446	4.3578367351127473e-23
-0.49879455356250446	4.2495836401213766e-23
-0.49873351840625446	4.141005681409046e-23
-0.49867248325000446	4.031929193453522e-23
-0.49861144809375446	3.922162170849232e-23
-0.49855041293750446	3.8115634564653685e-23
-0.49848937778125446	3.700095401296025e-23
-0.49842834262500446	3.5878420215467036e-23
-0.49836730746875446	3.4749865464689546e-23
-0.49830627231250446	3.361755318318636e-23
-0.49824523715625446	3.248346538679797e-23
-0.49818420200000446	3.134868219043497e-23
-0.49812316684375446	3.021306021550957e-23
-0.49806213168750446	2.9075316125033805e-23
-0.49800109653125446	2.793349574876782e-23
-0.49794006137500446	2.6785673999348654e-23
-0.49787902621875446	2.5630648700463672e-23
-0.49781799106250446	2.446839950739607e-23
-0.49775695590625446	2.3300154550147108e-23
-0.49769592075000446	2.2128038517437634e-23
-0.49763488559375446	2.095442256285094e-23
-0.49757385043750446	1.9781183555635684e-23
-0.49751281528125446	1.8609113184697907e-23
-0.49745178012500446	1.743768395079585e-23
-0.49739074496875446	1.6265258552348813e-23
-0.49732970981250446	1.508967658713699e-23
-0.49726867465625446	1.390902495423965e-23
-0.49720763950000446	1.27223344487563e-23
-0.49714660434375446	1.1529966720709009e-23
-0.49708556918750446	1.0333559693410664e-23
-0.49702453403125446	9.135548885622219e-24
-0.49696349887500446	7.938416723841888e-24
-0.49690246371875446	6.743909269878662e-24
-0.49684142856250446	5.552484629717705e-24
-0.49678039340625446	4.363191365247126e-24
-0.49671935825000446	3.1740196325642496e-24
-0.49665832309375446	1.9826044180476122e-24
-0.49659728793750446	7.870567095718085e-25
-0.49653625278125446	-4.1334628754613117e-25
-0.49647521762500446	-1.6178449219668615e-24
-0.49641418246875446	-2.82436820050774e-24
-0.49635314731250446	-4.030149107893719e-24
-0.49629211215625446	-5.232587356987067e-24
-0.49623107700000446	-6.4300715597541235e-24
-0.49617004184375446	-7.622489083874608e-24
-0.49610900668750446	-8.811249387089562e-24
-0.49604797153125446	-9.998795913657428e-24
-0.49598693637500446	-1.1187759737368863e-23
-0.49592590121875446	-1.2380035906998057e-23
-0.49586486606250446	-1.35760828472424e-23
-0.49580383090625446	-1.4774680259887983e-23
-0.49574279575000446	-1.597324274658168e-23
-0.49568176059375446	-1.7168597975431303e-23
-0.49562072543750446	-1.8357982680344942e-23
-0.49555969028125446	-1.9539930247543435e-23
-0.49549865512500446	-2.0714743445561678e-23
-0.49543761996875446	-2.1884386984598254e-23
-0.49537658481250446	-2.3051830811323027e-23
-0.49531554965625446	-2.422004176379325e-23
-0.49525451450000446	-2.5390938727698766e-23
-0.49519347934375446	-2.6564666168736934e-23
-0.49513244418750446	-2.7739445414475077e-23
-0.49507140903125446	-2.8912062482585364e-23
-0.49501037387500446	-3.007884765545533e-23
-0.49494933871875446	-3.1236838055872605e-23
-0.49488830356250446	-3.23847381494825e-23
-0.49482726840625446	-3.3523356044206264e-23
-0.49476623325000446	-3.465535509856236e-23
-0.49470519809375446	-3.578437701410543e-23
-0.49464416293750446	-3.6913809865845034e-23
-0.49458312778125446	-3.804560169298972e-23
-0.49452209262500446	-3.917951376305548e-23
-0.49446105746875446	-4.0313075478635505e-23
-0.49440002231250446	-4.1442283214396715e-23
-0.49433898715625446	-4.2562836436396886e-23
-0.49427795200000446	-4.367151237626185e-23
-0.49421691684375446	-4.4767224981271885e-23
-0.49415588168750446	-4.585141229518293e-23
-0.49409484653125446	-4.6927605294544923e-23
-0.49403381137500446	-4.8000286214681874e-23
-0.49397277621875446	-4.907338518406422e-23
-0.49391174106250446	-5.0148905832368033e-23
-0.49385070590625446	-5.122614273706838e-23
-0.49378967075000446	-5.2301769516521026e-23
-0.49372863559375446	-5.33708013142934e-23
-0.49366760043750446	-5.442814568318101e-23
-0.49360656528125446	-5.547024497761367e-23
-0.49354553012500446	-5.649626348068562e-23
-0.49348449496875446	-5.750841405290451e-23
-0.49342345981250446	-5.851129721137322e-23
-0.49336242465625446	-5.951043112227282e-23
-0.49330138950000446	-6.051041752690584e-23
-0.49324035434375446	-6.151334066783277e-23
-0.49317931918750446	-6.251794239515351e-23
-0.49311828403125446	-6.351987267049134e-23
-0.49305724887500446	-6.451296962251008e-23
-0.49299621371875446	-6.549118114628347e-23
-0.49293517856250446	-6.645051619387146e-23
-0.49287414340625446	-6.739038948783861e-23
-0.49281310825000446	-6.831390088135473e-23
-0.49275207309375446	-6.922691374762273e-23
-0.49269103793750446	-7.013618788191602e-23
-0.49263000278125446	-7.104715244722644e-23
-0.49256896762500446	-7.196204094977484e-23
-0.49250793246875446	-7.287901028087477e-23
-0.49244689731250446	-7.379256378538445e-23
-0.49238586215625446	-7.469518280795207e-23
-0.49232482700000446	-7.55796734272185e-23
-0.49226379184375446	-7.644148531597634e-23
-0.49220275668750446	-7.72802449050301e-23
-0.49214172153125446	-7.809997978740173e-23
-0.49208068637500446	-7.890792064530136e-23
-0.49201965121875446	-7.971222064443734e-23
-0.49195861606250446	-8.051929873737065e-23
-0.49189758090625446	-8.133166611357172e-23
-0.49183654575000446	-8.214695863878072e-23
-0.49177551059375446	-8.295852127993117e-23
-0.49171447543750446	-8.375740038971805e-23
-0.49165344028125446	-8.453513882542493e-23
-0.49159240512500446	-8.528648978723874e-23
-0.49153136996875446	-8.601116782739867e-23
-0.49147033481250446	-8.671404206478987e-23
-0.49140929965625446	-8.740366915149675e-23
-0.49134826450000446	-8.808960153015335e-23
-0.49128722934375446	-8.877930933837915e-23
-0.49122619418750446	-8.947570081445387e-23
-0.49116515903125446	-9.017605817593744e-23
-0.49110412387500446	-9.08727605606607e-23
-0.49104308871875446	-9.155559426177194e-23
-0.49098205356250446	-9.221494058507765e-23
-0.49092101840625446	-9.284483541037975e-23
-0.49085998325000446	-9.344491311017418e-23
-0.49079894809375446	-9.402059032736477e-23
-0.49073791293750446	-9.458140195574315e-23
-0.49067687778125446	-9.513799579176053e-23
-0.49061584262500446	-9.569873309648734e-23
-0.49055480746875446	-9.626697840641936e-23
-0.49049377231250446	-9.683995098043751e-23
-0.49043273715625446	-9.740952184581732e-23
-0.49037170200000446	-9.796472231731102e-23
-0.49031066684375446	-9.849517722953518e-23
-0.49024963168750446	-9.899437372990328e-23
-0.49018859653125446	-9.946172250039911e-23
-0.49012756137500446	-9.990274733195457e-23
-0.49006652621875446	-1.0032733526275122e-22
-0.49000549106250446	-1.0074659951977515e-22
-0.48994445590625446	-1.0116935149984627e-22
-0.48988342075000446	-1.0159930472664722e-22
-0.48982238559375446	-1.0203389777174396e-22
-0.48976135043750446	-1.0246510427207952e-22
-0.48970031528125446	-1.0288196696222766e-22
-0.48963928012500446	-1.032740454234692e-22
-0.48957824496875446	-1.0363467929383183e-22
-0.48951720981250446	-1.0396303444619357e-22
-0.48945617465625446	-1.0426429472550766e-22
-0.48939513950000446	-1.0454795655798378e-22
-0.48933410434375446	-1.048247850509882e-22
-0.48927306918750446	-1.0510340809050439e-22
-0.48921203403125446	-1.0538762842421106e-22
-0.48915099887500446	-1.0567529151005594e-22
-0.48908996371875446	-1.0595904305841814e-22
-0.48902892856250446	-1.0622870869416414e-22
-0.48896789340625446	-1.0647451960056892e-22
-0.48890685825000446	-1.0669015257110239e-22
-0.48884582309375446	-1.068746296477312e-22
-0.48878478793750446	-1.0703250214653064e-22
-0.48872375278125446	-1.0717229692253125e-22
-0.48866271762500446	-1.073037502728069e-22
-0.48860168246875446	-1.0743472610017845e-22
-0.48854064731250446	-1.0756879484322302e-22
-0.48847961215625446	-1.0770421857379403e-22
-0.48841857700000446	-1.0783462659473327e-22
-0.48835754184375446	-1.0795112642942615e-22
-0.48829650668750446	-1.0804514983393309e-22
-0.48823547153125446	-1.0811111986876623e-22
-0.48817443637500446	-1.08148105626431e-22
-0.48811340121875446	-1.0815997358183858e-22
-0.48805236606250446	-1.0815403089730265e-22
-0.48799133090625446	-1.0813862976002211e-22
-0.48793029575000446	-1.0812051657689325e-22
-0.48786926059375446	-1.0810276792277612e-22
-0.48780822543750446	-1.0808394381131215e-22
-0.48774719028125446	-1.080586856269173e-22
-0.48768615512500446	-1.0801952569536929e-22
-0.48762511996875446	-1.0795930234346293e-22
-0.48756408481250446	-1.07873400141879e-22
-0.48750304965625446	-1.0776111335117252e-22
-0.48744201450000446	-1.0762573377489971e-22
-0.48738097934375446	-1.0747338106848569e-22
-0.48731994418750446	-1.0731098456748658e-22
-0.48725890903125446	-1.0714407925976405e-22
-0.48719787387500446	-1.0697511859632483e-22
-0.48713683871875446	-1.0680281794461505e-22
-0.48707580356250446	-1.0662269827793032e-22
-0.48701476840625446	-1.0642861901383213e-22
-0.48695373325000446	-1.0621478307914547e-22
-0.48689269809375446	-1.0597756146225866e-22
-0.48683166293750446	-1.0571656656885938e-22
-0.48677062778125446	-1.0543466411858598e-22
-0.48670959262500446	-1.0513695730062686e-22
-0.48664855746875446	-1.0482910045416814e-22
-0.48658752231250446	-1.0451550118952975e-22
-0.48652648715625446	-1.0419798496634492e-22
-0.48646545200000446	-1.0387532604410598e-22
-0.48640441684375446	-1.0354375888612851e-22
-0.48634338168750446	-1.0319827538309076e-22
-0.48628234653125446	-1.0283427196369143e-22
-0.48622131137500446	-1.0244900885810847e-22
-0.48616027621875446	-1.0204242391438312e-22
-0.48609924106250446	-1.0161706777987089e-22
-0.48603820590625446	-1.0117721325002678e-22
-0.48597717075000446	-1.0072745130037712e-22
-0.48591613559375446	-1.0027123741390917e-22
-0.48585510043750446	-9.98098518314864e-23
-0.48579406528125446	-9.934209022638447e-23
-0.48573303012500446	-9.886475566432078e-23
-0.48567199496875446	-9.837376532512047e-23
-0.48561095981250446	-9.786549986399354e-23
-0.48554992465625446	-9.733795939024624e-23
-0.48548888950000446	-9.67913637025187e-23
-0.48542785434375446	-9.622802361797932e-23
-0.48536681918750446	-9.565155108926647e-23
-0.48530578403125446	-9.506568398540739e-23
-0.48524474887500446	-9.447311165621357e-23
-0.48518371371875446	-9.387467487023761e-23
-0.48512267856250446	-9.326918397072206e-23
-0.48506164340625446	-9.265389304356214e-23
-0.48500060825000446	-9.202545610965629e-23
-0.48493957309375446	-9.138104261126381e-23
-0.48487853793750446	-9.071925054603527e-23
-0.48481750278125446	-9.004053208893855e-23
-0.48475646762500446	-8.934701162953801e-23
-0.48469543246875446	-8.864177656715293e-23
-0.48463439731250446	-8.792788534989795e-23
-0.48457336215625446	-8.720741806492174e-23
-0.48451232700000446	-8.648087201325232e-23
-0.48445129184375446	-8.574708309622174e-23
-0.48439025668750446	-8.500367980233132e-23
-0.48432922153125446	-8.424790942955637e-23
-0.48426818637500446	-8.347756188741218e-23
-0.48420715121875446	-8.269169114063278e-23
-0.48414611606250446	-8.18909101628353e-23
-0.48408508090625446	-8.107717855015936e-23
-0.48402404575000446	-8.025316443803184e-23
-0.48396301059375446	-7.942139927226436e-23
-0.48390197543750446	-7.858350457551682e-23
-0.48384094028125446	-7.773973512748478e-23
-0.48377990512500446	-7.688897296265257e-23
-0.48371886996875446	-7.602915994152008e-23
-0.48365783481250446	-7.515802020138361e-23
-0.48359679965625446	-7.42738316635394e-23
-0.48353576450000446	-7.337599384716907e-23
-0.48347472934375446	-7.246522125946949e-23
-0.48341369418750446	-7.154331447827485e-23
-0.48335265903125446	-7.061258740087555e-23
-0.48329162387500446	-6.967514668925033e-23
-0.48323058871875446	-6.873226346647406e-23
-0.48316955356250446	-6.77840312639713e-23
-0.48310851840625446	-6.682941119879624e-23
-0.48304748325000446	-6.586663726066055e-23
-0.48298644809375446	-6.489383757782155e-23
-0.48292541293750446	-6.390967076597099e-23
-0.48286437778125446	-6.291377645626726e-23
-0.48280334262500446	-6.190690079646854e-23
-0.48274230746875446	-6.089066662494923e-23
-0.48268127231250446	-5.986707189206486e-23
-0.48262023715625446	-5.883788515583097e-23
-0.48255920200000446	-5.780413216789513e-23
-0.48249816684375446	-5.676583191922971e-23
-0.48243713168750446	-5.572206314501881e-23
-0.48237609653125446	-5.467133176697256e-23
-0.48231506137500446	-5.361210642181496e-23
-0.48225402621875446	-5.254334440079521e-23
-0.48219299106250446	-5.146484464313157e-23
-0.48213195590625446	-5.0377324981105685e-23
-0.48207092075000446	-4.928221137851195e-23
-0.48200988559375446	-4.818121173166585e-23
-0.48194885043750446	-4.707581180287317e-23
-0.48188781528125446	-4.5966858592844226e-23
-0.48182678012500446	-4.48543604232092e-23
-0.48176574496875446	-4.373755646815808e-23
-0.48170470981250446	-4.2615225855189573e-23
-0.48164367465625446	-4.148613280002824e-23
-0.48158263950000446	-4.034946304876387e-23
-0.48152160434375446	-3.9205111454714556e-23
-0.48146056918750446	-3.8053731495113517e-23
-0.48139953403125446	-3.689654214807333e-23
-0.48133849887500446	-3.573496946502382e-23
-0.48127746371875446	-3.45702448735098e-23
-0.48121642856250446	-3.340307911798074e-23
-0.48115539340625446	-3.2233504807138503e-23
-0.48109435825000446	-3.106093838622917e-23
-0.48103332309375446	-2.988443672526242e-23
-0.48097228793750446	-2.870305505851913e-23
-0.48091125278125446	-2.7516188576726834e-23
-0.48085021762500446	-2.6323789940248063e-23
-0.48078918246875446	-2.5126401223959303e-23
-0.48072814731250446	-2.392500413258449e-23
-0.48066711215625446	-2.272074464474409e-23
-0.48060607700000446	-2.1514619890454476e-23
-0.48054504184375446	-2.0307225264163757e-23
-0.48048400668750446	-1.909864115789239e-23
-0.48042297153125446	-1.7888486620380504e-23
-0.48036193637500446	-1.6676110669016317e-23
-0.48030090121875446	-1.546085703252184e-23
-0.48023986606250446	-1.424231422061213e-23
-0.48017883090625446	-1.3020468832548505e-23
-0.48011779575000446	-1.1795727017062705e-23
-0.48005676059375446	-1.0568811983458123e-23
-0.47999572543750446	-9.340573007948518e-24
-0.47993469028125446	-8.111767430791911e-24
-0.47987365512500446	-6.88288612837288e-24
-0.47981261996875446	-5.654074849904556e-24
-0.47975158481250446	-4.42516943448251e-24
-0.47969054965625446	-3.1958221248403535e-24
-0.47962951450000446	-1.9656673182116506e-24
-0.47956847934375446	-7.344779406484809e-25
-0.47950744418750446	4.977317995772424e-25
-0.47944640903125446	1.730694464118291e-24
-0.47938537387500446	2.963956912326457e-24
-0.47932433871875446	4.196984324024855e-24
-0.47926330356250446	5.429272799892918e-24
-0.47920226840625446	6.660443507077437e-24
-0.47914123325000446	7.890286285449696e-24
-0.47908019809375446	9.11874408673227e-24
-0.47901916293750446	1.034585894982422e-23
-0.47895812778125446	1.1571703468187325e-23
-0.47889709262500446	1.2796315845758162e-23
-0.47883605746875446	1.4019659910477615e-23
-0.47877502231250446	1.5241616780628112e-23
-0.47871398715625446	1.6461996538916102e-23
-0.47865295200000446	1.768055952872453e-23
-0.47859191684375446	1.8897039348098692e-23
-0.47853088168750446	2.0111159989295488e-23
-0.47846984653125446	2.1322647397057827e-23
-0.47840881137500446	2.2531244426391988e-23
-0.47834777621875446	2.3736727993752104e-23
-0.47828674106250446	2.4938921807194354e-23
-0.47822570590625446	2.613770907311034e-23
-0.47816467075000446	2.7333039322046405e-23
-0.47810363559375446	2.852491672265302e-23
-0.47804260043750446	2.9713370852397323e-23
-0.47798156528125446	3.089841225819116e-23
-0.47792053012500446	3.2079978808521884e-23
-0.47785949496875446	3.3257891100244515e-23
-0.47779845981250446	3.443183760250184e-23
-0.47773742465625446	3.560140510881258e-23
-0.47767638950000446	3.6766150282490536e-23
-0.47761535434375446	3.7925686726193835e-23
-0.47755431918750446	3.9079763195894573e-23
-0.47749328403125446	4.0228310488876075e-23
-0.47743224887500446	4.137143525420069e-23
-0.47737121371875446	4.250935442286976e-23
-0.47731017856250446	4.364228561125474e-23
-0.47724914340625446	4.477033029721182e-23
-0.47718810825000446	4.5893387607702863e-23
-0.47712707309375446	4.701112436816702e-23
-0.47706603793750446	4.812301850350065e-23
-0.47700500278125446	4.9228466643459836e-23
-0.47694396762500446	5.0326922537976403e-23
-0.47688293246875446	5.1418029215872165e-23
-0.47682189731250446	5.2501700675953965e-23
-0.47676086215625446	5.357811693058957e-23
-0.47669982700000446	5.464763087031576e-23
-0.47663879184375446	5.571061593148944e-23
-0.47657775668750446	5.676730336700898e-23
-0.47651672153125446	5.781766054782788e-23
-0.47645568637500446	5.886134747252964e-23
-0.47639465121875446	5.989776977568038e-23
-0.47633361606250446	6.092621539294135e-23
-0.47627258090625446	6.194603438480038e-23
-0.47621154575000446	6.295680698957946e-23
-0.47615051059375446	6.395844086094574e-23
-0.47608947543750446	6.495116354310422e-23
-0.47602844028125446	6.593541383157052e-23
-0.47596740512500446	6.691166543824334e-23
-0.47590636996875446	6.788023836956758e-23
-0.47584533481250446	6.884115304363857e-23
-0.47578429965625446	6.979407283999339e-23
-0.47572326450000446	7.073836377527474e-23
-0.47566222934375446	7.16732549320785e-23
-0.47560119418750446	7.259804411932188e-23
-0.47554015903125446	7.351228407430352e-23
-0.47547912387500446	7.441588956987587e-23
-0.47541808871875446	7.530912849565435e-23
-0.47535705356250446	7.619249971025963e-23
-0.47529601840625446	7.706653616262925e-23
-0.47523498325000446	7.793159600441473e-23
-0.47517394809375446	7.878771055395997e-23
-0.47511291293750446	7.963453738752029e-23
-0.47505187778125446	8.04714334970051e-23
-0.47499084262500446	8.129762543067866e-23
-0.47492980746875446	8.211242004393205e-23
-0.47486877231250446	8.291538982006469e-23
-0.47480773715625446	8.370647563740286e-23
-0.47474670200000446	8.44859720215593e-23
-0.47468566684375446	8.525439766865665e-23
-0.47462463168750446	8.601229417614379e-23
-0.47456359653125446	8.676001819022096e-23
-0.47450256137500446	8.74975923380983e-23
-0.47444152621875446	8.822466579537859e-23
-0.47438049106250446	8.894059932214957e-23
-0.47431945590625446	8.96446433258584e-23
-0.47425842075000446	9.033614967165133e-23
-0.47419738559375446	9.101474964220633e-23
-0.47413635043750446	9.168044159845826e-23
-0.47407531528125446	9.233356063688148e-23
-0.47401428012500446	9.297463809961808e-23
-0.47395324496875446	9.360419778266653e-23
-0.47389220981250446	9.422255846844364e-23
-0.47383117465625446	9.482970548584424e-23
-0.47377013950000446	9.542526960934496e-23
-0.47370910434375446	9.60086198804571e-23
-0.47364806918750446	9.657904299372686e-23
-0.47358703403125446	9.713595190654112e-23
-0.47352599887500446	9.767905385404757e-23
-0.47346496371875446	9.820842128454543e-23
-0.47340392856250446	9.872444142799227e-23
-0.47334289340625446	9.922766301182803e-23
-0.47328185825000446	9.971859306274124e-23
-0.47322082309375446	1.0019750827277269e-22
-0.47315978793750446	1.0066434207055344e-22
-0.47309875278125446	1.0111868624465893e-22
-0.47303771762500446	1.0155990446090064e-22
-0.47297668246875446	1.0198731989061557e-22
-0.47291564731250446	1.0240041846470503e-22
-0.47285461215625446	1.0279900041823295e-22
-0.47279357700000446	1.0318322755480487e-22
-0.47273254184375446	1.0355355098291405e-22
-0.47267150668750446	1.0391054470689358e-22
-0.47261047153125446	1.0425469971211253e-22
-0.47254943637500446	1.0458624526885979e-22
-0.47248840121875446	1.0490505600315927e-22
-0.47242736606250446	1.0521067609462317e-22
-0.47236633090625446	1.0550245345115769e-22
-0.47230529575000446	1.0577973999046034e-22
