Time	Frequency
-0.5000267010312527	0.5343327219230027
-0.4999656658750027	0.5377083175402974
-0.4999046307187527	0.5410603780556957
-0.4998435955625027	0.5443782626705314
-0.4997825604062527	0.547646927592994
-0.4997215252500027	0.5508498261120673
-0.4996604900937527	0.5539721704898253
-0.4995994549375027	0.5570038968615038
-0.4995384197812527	0.5599417411954943
-0.4994773846250027	0.5627899913311513
-0.4994163494687527	0.5655597177862506
-0.4993553143125027	0.5682665962786081
-0.4992942791562527	0.5709277451887479
-0.4992332440000027	0.573558207584446
-0.4991722088437527	0.5761677712199016
-0.4991111736875027	0.5787587793333024
-0.4990501385312527	0.5813254145098498
-0.4989891033750027	0.5838546338527059
-0.4989280682187527	0.5863286040295291
-0.4988670330625027	0.5887281858319656
-0.4988059979062527	0.5910367819077004
-0.4987449627500027	0.5932437632022132
-0.4986839275937527	0.5953467565032659
-0.4986228924375027	0.5973522938237962
-0.4985618572812527	0.5992746546996722
-0.4985008221250027	0.6011330918380867
-0.4984397869687527	0.6029479545208313
-0.4983787518125027	0.6047364708383827
-0.4983177166562527	0.6065090548803211
-0.4982566815000027	0.6082669210246551
-0.4981956463437527	0.6100015329144298
-0.4981346111875027	0.6116960507198002
-0.4980735760312527	0.6133285371122192
-0.4980125408750027	0.6148763148129599
-0.4979515057187527	0.6163206087653073
-0.4978904705625027	0.6176505183682311
-0.4978294354062527	0.6188654795736034
-0.4977684002500027	0.6199756635801905
-0.4977073650937527	0.6210001625492538
-0.4976463299375027	0.6219632670678134
-0.4975852947812527	0.622889548918505
-0.4975242596250027	0.6237987313527181
-0.4974632244687527	0.6247014048375515
-0.4974021893125027	0.6255965074838103
-0.4973411541562527	0.6264711521219072
-0.4972801190000027	0.6273029119579013
-0.4972190838437527	0.6280641689074484
-0.4971580486875027	0.628727686834021
-0.4970970135312527	0.6292722894734931
-0.4970359783750027	0.6296874633486821
-0.4969749432187527	0.6299758880920049
-0.4969139080625027	0.6301532955089332
-0.4968528729062527	0.6302456001212355
-0.4967918377500027	0.6302838110546862
-0.4967308025937527	0.6302977128858295
-0.4966697674375027	0.6303095929371562
-0.4966087322812527	0.6303293265087605
-0.4965476971250027	0.6303518940915817
-0.4964866619687527	0.6303579294887162
-0.4964256268125027	0.6303172819881842
-0.4963645916562527	0.630194952980142
-0.4963035565000027	0.6299582517101205
-0.4962425213437527	0.6295837129859155
-0.4961814861875027	0.6290623206774055
-0.4961204510312527	0.6284018899309499
-0.4960594158750027	0.6276260100589497
-0.4959983807187527	0.6267696482976246
-0.4959373455625027	0.6258722252257967
-0.4958763104062527	0.6249695297924457
-0.4958152752500027	0.6240861250684563
-0.4957542400937527	0.6232298438893416
-0.4956932049375027	0.6223895959651603
-0.4956321697812527	0.6215370654593012
-0.4955711346250027	0.6206320755671633
-0.4955100994687527	0.6196306129968298
-0.4954490643125027	0.6184939202982453
-0.4953880291562527	0.6171967942152045
-0.4953269940000027	0.6157333283905652
-0.4952659588437527	0.6141188098299026
-0.4952049236875027	0.6123872448935244
-0.4951438885312527	0.6105848938266011
-0.4950828533750027	0.6087610420580271
-0.4950218182187527	0.6069578393352527
-0.4949607830625027	0.6052012878843265
-0.4948997479062527	0.6034953196981009
-0.4948387127500027	0.601820314598939
-0.4947776775937527	0.6001364868381697
-0.4947166424375027	0.5983915818985958
-0.4946556072812527	0.5965314270711579
-0.4945945721250027	0.5945112098896504
-0.4945335369687527	0.5923051386312042
-0.4944725018125027	0.5899124264261021
-0.4944114666562527	0.5873582496371355
-0.4943504315000027	0.584689334242461
-0.4942893963437527	0.5819649248663364
-0.4942283611875027	0.5792448745266333
-0.4941673260312527	0.5765772499312375
-0.4941062908750027	0.5739880341360815
-0.4940452557187527	0.5714751608577482
-0.4939842205625027	0.5690082339926987
-0.4939231854062527	0.5665341067761306
-0.4938621502500027	0.5639873302323638
-0.4938011150937527	0.5613034600765606
-0.4937400799375027	0.5584325185749944
-0.4936790447812527	0.5553497914233577
-0.4936180096250027	0.5520616477683304
-0.4935569744687527	0.5486050685092578
-0.4934959393125027	0.545040824148073
-0.4934349041562527	0.5414415387185849
-0.4933738690000027	0.5378769933434223
-0.4933128338437527	0.5343996805441626
-0.4932517986875027	0.531033627407109
-0.4931907635312527	0.5277688691731528
-0.4931297283750027	0.5245628327242668
-0.4930686932187527	0.5213485073917642
-0.4930076580625027	0.5180478585434776
-0.4929466229062527	0.5145877850627583
-0.4928855877500027	0.510915355161062
-0.4928245525937527	0.5070091593525365
-0.4927635174375027	0.5028843652218383
-0.4927024822812527	0.4985903178801609
-0.4926414471250027	0.4942010371539854
-0.4925804119687527	0.48980046539633143
-0.4925193768125027	0.4854654563038586
-0.4924583416562527	0.48124997610508213
-0.4923973065000027	0.4771737876865145
-0.4923362713437527	0.47321802043218714
-0.4922752361875027	0.4693286332914975
-0.4922142010312527	0.4654271516486713
-0.4921531658750027	0.46142653584446486
-0.4920921307187527	0.4572489778668389
-0.4920310955625027	0.4528420094011853
-0.4919700604062527	0.44818957228645184
-0.4919090252500027	0.44331568523759435
-0.4918479900937527	0.4382799053736161
-0.4917869549375027	0.4331655170022046
-0.4917259197812527	0.42806281807929597
-0.4916648846250027	0.4230508488830605
-0.4916038494687527	0.41818133031900706
-0.4915428143125027	0.4134681498558997
-0.4914817791562527	0.4088845269543026
-0.4914207440000027	0.4043684540058025
-0.4913597088437527	0.3998353422022654
-0.4912986736875027	0.3951952761839325
-0.4912376385312527	0.3903713462931373
-0.4911766033750027	0.3853153251116767
-0.4911155682187527	0.38001747901724714
-0.4910545330625027	0.37450853931346834
-0.4909934979062527	0.36885347550520575
-0.4909324627500027	0.36313833796138417
-0.4908714275937527	0.35745286551942235
-0.4908103924375027	0.35187244760286435
-0.4907493572812527	0.34644311844738784
-0.4906883221250027	0.34117260186687615
-0.4906272869687527	0.33602917329878995
-0.4905662518125027	0.33094849367578205
-0.4905052166562527	0.3258469634108136
-0.4904441815000027	0.3206388481517979
-0.4903831463437527	0.3152536651295351
-0.4903221111875027	0.309650294472906
-0.4902610760312527	0.30382499611213537
-0.4902000408750027	0.29781178545530923
-0.4901390057187527	0.29167519539000114
-0.4900779705625027	0.2854969952128432
-0.4900169354062527	0.27935964130488683
-0.4899559002500027	0.27332985957504824
-0.4898948650937527	0.26744566165575134
-0.4898338299375027	0.2617093387727153
-0.4897727947812527	0.256087750620019
-0.4897117596250027	0.25051974278202976
-0.4896507244687527	0.24492906475273313
-0.4895896893125027	0.23924005189942527
-0.4895286541562527	0.23339285506010232
-0.4894676190000027	0.22735519638889506
-0.4894065838437527	0.2211283555815178
-0.4893455486875027	0.21474628417816938
-0.4892845135312527	0.20826819751019057
-0.4892234783750027	0.20176627212500253
-0.4891624432187527	0.19531101647612378
-0.4891014080625027	0.18895733784688715
-0.4890403729062527	0.18273408058490104
-0.4889793377500027	0.17663904533567057
-0.4889183025937527	0.17064038886783678
-0.4888572674375027	0.16468394377292314
-0.4887962322812527	0.15870479557483802
-0.4887351971250027	0.15264069241669515
-0.4886741619687527	0.14644455216470184
-0.4886131268125027	0.14009355867063938
-0.4885520916562527	0.13359312674857876
-0.4884910565000027	0.1269751047142163
-0.4884300213437527	0.12029072069767036
-0.4883689861875027	0.11359984048088145
-0.4883079510312527	0.10695882350121623
-0.4882469158750027	0.1004094723476884
-0.4881858807187527	0.09397128138835342
-0.4881248455625027	0.08763842167660525
-0.4880638104062527	0.08138189072206489
-0.4880027752500027	0.07515625036779569
-0.4879417400937527	0.06890945512151177
-0.4878807049375027	0.06259365404376038
-0.4878196697812527	0.05617476254303115
-0.4877586346250027	0.04963895676139248
-0.4876975994687527	0.04299487205842603
-0.4876365643125027	0.03627116918271764
-0.4875755291562527	0.029510133145415587
-0.4875144940000027	0.02275878495216578
-0.4874534588437527	0.01605938358384916
-0.4873924236875027	0.009441231218980665
-0.4873313885312527	0.0029154243521698543
-0.4872703533750027	-0.003526500238704663
-0.4872093182187527	-0.009909957302821426
-0.4871482830625027	-0.016271403238659166
-0.4870872479062527	-0.022650395979130215
-0.4870262127500027	-0.029081326570529427
-0.4869651775937527	-0.035586536386497614
-0.4869041424375027	-0.04217216311750998
-0.4868431072812527	-0.04882744802450241
-0.4867820721250027	-0.05552748880218572
-0.4867210369687527	-0.06223874366052273
-0.4866600018125027	-0.06892607849437751
-0.4865989666562527	-0.07555983543994621
-0.4865379315000027	-0.08212146590827607
-0.4864768963437527	-0.08860666917896155
-0.4864158611875027	-0.09502549211851544
-0.4863548260312527	-0.10139948381088493
-0.4862937908750027	-0.10775665471519241
-0.4862327557187527	-0.11412537087701487
-0.4861717205625027	-0.12052842132123763
-0.4861106854062527	-0.12697846055017675
-0.4860496502500027	-0.13347575264797407
-0.4859886150937527	-0.14000858645871642
-0.4859275799375027	-0.14655611384717795
-0.4858665447812527	-0.1530928963984405
-0.4858055096250027	-0.15959417817928806
-0.4857444744687527	-0.1660407991531609
-0.4856834393125027	-0.17242274029176738
-0.4856224041562527	-0.17874061015360973
-0.4855613690000027	-0.18500485488446058
-0.4855003338437527	-0.19123295866451526
-0.4854392986875027	-0.19744533065423014
-0.4853782635312527	-0.20366081155222515
-0.4853172283750027	-0.2098927362922193
-0.4852561932187527	-0.21614632657193028
-0.4851951580625027	-0.22241787795049664
-0.4851341229062527	-0.22869584199477533
-0.4850730877500027	-0.23496351517594213
-0.4850120525937527	-0.2412026706464139
-0.4849510174375027	-0.24739730463977533
-0.4848899822812527	-0.25353672831410295
-0.4848289471250027	-0.25961739458677174
-0.4847679119687527	-0.2656431231213673
-0.4847068768125027	-0.27162376054803655
-0.4846458416562527	-0.2775726430235804
-0.4845848065000027	-0.283503443566679
-0.4845237713437527	-0.28942711152889283
-0.4844627361875027	-0.29534956977967286
-0.4844017010312527	-0.3012706002422979
-0.4843406658750027	-0.3071840857296259
-0.4842796307187527	-0.3130795176138621
-0.4842185955625027	-0.3189443783875369
-0.4841575604062527	-0.32476681824751685
-0.4840965252500027	-0.33053803889830546
-0.4840354900937527	-0.3362538981593503
-0.4839744549375027	-0.34191543425724824
-0.4839134197812527	-0.3475282455278515
-0.4838523846250027	-0.3531008893125822
-0.4837913494687527	-0.35864268996166065
-0.4837303143125027	-0.3641614982209376
-0.4836692791562527	-0.3696619015973583
-0.4836082440000027	-0.3751442372087487
-0.4835472088437527	-0.3806045857750864
-0.4834861736875027	-0.38603571724520236
-0.4834251385312527	-0.39142874709569725
-0.4833641033750027	-0.39677509131225974
-0.4833030682187527	-0.4020682710641998
-0.4832420330625027	-0.4073051888137077
-0.4831809979062527	-0.4124865982737507
-0.4831199627500027	-0.41761666757059374
-0.4830589275937527	-0.4227017673763812
-0.4829978924375027	-0.42774880137061766
-0.4829368572812527	-0.43276347145128646
-0.4828758221250027	-0.4377488489480429
-0.4828147869687527	-0.4427045781119531
-0.4827537518125027	-0.44762691143232763
-0.4826927166562527	-0.4525095266417327
-0.4826316815000027	-0.45734490499635966
-0.4825706463437527	-0.4621259736972391
-0.4825096111875027	-0.4668476329277451
-0.4824485760312527	-0.47150782112991413
-0.4823875408750027	-0.4761078806021676
-0.4823265057187527	-0.4806521203311715
-0.4822654705625027	-0.48514669830010076
-0.4822044354062527	-0.489598100941491
-0.4821434002500027	-0.49401153832613515
-0.4820823650937527	-0.49838961377177116
-0.4820213299375027	-0.502731591899946
-0.4819602947812527	-0.5070334344815385
-0.4818992596250027	-0.5112885821946763
-0.4818382244687527	-0.5154892990561668
-0.4817771893125027	-0.5196282907225326
-0.4817161541562527	-0.5237002490959948
-0.4816551190000027	-0.527702975194137
-0.4815940838437527	-0.5316378220562614
-0.4815330486875027	-0.5355093604241393
-0.4814720135312527	-0.539324337631998
-0.4814109783750027	-0.5430901347709749
-0.4813499432187527	-0.5468130468388569
-0.4812889080625027	-0.5504967873328924
-0.4812278729062527	-0.554141555061849
-0.4811668377500027	-0.5577438459110075
-0.4811058025937527	-0.5612970552395941
-0.4810447674375027	-0.5647927593600216
-0.4809837322812527	-0.568222407936497
-0.4809226971250027	-0.5715790734897824
-0.4808616619687527	-0.5748588837290938
-0.4808006268125027	-0.5780618287526353
-0.4807395916562527	-0.5811917639008183
-0.4806785565000027	-0.5842555840014934
-0.4806175213437527	-0.5872617367161556
-0.4805564861875027	-0.5902183960634896
-0.4804954510312527	-0.5931316682058874
-0.4804344158750027	-0.5960041983462451
-0.4803733807187527	-0.5988344889111068
-0.4803123455625027	-0.6016170825203847
-0.4802513104062527	-0.6043435728750959
-0.4801902752500027	-0.6070042452718706
-0.4801292400937527	-0.6095900147110063
-0.4800682049375027	-0.6120942595161016
-0.4800071697812527	-0.6145141694107041
-0.4799461346250027	-0.6168513238446801
-0.4798850994687527	-0.619111373332785
-0.4798240643125027	-0.6213028782832312
-0.4797630291562527	-0.6234355312882759
-0.4797019940000027	-0.6255181288968515
-0.4796409588437527	-0.6275567127496651
-0.4795799236875027	-0.6295532531319966
-0.4795188885312527	-0.6315051461146237
-0.4794578533750027	-0.6334056404074597
-0.4793968182187527	-0.6352451128255507
-0.4793357830625027	-0.6370129393583437
-0.4792747479062527	-0.6386995955817736
-0.4792137127500027	-0.6402985638256621
-0.4791526775937527	-0.6418076518923566
-0.4790916424375027	-0.6432294488742376
-0.4790306072812527	-0.6445708201643329
-0.4789695721250027	-0.6458415368712221
-0.4789085369687527	-0.647052307393488
-0.4788475018125027	-0.6482126002862121
-0.4787864666562527	-0.6493286955342398
-0.4787254315000027	-0.6504023593620405
-0.4786643963437527	-0.6514304148717134
-0.4786033611875027	-0.6524053017275532
-0.4785423260312527	-0.6533165196843829
-0.4784812908750027	-0.6541526751114314
-0.4784202557187527	-0.6549037264285429
-0.4783592205625027	-0.6555629807026857
-0.4782981854062527	-0.6561284409660043
-0.4782371502500027	-0.6566032301365399
-0.4781761150937527	-0.6569950004097449
-0.4781150799375027	-0.6573144383041087
-0.4780540447812527	-0.6575731544348506
-0.4779930096250027	-0.6577813721814529
-0.4779319744687527	-0.657945875028086
-0.4778709393125027	-0.6580686248129287
-0.4778099041562527	-0.6581463277745542
-0.4777488690000027	-0.6581710379134731
-0.4776878338437527	-0.6581316870173476
-0.4776267986875027	-0.6580162461730944
-0.4775657635312527	-0.6578140944809109
-0.4775047283750027	-0.6575181249222953
-0.4774436932187527	-0.6571261682175862
-0.4773826580625027	-0.65664145510534
-0.4773216229062527	-0.6560720229134859
-0.4772605877500027	-0.6554291721467704
-0.4771995525937527	-0.6547252689189932
-0.4771385174375027	-0.6539713251082893
-0.4770774822812527	-0.6531748357244156
-0.4770164471250027	-0.6523382985408677
-0.4769554119687527	-0.6514587027821894
-0.4768943768125027	-0.6505280970523576
-0.4768333416562527	-0.649535139930007
-0.4767723065000027	-0.6484673289825184
-0.4767112713437527	-0.6473134684323401
-0.4766502361875027	-0.64606588671095
-0.4765892010312527	-0.6447219660986996
-0.4765281658750027	-0.6432846964794716
-0.4764671307187527	-0.6417621481408299
-0.4764060955625027	-0.6401659470985563
-0.4763450604062527	-0.6385090343792709
-0.4762840252500027	-0.6368031552617088
-0.4762229900937527	-0.6350565825690129
-0.4761619549375027	-0.6332725196841932
-0.4761009197812527	-0.6314484953460339
-0.4760398846250027	-0.6295768692232809
-0.4759788494687527	-0.6276463440907933
-0.4759178143125027	-0.6256441888024933
-0.4758567791562527	-0.6235587536197558
-0.4757957440000027	-0.6213817972055778
-0.4757347088437527	-0.6191101529584319
-0.4756736736875027	-0.6167463953774088
-0.4756126385312527	-0.6142983868243853
-0.4755516033750027	-0.6117777922871653
-0.4754905682187527	-0.6091978463451507
-0.4754295330625027	-0.6065708168321196
-0.4753684979062527	-0.603905658511861
-0.4753074627500027	-0.6012063084844723
-0.4752464275937527	-0.5984709640038564
-0.4751853924375027	-0.5956924828724975
-0.4751243572812527	-0.5928598205511131
-0.4750633221250027	-0.5899602370473217
-0.4750022869687527	-0.5869818457311211
-0.4749412518125027	-0.583915996723259
-0.4748802166562527	-0.5807590400519713
-0.4748191815000027	-0.5775131109892281
-0.4747581463437527	-0.5741857631402727
-0.4746971111875027	-0.5707885456663172
-0.4746360760312527	-0.5673348103313857
-0.4745750408750027	-0.5638371543797519
-0.4745140057187527	-0.5603050087668727
-0.4744529705625027	-0.5567428565440571
-0.4743919354062527	-0.5531494236332367
-0.4743309002500027	-0.5495180031192594
-0.4742698650937527	-0.545837849496079
-0.4742088299375027	-0.5420963625814255
-0.4741477947812527	-0.5382816345877706
-0.4740867596250027	-0.5343848724052424
-0.4740257244687527	-0.5304022165286799
-0.4739646893125027	-0.5263355787691418
-0.4739036541562527	-0.5221923409388033
-0.4738426190000027	-0.5179839849242712
-0.4737815838437527	-0.5137239040816893
-0.4737205486875027	-0.5094248266311453
-0.4736595135312527	-0.505096378737759
-0.4735984783750027	-0.5007432591927216
-0.4735374432187527	-0.4963643780922023
-0.4734764080625027	-0.491953155211972
-0.4734153729062527	-0.48749893293913615
-0.4733543377500027	-0.4829892000954108
-0.4732933025937527	-0.47841216865337294
-0.4732322674375027	-0.4737592055734493
-0.4731712322812527	-0.469026649363314
-0.4731101971250027	-0.4642166484456291
-0.4730491619687527	-0.45933683810231996
-0.4729881268125027	-0.4543989032024445
-0.4729270916562527	-0.44941633067866693
-0.4728660565000027	-0.44440181872809004
-0.4728050213437527	-0.4393648433652251
-0.4727439861875027	-0.4343098467789904
-0.4726829510312527	-0.42923541964167605
-0.4726219158750027	-0.4241346815133682
-0.4725608807187527	-0.41899678508968086
-0.4724998455625027	-0.4138092061968966
-0.4724388104062527	-0.4085603695601215
-0.4723777752500027	-0.40324210588918963
-0.4723167400937527	-0.39785141248069866
-0.4722557049375027	-0.39239115061570734
-0.4721946697812527	-0.3868695927125081
-0.4721336346250027	-0.38129890390993487
-0.4720725994687527	-0.3756927964536024
-0.4720115643125027	-0.37006383999577697
-0.4719505291562527	-0.36442102573933755
-0.4718894940000027	-0.3587680657626212
-0.4718284588437527	-0.35310273901834044
-0.4717674236875027	-0.34741744122046975
-0.4717063885312527	-0.3417008504057089
-0.4716453533750027	-0.33594035089938634
-0.4715843182187527	-0.3301247197587349
-0.4715232830625027	-0.32424652758587696
-0.4714622479062527	-0.3183037647269909
-0.4714012127500027	-0.3123003995525988
-0.4713401775937527	-0.30624573651128617
-0.4712791424375027	-0.30015264872020087
-0.4712181072812527	-0.29403507245230653
-0.4711570721250027	-0.2879052916317084
-0.4710960369687527	-0.2817715464735658
-0.4710350018125027	-0.2756364777433726
-0.4709739666562527	-0.2694967229538747
-0.4709129315000027	-0.2633437179558801
-0.4708518963437527	-0.2571655551706572
-0.4707908611875027	-0.2509495437762836
-0.4707298260312527	-0.24468493565755692
-0.4706687908750027	-0.23836524430005868
-0.4706077557187527	-0.2319897002172817
-0.4705467205625027	-0.22556355860604066
-0.4704856854062527	-0.21909719608286662
-0.4704246502500027	-0.21260415769115387
-0.4703636150937527	-0.20609851778007143
-0.4703025799375027	-0.1995921232762575
-0.4702415447812527	-0.19309231038224736
-0.4701805096250027	-0.18660053380362107
-0.4701194744687527	-0.1801122060988512
-0.4700584393125027	-0.1736177926751614
-0.4699974041562527	-0.16710488386724257
-0.4699363690000027	-0.16056082511135636
-0.4698753338437527	-0.1539754231546536
-0.4698142986875027	-0.1473431854454881
-0.4697532635312527	-0.1406646126091581
-0.4696922283750027	-0.13394624095749763
-0.4696311932187527	-0.12719943462744923
-0.4695701580625027	-0.12043822443107663
-0.4695091229062527	-0.11367662978153555
