Time	Frequency
-0.5000537275625021	1.5133321253143002e-22
-0.4999926924062521	1.5243516522604992e-22
-0.4999316572500021	1.5348356401936515e-22
-0.4998706220937521	1.544545853188351e-22
-0.4998095869375021	1.5533800485764868e-22
-0.4997485517812521	1.5613953651294224e-22
-0.4996875166250021	1.5687974133381719e-22
-0.4996264814687521	1.575897115327711e-22
-0.4995654463125021	1.5830444137246425e-22
-0.4995044111562521	1.5905530040111909e-22
-0.4994433760000021	1.5986322914315238e-22
-0.4993823408437521	1.6073413697152525e-22
-0.4993213056875021	1.6165751317609516e-22
-0.4992602705312521	1.6260857286065904e-22
-0.4991992353750021	1.635534948994092e-22
-0.4991382002187521	1.6445663372875866e-22
-0.4990771650625021	1.6528815645319068e-22
-0.4990161299062521	1.6603045905284175e-22
-0.4989550947500021	1.6668196859163354e-22
-0.4988940595937521	1.6725750294720914e-22
-0.4988330244375021	1.6778510748884362e-22
-0.4987719892812521	1.6830004327433374e-22
-0.4987109541250021	1.6883721760758922e-22
-0.4986499189687521	1.6942369165411924e-22
-0.4985888838125021	1.700728782170327e-22
-0.4985278486562521	1.7078167401526762e-22
-0.4984668135000021	1.715311423398101e-22
-0.4984057783437521	1.7229059357473408e-22
-0.4983447431875021	1.730241734304144e-22
-0.4982837080312521	1.7369853326580492e-22
-0.4982226728750021	1.7428993224883742e-22
-0.4981616377187521	1.7478924964380414e-22
-0.4981006025625021	1.7520384097779594e-22
-0.4980395674062521	1.7555585592599897e-22
-0.4979785322500021	1.7587740166910905e-22
-0.4979174970937521	1.7620361272071427e-22
-0.4978564619375021	1.7656512707734275e-22
-0.4977954267812521	1.7698158422088342e-22
-0.4977343916250021	1.7745752944924564e-22
-0.4976733564687521	1.779815792477709e-22
-0.4976123213125021	1.785289951895535e-22
-0.4975512861562521	1.790670829222132e-22
-0.4974902510000021	1.7956223244981945e-22
-0.4974292158437521	1.7998707529037255e-22
-0.4973681806875021	1.8032622618697034e-22
-0.4973071455312521	1.8057939805575138e-22
-0.4972461103750021	1.8076125723509177e-22
-0.4971850752187521	1.8089809430265476e-22
-0.4971240400625021	1.8102206468943913e-22
-0.4970630049062521	1.8116426123860742e-22
-0.4970019697500021	1.8134811419126774e-22
-0.4969409345937521	1.815845228061195e-22
-0.4968798994375021	1.8186973106470706e-22
-0.4968188642812521	1.8218635832063683e-22
-0.4967578291250021	1.8250731541622858e-22
-0.4966967939687521	1.828017233619963e-22
-0.4966357588125021	1.8304153780904563e-22
-0.4965747236562521	1.832074543568198e-22
-0.4965136885000021	1.8329284781633563e-22
-0.4964526533437521	1.8330494040474085e-22
-0.4963916181875021	1.832630011380166e-22
-0.4963305830312521	1.8319401642330118e-22
-0.4962695478750021	1.8312680224563403e-22
-0.4962085127187521	1.830858418309103e-22
-0.4961474775625021	1.8308616773580462e-22
-0.4960864424062521	1.8313035939740835e-22
-0.4960254072500021	1.8320825327973021e-22
-0.4959643720937521	1.8329937138298125e-22
-0.4959033369375021	1.8337749411252502e-22
-0.4958423017812521	1.8341635761483325e-22
-0.4957812666250021	1.83395237968444e-22
-0.4957202314687521	1.8330323595777304e-22
-0.4956591963125021	1.8314137692630819e-22
-0.4955981611562521	1.8292212438733622e-22
-0.4955371260000021	1.826664686920707e-22
-0.4954760908437521	1.8239926755867e-22
-0.4954150556875021	1.8214387210083442e-22
-0.4953540205312521	1.8191719815151505e-22
-0.4952929853750021	1.8172627992320255e-22
-0.4952319502187521	1.8156700587396344e-22
-0.4951709150625021	1.8142525939296986e-22
-0.4951098799062521	1.8128016732041315e-22
-0.4950488447500021	1.8110871005424411e-22
-0.4949878095937521	1.8089067588936351e-22
-0.4949267744375021	1.8061289968078833e-22
-0.4948657392812521	1.8027190061442166e-22
-0.4948047041250021	1.798743917190825e-22
-0.4947436689687521	1.794356038029483e-22
-0.4946826338125021	1.7897583682432006e-22
-0.4946215986562521	1.7851601594593327e-22
-0.4945605635000021	1.7807322347016614e-22
-0.4944995283437521	1.7765716397755583e-22
-0.4944384931875021	1.7726829046280732e-22
-0.4943774580312521	1.7689794506384615e-22
-0.4943164228750021	1.765304378103444e-22
-0.4942553877187521	1.761465725857799e-22
-0.4941943525625021	1.7572783077456273e-22
-0.4941333174062521	1.752603054239689e-22
-0.4940722822500021	1.7473755486063045e-22
-0.4940112470937521	1.741617939787232e-22
-0.4939502119375021	1.735432091072207e-22
-0.4938891767812521	1.728975944397759e-22
-0.4938281416250021	1.7224285783614938e-22
-0.4937671064687521	1.715951641629249e-22
-0.4937060713125021	1.7096555052950932e-22
-0.4936450361562521	1.7035772281048356e-22
-0.4935840010000021	1.6976746640005521e-22
-0.4935229658437521	1.6918375603973073e-22
-0.4934619306875021	1.685912846712027e-22
-0.4934008955312521	1.6797383602619568e-22
-0.4933398603750021	1.673177656963182e-22
-0.4932788252187521	1.6661484699190694e-22
-0.4932177900625021	1.6586388938820277e-22
-0.4931567549062521	1.6507081944269368e-22
-0.4930957197500021	1.6424725104527138e-22
-0.4930346845937521	1.6340788705999628e-22
-0.4929736494375021	1.6256733377241027e-22
-0.4929126142812521	1.6173702073082935e-22
-0.4928515791250021	1.6092287439524938e-22
-0.4927905439687521	1.6012421923875808e-22
-0.4927295088125021	1.593341097755453e-22
-0.4926684736562521	1.5854098537355778e-22
-0.4926074385000021	1.577312559833372e-22
-0.4925464033437521	1.5689223893161422e-22
-0.4924853681875021	1.5601482325564501e-22
-0.4924243330312521	1.550953164499771e-22
-0.4923632978750021	1.541360994514652e-22
-0.4923022627187521	1.5314497369590543e-22
-0.4922412275625021	1.5213337730939748e-22
-0.4921801924062521	1.511138901866347e-22
-0.4921191572500021	1.5009757791080681e-22
-0.4920581220937521	1.4909172891794654e-22
-0.4919970869375021	1.4809844513357648e-22
-0.4919360517812521	1.4711436574020526e-22
-0.4918750166250021	1.4613154278834112e-22
-0.4918139814687521	1.4513924365652835e-22
-0.4917529463125021	1.4412629337496489e-22
-0.4916919111562521	1.4308345155124067e-22
-0.4916308760000021	1.4200530804512556e-22
-0.4915698408437521	1.40891321457365e-22
-0.4915088056875021	1.3974581484118596e-22
-0.4914477705312521	1.3857694937492914e-22
-0.4913867353750021	1.3739492094725947e-22
-0.4913257002187521	1.362097939606089e-22
-0.4912646650625021	1.350294381011779e-22
-0.4912036299062521	1.3385798443413024e-22
-0.4911425947500021	1.326951024675581e-22
-0.4910815595937521	1.315362244511406e-22
-0.4910205244375021	1.3037364114728012e-22
-0.4909594892812521	1.2919821411508176e-22
-0.4908984541250021	1.2800132864189474e-22
-0.4908374189687521	1.2677667817066214e-22
-0.4907763838125021	1.2552151715514147e-22
-0.4907153486562521	1.24237131867427e-22
-0.4906543135000021	1.229284581305335e-22
-0.4905932783437521	1.2160296904503448e-22
-0.4905322431875021	1.2026908994178323e-22
-0.4904712080312521	1.1893446662911567e-22
-0.4904101728750021	1.1760443982497071e-22
-0.4903491377187521	1.1628104388236462e-22
-0.4902881025625021	1.1496273058730045e-22
-0.4902270674062521	1.136448451370016e-22
-0.4901660322500021	1.1232071349984585e-22
-0.4901049970937521	1.1098308848073924e-22
-0.4900439619375021	1.096256544355774e-22
-0.4899829267812521	1.0824429699512732e-22
-0.4899218916250021	1.068378840906374e-22
-0.4898608564687521	1.0540840450162233e-22
-0.4897998213125021	1.0396047386032448e-22
-0.4897387861562521	1.025003367382815e-22
-0.4896777510000021	1.0103457051150742e-22
-0.4896167158437521	9.956877463897031e-23
-0.4895556806875021	9.810651818115215e-23
-0.4894946455312521	9.66487336646797e-23
-0.4894336103750021	9.51936554001555e-23
-0.4893725752187521	9.373729764988719e-23
-0.4893115400625021	9.227436274283496e-23
-0.4892505049062521	9.07993734167918e-23
-0.4891894697500021	8.930778581189218e-23
-0.4891284345937521	8.779687595082679e-23
-0.4890673994375021	8.626623337730985e-23
-0.4890063642812521	8.471776619729486e-23
-0.4889453291250021	8.315524867337949e-23
-0.4888842939687521	8.158352988258141e-23
-0.4888232588125021	8.000756570125285e-23
-0.4887622236562521	7.843147973233489e-23
-0.4887011885000021	7.685783487887814e-23
-0.4886401533437521	7.528722831075406e-23
-0.4885791181875021	7.371827752021706e-23
-0.4885180830312521	7.214799640279413e-23
-0.4884570478750021	7.057246715233328e-23
-0.4883960127187521	6.898765522370857e-23
-0.4883349775625021	6.739020541341153e-23
-0.4882739424062521	6.577807883107155e-23
-0.4882129072500021	6.41509211530965e-23
-0.4881518720937521	6.251009335545641e-23
-0.4880908369375021	6.085836452825712e-23
-0.4880298017812521	5.919935072516601e-23
-0.4879687666250021	5.753682858293639e-23
-0.4879077314687521	5.587405142953564e-23
-0.4878466963125021	5.42131885610215e-23
-0.4877856611562521	5.255498450666389e-23
-0.4877246260000021	5.089869253711502e-23
-0.4876635908437521	4.92422939663967e-23
-0.4876025556875021	4.758295409358941e-23
-0.4875415205312521	4.591760843929448e-23
-0.4874804853750021	4.424356258029211e-23
-0.4874194502187521	4.255899919569405e-23
-0.4873584150625021	4.086330847437164e-23
-0.4872973799062521	3.915719740821943e-23
-0.4872363447500021	3.7442555468742875e-23
-0.4871753095937521	3.572209649515267e-23
-0.4871142744375021	3.399886326913768e-23
-0.4870532392812521	3.227569091555779e-23
-0.4869922041250021	3.0554711571283705e-23
-0.4869311689687521	2.883699541615715e-23
-0.4868701338125021	2.7122405198401994e-23
-0.4868090986562521	2.54096802149407e-23
-0.4867480635000021	2.369671548146973e-23
-0.4866870283437521	2.19809846460156e-23
-0.4866259931875021	2.0260043213844742e-23
-0.4865649580312521	1.8532019478466632e-23
-0.4865039228750021	1.6795990832448203e-23
-0.4864428877187521	1.5052174637232643e-23
-0.4863818525625021	1.3301903980004124e-23
-0.4863208174062521	1.1547394948465131e-23
-0.4862597822500021	9.791345804368627e-24
-0.4861987470937521	8.036443299042106e-24
-0.4861377119375021	6.284877988804739e-24
-0.4860766767812521	4.53796188614594e-24
-0.4860156416250021	2.7959116793036985e-24
-0.4859546064687521	1.0578370076676695e-24
-0.4858935713125021	-6.780561405997656e-25
-0.4858325361562521	-2.414078676123669e-24
-0.4857715010000021	-4.152568703208871e-24
-0.4857104658437521	-5.8954035626828826e-24
-0.4856494306875021	-7.643601203862621e-24
-0.4855883955312521	-9.397088904427184e-24
-0.4855273603750021	-1.1154695586569634e-23
-0.4854663252187521	-1.2914365021108611e-23
-0.4854052900625021	-1.46735453485805e-23
-0.4853442549062521	-1.642967590227133e-23
-0.4852832197500021	-1.8180665174118236e-23
-0.4852221845937521	-1.9925269492813689e-23
-0.4851611494375021	-2.1663308546617546e-23
-0.4851001142812521	-2.3395671707604663e-23
-0.4850390791250021	-2.5124100655515894e-23
-0.4849780439687521	-2.685078980826938e-23
-0.4849170088125021	-2.857789566587595e-23
-0.4848559736562521	-3.030705797583922e-23
-0.4847949385000021	-3.2039032756665834e-23
-0.4847339033437521	-3.377352015992897e-23
-0.4846728681875021	-3.550921587173737e-23
-0.4846118330312521	-3.724406390400581e-23
-0.4845507978750021	-3.897566180688303e-23
-0.4844897627187521	-4.070173441312756e-23
-0.4844287275625021	-4.242057736058655e-23
-0.4843676924062521	-4.4131381985248794e-23
-0.4843066572500021	-4.58343633742804e-23
-0.4842456220937521	-4.753066070519166e-23
-0.4841845869375021	-4.9222041613950605e-23
-0.4841235517812521	-5.09104772979669e-23
-0.4840625166250021	-5.259768163803906e-23
-0.4840014814687521	-5.428471727004181e-23
-0.4839404463125021	-5.597174993569196e-23
-0.4838794111562521	-5.765799984819089e-23
-0.4838183760000021	-5.934190173471668e-23
-0.4837573408437521	-6.102143362224042e-23
-0.4836963056875021	-6.269453261065965e-23
-0.4836352705312521	-6.43595105013225e-23
-0.4835742353750021	-6.601538793625763e-23
-0.4835132002187521	-6.76620695148411e-23
-0.4834521650625021	-6.930031367341228e-23
-0.4833911299062521	-7.093150934153318e-23
-0.4833300947500021	-7.255731655147597e-23
-0.4832690595937521	-7.417925225406545e-23
-0.4832080244375021	-7.579831425199415e-23
-0.4831469892812521	-7.741473017480254e-23
-0.4830859541250021	-7.902789434905004e-23
-0.4830249189687521	-8.063649833244011e-23
-0.4829638838125021	-8.223880579390099e-23
-0.4829028486562521	-8.38330170419513e-23
-0.4828418135000021	-8.541765767740343e-23
-0.4827807783437521	-8.699189378557063e-23
-0.4827197431875021	-8.855568348778326e-23
-0.4826587080312521	-9.010973240551123e-23
-0.4825976728750021	-9.165528440018707e-23
-0.4825366377187521	-9.319379922022432e-23
-0.4824756025625021	-9.472657760664854e-23
-0.4824145674062521	-9.625442282470033e-23
-0.4823535322500021	-9.777741902064969e-23
-0.4822924970937521	-9.929487379256705e-23
-0.4822314619375021	-1.0080544763177425e-22
-0.4821704267812521	-1.0230744366840828e-22
-0.4821093916250021	-1.0379918564609538e-22
-0.4820483564687521	-1.0527939097586259e-22
-0.4819873213125021	-1.067474426988055e-22
-0.4819262861562521	-1.0820350288246812e-22
-0.4818652510000021	-1.096484492397169e-22
-0.4818042158437521	-1.110836435692006e-22
-0.4817431806875021	-1.1251058440838596e-22
-0.4816821455312521	-1.1393052476522662e-22
-0.4816211103750021	-1.1534413870180306e-22
-0.4815600752187521	-1.167513132295828e-22
-0.4814990400625021	-1.1815112467036455e-22
-0.4814380049062521	-1.1954201956005917e-22
-0.4813769697500021	-1.2092215190863748e-22
-0.4813159345937521	-1.2228978187228042e-22
-0.4812548994375021	-1.236436524659567e-22
-0.4811938642812521	-1.2498327329756361e-22
-0.4811328291250021	-1.263090298107773e-22
-0.4810717939687521	-1.2762207626011205e-22
-0.4810107588125021	-1.2892404972883691e-22
-0.4809497236562521	-1.3021667383041403e-22
-0.4808886885000021	-1.3150132750448291e-22
-0.4808276533437521	-1.3277867963202552e-22
-0.4807666181875021	-1.3404848860411102e-22
-0.4807055830312521	-1.353096166607518e-22
-0.4806445478750021	-1.3656025140562319e-22
-0.4805835127187521	-1.3779828501809715e-22
-0.4805224775625021	-1.390217691755527e-22
-0.4804614424062521	-1.4022934405234604e-22
-0.4804004072500021	-1.4142054177149752e-22
-0.4803393720937521	-1.4259588829976703e-22
-0.4802783369375021	-1.4375677837081682e-22
-0.4802173017812521	-1.449051513445183e-22
-0.4801562666250021	-1.4604302962884445e-22
-0.4800952314687521	-1.4717202238308885e-22
-0.4800341963125021	-1.482929209068184e-22
-0.4799731611562521	-1.4940547978032365e-22
-0.4799121260000021	-1.5050843007180388e-22
-0.4798510908437521	-1.515997274385842e-22
-0.4797900556875021	-1.5267698318409117e-22
-0.4797290205312521	-1.5373798188961804e-22
-0.4796679853750021	-1.5478117152956286e-22
-0.4796069502187521	-1.5580601177695e-22
-0.4795459150625021	-1.568130938466655e-22
-0.4794848799062521	-1.578040016329706e-22
-0.4794238447500021	-1.5878094337140061e-22
-0.4793628095937521	-1.5974623533772414e-22
-0.4793017744375021	-1.6070175495475036e-22
-0.4792407392812521	-1.6164848515613564e-22
-0.4791797041250021	-1.6258625259524108e-22
-0.4791186689687521	-1.6351372610172309e-22
-0.4790576338125021	-1.644286840032021e-22
-0.4789965986562521	-1.653284914092767e-22
-0.4789355635000021	-1.6621067687048633e-22
-0.4788745283437521	-1.6707347865561945e-22
-0.4788134931875021	-1.679162389370062e-22
-0.4787524580312521	-1.6873955268417834e-22
-0.4786914228750021	-1.6954513084469836e-22
-0.4786303877187521	-1.7033540558133532e-22
-0.4785693525625021	-1.711129679629918e-22
-0.4785083174062521	-1.7187996469061126e-22
-0.4784472822500021	-1.7263758509662903e-22
-0.4783862470937521	-1.7338575536168065e-22
-0.4783252119375021	-1.7412311966140323e-22
-0.4782641767812521	-1.7484731814177665e-22
-0.4782031416250021	-1.755554975384444e-22
-0.4781421064687521	-1.7624494157082888e-22
-0.4780810713125021	-1.7691368007687934e-22
-0.4780200361562521	-1.7756093631333874e-22
-0.4779590010000021	-1.781873080880427e-22
-0.4778979658437521	-1.7879463476676247e-22
-0.4778369306875021	-1.793855764393032e-22
-0.4777758955312521	-1.79963001893828e-22
-0.4777148603750021	-1.8052932143293873e-22
-0.4776538252187521	-1.810859151390443e-22
-0.4775927900625021	-1.816327891696861e-22
-0.4775317549062521	-1.8216854019661142e-22
-0.4774707197500021	-1.8269064334306332e-22
-0.4774096845937521	-1.8319600593529107e-22
-0.4773486494375021	-1.8368166050697703e-22
-0.4772876142812521	-1.8414543702045457e-22
-0.4772265791250021	-1.8458646133763677e-22
-0.4771655439687521	-1.8500536437577445e-22
-0.4771045088125021	-1.8540414985281202e-22
-0.4770434736562521	-1.8578574501771734e-22
-0.4769824385000021	-1.861533321484104e-22
-0.4769214033437521	-1.8650961201934228e-22
-0.4768603681875021	-1.8685616664322004e-22
-0.4767993330312521	-1.8719306811266683e-22
-0.4767382978750021	-1.8751882898122835e-22
-0.4766772627187521	-1.878307114110448e-22
-0.4766162275625021	-1.881253286269569e-22
-0.4765551924062521	-1.8839940567345755e-22
-0.4764941572500021	-1.8865052768045402e-22
-0.4764331220937521	-1.8887770286878133e-22
-0.4763720869375021	-1.8908160785208097e-22
-0.4763110517812521	-1.8926445429412726e-22
-0.4762500166250021	-1.8942950199509457e-22
-0.4761889814687521	-1.8958032460188533e-22
-0.4761279463125021	-1.8971999123041838e-22
-0.4760669111562521	-1.8985034889317409e-22
-0.4760058760000021	-1.8997157256900296e-22
-0.4759448408437521	-1.9008209119811035e-22
-0.4758838056875021	-1.901789118972017e-22
-0.4758227705312521	-1.9025827583057987e-22
-0.4757617353750021	-1.9031650262464609e-22
-0.4757007002187521	-1.9035083125532902e-22
-0.4756396650625021	-1.903600647606218e-22
-0.4755786299062521	-1.903448716536671e-22
-0.4755175947500021	-1.9030766910351405e-22
-0.4754565595937521	-1.902521031494591e-22
-0.4753955244375021	-1.9018223768018876e-22
-0.4753344892812521	-1.901016357670292e-22
-0.4752734541250021	-1.90012539496849e-22
-0.4752124189687521	-1.89915332321431e-22
-0.4751513838125021	-1.8980841287520049e-22
-0.4750903486562521	-1.896885202429042e-22
-0.4750293135000021	-1.8955144440418685e-22
-0.4749682783437521	-1.893929673349392e-22
-0.4749072431875021	-1.892098252921135e-22
-0.4748462080312521	-1.8900047140360315e-22
-0.4747851728750021	-1.8876546273211758e-22
-0.4747241377187521	-1.8850738031706611e-22
-0.4746631025625021	-1.8823029064305066e-22
-0.4746020674062521	-1.8793885854631657e-22
-0.4745410322500021	-1.8763730366660927e-22
-0.4744799970937521	-1.8732843795831829e-22
-0.4744189619375021	-1.8701300667858053e-22
-0.4743579267812521	-1.8668948184250292e-22
-0.4742968916250021	-1.8635436241598248e-22
-0.4742358564687521	-1.8600292849520607e-22
-0.4741748213125021	-1.8563029002042457e-22
-0.4741137861562521	-1.8523249657179724e-22
-0.4740527510000021	-1.8480745608426163e-22
-0.4739917158437521	-1.8435545432819348e-22
-0.4739306806875021	-1.838791507498524e-22
-0.4738696455312521	-1.8338303807045243e-22
-0.4738086103750021	-1.8287247905830133e-22
-0.4737475752187521	-1.823525249727394e-22
-0.4736865400625021	-1.8182677358782219e-22
-0.4736255049062521	-1.8129653364770976e-22
-0.4735644697500021	-1.8076048777703235e-22
-0.4735034345937521	-1.8021493448785932e-22
-0.4734423994375021	-1.796545761782932e-22
-0.4733813642812521	-1.790736892455377e-22
-0.4733203291250021	-1.7846741619803157e-22
-0.4732592939687521	-1.7783289197758227e-22
-0.4731982588125021	-1.7716994831350377e-22
-0.4731372236562521	-1.7648123106413583e-22
-0.4730761885000021	-1.757716892538491e-22
-0.4730151533437521	-1.7504752823450444e-22
-0.4729541181875021	-1.743148500526112e-22
-0.4728930830312521	-1.735782834585425e-22
-0.4728320478750021	-1.7283991353730821e-22
-0.4727710127187521	-1.7209876480203388e-22
-0.4727099775625021	-1.7135096346500295e-22
-0.4726489424062521	-1.7059054685750881e-22
-0.4725879072500021	-1.6981076213433471e-22
-0.4725268720937521	-1.6900558616424403e-22
-0.4724658369375021	-1.6817111971866034e-22
-0.4724048017812521	-1.6730653853958346e-22
-0.4723437666250021	-1.664143842224845e-22
-0.4722827314687521	-1.6550009822296804e-22
-0.4722216963125021	-1.6457087906759462e-22
-0.4721606611562521	-1.6363411663448754e-22
-0.4720996260000021	-1.6269574361069832e-22
-0.4720385908437521	-1.6175887016703147e-22
-0.4719775556875021	-1.6082302621565104e-22
-0.4719165205312521	-1.5988419531634894e-22
-0.4718554853750021	-1.5893564721393141e-22
-0.4717944502187521	-1.5796940823680362e-22
