Time	Frequency
-0.5000041216875033	0.32656894616705534
-0.4999430865312533	0.3222702714761829
-0.4998820513750033	0.31799122609991276
-0.4998210162187533	0.31372159967998936
-0.4997599810625033	0.3094353833728526
-0.4996989459062533	0.305102510512478
-0.4996379107500033	0.3007023108875575
-0.4995768755937533	0.2962327329249405
-0.4995158404375033	0.2917113383837923
-0.4994548052812533	0.2871677245590174
-0.4993937701250033	0.2826307319018671
-0.4993327349687533	0.2781159923834659
-0.4992716998125033	0.2736192370414493
-0.4992106646562533	0.2691183082599974
-0.4991496295000033	0.2645829579977216
-0.4990885943437533	0.2599881152648561
-0.4990275591875033	0.25532489537146463
-0.4989665240312533	0.2506046023600315
-0.4989054888750033	0.24585399377434725
-0.4988444537187533	0.24110391297429423
-0.4987834185625033	0.23637623601795762
-0.4987223834062533	0.23167469245449052
-0.4986613482500033	0.2269834318749996
-0.4986003130937533	0.22227395602591354
-0.4985392779375033	0.21751745070685288
-0.4984782427812533	0.2126972079563192
-0.4984172076250033	0.20781583256964356
-0.4983561724687533	0.20289421713628822
-0.4982951373125033	0.19796279016335458
-0.4982341021562533	0.1930488095563754
-0.4981730670000033	0.18816509659675554
-0.4981120318437533	0.18330489042395037
-0.4980509966875033	0.17844492342818355
-0.4979899615312533	0.17355543052910083
-0.4979289263750033	0.1686128365224388
-0.4978678912187533	0.1636097345344924
-0.4978068560625033	0.15855802309124892
-0.4977458209062533	0.1534839577639301
-0.4976847857500033	0.1484172484972054
-0.4976237505937533	0.14337885042254167
-0.4975627154375033	0.1383725407225402
-0.4975016802812533	0.13338367141367666
-0.4974406451250033	0.12838556341782828
-0.4973796099687533	0.12335087307740976
-0.4973185748125033	0.11826309542735623
-0.4972575396562533	0.11312339336102914
-0.4971965045000033	0.10795005825850533
-0.4971354693437533	0.10277091993317711
-0.4970744341875033	0.09761189699804085
-0.4970133990312533	0.09248651519677
-0.4969523638750033	0.08739072417527852
-0.4968913287187533	0.08230502488957578
-0.4968302935625033	0.07720289681892142
-0.4967692584062533	0.0720619491836088
-0.4967082232500033	0.06687318768995636
-0.4966471880937533	0.06164463955201202
-0.4965861529375033	0.056397912290511165
-0.4965251177812533	0.05115924458044037
-0.4964640826250033	0.04594886951161542
-0.4964030474687533	0.040773070462065436
-0.4963420123125033	0.035622090329049394
-0.4962809771562533	0.030474600337256654
-0.4962199420000033	0.02530680407123912
-0.4961589068437533	0.020102399228705048
-0.4960978716875033	0.014859241111893176
-0.4960368365312533	0.009590023385743437
-0.4959758013750033	0.004316900414407445
-0.4959147662187533	-0.0009375962698269637
-0.4958537310625033	-0.006159573230183041
-0.4957926959062533	-0.011349028925083878
-0.4957316607500033	-0.01651930094391791
-0.4956706255937533	-0.021691104205724256
-0.4956095904375033	-0.026883739038241997
-0.4955485552812533	-0.03210710888697434
-0.4954875201250033	-0.037357770614634696
-0.4954264849687533	-0.04262055771682397
-0.4953654498125033	-0.047874946607838115
-0.4953044146562533	-0.053103392354815974
-0.4952433795000033	-0.05829820564098954
-0.4951823443437533	-0.06346420159341953
-0.4951213091875033	-0.06861615626203778
-0.4950602740312533	-0.07377230791058716
-0.4949992388750033	-0.07894664174818969
-0.4949382037187533	-0.08414312425709487
-0.4948771685625033	-0.08935425296823786
-0.4948161334062533	-0.0945643880083674
-0.4947550982500033	-0.09975627752235629
-0.4946940630937533	-0.1049179699278214
-0.4946330279375033	-0.11004731324248955
-0.4945719927812533	-0.11515230470562142
-0.4945109576250033	-0.12024726630534067
-0.4944499224687533	-0.12534657099117616
-0.4943888873125033	-0.1304585785334684
-0.4943278521562533	-0.13558224129030574
-0.4942668170000033	-0.1407077339385003
-0.4942057818437533	-0.14582071936884347
-0.4941447466875033	-0.15090827969295137
-0.4940837115312533	-0.15596398133918307
-0.4940226763750033	-0.16099006472814129
-0.4939616412187533	-0.16599598713591943
-0.4939006060625033	-0.17099405308845922
-0.4938395709062533	-0.17599404091350676
-0.4937785357500033	-0.1809990799002656
-0.4937175005937533	-0.18600445435654694
-0.4936564654375033	-0.19099973361016795
-0.4935954302812533	-0.19597319154051465
-0.4935343951250033	-0.20091658127355227
-0.4934733599687533	-0.2058282833111699
-0.4934123248125033	-0.21071354583801874
-0.4933512896562533	-0.21558179291413057
-0.4932902545000033	-0.22044229602722182
-0.4932292193437533	-0.22530012580659986
-0.4931681841875033	-0.23015403584690733
-0.4931071490312533	-0.23499708123723512
-0.4930461138750033	-0.23981962157828005
-0.4929850787187533	-0.24461335910155535
-0.4929240435625033	-0.24937466111795994
-0.4928630084062533	-0.2541057642522419
-0.4928019732500033	-0.25881341024756127
-0.4927409380937533	-0.263505591290459
-0.4926799029375033	-0.2681878881258364
-0.4926188677812533	-0.2728609905797734
-0.4925578326250033	-0.2775204140343476
-0.4924967974687533	-0.28215847187396154
-0.4924357623125033	-0.2867675700526305
-0.4923747271562533	-0.29134334795209393
-0.4923136920000033	-0.29588632443621576
-0.4922526568437533	-0.3004013536698536
-0.4921916216875033	-0.30489517267831406
-0.4921305865312533	-0.309373204213608
-0.4920695513750033	-0.31383705216955826
-0.4920085162187533	-0.3182837407926522
-0.4919474810625033	-0.3227069806843454
-0.4918864459062533	-0.3270998707609024
-0.4918254107500033	-0.33145781368511634
-0.4917643755937533	-0.3357803569012433
-0.4917033404375033	-0.340071157668443
-0.4916423052812533	-0.34433611220005345
-0.4915812701250033	-0.34858053604477157
-0.4915202349687533	-0.35280665295578795
-0.4914591998125033	-0.3570124623841008
-0.4913981646562533	-0.36119250599517466
-0.4913371295000033	-0.36534019909238485
-0.4912760943437533	-0.3694506298305582
-0.4912150591875033	-0.3735225870762535
-0.4911540240312533	-0.3775589456546845
-0.4910929888750033	-0.38156522374243973
-0.4910319537187533	-0.38554696687758994
-0.4909709185625033	-0.38950712192034975
-0.4909098834062533	-0.393444553334784
-0.4908488482500033	-0.3973543828200907
-0.4907878130937533	-0.4012300161589895
-0.4907267779375033	-0.4050659391867085
-0.4906657427812533	-0.4088600212279566
-0.4906047076250033	-0.41261431863372255
-0.4905436724687533	-0.41633405031683834
-0.4904826373125033	-0.4200251909016309
-0.4904216021562533	-0.42369171213323154
-0.4903605670000033	-0.4273336673352446
-0.4902995318437533	-0.4309469796698545
-0.4902384966875033	-0.4345250692918936
-0.4901774615312533	-0.4380616088818871
-0.4901164263750033	-0.44155317095240776
-0.4900553912187533	-0.4450006018510795
-0.4899943560625033	-0.4484085438660712
-0.4899333209062533	-0.45178332277777744
-0.4898722857500033	-0.4551300930565843
-0.4898112505937533	-0.4584504678196139
-0.4897502154375033	-0.46174168353082734
-0.4896891802812533	-0.46499766989504265
-0.4896281451250033	-0.46821154080776156
-0.4895671099687533	-0.471378418900783
-0.4895060748125033	-0.47449739688725207
-0.4894450396562533	-0.4775718111515129
-0.4893840045000033	-0.480607703913506
-0.4893229693437533	-0.48361112735403683
-0.4892619341875033	-0.48658545971858624
-0.4892008990312533	-0.48952988441424855
-0.4891398638750033	-0.49243965613041635
-0.4890788287187533	-0.4953080241810426
-0.4890177935625033	-0.49812899297237906
-0.4889567584062533	-0.5008997393694238
-0.4888957232500033	-0.5036216629821203
-0.4888346880937533	-0.5062996492891239
-0.4887736529375033	-0.5089398736832562
-0.4887126177812533	-0.5115470913048591
-0.4886515826250033	-0.5141225856337134
-0.4885905474687533	-0.5166636140919942
-0.4885295123125033	-0.5191645278795018
-0.4884684771562533	-0.5216190834897849
-0.4884074420000033	-0.5240229713862137
-0.4883464068437533	-0.52637548657286
-0.4882853716875033	-0.5286796455038418
-0.4882243365312533	-0.5309407360453454
-0.4881633013750033	-0.5331639679298751
-0.4881022662187533	-0.5353522463894123
-0.4880412310625033	-0.5375049826887286
-0.4879801959062533	-0.5396183787050804
-0.4879191607500033	-0.5416870103632233
-0.4878581255937533	-0.5437060326783956
-0.4877970904375033	-0.5456730836775746
-0.4877360552812533	-0.5475890908644525
-0.4876750201250033	-0.5494576819351082
-0.4876139849687533	-0.5512835099483453
-0.4875529498125033	-0.55307023282735
-0.4874919146562533	-0.5548189972633873
-0.4874308795000033	-0.5565280309814717
-0.4873698443437533	-0.558193452504317
-0.4873088091875033	-0.5598108967864595
-0.4872477740312533	-0.5613772488542602
-0.4871867388750033	-0.5628917783749441
-0.4871257037187533	-0.5643562448700357
-0.4870646685625033	-0.56577398550688
-0.4870036334062533	-0.5671484199735697
-0.4869425982500033	-0.5684816181735215
-0.4868815630937533	-0.5697735066138366
-0.4868205279375033	-0.5710219904446787
-0.4867594927812533	-0.5722238804852922
-0.4866984576250033	-0.5733762015733931
-0.4866374224687533	-0.5744773257826321
-0.4865763873125033	-0.5755274776663061
-0.4865153521562533	-0.5765284580511365
-0.4864543170000033	-0.5774827651242221
-0.4863932818437533	-0.5783925120589035
-0.4863322466875033	-0.5792585889628432
-0.4862712115312533	-0.5800803849523448
-0.4862101763750033	-0.5808561301331354
-0.4861491412187533	-0.5815836583254249
-0.4860881060625033	-0.5822612511291615
-0.4860270709062533	-0.5828882339348382
-0.4859660357500033	-0.5834651156970664
-0.4859050005937533	-0.5839932542126809
-0.4858439654375033	-0.5844742217344853
-0.4857829302812533	-0.5849091558148795
-0.4857218951250033	-0.5852983567409313
-0.4856608599687533	-0.585641257357629
-0.4855998248125033	-0.5859367249963195
-0.4855387896562533	-0.5861835354216868
-0.4854777545000033	-0.5863808138664058
-0.4854167193437533	-0.5865282789128659
-0.4853556841875033	-0.5866262389807617
-0.4852946490312533	-0.5866754013000195
-0.4852336138750033	-0.5866765910612443
-0.4851725787187533	-0.5866304748591175
-0.4851115435625033	-0.586537371621782
-0.4850505084062533	-0.5863971903056294
-0.4849894732500033	-0.5862094835041662
-0.4849284380937533	-0.5859735894095127
-0.4848674029375033	-0.5856888271710209
-0.4848063677812533	-0.5853547060144985
-0.4847453326250033	-0.5849710999154163
-0.4846842974687533	-0.5845383233071113
-0.4846232623125033	-0.5840570606684283
-0.4845622271562533	-0.5835281552499809
-0.4845011920000033	-0.5829523155892447
-0.4844401568437533	-0.5823298385344551
-0.4843791216875033	-0.5816604619392604
-0.4843180865312533	-0.5809434296896858
-0.4842570513750033	-0.5801777728695818
-0.4841960162187533	-0.5793627182805504
-0.4841349810625033	-0.5784980649221042
-0.4840739459062533	-0.57758435026892
-0.4840129107500033	-0.5766226992222897
-0.4839518755937533	-0.5756143917607474
-0.4838908404375033	-0.5745603267145912
-0.4838298052812533	-0.5734606242609401
-0.4837687701250033	-0.5723145529260609
-0.4837077349687533	-0.5711208330881223
-0.4836466998125033	-0.5698782203983882
-0.4835856646562533	-0.5685861283591673
-0.4835246295000033	-0.5672449927688198
-0.4834635943437533	-0.5658561758687343
-0.4834025591875033	-0.5644214184596662
-0.4833415240312533	-0.5629420796896466
-0.4832804888750033	-0.5614185203810129
-0.4832194537187533	-0.5598499349409173
-0.4831584185625033	-0.5582347322934512
-0.4830973834062533	-0.5565713022493619
-0.4830363482500033	-0.5548588378267736
-0.4829753130937533	-0.5530978254123512
-0.4829142779375033	-0.5512899317372433
-0.4828532427812533	-0.549437329723897
-0.4827922076250033	-0.5475417623791137
-0.4827311724687533	-0.5456037521038263
-0.4826701373125033	-0.5436223442038497
-0.4826091021562533	-0.5415955530945802
-0.4825480670000033	-0.5395213257687043
-0.4824870318437533	-0.5373985894002993
-0.4824259966875033	-0.535227916500727
-0.4823649615312533	-0.5330114454535806
-0.4823039263750033	-0.5307520109458633
-0.4822428912187533	-0.5284518898152474
-0.4821818560625033	-0.5261117582082152
-0.4821208209062533	-0.5237303466213366
-0.4820597857500033	-0.5213050159897425
-0.4819987505937533	-0.5188330445425697
-0.4819377154375033	-0.5163130230105879
-0.4818766802812533	-0.5137456878870199
-0.4818156451250033	-0.5111337790004495
-0.4817546099687533	-0.5084809556256432
-0.4816935748125033	-0.5057902304343724
-0.4816325396562533	-0.503062595347457
-0.4815715045000033	-0.5002964979378338
-0.4815104693437533	-0.4974885125513149
-0.4814494341875033	-0.4946349716593878
-0.4813883990312533	-0.49173381381528225
-0.4813273638750033	-0.4887857583294188
-0.4812663287187533	-0.4857942203370987
-0.4812052935625033	-0.4827639585292754
-0.4811442584062533	-0.4796990211850758
-0.4810832232500033	-0.4766009181753607
-0.4810221880937533	-0.47346788888225344
-0.4809611529375033	-0.4702956646232472
-0.4809001177812533	-0.46707944283868746
-0.4808390826250033	-0.4638162033238641
-0.4807780474687533	-0.46050631990665086
-0.4807170123125033	-0.457153692351895
-0.4806559771562533	-0.45376425003114784
-0.4805949420000033	-0.45034343190007514
-0.4805339068437533	-0.44689376096906414
-0.4804728716875033	-0.44341366369745794
-0.4804118365312533	-0.43989814085802464
-0.4803508013750033	-0.4363410361285158
-0.4802897662187533	-0.43273793323632753
-0.4802287310625033	-0.4290883841462496
-0.4801676959062533	-0.42539641186722776
-0.4801066607500033	-0.4216690080571219
-0.4800456255937533	-0.417913210856008
-0.4799845904375033	-0.41413300122309393
-0.4799235552812533	-0.4103274858305109
-0.4798625201250033	-0.40649127328921114
-0.4798014849687533	-0.4026168898341336
-0.4797404498125033	-0.398698226047051
-0.4796794146562533	-0.3947335217092135
-0.4796183795000033	-0.3907264591012824
-0.4795573443437533	-0.38668479863407107
-0.4794963091875033	-0.3826171645108193
-0.4794352740312533	-0.3785293574710963
-0.4793742388750033	-0.374421787281945
-0.4793132037187533	-0.3702892455855468
-0.4792521685625033	-0.36612322995379437
-0.4791911334062533	-0.36191583041594333
-0.4791300982500033	-0.35766344532310007
-0.4790690630937533	-0.353368650774101
-0.4790080279375033	-0.3490393608247802
-0.4789469927812533	-0.3446855878588082
-0.4788859576250033	-0.340315178533383
-0.4788249224687533	-0.3359304182490077
-0.4787638873125033	-0.331527056202312
-0.4787028521562533	-0.3270962264837117
-0.4786418170000033	-0.32262844625878195
-0.4785807818437533	-0.31811796362822886
-0.4785197466875033	-0.31356554501090705
-0.4784587115312533	-0.3089784185150937
-0.4783976763750033	-0.30436733770074775
-0.4783366412187533	-0.29974203434150487
-0.4782756060625033	-0.29510707534855535
-0.4782145709062533	-0.2904599535570918
-0.4781535357500033	-0.2857922598435727
-0.4780925005937533	-0.2810934728879248
-0.4780314654375033	-0.27635572689213206
-0.4779704302812533	-0.27157746003645533
-0.4779093951250033	-0.2667643410057073
-0.4778483599687533	-0.26192701989618944
-0.4777873248125033	-0.25707666207390817
-0.4777262896562533	-0.2522202467012989
-0.4776652545000033	-0.24735767906717926
-0.4776042193437533	-0.24248196796519
-0.4775431841875033	-0.2375824182551204
-0.4774821490312533	-0.23264945992869793
-0.4774211138750033	-0.22767897772307785
-0.4773600787187533	-0.2226742323794528
-0.4772990435625033	-0.2176445943034583
-0.4772380084062533	-0.21260168594946693
-0.4771769732500033	-0.20755456706287975
-0.4771159380937533	-0.20250603344100646
-0.4770549029375033	-0.19745164372819263
-0.4769938677812533	-0.19238185366347432
-0.4769328326250033	-0.1872862963367392
-0.4768717974687533	-0.182158372433157
-0.4768107623125033	-0.1769981859068029
-0.4767497271562533	-0.17181257077630271
-0.4766886920000033	-0.1666122596646816
-0.4766276568437533	-0.16140750240319482
-0.4765666216875033	-0.15620400675483911
-0.4765055865312533	-0.15100083682133378
-0.4764445513750033	-0.1457911068013319
-0.4763835162187533	-0.14056514955167446
-0.4763224810625033	-0.13531474653889622
-0.4762614459062533	-0.13003658581807695
-0.4762004107500033	-0.12473359656240839
-0.4761393755937533	-0.11941377213230606
-0.4760783404375033	-0.1140870282594273
-0.4760173052812533	-0.10876139353164602
-0.4759562701250033	-0.10344009190326568
-0.4758952349687533	-0.09812061926134892
-0.4758341998125033	-0.09279605464067371
-0.4757731646562533	-0.08745798104061976
-0.4757121295000033	-0.08209984534475953
-0.4756510943437533	-0.0767195310348259
-0.4755900591875033	-0.07132024703670044
-0.4755290240312533	-0.06590945206602546
-0.4754679888750033	-0.06049626019304474
-0.4754069537187533	-0.05508829405006143
-0.4753459185625033	-0.04968907860350114
-0.4752848834062533	-0.044296841135866856
-0.4752238482500033	-0.03890514009539192
-0.4751628130937533	-0.033505170047150604
-0.4751017779375033	-0.028089050150334558
-0.4750407427812533	-0.022653017957178355
-0.4749797076250033	-0.017199328882075426
-0.4749186724687533	-0.011736028713399035
-0.4748576373125033	-0.006274481693448526
-0.4747966021562533	-0.000825364241629183
-0.4747355670000033	0.004605458506602409
-0.4746745318437533	0.010019569928796808
-0.4746134966875033	0.015425935869311598
-0.4745524615312533	0.020837798075647555
-0.4744914263750033	0.02626741006647943
-0.4744303912187533	0.031720559378995115
-0.4743693560625033	0.037193216323546566
-0.4743083209062533	0.0426720432216533
-0.4742472857500033	0.048138989726654056
-0.4741862505937533	0.0535784267180292
-0.4741252154375033	0.0589839883867944
-0.4740641802812533	0.06436207930679243
-0.4740031451250033	0.0697301104399035
-0.4739421099687533	0.07510968920137905
-0.4738810748125033	0.08051730414733943
-0.4738200396562533	0.08595638764983925
-0.4737590045000033	0.09141439683318127
-0.4736979693437533	0.09686673219608441
-0.4736369341875033	0.1022864206291695
-0.4735758990312533	0.1076557259151611
-0.4735148638750033	0.11297462278421422
-0.4734538287187533	0.11826206259855825
-0.4733927935625033	0.12354886424559669
-0.4733317584062533	0.12886471419865594
-0.4732707232500033	0.1342246097220748
-0.4732096880937533	0.13962082557145536
-0.4731486529375033	0.14502447371359278
-0.4730876177812533	0.15039664560251612
-0.4730265826250033	0.15570485016046376
-0.4729655474687533	0.16093780793856222
-0.4729045123125033	0.16611181353353396
-0.4728434771562533	0.17126516746612713
-0.4727824420000033	0.1764423915758344
-0.4727214068437533	0.1816745954575549
-0.4726603716875033	0.1869644649707487
-0.4725993365312533	0.19228295574520288
-0.4725383013750033	0.19758000612244073
-0.4724772662187533	0.20280534206558673
-0.4724162310625033	0.20793065938172722
-0.4723551959062533	0.21296338253709568
-0.4722941607500033	0.21794537862841074
-0.4722331255937533	0.22293625049123644
-0.4721720904375033	0.22798770438005217
-0.4721110552812533	0.23311991108645352
-0.4720500201250033	0.23831050842687632
-0.4719889849687533	0.24350186125283002
-0.4719279498125033	0.24862437939442095
-0.4718669146562533	0.2536264398775414
-0.4718058795000033	0.2584980545510682
-0.4717448443437533	0.26327743988667535
-0.4716838091875033	0.2680365788076482
-0.4716227740312533	0.27285105211064614
-0.4715617388750033	0.27776671435750283
-0.4715007037187533	0.2827777766366785
-0.4714396685625033	0.28782651082395894
-0.4713786334062533	0.29282579161599
-0.4713175982500033	0.2976957085038106
-0.4712565630937533	0.30239880795767204
-0.4711955279375033	0.3069583845716088
-0.4711344927812533	0.31145099415043587
-0.4710734576250033	0.31597529353525117
-0.4710124224687533	0.32060979646376425
-0.4709513873125033	0.32537753418679366
-0.4708903521562533	0.33023340901068404
-0.4708293170000033	0.3350807673242478
-0.4707682818437533	0.3398111048252007
-0.4707072466875033	0.3443504890987974
-0.4706462115312533	0.34869280090375465
-0.4705851763750033	0.3529048327956762
-0.4705241412187533	0.35709995091142493
-0.4704631060625033	0.3613906439162714
-0.4704020709062533	0.3658398253121636
-0.4703410357500033	0.3704319196991509
-0.4702800005937533	0.37507685194432555
-0.4702189654375033	0.3796462574657066
-0.4701579302812533	0.38402728041894435
-0.4700968951250033	0.3881712373740487
-0.4700358599687533	0.3921160079236277
-0.4699748248125033	0.39597185703871346
-0.4699137896562533	0.3998759322786253
-0.4698527545000033	0.4039342547857864
-0.4697917193437533	0.4081757732344848
-0.4697306841875033	0.41253840810110637
