Time	Frequency
-0.5000572182499994	0.47185606758774445
-0.4999961830937494	0.4747237386355324
-0.4999351479374994	0.4775501011017834
-0.4998741127812494	0.48033152064619644
-0.4998130776249994	0.483071281326965
-0.4997520424687494	0.4857760777328927
-0.4996910073124994	0.4884498056788822
-0.4996299721562494	0.49109013983117883
-0.4995689369999994	0.49369076088747893
-0.4995079018437494	0.49624699120700566
-0.4994468666874994	0.4987596970718405
-0.4993858315312494	0.5012340958472946
-0.4993247963749994	0.5036747225727374
-0.4992637612187494	0.5060811573144567
-0.4992027260624994	0.5084482988055248
-0.4991416909062494	0.5107708422652395
-0.4990806557499994	0.5130479257563487
-0.4990196205937494	0.5152837987868638
-0.4989585854374994	0.517483887962153
-0.4988975502812494	0.5196497360895619
-0.4988365151249994	0.5217773306677149
-0.4987754799687494	0.523860366228809
-0.4987144448124994	0.5258956361679962
-0.4986534096562494	0.5278858475179842
-0.4985923744999994	0.5298373138810897
-0.4985313393437494	0.5317543869226071
-0.4984703041874994	0.53363540814432
-0.4984092690312494	0.5354737730281953
-0.4983482338749994	0.5372633365549022
-0.4982871987187494	0.5390036160991442
-0.4982261635624994	0.5407002952143971
-0.4981651284062494	0.5423604400250787
-0.4981040932499994	0.5439863824385684
-0.4980430580937494	0.5455734749803935
-0.4979820229374994	0.5471137140416775
-0.4979209877812494	0.5486022813711672
-0.4978599526249994	0.5500415530925372
-0.4977989174687494	0.5514391676687215
-0.4977378823124994	0.5528016600717102
-0.4976768471562494	0.5541288934767563
-0.4976158119999994	0.5554139466957779
-0.4975547768437494	0.5566486488975886
-0.4974937416874994	0.5578302380395458
-0.4974327065312494	0.5589636224931128
-0.4973716713749994	0.5600573295332174
-0.4973106362187494	0.5611164395219943
-0.4972496010624994	0.562138307975658
-0.4971885659062494	0.5631146058506972
-0.4971275307499994	0.5640380362375983
-0.4970664955937494	0.5649082368141849
-0.4970054604374994	0.5657320199265443
-0.4969444252812494	0.5665177479840222
-0.4968833901249994	0.5672684559168324
-0.4968223549687494	0.5679793418589295
-0.4967613198124994	0.5686416493989108
-0.4967002846562494	0.5692497419093522
-0.4966392494999994	0.56980559859563
-0.4965782143437494	0.5703171018912894
-0.4965171791874994	0.5707915543379183
-0.4964561440312494	0.5712297289131453
-0.4963951088749994	0.5716252787531445
-0.4963340737187494	0.5719699240173864
-0.4962730385624994	0.5722601372836896
-0.4962120034062494	0.5724998908653782
-0.4961509682499994	0.5726972997477491
-0.4960899330937494	0.5728579782334896
-0.4960288979374994	0.5729805369426992
-0.4959678627812494	0.5730578154602138
-0.4959068276249994	0.5730827520807811
-0.4958457924687494	0.5730540601838328
-0.4957847573124994	0.5729771264428577
-0.4957237221562494	0.5728595072265903
-0.4956626869999994	0.5727047792672241
-0.4956016518437494	0.5725097517014712
-0.4955406166874994	0.5722672188125776
-0.4954795815312494	0.5719718942784299
-0.4954185463749994	0.5716246350520228
-0.4953575112187494	0.571231568057895
-0.4952964760624994	0.5707989792027576
-0.4952354409062494	0.5703282471524909
-0.4951744057499994	0.569814918320339
-0.4951133705937494	0.5692525323303911
-0.4950523354374994	0.5686379486797088
-0.4949913002812494	0.5679737997292198
-0.4949302651249994	0.5672661653433695
-0.4948692299687494	0.5665195304020925
-0.4948081948124994	0.5657332361390361
-0.4947471596562494	0.5649022628125031
-0.4946861244999994	0.5640215428449802
-0.4946250893437494	0.5630901485632892
-0.4945640541874994	0.5621119316325986
-0.4945030190312494	0.5610922191158322
-0.4944419838749994	0.5600334145866303
-0.4943809487187494	0.5589331811438366
-0.4943199135624994	0.5577866385945895
-0.4942588784062494	0.5565905899527731
-0.4941978432499994	0.5553461805819843
-0.4941368080937494	0.5540578477894811
-0.4940757729374994	0.5527295601573442
-0.4940147377812494	0.5513615700578597
-0.4939537026249994	0.5499503981357238
-0.4938926674687494	0.5484919717479871
-0.4938316323124994	0.5469851687640839
-0.4937705971562494	0.5454327762741902
-0.4937095619999994	0.5438391315294486
-0.4936485268437494	0.5422064937799026
-0.4935874916874994	0.5405332463194852
-0.4935264565312494	0.5388154398680541
-0.4934654213749994	0.5370503085724324
-0.4934043862187494	0.5352387317175682
-0.4933433510624994	0.5333845516811601
-0.4932823159062494	0.5314913612301
-0.4932212807499994	0.5295595429574499
-0.4931602455937494	0.5275860969962057
-0.4930992104374994	0.5255673559693604
-0.4930381752812494	0.5235022382145668
-0.4929771401249994	0.5213932937827596
-0.4929161049687494	0.5192446626448409
-0.4928550698124994	0.5170586579324996
-0.4927940346562494	0.5148339023052572
-0.4927329994999994	0.5125666388412634
-0.4926719643437494	0.5102540822336108
-0.4926109291874994	0.5078969519884693
-0.4925498940312494	0.5054990408931104
-0.4924888588749994	0.503064152568366
-0.4924278237187494	0.5005929929519108
-0.4923667885624994	0.4980826837025035
-0.4923057534062494	0.4955293461452492
-0.4922447182499994	0.49293156764981827
-0.4921836830937494	0.4902917935290675
-0.4921226479374994	0.4876144535539188
-0.4920616127812494	0.484902384075558
-0.4920005776249994	0.4821545644493431
-0.4919395424687494	0.4793671113763212
-0.4918785073124994	0.47653671844304035
-0.4918174721562494	0.4736636460706964
-0.4917564369999994	0.47075171818588063
-0.4916954018437494	0.46780531552045046
-0.4916343666874994	0.46482589967134674
-0.4915733315312494	0.46181094494065605
-0.4915122963749994	0.45875617956700004
-0.4914512612187494	0.45565934485790616
-0.4913902260624994	0.45252231912824986
-0.4913291909062494	0.44934977271743864
-0.4912681557499994	0.4461454834750886
-0.4912071205937494	0.44290938903447846
-0.4911460854374994	0.43963782259536655
-0.4910850502812494	0.436326740076319
-0.4910240151249994	0.4329752868923162
-0.4909629799687494	0.4295867627640401
-0.4909019448124994	0.42616611510106
-0.4908409096562494	0.42271601376236895
-0.4907798744999994	0.41923482700985126
-0.4907188393437494	0.4157182000829314
-0.4906578041874994	0.4121629045108796
-0.4905967690312494	0.40856974021862696
-0.4905357338749994	0.40494310548385
-0.4904746987187494	0.4012876036483483
-0.4904136635624994	0.39760445157863417
-0.4903526284062494	0.39389067683632034
-0.4902915932499994	0.3901418127627947
-0.4902305580937494	0.3863558579789553
-0.4901695229374994	0.3825352011027568
-0.4901084877812494	0.3786848831566473
-0.4900474526249994	0.37480863273999454
-0.4899864174687494	0.3709059910565701
-0.4899253823124994	0.36697293403743575
-0.4898643471562494	0.3630054961540014
-0.4898033119999994	0.35900335444200376
-0.4897422768437494	0.354970348969974
-0.4896812416874994	0.3509115410371297
-0.4896202065312494	0.34682925582865715
-0.4895591713749994	0.3427213941682122
-0.4894981362187494	0.3385834665895429
-0.4894371010624994	0.3344126024905929
-0.4893760659062494	0.3302101681157266
-0.4893150307499994	0.3259809167038076
-0.4892539955937494	0.3217293408564849
-0.4891929604374994	0.31745616444174934
-0.4891319252812494	0.31315797524720573
-0.4890708901249994	0.30883038481929037
-0.4890098549687494	0.30447200976329747
-0.4889488198124994	0.30008588660829844
-0.4888877846562494	0.29567720577928686
-0.4888267494999994	0.2912492833232047
-0.4887657143437494	0.28680106757877
-0.4887046791874994	0.2823282836680033
-0.4886436440312494	0.27782730162002933
-0.4885826088749994	0.2732984888974177
-0.4885215737187494	0.2687462314303259
-0.4884605385624994	0.26417557283754495
-0.4883995034062494	0.25958827368139464
-0.4883384682499994	0.2549816023591953
-0.4882774330937494	0.2503508805417468
-0.4882163979374994	0.24569370221489675
-0.4881553627812494	0.24101231538821463
-0.4880943276249994	0.23631208192729453
-0.4880332924687494	0.23159726895191582
-0.4879722573124994	0.22686777917062453
-0.4879112221562494	0.22211956636220193
-0.4878501869999994	0.21734831518011585
-0.4877891518437494	0.21255331832665678
-0.4877281166874994	0.20773838587518592
-0.4876670815312494	0.20290901038108694
-0.4876060463749994	0.1980680962779794
-0.4875450112187494	0.19321385735613938
-0.4874839760624994	0.18834163945000243
-0.4874229409062494	0.18344809247963975
-0.4873619057499994	0.1785342753323567
-0.4873008705937494	0.17360513476747993
-0.4872398354374994	0.16866571878756534
-0.4871788002812494	0.16371729824287737
-0.4871177651249994	0.15875664420334512
-0.4870567299687494	0.15377899324333363
-0.4869956948124994	0.14878227883099077
-0.4869346596562494	0.1437692227079221
-0.4868736244999994	0.13874547068953366
-0.4868125893437494	0.13371521077788157
-0.4867515541874994	0.1286779863537214
-0.4866905190312494	0.12362940367158405
-0.4866294838749994	0.11856511461928693
-0.4865684487187494	0.11348477800789304
-0.4865074135624994	0.10839270356485033
-0.4864463784062494	0.1032946069238736
-0.4863853432499994	0.0981931797141061
-0.4863243080937494	0.09308618345129269
-0.4862632729374994	0.08796864633497173
-0.4862022377812494	0.0828373335835968
-0.4861412026249994	0.07769377540195066
-0.4860801674687494	0.07254333928377261
-0.4860191323124994	0.06739113898772192
-0.4859580971562494	0.06223813796452373
-0.4858970619999994	0.057080648615852034
-0.4858360268437494	0.05191370061245059
-0.4857749916874994	0.0467355270278001
-0.4857139565312494	0.041549431338899934
-0.4856529213749994	0.03636142598347338
-0.4855918862187494	0.0311755478444945
-0.4855308510624994	0.025990777404349685
-0.4854698159062494	0.02080219499436405
-0.4854087807499994	0.01560542825923868
-0.4853477455937494	0.010400676137972045
-0.4852867104374994	0.005192939275351014
-0.4852256752812494	-1.1766853997780797e-05
-0.4851646401249994	-0.005211087502574125
-0.4851036049687494	-0.01040799492671506
-0.4850425698124994	-0.015608011709837178
-0.4849815346562494	-0.020814258341269605
-0.4849204994999994	-0.02602444721739962
-0.4848594643437494	-0.03123237498223597
-0.4847984291874994	-0.03643273724165693
-0.4847373940312494	-0.0416252674675681
-0.4846763588749994	-0.04681469193721206
-0.4846153237187494	-0.05200645886952124
-0.4845542885624994	-0.057201775092519835
-0.4844932534062494	-0.0623961545626086
-0.4844322182499994	-0.06758277098927616
-0.4843711830937494	-0.07275786222952191
-0.4843101479374994	-0.0779236482090661
-0.4842491127812494	-0.0830861818876896
-0.4841880776249994	-0.08824988665560847
-0.4841270424687494	-0.0934134392750639
-0.4840660073124994	-0.09857046916003626
-0.4840049721562494	-0.10371452215302832
-0.4839439369999994	-0.10884416428948776
-0.4838829018437494	-0.11396391283256176
-0.4838218666874994	-0.11908015554961075
-0.4837608315312494	-0.12419541404443887
-0.4836997963749994	-0.12930578006238477
-0.4836387612187494	-0.1344037887450138
-0.4835777260624994	-0.13948436970500327
-0.4835166909062494	-0.1445488147051855
-0.4834556557499994	-0.14960339104926468
-0.4833946205937494	-0.15465377658629853
-0.4833335854374994	-0.15969992833466484
-0.4832725502812494	-0.16473567353159965
-0.4832115151249994	-0.16975347729208992
-0.4831504799687494	-0.17475046383859108
-0.4830894448124994	-0.17973059085585524
-0.4830284096562494	-0.18470104099884513
-0.4829673744999994	-0.1896658241202097
-0.4829063393437494	-0.19462201461079354
-0.4828453041874994	-0.19956181541624166
-0.4827842690312494	-0.20447874668383073
-0.4827232338749994	-0.2093727933153912
-0.4826621987187494	-0.21425014872001447
-0.4826011635624994	-0.2191177105415067
-0.4825401284062494	-0.22397692081074044
-0.4824790932499994	-0.22882214057484618
-0.4824180580937494	-0.23364501120012798
-0.4823570229374994	-0.23844117726529968
-0.4822959877812494	-0.24321366280299533
-0.4822349526249994	-0.24797004843209047
-0.4821739174687494	-0.25271580785501285
-0.4821128823124994	-0.25744932042752805
-0.4820518471562494	-0.2621628008016266
-0.4819908119999994	-0.2668485046500367
-0.4819297768437494	-0.2715049901166461
-0.4818687416874994	-0.2761380974526773
-0.4818077065312494	-0.2807557663541787
-0.4817466713749994	-0.2853609837797232
-0.4816856362187494	-0.2899488180920371
-0.4816246010624994	-0.29451018002108525
-0.4815635659062494	-0.29903922393362375
-0.4815025307499994	-0.30353807310541797
-0.4814414955937494	-0.3080147893442661
-0.4813804604374994	-0.3124762721416335
-0.4813194252812494	-0.31692205472634316
-0.4812583901249994	-0.3213442504739833
-0.4811973549687494	-0.32573381623051134
-0.4811363198124994	-0.3300879469600316
-0.4810752846562494	-0.33441230423976825
-0.4810142494999994	-0.33871604069942146
-0.4809532143437494	-0.3430037212752833
-0.4808921791874994	-0.347271007230147
-0.4808311440312494	-0.35150788769850994
-0.4807701088749994	-0.3557068410084402
-0.4807090737187494	-0.35986904093402544
-0.4806480385624994	-0.36400324683241025
-0.4805870034062494	-0.3681181463490835
-0.4805259682499994	-0.3722145933969008
-0.4804649330937494	-0.376284425088948
-0.4804038979374994	-0.38031698766266725
-0.4803428627812494	-0.38430793032544314
-0.4802818276249994	-0.3882627788188713
-0.4802207924687494	-0.3921920980800797
-0.4801597573124994	-0.3961022429830473
-0.4800987221562494	-0.39998957706092303
-0.4800376869999994	-0.40384313562791196
-0.4799766518437494	-0.4076535654376681
-0.4799156166874994	-0.41142086624435886
-0.4798545815312494	-0.41515431094816435
-0.4797935463749994	-0.41886442627043396
-0.4797325112187494	-0.4225537672449306
-0.4796714760624994	-0.42621434184663026
-0.4796104409062494	-0.42983395197521973
-0.4795494057499994	-0.4334062260363878
-0.4794883705937494	-0.4369359011659368
-0.4794273354374994	-0.44043475343163857
-0.4793663002812494	-0.44391146391397535
-0.4793052651249994	-0.44736394803765184
-0.4792442299687494	-0.4507806933607309
-0.4791831948124994	-0.454150089100997
-0.4791221596562494	-0.45746998289840873
-0.4790611244999994	-0.46074943215664144
-0.4790000893437494	-0.4640010546473415
-0.4789390541874994	-0.46723023149112264
-0.4788780190312494	-0.4704301674882837
-0.4788169838749994	-0.4735871042449615
-0.4787559487187494	-0.47669154912077477
-0.4786949135624994	-0.4797461692702413
-0.4786338784062494	-0.4827636049635292
-0.4785728432499994	-0.48575585239718083
-0.4785118080937494	-0.4887239481991948
-0.4784507729374994	-0.4916565888976057
-0.4783897377812494	-0.4945390688358347
-0.4783287026249994	-0.49736533044594866
-0.4782676674687494	-0.5001431225750533
-0.4782066323124994	-0.5028877313930207
-0.4781455971562494	-0.5056091702309633
-0.4780845619999994	-0.508303367496382
-0.4780235268437494	-0.5109548739943438
-0.4779624916874994	-0.5135492364035134
-0.4779014565312494	-0.5160850476827296
-0.4778404213749994	-0.5185755105923519
-0.4777793862187494	-0.5210377247408585
-0.4777183510624994	-0.5234782094580608
-0.4776573159062494	-0.525886719046562
-0.4775962807499994	-0.5282439430039697
-0.4775352455937494	-0.5305372514636054
-0.4774742104374994	-0.5327715859304237
-0.4774131752812494	-0.5349660155231802
-0.4773521401249994	-0.5371380895370759
-0.4772911049687494	-0.5392886257698875
-0.4772300698124994	-0.5413999394079706
-0.4771690346562494	-0.5434497659576388
-0.4771079994999994	-0.5454298701359632
-0.4770469643437494	-0.5473537210376161
-0.4769859291874994	-0.5492460226012739
-0.4769248940312494	-0.5511220160757906
-0.4768638588749994	-0.5529737515697019
-0.4768028237187494	-0.5547755165639734
-0.4767417885624994	-0.5565048157815438
-0.4766807534062494	-0.5581617154900632
-0.4766197182499994	-0.559769813305572
-0.4765586830937494	-0.5613570185170941
-0.4764976479374994	-0.5629316463234076
-0.4764366127812494	-0.5644741811300495
-0.4763755776249994	-0.5659525940029686
-0.4763145424687494	-0.5673491793668651
-0.4762535073124994	-0.5686763327354187
-0.4761924721562494	-0.5699671360314804
-0.4761314369999994	-0.5712477021545417
-0.4760704018437494	-0.5725143067795302
-0.4760093666874994	-0.5737352392256505
-0.4759483315312494	-0.5748768340614292
-0.4758872963749994	-0.5759322441312958
-0.4758262612187494	-0.5769282567442
-0.4757652260624994	-0.5779034243185754
-0.4757041909062494	-0.578875292570578
-0.4756431557499994	-0.5798245607064679
-0.4755821205937494	-0.5807103706811598
-0.4755210854374994	-0.5815045852458963
-0.4754600502812494	-0.5822161887429544
-0.4753990151249994	-0.5828845729713972
-0.4753379799687494	-0.5835466150665547
-0.4752769448124994	-0.5842050776322169
-0.4752159096562494	-0.5848253947317124
-0.4751548744999994	-0.5853642289650505
-0.4750938393437494	-0.5858061019404363
-0.4750328041874994	-0.5861770409931171
-0.4749717690312494	-0.5865232213291841
-0.4749107338749994	-0.5868721705163104
-0.4748496987187494	-0.5872091603109985
-0.4747886635624994	-0.5874889691219768
-0.4747276284062494	-0.5876735118158091
-0.4746665932499994	-0.5877639086120777
-0.4746055580937494	-0.5877999965677103
-0.4745445229374994	-0.5878274197900533
-0.4744834877812494	-0.5878595560039842
-0.4744224526249994	-0.5878659912644585
-0.4743614174687494	-0.5877973024060064
-0.4743003823124994	-0.587625819568686
-0.4742393471562494	-0.5873687622225093
-0.4741783119999994	-0.5870745519925888
-0.4741172768437494	-0.5867832976767761
-0.4740562416874994	-0.5864936856730047
-0.4739952065312494	-0.5861634527747454
-0.4739341713749994	-0.5857433789251905
-0.4738731362187494	-0.585217436420556
-0.4738121010624994	-0.5846165086672904
-0.4737510659062494	-0.583994182796808
-0.4736900307499994	-0.5833836405814642
-0.4736289955937494	-0.5827702069575195
-0.4735679604374994	-0.5821020590956762
-0.4735069252812494	-0.5813312839276459
-0.4734458901249994	-0.5804528952810734
-0.4733848549687494	-0.5795102895813917
-0.4733238198124994	-0.5785617644460621
-0.4732627846562494	-0.5776338820313104
-0.4732017494999994	-0.5766988289930046
-0.4731407143437494	-0.5756948601312417
-0.4730796791874994	-0.5745749558391581
-0.4730186440312494	-0.5733455705489325
-0.4729576088749994	-0.5720638148877792
-0.4728965737187494	-0.5707935622201131
-0.4728355385624994	-0.5695540977532417
-0.4727745034062494	-0.5683024889659095
-0.4727134682499994	-0.5669655291933406
-0.4726524330937494	-0.5654977360343435
-0.4725913979374994	-0.5639196156693254
-0.4725303627812494	-0.562304181631805
-0.4724693276249994	-0.5607202371420759
-0.4724082924687494	-0.5591764994233304
-0.4723472573124994	-0.5576120135033626
-0.4722862221562494	-0.5559427356095893
-0.4722251869999994	-0.5541288425759072
-0.4721641518437494	-0.5522088042166948
-0.4721031166874994	-0.550271086863956
-0.4720420815312494	-0.548384219715338
-0.4719810463749994	-0.546540833818766
-0.4719200112187494	-0.5446617190922134
-0.4718589760624994	-0.5426582828467725
-0.4717979409062494	-0.5405040403111198
-0.4717369057499994	-0.5382571219351747
-0.4716758705937494	-0.5360145628836893
-0.4716148354374994	-0.533834592215423
-0.4715538002812494	-0.5316897466115599
-0.4714927651249994	-0.5294890453318154
-0.4714317299687494	-0.5271513795674486
-0.4713706948124994	-0.5246705655726209
-0.4713096596562494	-0.5221195146479676
-0.4712486244999994	-0.5195908030041675
-0.4711875893437494	-0.5171225051400202
-0.4711265541874994	-0.5146693272504816
-0.4710655190312494	-0.5121412353152679
-0.4710044838749994	-0.5094766998873225
-0.4709434487187494	-0.5066906882240321
-0.4708824135624994	-0.5038598234316487
-0.4708213784062494	-0.5010590507861133
-0.4707603432499994	-0.49830253459782586
-0.4706993080937494	-0.49553579190559915
-0.4706382729374994	-0.4926827694489793
-0.4705772377812494	-0.48970739487059
-0.4705162026249994	-0.48663973091331203
-0.4704551674687494	-0.48354803718272465
-0.4703941323124994	-0.4804824572313308
-0.4703330971562494	-0.4774370243290128
-0.4702720619999994	-0.47435885400183103
-0.4702110268437494	-0.47119373735914627
-0.4701499916874994	-0.4679291350041975
-0.4700889565312494	-0.46460063669599405
-0.4700279213749994	-0.46125979362290964
-0.4699668862187494	-0.45793222708312725
-0.4699058510624994	-0.45460018297599714
-0.4698448159062494	-0.451221111381366
-0.4697837807499994	-0.4477640198093267
-0.4697227455937494	-0.4442328907385444
-0.4696617104374994	-0.44065982996619396
-0.4696006752812494	-0.4370766073424626
-0.4695396401249994	-0.43348967564467605
-0.4694786049687494	-0.42987837713552207
