Time	Frequency
-0.5000577290937471	-0.2898580719256506
-0.4999966939374971	-0.2952305579722941
-0.4999356587812471	-0.30058394616838224
-0.4998746236249971	-0.3058793903135118
-0.4998135884687471	-0.3110996604763871
-0.4997525533124971	-0.3162637585140169
-0.4996915181562471	-0.32141339914864325
-0.4996304829999971	-0.32658055461933133
-0.4995694478437471	-0.33176119761594597
-0.4995084126874971	-0.3369166276769036
-0.4994473775312471	-0.34200234267122637
-0.4993863423749971	-0.34700253787519186
-0.4993253072187471	-0.35194314049411207
-0.4992642720624971	-0.3568721686861395
-0.4992032369062471	-0.36182197329148114
-0.4991422017499971	-0.36678302396078283
-0.4990811665937471	-0.3717103059067134
-0.4990201314374971	-0.3765578805759747
-0.4989590962812471	-0.3813147088141656
-0.4988980611249971	-0.38601324122490993
-0.4988370259687471	-0.3907036980305808
-0.4987759908124971	-0.395414306760566
-0.4987149556562471	-0.4001288487434028
-0.4986539204999971	-0.4047992091428508
-0.4985928853437471	-0.409382978359382
-0.4985318501874971	-0.41387619928718167
-0.4984708150312471	-0.41831542822415146
-0.4984097798749971	-0.42274811607314045
-0.4983487447187471	-0.427195235884277
-0.4982877095624971	-0.43163538718377453
-0.4982266744062471	-0.43602213405119283
-0.4981656392499971	-0.44032022699552864
-0.4981046040937471	-0.4445320538623902
-0.4980435689374971	-0.44869414564437954
-0.4979825337812471	-0.45284760053681195
-0.4979214986249971	-0.45700629508605606
-0.4978604634687471	-0.46114726394041455
-0.4977994283124971	-0.465229476150508
-0.4977383931562471	-0.4692252655746918
-0.4976773579999971	-0.4731399350903755
-0.4976163228437471	-0.47700558192492454
-0.4975552876874971	-0.4808555689717165
-0.4974942525312471	-0.4846998709732916
-0.4974332173749971	-0.48851914807706326
-0.4973721822187471	-0.4922803749723372
-0.4973111470624971	-0.4959609751273644
-0.4972501119062471	-0.499563493704986
-0.4971890767499971	-0.5031115930711396
-0.4971280415937471	-0.5066321481958934
-0.4970670064374971	-0.5101369403632832
-0.4970059712812471	-0.5136159461383321
-0.4969449361249971	-0.5170450740942956
-0.4968839009687471	-0.5204018343491584
-0.4968228658124971	-0.5236787705376933
-0.4967618306562471	-0.5268872676728334
-0.4967007954999971	-0.530050449243515
-0.4966397603437471	-0.5331894846289792
-0.4965787251874971	-0.5363105449443903
-0.4965176900312471	-0.5393995072514979
-0.4964566548749971	-0.5424282992615327
-0.4963956197187471	-0.5453709296288727
-0.4963345845624971	-0.5482209866714499
-0.4962735494062471	-0.5509992965625401
-0.4962125142499971	-0.5537440201228805
-0.4961514790937471	-0.5564861917318991
-0.4960904439374971	-0.5592255779766647
-0.4960294087812471	-0.5619251146786403
-0.4959683736249971	-0.5645319243756279
-0.4959073384687471	-0.5670139382013636
-0.4958463033124971	-0.5693868932023769
-0.4957852681562471	-0.5717094334310169
-0.4957242329999971	-0.5740449740392782
-0.4956631978437471	-0.5764146085876112
-0.4956021626874971	-0.5787760410339081
-0.4955411275312471	-0.5810480100039322
-0.4954800923749971	-0.583166691586528
-0.4954190572187471	-0.5851344099181002
-0.4953580220624971	-0.5870230147443805
-0.4952969869062471	-0.5889257180675386
-0.4952359517499971	-0.5908899884226722
-0.4951749165937471	-0.5928805628216507
-0.4951138814374971	-0.5948016360653564
-0.4950528462812471	-0.5965641305650945
-0.4949918111249971	-0.5981496502390145
-0.4949307759687471	-0.5996240482945426
-0.4948697408124971	-0.6010903312323614
-0.4948087056562471	-0.6026152948689307
-0.4947476704999971	-0.6041832662609335
-0.4946866353437471	-0.6057096051399398
-0.4946256001874971	-0.6071023365518323
-0.4945645650312471	-0.608326037080649
-0.4945035298749971	-0.6094226613913287
-0.4944424947187471	-0.6104772685306531
-0.4943814595624971	-0.6115565635814234
-0.4943204244062471	-0.6126652494823511
-0.4942593892499971	-0.6137488326871664
-0.4941983540937471	-0.6147364489893333
-0.4941373189374971	-0.6155900663752604
-0.4940762837812471	-0.6163256090043316
-0.4940152486249971	-0.6169950317664749
-0.4939542134687471	-0.6176467442619512
-0.4938931783124971	-0.6182943581219188
-0.4938321431562471	-0.6189136382318822
-0.4937711079999971	-0.6194650311913584
-0.4937100728437471	-0.6199220433590547
-0.4936490376874971	-0.620285311422872
-0.4935880025312471	-0.6205759237416266
-0.4935269673749971	-0.620817118972322
-0.4934659322187471	-0.621019434942778
-0.4934048970624971	-0.621178317844934
-0.4933438619062471	-0.6212820623551171
-0.4932828267499971	-0.6213211867879546
-0.4932217915937471	-0.6212921484644371
-0.4931607564374971	-0.6211952471135959
-0.4930997212812471	-0.6210315985386305
-0.4930386861249971	-0.6208030885286441
-0.4929776509687471	-0.6205144030066609
-0.4929166158124971	-0.6201730263103641
-0.4928555806562471	-0.6197848849561349
-0.4927945454999971	-0.6193483567037885
-0.4927335103437471	-0.6188525055209096
-0.4926724751874971	-0.6182830322216778
-0.4926114400312471	-0.6176328645401084
-0.4925504048749971	-0.6169092247646725
-0.4924893697187471	-0.616130511341421
-0.4924283345624971	-0.6153138482939012
-0.4923672994062471	-0.6144619385197576
-0.4923062642499971	-0.6135594968152102
-0.4922452290937471	-0.6125830700576083
-0.4921841939374971	-0.6115179429952367
-0.4921231587812471	-0.610369783302815
-0.4920621236249971	-0.6091618383357379
-0.4920010884687471	-0.6079189065576256
-0.4919400533124971	-0.6066492811910119
-0.4918790181562471	-0.6053379685972327
-0.4918179829999971	-0.6039567066144107
-0.4917569478437471	-0.6024840426906183
-0.4916959126874971	-0.6009211383862534
-0.4916348775312471	-0.599291738306423
-0.4915738423749971	-0.5976259310950728
-0.4915128072187471	-0.595938967059283
-0.4914517720624971	-0.5942201571245299
-0.4913907369062471	-0.5924399107702181
-0.4913297017499971	-0.5905702032654081
-0.4912686665937471	-0.5886043301199118
-0.4912076314374971	-0.586562202624059
-0.4911465962812471	-0.5844772695680006
-0.4910855611249971	-0.5823737524793469
-0.4910245259687471	-0.5802497840622407
-0.4909634908124971	-0.5780782576422682
-0.4909024556562471	-0.5758250317471741
-0.4908414204999971	-0.5734722303653397
-0.4907803853437471	-0.5710308902722089
-0.4907193501874971	-0.5685342405606685
-0.4906583150312471	-0.5660158470896353
-0.4905972798749971	-0.5634870669239166
-0.4905362447187471	-0.5609289717567403
-0.4904752095624971	-0.5583045892973523
-0.4904141744062471	-0.5555836836116632
-0.4903531392499971	-0.5527635141857122
-0.4902921040937471	-0.5498713927866069
-0.4902310689374971	-0.5469469472774621
-0.4901700337812471	-0.5440157289703553
-0.4901089986249971	-0.5410718871539457
-0.4900479634687471	-0.5380818730460908
-0.4899869283124971	-0.5350070084731474
-0.4899258931562471	-0.5318297758150444
-0.4898648579999971	-0.5285660385339483
-0.4898038228437471	-0.5252547363317325
-0.4897427876874971	-0.521931755765542
-0.4896817525312471	-0.5186057175082202
-0.4896207173749971	-0.5152523518173218
-0.4895596822187471	-0.5118313431013194
-0.4894986470624971	-0.508314068591656
-0.4894376119062471	-0.5047032476133604
-0.4893765767499971	-0.5010310382478272
-0.4893155415937471	-0.49733689380170476
-0.4892545064374971	-0.49364061707848805
-0.4891934712812471	-0.4899294187231354
-0.4891324361249971	-0.48616764186376366
-0.4890714009687471	-0.4823218725704768
-0.4890103658124971	-0.47838391473286745
-0.4889493306562471	-0.47437600041643485
-0.4888882954999971	-0.47033508696897336
-0.4888272603437471	-0.46628750974289007
-0.4887662251874971	-0.46223156233411716
-0.4887051900312471	-0.45813971817146193
-0.4886441548749971	-0.4539783991952089
-0.4885831197187471	-0.44973123052424746
-0.4885220845624971	-0.4454098743647519
-0.4884610494062471	-0.44104543993913453
-0.4884000142499971	-0.43666697911598884
-0.4883389790937471	-0.4322823108501525
-0.4882779439374971	-0.42787401870512815
-0.4882169087812471	-0.42341253644644733
-0.4881558736249971	-0.41887667099978226
-0.4880948384687471	-0.414267337405804
-0.4880338033124971	-0.40960587131454285
-0.4879727681562471	-0.40491917480303397
-0.4879117329999971	-0.40022230085232846
-0.4878506978437471	-0.395509981534577
-0.4877896626874971	-0.39076179232940594
-0.4877286275312471	-0.3859564494910737
-0.4876675923749971	-0.38108545736924876
-0.4876065572187471	-0.37615758491374035
-0.4875455220624971	-0.37119218872174503
-0.4874844869062471	-0.36620665952895154
-0.4874234517499971	-0.36120638224796514
-0.4873624165937471	-0.3561829971620448
-0.4873013814374971	-0.3511210423060728
-0.4872403462812471	-0.3460081669097724
-0.4871793111249971	-0.3408424387329627
-0.4871182759687471	-0.3356326571096164
-0.4870572408124971	-0.33039230782051315
-0.4869962056562471	-0.3251314642667129
-0.4869351704999971	-0.319851610575913
-0.4868741353437471	-0.3145460043940229
-0.4868131001874971	-0.309204644175782
-0.4867520650312471	-0.30382059541317274
-0.4866910298749971	-0.29839403077893556
-0.4866299947187471	-0.2929318428225801
-0.4865689595624971	-0.2874434590417151
-0.4865079244062471	-0.28193549912046134
-0.4864468892499971	-0.2764083214594947
-0.4863858540937471	-0.2708564282187579
-0.4863248189374971	-0.26527233163901665
-0.4862637837812471	-0.2596514340940867
-0.4862027486249971	-0.25399507518354897
-0.4861417134687471	-0.24830998375283847
-0.4860806783124971	-0.24260444065741837
-0.4860196431562471	-0.23688351999540017
-0.4859586079999971	-0.23114625174587433
-0.4858975728437471	-0.2253863259865655
-0.4858365376874971	-0.21959619253294274
-0.4857755025312471	-0.21377230551967472
-0.4857144673749971	-0.20791795167319654
-0.4856534322187471	-0.20204163458967672
-0.4855923970624971	-0.19615214640195983
-0.4855313619062471	-0.19025336169299134
-0.4854703267499971	-0.18434192263163796
-0.4854092915937471	-0.17840947771479396
-0.4853482564374971	-0.17244827800533236
-0.4852872212812471	-0.1664566595748167
-0.4852261861249971	-0.1604407764693
-0.4851651509687471	-0.15441113995174877
-0.4851041158124971	-0.1483761112184881
-0.4850430806562471	-0.1423367637242017
-0.4849820454999971	-0.1362864621654327
-0.4849210103437471	-0.13021540773590098
-0.4848599751874971	-0.12411741898278532
-0.4847989400312471	-0.11799452572200025
-0.4847379048749971	-0.11185615991115683
-0.4846768697187471	-0.10571344012632392
-0.4846158345624971	-0.09957221178228054
-0.4845547994062471	-0.0934293588570081
-0.4844937642499971	-0.08727507633934163
-0.4844327290937471	-0.08109979885261794
-0.4843716939374971	-0.07490112057894309
-0.4843106587812471	-0.06868596308447722
-0.4842496236249971	-0.062466415199680256
-0.4841885884687471	-0.05625199106133215
-0.4841275533124971	-0.05004350053128832
-0.4840665181562471	-0.04383270777062998
-0.4840054829999971	-0.037608251571350816
-0.4839444478437471	-0.03136394713305559
-0.4838834126874971	-0.025103571256527502
-0.4838223775312471	-0.018838669654262532
-0.4837613423749971	-0.012581000721421091
-0.4837003072187471	-0.006334851657764369
-0.4836392720624971	-9.448188605087188e-05
-0.4835782369062471	0.0061514741283729794
-0.4835172017499971	0.012411630497731226
-0.4834561665937471	0.018685389387803196
-0.4833951314374971	0.024963038930174493
-0.4833340962812471	0.031232266729414624
-0.4832730611249971	0.03748634947344893
-0.4832120259687471	0.0437282666543563
-0.4831509908124971	0.04996793278787958
-0.4830899556562471	0.056214718923861685
-0.4830289204999971	0.062470656621346876
-0.4829678853437471	0.06872886857514468
-0.4829068501874971	0.07497818899626844
-0.4828458150312471	0.08121069129715491
-0.4827847798749971	0.08742661196483939
-0.4827237447187471	0.09363327291838627
-0.4826627095624971	0.09983914983917523
-0.4826016744062471	0.10604750822313325
-0.4825406392499971	0.11225407079189628
-0.4824796040937471	0.11845009671594695
-0.4824185689374971	0.12462840891647148
-0.4823575337812471	0.1307879572552832
-0.4822964986249971	0.13693368145652335
-0.4822354634687471	0.14307203124148515
-0.4821744283124971	0.14920570917691078
-0.4821133931562471	0.15533155387902026
-0.4820523579999971	0.16144291932858634
-0.4819913228437471	0.16753439144989116
-0.4819302876874971	0.17360520582973887
-0.4818692525312471	0.17965914535412245
-0.4818082173749971	0.1857011260919504
-0.4817471822187471	0.1917329084065707
-0.4816861470624971	0.1977512573864552
-0.4816251119062471	0.20375010977991842
-0.4815640767499971	0.20972493105959694
-0.4815030415937471	0.21567572672881813
-0.4814420064374971	0.2216065636962072
-0.4813809712812471	0.22752200835559486
-0.4813199361249971	0.23342312348559188
-0.4812589009687471	0.2393062340208209
-0.4811978658124971	0.24516534675960272
-0.4811368306562471	0.25099617333286456
-0.4810757954999971	0.2567988006848251
-0.4810147603437471	0.26257717093847227
-0.4809537251874971	0.26833573370402664
-0.4808926900312471	0.2740757557711789
-0.4808316548749971	0.2797941114308116
-0.4807706197187471	0.28548529302473885
-0.4807095845624971	0.29114495205428825
-0.4806485494062471	0.29677252272672217
-0.4805875142499971	0.3023711644712638
-0.4805264790937471	0.3079450025755044
-0.4804654439374971	0.31349574925534435
-0.4804044087812471	0.31902122797217886
-0.4803433736249971	0.32451665176972205
-0.4802823384687471	0.3299775976367399
-0.4802213033124971	0.33540266068204777
-0.4801602681562471	0.34079399782915015
-0.4800992329999971	0.34615542829331897
-0.4800381978437471	0.35148945385404706
-0.4799771626874971	0.35679521805533887
-0.4799161275312471	0.3620687043395245
-0.4798550923749971	0.36730503364444844
-0.4797940572187471	0.372501458577957
-0.4797330220624971	0.3776590113830191
-0.4796719869062471	0.3827814679007393
-0.4796109517499971	0.38787236009547443
-0.4795499165937471	0.39293220786036714
-0.4794888814374971	0.3979577889036142
-0.4794278462812471	0.4029439523419335
-0.4793668111249971	0.4078868642082271
-0.4793057759687471	0.41278638437456466
-0.4792447408124971	0.41764573427273183
-0.4791837056562471	0.4224687928670127
-0.4791226704999971	0.4272571100323105
-0.4790616353437471	0.43200854486934287
-0.4790006001874971	0.436718416994889
-0.4789395650312471	0.4413825953026532
-0.4788785298749971	0.4460002276471751
-0.4788174947187471	0.45057389363822875
-0.4787564595624971	0.4551071752499421
-0.4786954244062471	0.45960165029317596
-0.4786343892499971	0.4640555158712782
-0.4785733540937471	0.4684646823298898
-0.4785123189374971	0.4728254970581753
-0.4784512837812471	0.477137225925898
-0.4783902486249971	0.4814023884671089
-0.4783292134687471	0.4856244547549744
-0.4782681783124971	0.4898046596152588
-0.4782071431562471	0.4939406029832823
-0.4781461079999971	0.4980278011820858
-0.4780850728437471	0.5020629020461279
-0.4780240376874971	0.506046001038367
-0.4779630025312471	0.5099802841471722
-0.4779019673749971	0.5138693262945161
-0.4778409322187471	0.5177140687697891
-0.4777798970624971	0.5215116923022891
-0.4777188619062471	0.5252573506516357
-0.4776578267499971	0.5289476077030374
-0.4775967915937471	0.5325828688325248
-0.4775357564374971	0.5361667765401389
-0.4774747212812471	0.5397030500350477
-0.4774136861249971	0.5431923233255186
-0.4773526509687471	0.5466314431229229
-0.4772916158124971	0.5500157032751309
-0.4772305806562471	0.5533422938620798
-0.4771695454999971	0.5566122693746933
-0.4771085103437471	0.5598293832966224
-0.4770474751874971	0.5629966878089888
-0.4769864400312471	0.5661137199491215
-0.4769254048749971	0.5691766345137818
-0.4768643697187471	0.5721811593274705
-0.4768033345624971	0.57512591656419
-0.4767422994062471	0.5780134074960822
-0.4766812642499971	0.5808477979866923
-0.4766202290937471	0.5836311646310299
-0.4765591939374971	0.5863612907691975
-0.4764981587812471	0.5890330339988258
-0.4764371236249971	0.5916422861028653
-0.4763760884687471	0.5941892823823572
-0.4763150533124971	0.5966784691340928
-0.4762540181562471	0.5991148847195361
-0.4761929829999971	0.6014998673115534
-0.4761319478437471	0.6038295342511327
-0.4760709126874971	0.6060973756397513
-0.4760098775312471	0.6082990708868795
-0.4759488423749971	0.6104357837864017
-0.4758878072187471	0.612513327306871
-0.4758267720624971	0.6145377436758432
-0.4757657369062471	0.6165105501596482
-0.4757047017499971	0.6184272526081608
-0.4756436665937471	0.6202803559021578
-0.4755826314374971	0.6220647191134524
-0.4755215962812471	0.6237812915518434
-0.4754605611249971	0.6254363861814615
-0.4753995259687471	0.627036969213372
-0.4753384908124971	0.6285854594340394
-0.4752774556562471	0.6300778502795497
-0.4752164204999971	0.6315064732174033
-0.4751553853437471	0.6328653753379173
-0.4750943501874971	0.634154421876025
-0.4750333150312471	0.6353792102071693
-0.4749722798749971	0.6365469537868846
-0.4749112447187471	0.6376613075724885
-0.4748502095624971	0.6387197710672866
-0.4747891744062471	0.6397154543646796
-0.4747281392499971	0.6406418909787706
-0.4746671040937471	0.6414974489878381
-0.4746060689374971	0.6422862615037849
-0.4745450337812471	0.6430151335806501
-0.4744839986249971	0.6436886891748095
-0.4744229634687471	0.6443061750761258
-0.4743619283124971	0.6448621150172797
-0.4743008931562471	0.6453502124138669
-0.4742398579999971	0.6457676250043883
-0.4741788228437471	0.6461166921990198
-0.4741177876874971	0.6464031073145038
-0.4740567525312471	0.6466319093235843
-0.4739957173749971	0.6468040612775884
-0.4739346822187471	0.6469159065896084
-0.4738736470624971	0.6469617802476828
-0.4738126119062471	0.646937887969474
-0.4737515767499971	0.6468447792197085
-0.4736905415937471	0.646686836383063
-0.4736295064374971	0.6464692420047943
-0.4735684712812471	0.6461944766423917
-0.4735074361249971	0.6458606567260854
-0.4734464009687471	0.6454628258299765
-0.4733853658124971	0.6449963647179324
-0.4733243306562471	0.6444602085563356
-0.4732632954999971	0.6438576377593156
-0.4732022603437471	0.6431940657131858
-0.4731412251874971	0.6424733095106021
-0.4730801900312471	0.6416949048760262
-0.4730191548749971	0.6408543675949642
-0.4729581197187471	0.6399463238620615
-0.4728970845624971	0.6389683934254542
-0.4728360494062471	0.6379230259465974
-0.4727750142499971	0.6368158971916065
-0.4727139790937471	0.635651954874221
-0.4726529439374971	0.6344318935412742
-0.4725919087812471	0.6331516247910863
-0.4725308736249971	0.6318052196289358
-0.4724698384687471	0.6303892643068749
-0.4724088033124971	0.628905491712532
-0.4723477681562471	0.6273597078388555
-0.4722867329999971	0.6257576963148255
-0.4722256978437471	0.6241010539344747
-0.4721646626874971	0.6223860404066138
-0.4721036275312471	0.6206063601014536
-0.4720425923749971	0.6187579029838036
-0.4719815572187471	0.6168419845033672
-0.4719205220624971	0.6148646028116014
-0.4718594869062471	0.6128321161810724
-0.4717984517499971	0.6107465614302503
-0.4717374165937471	0.6086041806372664
-0.4716763814374971	0.606398285517805
-0.4716153462812471	0.6041244214272941
-0.4715543111249971	0.6017839972912372
-0.4714932759687471	0.5993835200780763
-0.4714322408124971	0.596929896256823
-0.4713712056562471	0.5944253021535474
-0.4713101704999971	0.5918655309378795
-0.4712491353437471	0.5892432081877893
-0.4711881001874971	0.5865536021835726
-0.4711270650312471	0.5837986281267802
-0.4710660298749971	0.580985806241839
-0.4710049947187471	0.578122735429956
-0.4709439595624971	0.5752112647832265
-0.4708829244062471	0.5722460003814203
-0.4708218892499971	0.5692185342005031
-0.4707608540937471	0.5661242851766236
-0.4706998189374971	0.5629665388390734
-0.4706387837812471	0.559754314171202
-0.4705777486249971	0.5564955999297031
-0.4705167134687471	0.5531911505763031
-0.4704556783124971	0.5498337950706313
-0.4703946431562471	0.5464141622880185
-0.4703336079999971	0.5429284839980844
-0.4702725728437471	0.5393821835246158
-0.4702115376874971	0.5357861565575024
-0.4701505025312471	0.5321483645586121
-0.4700894673749971	0.5284674213424798
-0.4700284322187471	0.5247336148677246
-0.4699673970624971	0.5209367699264627
-0.4699063619062471	0.5170748304105771
-0.4698453267499971	0.5131562087964261
-0.4697842915937471	0.5091935838560477
-0.4697232564374971	0.505193945120311
-0.4696622212812471	0.5011530208449855
-0.4696011861249971	0.497058706211391
-0.4695401509687471	0.492900981144879
-0.4694791158124971	0.48868050471915386
