Time	Frequency
-0.5000228860937526	-0.5429573940349945
-0.49996185093750256	-0.5445848449504044
-0.49990081578125256	-0.5461787385714201
-0.49983978062500256	-0.5477254966015292
-0.49977874546875256	-0.5492160043051165
-0.49971771031250256	-0.5506518657296189
-0.49965667515625256	-0.5520430547466783
-0.49959564000000256	-0.5533995120723185
-0.49953460484375256	-0.5547235764500784
-0.49947356968750256	-0.5560089022665349
-0.49941253453125256	-0.5572461014648489
-0.49935149937500256	-0.5584301692276562
-0.49929046421875256	-0.5595637959398593
-0.49922942906250256	-0.560654375344814
-0.49916839390625256	-0.561707632728983
-0.49910735875000256	-0.5627231964162209
-0.49904632359375256	-0.5636954468325475
-0.49898528843750256	-0.5646185058843811
-0.49892425328125256	-0.5654910001680059
-0.49886321812500256	-0.5663167368992608
-0.49880218296875256	-0.5671010287683027
-0.49874114781250256	-0.5678460012942714
-0.49868011265625256	-0.5685488785659079
-0.49861907750000256	-0.5692045586459549
-0.49855804234375256	-0.569810116456363
-0.49849700718750256	-0.5703673118854693
-0.49843597203125256	-0.5708809705767146
-0.49837493687500256	-0.5713546648433684
-0.49831390171875256	-0.5717874428175503
-0.49825286656250256	-0.5721744670797442
-0.49819183140625256	-0.5725110795164972
-0.49813079625000256	-0.5727968595583323
-0.49806976109375256	-0.5730361875437904
-0.49800872593750256	-0.5732347150121225
-0.49794769078125256	-0.5733945826004343
-0.49788665562500256	-0.5735123644642858
-0.49782562046875256	-0.5735815804500933
-0.49776458531250256	-0.5735978997433432
-0.49770355015625256	-0.573562854469417
-0.49764251500000256	-0.5734829183625282
-0.49758147984375256	-0.5733644802765524
-0.49752044468750256	-0.5732086316862678
-0.49745940953125256	-0.5730099993887678
-0.49739837437500256	-0.5727607510253956
-0.49733733921875256	-0.5724567706132246
-0.49727630406250256	-0.5721011201457191
-0.49721526890625256	-0.5717018992399026
-0.49715423375000256	-0.5712660237265829
-0.49709319859375256	-0.5707937497042173
-0.49703216343750256	-0.5702782961729259
-0.49697112828125256	-0.569710983064187
-0.49691009312500256	-0.5690879709570783
-0.49684905796875256	-0.5684133700955698
-0.49678802281250256	-0.5676962384450104
-0.49672698765625256	-0.5669437019682428
-0.49666595250000256	-0.5661554601839005
-0.49660491734375256	-0.5653239547364852
-0.49654388218750256	-0.5644401437818899
-0.49648284703125256	-0.5635004595549933
-0.49642181187500256	-0.5625096160848537
-0.49636077671875256	-0.5614771057697215
-0.49629974156250256	-0.5604100172124484
-0.49623870640625256	-0.5593076649787729
-0.49617767125000256	-0.5581621666222013
-0.49611663609375256	-0.5569645224143421
-0.49605560093750256	-0.5557115461373773
-0.49599456578125256	-0.5544083416477701
-0.49593353062500256	-0.5530644210637348
-0.49587249546875256	-0.5516864790604337
-0.49581146031250256	-0.5502733963183039
-0.49575042515625256	-0.5488172494918193
-0.49568939000000256	-0.5473094887672401
-0.49562835484375256	-0.5457475317954588
-0.49556731968750256	-0.544136737139269
-0.49550628453125256	-0.5424863104458733
-0.49544524937500256	-0.5408023460032666
-0.49538421421875256	-0.5390833369198157
-0.49532317906250256	-0.537321533774778
-0.49526214390625256	-0.535509012724854
-0.49520110875000256	-0.5336437662371114
-0.49514007359375256	-0.5317312292018982
-0.49507903843750256	-0.5297801563752551
-0.49501800328125256	-0.527796029850586
-0.49495696812500256	-0.5257770526799591
-0.49489593296875256	-0.5237157652313378
-0.49483489781250256	-0.5216049416635743
-0.49477386265625256	-0.5194431775205349
-0.49471282750000256	-0.5172359329613921
-0.49465179234375256	-0.5149913519687557
-0.49459075718750256	-0.5127141610300028
-0.49452972203125256	-0.5104023274539957
-0.49446868687500256	-0.5080489284853525
-0.49440765171875256	-0.5056476450518368
-0.49434661656250256	-0.5031976219528652
-0.49428558140625256	-0.5007040688703139
-0.49422454625000256	-0.4981742728205396
-0.49416351109375256	-0.49561217337484487
-0.49410247593750256	-0.49301565911457734
-0.49404144078125256	-0.4903785298325229
-0.49398040562500256	-0.4876954788533031
-0.49391937046875256	-0.484966208704973
-0.49385833531250256	-0.48219557328832086
-0.49379730015625256	-0.47938984300180176
-0.49373626500000256	-0.4765521222311019
-0.49367522984375256	-0.4736803419356981
-0.49361419468750256	-0.4707691977338992
-0.49355315953125256	-0.46781446236827423
-0.49349212437500256	-0.4648163090589409
-0.49343108921875256	-0.46177914251252106
-0.49337005406250256	-0.4587082069575536
-0.49330901890625256	-0.4556056980774275
-0.49324798375000256	-0.4524694280746761
-0.49318694859375256	-0.44929494801122494
-0.49312591343750256	-0.44607925502873236
-0.49306487828125256	-0.44282317803434423
-0.49300384312500256	-0.43953074413988213
-0.49294280796875256	-0.4362061127190679
-0.49288177281250256	-0.43285052421368
-0.49282073765625256	-0.4294616996340815
-0.49275970250000256	-0.4260360218558604
-0.49269866734375256	-0.42257160563961416
-0.49263763218750256	-0.4190698680985416
-0.49257659703125256	-0.4155344553887149
-0.49251556187500256	-0.41196846181939517
-0.49245452671875256	-0.40837224933412947
-0.49239349156250256	-0.4047435563929711
-0.49233245640625256	-0.401079623731852
-0.49227142125000256	-0.3973795918822624
-0.49221038609375256	-0.3936453403714711
-0.49214935093750256	-0.38988010663539907
-0.49208831578125256	-0.3860860494459118
-0.49202728062500256	-0.3822628111229884
-0.49196624546875256	-0.3784081598328083
-0.49190521031250256	-0.3745200966669078
-0.49184417515625256	-0.3705987139364692
-0.49178314000000256	-0.36664629053071024
-0.49172210484375256	-0.36266559314128854
-0.49166106968750256	-0.35865786327273885
-0.49160003453125256	-0.3546221239786331
-0.49153899937500256	-0.35055627229586644
-0.49147796421875256	-0.3464590482184347
-0.49141692906250256	-0.34233130943238954
-0.49135589390625256	-0.3381755760063733
-0.49129485875000256	-0.33399422223654396
-0.49123382359375256	-0.32978778433352846
-0.49117278843750256	-0.32555477867660304
-0.49111175328125256	-0.3212932188252957
-0.49105071812500256	-0.3170025623169496
-0.49098968296875256	-0.31268443777449334
-0.49092864781250256	-0.3083415716249487
-0.49086761265625256	-0.3039758340148066
-0.49080657750000256	-0.29958697991745115
-0.49074554234375256	-0.2951730696604577
-0.49068450718750256	-0.2907322673496657
-0.49062347203125256	-0.2862646403217015
-0.49056243687500256	-0.2817724703312657
-0.49050140171875256	-0.2772587177498333
-0.49044036656250256	-0.27272490013618667
-0.49037933140625256	-0.2681701671597201
-0.49031829625000256	-0.2635922527629831
-0.49025726109375256	-0.2589895109757829
-0.49019622593750256	-0.254362530603496
-0.49013519078125256	-0.2497140384243268
-0.49007415562500256	-0.24504702889765764
-0.49001312046875256	-0.2403626398109537
-0.48995208531250256	-0.23565953531061853
-0.48989105015625256	-0.2309352302035973
-0.48983001500000256	-0.22618830206944934
-0.48976897984375256	-0.2214198072181515
-0.48970794468750256	-0.21663279954736825
-0.48964690953125256	-0.2118302789366358
-0.48958587437500256	-0.20701312662601426
-0.48952483921875256	-0.20217966541159002
-0.48946380406250256	-0.19732723846474898
-0.48940276890625256	-0.1924545954724847
-0.48934173375000256	-0.18756321708154977
-0.48928069859375256	-0.18265649172528337
-0.48921966343750256	-0.1777373394190922
-0.48915862828125256	-0.17280619819494994
-0.48909759312500256	-0.16786100982304053
-0.48903655796875256	-0.1628991336232044
-0.48897552281250256	-0.15791966828297227
-0.48891448765625256	-0.1529244868749648
-0.48885345250000256	-0.1479171395830896
-0.48879241734375256	-0.1429003649629392
-0.48873138218750256	-0.13787422418837653
-0.48867034703125256	-0.1328363908958443
-0.48860931187500256	-0.12778432676285842
-0.48854827671875256	-0.12271758651397476
-0.48848724156250256	-0.11763843466025707
-0.48842620640625256	-0.11255034175814754
-0.48836517125000256	-0.10745557796334633
-0.48830413609375256	-0.10235379025401628
-0.48824310093750256	-0.09724265442941024
-0.48818206578125256	-0.09212001126557269
-0.48812103062500256	-0.08698581339720646
-0.48805999546875256	-0.08184246278739436
-0.48799896031250256	-0.07669327207181902
-0.48793792515625256	-0.07154017654501127
-0.48787689000000256	-0.06638253426994202
-0.48781585484375256	-0.06121803097322039
-0.48775481968750256	-0.05604489134741513
-0.48769378453125256	-0.050863554967959135
-0.48763274937500256	-0.0456765578966356
-0.48757171421875256	-0.04048681082765559
-0.48751067906250256	-0.03529567066487261
-0.48744964390625256	-0.03010226866115527
-0.48738860875000256	-0.024904526293856952
-0.48732757359375256	-0.019701095807389216
-0.48726653843750256	-0.014492760564108786
-0.48720550328125256	-0.00928216153195492
-0.48714446812500256	-0.0040720423983158
-0.48708343296875256	0.0011365993737688146
-0.48702239781250256	0.006344979997452408
-0.48696136265625256	0.011555231985194115
-0.48690032750000256	0.016768375317988766
-0.48683929234375256	0.021983170885462533
-0.48677825718750256	0.02719678901561576
-0.48671722203125256	0.032406762174296166
-0.48665618687500256	0.03761260686914631
-0.48659515171875256	0.04281581551984391
-0.48653411656250256	0.048018312512362146
-0.48647308140625256	0.0532206370962184
-0.48641204625000256	0.05842120423830598
-0.48635101109375256	0.06361719895046912
-0.48628997593750256	0.0688064864079894
-0.48622894078125256	0.07398900597055598
-0.48616790562500256	0.07916646270274323
-0.48610687046875256	0.08434060736098928
-0.48604583531250256	0.08951151234180507
-0.48598480015625256	0.0946771793947633
-0.48592376500000256	0.09983480898661502
-0.48586272984375256	0.10498272494641527
-0.48580169468750256	0.1101213776741773
-0.48574065953125256	0.11525263366794533
-0.48567962437500256	0.12037793923043968
-0.48561858921875256	0.12549686011281214
-0.48555755406250256	0.13060715100607206
-0.48549651890625256	0.13570620345610862
-0.48543548375000256	0.14079272290651176
-0.48537444859375256	0.14586741375797319
-0.48531341343750256	0.15093215010106031
-0.48525237828125256	0.15598818576917525
-0.48519134312500256	0.16103477388889356
-0.48513030796875256	0.16606935348621785
-0.48506927281250256	0.1710892465192919
-0.48500823765625256	0.1760935335489423
-0.48494720250000256	0.18108352039364217
-0.48488616734375256	0.186061391873411
-0.48482513218750256	0.1910281514006449
-0.48476409703125256	0.19598246096029584
-0.48470306187500256	0.200921345984411
-0.48464202671875256	0.20584224939592508
-0.48458099156250256	0.2107447436206265
-0.48451995640625256	0.21563055717418816
-0.48445892125000256	0.22050194175515442
-0.48439788609375256	0.22535959158772664
-0.48433685093750256	0.2302017334804347
-0.48427581578125256	0.2350251675337337
-0.48421478062500256	0.2398274307376084
-0.48415374546875256	0.24460840767298986
-0.48409271031250256	0.24937019442352287
-0.48403167515625256	0.25411525352321757
-0.48397064000000256	0.2588441742637767
-0.48390960484375256	0.26355481003813486
-0.48384856968750256	0.26824357914814856
-0.48378753453125256	0.272907961156663
-0.48372649937500256	0.2775482303841306
-0.48366546421875256	0.2821670323926076
-0.48360442906250256	0.2867670470758526
-0.48354339390625256	0.2913485254733268
-0.48348235875000256	0.29590869134487013
-0.48342132359375256	0.30044353914483185
-0.48336028843750256	0.3049506825240269
-0.48329925328125256	0.30943105166603013
-0.48323821812500256	0.3138879930072708
-0.48317718296875256	0.31832438250077355
-0.48311614781250256	0.3227400433852265
-0.48305511265625256	0.3271315041410263
-0.48299407750000256	0.33149432635338294
-0.48293304234375256	0.33582628847342466
-0.48287200718750256	0.3401289708924275
-0.48281097203125256	0.3444063957068305
-0.48274993687500256	0.3486616255374462
-0.48268890171875256	0.35289395000110557
-0.48262786656250256	0.3570989674267547
-0.48256683140625256	0.36127165754008544
-0.48250579625000256	0.36541017345192134
-0.48244476109375256	0.3695172673207493
-0.48238372593750256	0.3735979777633062
-0.48232269078125256	0.3776553364755732
-0.48226165562500256	0.3816875381673375
-0.48220062046875256	0.3856888919173711
-0.48213958531250256	0.38965396483202425
-0.48207855015625256	0.39358175560317543
-0.48201751500000256	0.3974764859535458
-0.48195647984375256	0.40134415016884256
-0.48189544468750256	0.40518743789210554
-0.48183440953125256	0.40900311810118883
-0.48177337437500256	0.412784140591463
-0.48171233921875256	0.41652495573885734
-0.48165130406250256	0.42022582655407364
-0.48159026890625256	0.42389258857232553
-0.48152923375000256	0.4275319324095178
-0.48146819859375256	0.4311458061017365
-0.48140716343750256	0.4347293570654399
-0.48134612828125256	0.43827429964033016
-0.48128509312500256	0.44177525207236434
-0.48122405796875256	0.445233982920633
-0.48116302281250256	0.4486580377732587
-0.48110198765625256	0.4520546275489035
-0.48104095250000256	0.4554245362374291
-0.48097991734375256	0.4587610230044681
-0.48091888218750256	0.4620547844047834
-0.48085784703125256	0.46530112897200554
-0.48079681187500256	0.46850364646991366
-0.48073577671875256	0.4716713447430975
-0.48067474156250256	0.4748113755622186
-0.48061370640625256	0.4779230483925946
-0.48055267125000256	0.4809979628549198
-0.48049163609375256	0.48402632576122695
-0.48043060093750256	0.487004547144314
-0.48036956578125256	0.48993804054271894
-0.48030853062500256	0.49283688434258743
-0.48024749546875256	0.4957076801663677
-0.48018646031250256	0.4985480230262978
-0.48012542515625256	0.5013480526777466
-0.48006439000000256	0.5040979874694813
-0.48000335484375256	0.5067957163713342
-0.47994231968750256	0.5094483962014497
-0.47988128453125256	0.5120667178599615
-0.47982024937500256	0.5146563177736535
-0.47975921421875256	0.5172130870937804
-0.47969817906250256	0.5197260934473485
-0.47963714390625256	0.5221859169363307
-0.47957610875000256	0.5245919419949339
-0.47951507359375256	0.5269528348969494
-0.47945403843750256	0.5292796991997905
-0.47939300328125256	0.5315771850701414
-0.47933196812500256	0.5338395482401265
-0.47927093296875256	0.5360548472307186
-0.47920989781250256	0.538214074480358
-0.47914886265625256	0.5403181285430332
-0.47908782750000256	0.5423771548140081
-0.47902679234375256	0.5444026358102415
-0.47896575718750256	0.5463982655213494
-0.47890472203125256	0.5483567181170184
-0.47884368687500256	0.5502649784470648
-0.47878265171875256	0.5521142810093612
-0.47872161656250256	0.5539069969602127
-0.47866058140625256	0.5556549779079537
-0.47859954625000256	0.557370391910206
-0.47853851109375256	0.5590560159684967
-0.47847747593750256	0.5607026137928408
-0.47841644078125256	0.5622956896586448
-0.47835540562500256	0.5638266191253328
-0.47829437046875256	0.5652995792131776
-0.47823333531250256	0.5667286554266547
-0.47817230015625256	0.5681269813301693
-0.47811126500000256	0.5694961589927204
-0.47805022984375256	0.5708243644843461
-0.47798919468750256	0.5720950384988729
-0.47792815953125256	0.5732997646133375
-0.47786712437500256	0.5744453001006644
-0.47780608921875256	0.5755488488641113
-0.47774505406250256	0.5766247358303163
-0.47768401890625256	0.5776726920502042
-0.47762298375000256	0.5786772162073786
-0.47756194859375256	0.5796191259604525
-0.47750091343750256	0.5804906953355832
-0.47743987828125256	0.5813024065997031
-0.47737884312500256	0.5820754342602422
-0.47731780796875256	0.5828251310988485
-0.47725677281250256	0.5835483001330205
-0.47719573765625256	0.5842247018962218
-0.47713470250000256	0.5848323654455637
-0.47707366734375256	0.5853651204863819
-0.47701263218750256	0.5858383526227642
-0.47695159703125256	0.5862777147072163
-0.47689056187500256	0.5866989746018362
-0.47682952671875256	0.5870947775142568
-0.47676849156250256	0.587439360931407
-0.47670745640625256	0.5877083275995674
-0.47664642125000256	0.5878982839222219
-0.47658538609375256	0.5880305179598929
-0.47652435093750256	0.5881349987492996
-0.47646331578125256	0.5882266863617933
-0.47640228062500256	0.5882928859266042
-0.47634124546875256	0.5883022644068965
-0.47628021031250256	0.5882291580912886
-0.47621917515625256	0.5880743000167499
-0.47615814000000256	0.5878652479328216
-0.47609710484375256	0.5876353840361951
-0.47603606968750256	0.5873974675244947
-0.47597503453125256	0.5871327193474414
-0.47591399937500256	0.5868047269044291
-0.47585296421875256	0.5863878665921274
-0.47579192906250256	0.5858880245106303
-0.47573089390625256	0.5853388730845202
-0.47566985875000256	0.5847759442947621
-0.47560882359375256	0.5842085161416284
-0.47554778843750256	0.5836116054912406
-0.47548675328125256	0.5829449221777605
-0.47542571812500256	0.5821843993645474
-0.47536468296875256	0.5813416073859822
-0.47530364781250256	0.5804554232230489
-0.47524261265625256	0.5795619774350147
-0.47518157750000256	0.5786661985365403
-0.47512054234375256	0.577737417767767
-0.47505950718750256	0.576732881987665
-0.47499847203125256	0.5756311451332493
-0.47493743687500256	0.5744492996254825
-0.47487640171875256	0.573230283715886
-0.47481536656250256	0.5720097526285326
-0.47475433140625256	0.5707881545807563
-0.47469329625000256	0.5695299199841591
-0.47463226109375256	0.5681907462382851
-0.47457122593750256	0.5667520613215957
-0.47451019078125256	0.5652359410276278
-0.47444915562500256	0.5636886504238877
-0.47438812046875256	0.562145189712907
-0.47432708531250256	0.5606020514863573
-0.47426605015625256	0.5590193535714499
-0.47420501500000256	0.5573511318754779
-0.47414397984375256	0.5555808639666483
-0.47408294468750256	0.553734935284606
-0.47402190953125256	0.5518633113405266
-0.47396087437500256	0.5500016459638094
-0.47389983921875256	0.5481434936984348
-0.47383880406250256	0.5462441895570056
-0.47377776890625256	0.5442542786111267
-0.47371673375000256	0.5421576488987221
-0.47365569859375256	0.5399851962426642
-0.47359466343750256	0.5377927741755645
-0.47353362828125256	0.535619164675133
-0.47347259312500256	0.5334555633101952
-0.47341155796875256	0.5312504483659253
-0.47335052281250256	0.5289476154103996
-0.47328948765625256	0.5265295751020361
-0.47322845250000256	0.5240331071988765
-0.47316741734375256	0.5215236440145817
-0.47310638218750256	0.5190462164353697
-0.47304534703125256	0.5165896437485746
-0.47298431187500256	0.5140922904325588
-0.47292327671875256	0.5114871731524194
-0.47286224156250256	0.5087537369215014
-0.47280120640625256	0.5059365908363441
-0.47274017125000256	0.503114831949825
-0.47267913609375256	0.5003429519591494
-0.47261810093750256	0.4976074529739065
-0.47255706578125256	0.49483357252205545
-0.47249603062500256	0.4919397074392443
-0.47243499546875256	0.4889001808505216
-0.47237396031250256	0.4857683664739599
-0.47231292515625256	0.48264009430220745
-0.47225189000000256	0.4795823395799042
-0.47219085484375256	0.4765804461603401
-0.47212981968750256	0.473545504797935
-0.47206878453125256	0.470379053890591
-0.47200774937500256	0.467048051840385
-0.47194671421875256	0.4636131201058132
-0.47188567906250256	0.4601864379307284
-0.47182464390625256	0.45684868642526466
-0.47176360875000256	0.453586975834034
-0.47170257359375256	0.4503018007025699
-0.47164153843750256	0.44687985705212563
-0.47158050328125256	0.44327919138425476
-0.47151946812500256	0.43956243683785523
-0.47145843296875256	0.43585195386340125
-0.47139739781250256	0.4322394006536602
-0.47133636265625256	0.42871727771524093
-0.47127532750000256	0.4251841276965224
-0.47121429234375256	0.421519860973784
-0.47115325718750256	0.4176749366825008
-0.47109222203125256	0.41370673920861983
-0.47103118687500256	0.4097363331040032
-0.47097015171875256	0.40585866080214283
-0.47090911656250256	0.4020736158391784
-0.47084808140625256	0.3982886049025476
-0.47078704625000256	0.39438898912951453
-0.47072601109375256	0.39032259593856133
-0.47066497593750256	0.386135617533582
-0.47060394078125256	0.38193527801121224
-0.47054290562500256	0.37780964805135014
-0.47048187046875256	0.3737651588886543
-0.47042083531250256	0.3697265523273482
-0.47035980015625256	0.36559603594286577
-0.47029876500000256	0.36132521840918547
-0.47023772984375256	0.3569468069196946
-0.47017669468750256	0.35254576030309764
-0.47011565953125256	0.34819494439826315
