Time	Frequency
-0.5000208146875025	-4.4775376438229654e-23
-0.4999597795312525	-4.4450821669135463e-23
-0.4998987443750025	-4.411541960330319e-23
-0.4998377092187525	-4.376868157245338e-23
-0.4997766740625025	-4.341099879436644e-23
-0.4997156389062525	-4.304330390930887e-23
-0.4996546037500025	-4.2666184630379793e-23
-0.4995935685937525	-4.227937035456679e-23
-0.4995325334375025	-4.188211481275982e-23
-0.4994714982812525	-4.1474062423128134e-23
-0.4994104631250025	-4.105569500657102e-23
-0.4993494279687525	-4.0627912447129613e-23
-0.4992883928125025	-4.019120041461934e-23
-0.4992273576562525	-3.974524301769587e-23
-0.4991663225000025	-3.928936201661721e-23
-0.4991052873437525	-3.8823319404667346e-23
-0.4990442521875025	-3.83476582271822e-23
-0.4989832170312525	-3.786323938750461e-23
-0.4989221818750025	-3.737046460751731e-23
-0.4988611467187525	-3.686898685433167e-23
-0.4988001115625025	-3.6358193618889364e-23
-0.4987390764062525	-3.5837956863839777e-23
-0.4986780412500025	-3.530887768924881e-23
-0.4986170060937525	-3.477177952802531e-23
-0.4985559709375025	-3.422698232015277e-23
-0.4984949357812525	-3.367410985913307e-23
-0.4984339006250025	-3.3112615520959786e-23
-0.4983728654687525	-3.254247092181494e-23
-0.4983118303125025	-3.196431477862703e-23
-0.4982507951562525	-3.137892214826003e-23
-0.4981897600000025	-3.078654581835262e-23
-0.4981287248437525	-3.0186806252563534e-23
-0.4980676896875025	-2.9579233948923094e-23
-0.4980066545312525	-2.8963894956832295e-23
-0.4979456193750025	-2.834145376030225e-23
-0.4978845842187525	-2.7712619899295876e-23
-0.4978235490625025	-2.7077564472889316e-23
-0.4977625139062525	-2.6435906821372038e-23
-0.4977014787500025	-2.5787266965251038e-23
-0.4976404435937525	-2.5131805663352883e-23
-0.4975794084375025	-2.4470202207360142e-23
-0.4975183732812525	-2.3803102762626474e-23
-0.4974573381250025	-2.3130615123742398e-23
-0.4973963029687525	-2.2452369044578327e-23
-0.4973352678125025	-2.17680672108556e-23
-0.4972742326562525	-2.1077948226872667e-23
-0.4972131975000025	-2.0382691642389486e-23
-0.4971521623437525	-1.968287551921081e-23
-0.4970911271875025	-1.8978547693087145e-23
-0.4970300920312525	-1.826935268844313e-23
-0.4969690568750025	-1.7555074896683113e-23
-0.4969080217187525	-1.6836027048749447e-23
-0.4968469865625025	-1.61128885546306e-23
-0.4967859514062525	-1.538617293032681e-23
-0.4967249162500025	-1.4655879652593484e-23
-0.4966638810937525	-1.392167547649105e-23
-0.4966028459375025	-1.318340701299179e-23
-0.4965418107812525	-1.2441430024449718e-23
-0.4964807756250025	-1.1696420402956937e-23
-0.4964197404687525	-1.0948853114270632e-23
-0.4963587053125025	-1.0198693676623392e-23
-0.4962976701562525	-9.445622384261993e-24
-0.4962366350000025	-8.689542513960599e-24
-0.4961755998437525	-7.930849811529966e-24
-0.4961145646875025	-7.17020260770359e-24
-0.4960535295312525	-6.408031562807462e-24
-0.4959924943750025	-5.644286982259454e-24
-0.4959314592187525	-4.878673977887129e-24
-0.4958704240625025	-4.111136000865383e-24
-0.4958093889062525	-3.34209832450796e-24
-0.4957483537500025	-2.5722126371984618e-24
-0.4956873185937525	-1.8018674519633963e-24
-0.4956262834375025	-1.0309781054899168e-24
-0.4955652482812525	-2.5925915477467944e-25
-0.4955042131250025	5.13305590368249e-25
-0.4954431779687525	1.2862626305320155e-24
-0.4953821428125025	2.058962168338203e-24
-0.4953211076562525	2.8310345802474337e-24
-0.4952600725000025	3.6025838392691086e-24
-0.4951990373437525	4.373895949000997e-24
-0.4951380021875025	5.144959997992837e-24
-0.4950769670312525	5.915296057615941e-24
-0.4950159318750025	6.684264143773605e-24
-0.4949548967187525	7.45153207164209e-24
-0.4948938615625025	8.217225028981953e-24
-0.4948328264062525	8.98161197832395e-24
-0.4947717912500025	9.744652958286884e-24
-0.4947107560937525	1.0505860309329788e-23
-0.4946497209375025	1.1264610923693789e-23
-0.4945886857812525	1.2020599782889517e-23
-0.4945276506250025	1.2773972218640922e-23
-0.4944666154687525	1.35249937532978e-23
-0.4944055803125025	1.4273595083597783e-23
-0.4943445451562525	1.5019257320713155e-23
-0.4942835100000025	1.5761355929515287e-23
-0.4942224748437525	1.6499617409062266e-23
-0.4941614396875025	1.7234224992683853e-23
-0.4941004045312525	1.7965461443894555e-23
-0.4940393693750025	1.8693245961574417e-23
-0.4939783342187525	1.9417035414802133e-23
-0.4939172990625025	2.0136197712885636e-23
-0.4938562639062525	2.085048431646222e-23
-0.4937952287500025	2.15601179276748e-23
-0.4937341935937525	2.226539512909599e-23
-0.4936731584375025	2.2966205631892394e-23
-0.4936121232812525	2.366196618864336e-23
-0.4935510881250025	2.4352043230901212e-23
-0.4934900529687525	2.50362350788423e-23
-0.4934290178125025	2.5714819014529046e-23
-0.4933679826562525	2.6388109651153983e-23
-0.4933069475000025	2.705597250152899e-23
-0.4932459123437525	2.771778537809829e-23
-0.4931848771875025	2.8372899422901396e-23
-0.4931238420312525	2.902114538911696e-23
-0.4930628068750025	2.9662863396205145e-23
-0.4930017717187525	3.029840674500555e-23
-0.4929407365625025	3.092761774064319e-23
-0.4928797014062525	3.154981948048177e-23
-0.4928186662500025	3.216434625764174e-23
-0.4927576310937525	3.2771080735412593e-23
-0.4926965959375025	3.3370442012461405e-23
-0.4926355607812525	3.3962815465512194e-23
-0.4925745256250025	3.454800193888546e-23
-0.4925134904687525	3.512526122055848e-23
-0.4924524553125025	3.5693916747223243e-23
-0.4923914201562525	3.6253914345596703e-23
-0.4923303850000025	3.6805758507172544e-23
-0.4922693498437525	3.7349867813348453e-23
-0.4922083146875025	3.788599850542841e-23
-0.4921472795312525	3.8413338768473635e-23
-0.4920862443750025	3.893119940739991e-23
-0.4920252092187525	3.943960384870994e-23
-0.4919641740625025	3.9939158594261545e-23
-0.4919031389062525	4.043031548968407e-23
-0.4918421037500025	4.091277246064849e-23
-0.4917810685937525	4.1385637207915384e-23
-0.4917200334375025	4.184821198305336e-23
-0.4916589982812525	4.2300607941572086e-23
-0.4915979631250025	4.274354440305913e-23
-0.4915369279687525	4.317750982761537e-23
-0.4914758928125025	4.360212955936486e-23
-0.4914148576562525	4.4016410003025626e-23
-0.4913538225000025	4.441964380219655e-23
-0.4912927873437525	4.481205665424239e-23
-0.4912317521875025	4.51945080315701e-23
-0.4911707170312525	4.556752032855297e-23
-0.4911096818750025	4.5930622624142166e-23
-0.4910486467187525	4.6282703675596837e-23
-0.4909876115625025	4.662304909218892e-23
-0.4909265764062525	4.6952014990194254e-23
-0.4908655412500025	4.7270618980107776e-23
-0.4908045060937525	4.7579422417976886e-23
-0.4907434709375025	4.7877837152982215e-23
-0.4906824357812525	4.81646057144532e-23
-0.4906214006250025	4.843901218680455e-23
-0.4905603654687525	4.870158669194054e-23
-0.4904993303125025	4.8953536614427546e-23
-0.4904382951562525	4.919544155000436e-23
-0.4903772600000025	4.94265473078052e-23
-0.4903162248437525	4.96454288222032e-23
-0.4902551896875025	4.9851393331530363e-23
-0.4901941545312525	5.0045187535940784e-23
-0.4901331193750025	5.022823134494954e-23
-0.4900720842187525	5.0401107227855215e-23
-0.4900110490625025	5.0562853045656036e-23
-0.4899500139062525	5.071184517317557e-23
-0.4898889787500025	5.0847430222835513e-23
-0.4898279435937525	5.0970628015226326e-23
-0.4897669084375025	5.108311089534552e-23
-0.4897058732812525	5.118543794223508e-23
-0.4896448381250025	5.127636750630511e-23
-0.4895838029687525	5.1354037903766583e-23
-0.4895227678125025	5.141787532436001e-23
-0.4894617326562525	5.14692518094755e-23
-0.4894006975000025	5.151012437228753e-23
-0.4893396623437525	5.1540978725287276e-23
-0.4892786271875025	5.156021475122221e-23
-0.4892175920312525	5.156570922801972e-23
-0.4891565568750025	5.155702751039403e-23
-0.4890955217187525	5.153597797498495e-23
-0.4890344865625025	5.150482384351517e-23
-0.4889734514062525	5.146391017520508e-23
-0.4889124162500025	5.1411188441670413e-23
-0.4888513810937525	5.13442552497608e-23
-0.4887903459375025	5.126288993739252e-23
-0.4887293107812525	5.116942846746571e-23
-0.4886682756250025	5.106645167649275e-23
-0.4886072404687525	5.0954082875984473e-23
-0.4885462053125025	5.082973587050027e-23
-0.4884851701562525	5.0690722428395464e-23
-0.4884241350000025	5.0537122436655005e-23
-0.4883630998437525	5.0371890160210344e-23
-0.4883020646875025	5.0197924101105165e-23
-0.4882410295312525	5.001503072127695e-23
-0.4881799943750025	4.981999148242856e-23
-0.4881189592187525	4.9609838368107296e-23
-0.4880579240625025	4.9385052985444274e-23
-0.4879968889062525	4.914930044727069e-23
-0.4879358537500025	4.89057859043235e-23
-0.4878748185937525	4.8653898173120783e-23
-0.4878137834375025	4.838970140619051e-23
-0.4877527482812525	4.8109964496849223e-23
-0.4876917131250025	4.781566924480824e-23
-0.4876306779687525	4.751127017586781e-23
-0.4875696428125025	4.72002569149351e-23
-0.4875086076562525	4.688149858205537e-23
-0.4874475725000025	4.6550264553974986e-23
-0.4873865373437525	4.620308831686085e-23
-0.4873255021875025	4.584155133738492e-23
-0.4872644670312525	4.5470959684880945e-23
-0.4872034318750025	4.5095051149675434e-23
-0.4871423967187525	4.471208847207243e-23
-0.4870813615625025	4.431650369967501e-23
-0.4870203264062525	4.390463338339769e-23
-0.4869592912500025	4.3478728359650376e-23
-0.4868982560937525	4.3044970947372884e-23
-0.4868372209375025	4.2607304770951987e-23
-0.4867761857812525	4.21633315051671e-23
-0.4867151506250025	4.170664357957819e-23
-0.4866541154687525	4.12334295025966e-23
-0.4865930803125025	4.074664448902846e-23
-0.4865320451562525	4.02533148855619e-23
-0.4864710100000025	3.975752213539844e-23
-0.4864099748437525	3.925619150311575e-23
-0.4863489396875025	3.8742146205797844e-23
-0.4862879045312525	3.8211505332452546e-23
-0.4862268693750025	3.766791210617211e-23
-0.4861658342187525	3.7119125002368845e-23
-0.4861047990625025	3.656927264202664e-23
-0.4860437639062525	3.6014648905470225e-23
-0.4859827287500025	3.5447466902506574e-23
-0.4859216935937525	3.4863886855487203e-23
-0.4858606584375025	3.426815831628098e-23
-0.4857996232812525	3.3668553945461287e-23
-0.4857385881250025	3.306912297653509e-23
-0.4856775529687525	3.246564509360244e-23
-0.4856165178125025	3.184997903718425e-23
-0.4855554826562525	3.121845449686766e-23
-0.4854944475000025	3.057577965207898e-23
-0.4854334123437525	2.993045561990626e-23
-0.4853723771875025	2.9286322380383846e-23
-0.4853113420312525	2.863881209544306e-23
-0.4852503068750025	2.797972712155945e-23
-0.4851892717187525	2.7305695203727333e-23
-0.4851282365625025	2.662170989552325e-23
-0.4850672014062525	2.5936189593609762e-23
-0.4850061662500025	2.5252618583395577e-23
-0.4849451310937525	2.456625393407607e-23
-0.4848840959375025	2.3869168463966536e-23
-0.4848230607812525	2.3158430162588296e-23
-0.4847620256250025	2.2439127423510228e-23
-0.4847009904687525	2.171927881851433e-23
-0.4846399553125025	2.100189406320958e-23
-0.4845789201562525	2.0282235370837986e-23
-0.4845178850000025	1.9552926389570843e-23
-0.4844568498437525	1.881158280887874e-23
-0.4843958146875025	1.8063232991848978e-23
-0.4843347795312525	1.7315240313791788e-23
-0.4842737443750025	1.6570036158478172e-23
-0.4842127092187525	1.5823020991372275e-23
-0.4841516740625025	1.5067574377310384e-23
-0.4840906389062525	1.4301919327577058e-23
-0.4840296037500025	1.3530905345331803e-23
-0.4839685685937525	1.2761098470075067e-23
-0.4839075334375025	1.1994333214272822e-23
-0.4838464982812525	1.1226245819572978e-23
-0.4837854631250025	1.045106586331638e-23
-0.4837244279687525	9.667622355735941e-24
-0.4836633928125025	8.880508137619864e-24
-0.4836023576562525	8.095427858980414e-24
-0.4835413225000025	7.313622928905275e-24
-0.4834802873437525	6.531008301510547e-24
-0.4834192521875025	5.7426884359001535e-24
-0.4833582170312525	4.9480827544093014e-24
-0.4832971818750025	4.15149554885433e-24
-0.4832361467187525	3.3577626853062985e-24
-0.4831751115625025	2.5675623391996438e-24
-0.4831140764062525	1.777119924996485e-24
-0.4830530412500025	9.824025821886657e-25
-0.4829920060937525	1.8337059448378097e-25
-0.4829309709375025	-6.159898907339004e-25
-0.4828699357812525	-1.4116771742012463e-24
-0.4828089006250025	-2.203504038587658e-24
-0.4827478654687525	-2.9949126894442697e-24
-0.4826868303125025	-3.789148976725517e-24
-0.4826257951562525	-4.58581291424082e-24
-0.4825647600000025	-5.3812467467547786e-24
-0.4825037248437525	-6.1721918732065265e-24
-0.4824426896875025	-6.958866595845117e-24
-0.4823816545312525	-7.744388012249855e-24
-0.4823206193750025	-8.531298259138638e-24
-0.4822595842187525	-9.318835071469026e-24
-0.4821985490625025	-1.0103668551865719e-23
-0.4821375139062525	-1.0883197745933167e-23
-0.4820764787500025	-1.1657954328281152e-23
-0.4820154435937525	-1.2430730652609445e-23
-0.4819544084375025	-1.3203465432923908e-23
-0.4818933732812525	-1.3975136923449174e-23
-0.4818323381250025	-1.4742753562635168e-23
-0.4817713029687525	-1.5504291135257717e-23
-0.4817102678125025	-1.6260505904656648e-23
-0.4816492326562525	-1.7013852569097094e-23
-0.4815881975000025	-1.776573816061402e-23
-0.4815271623437525	-1.851495881755373e-23
-0.4814661271875025	-1.925885584953057e-23
-0.4814050920312525	-1.9995899183936144e-23
-0.4813440568750025	-2.0727010049304075e-23
-0.4812830217187525	-2.1454340400334417e-23
-0.4812219865625025	-2.2178855993726135e-23
-0.4811609514062525	-2.2899227589977227e-23
-0.4810999162500025	-2.3613106789703633e-23
-0.4810388810937525	-2.431938494255623e-23
-0.4809778459375025	-2.5019091981387143e-23
-0.4809168107812525	-2.5714082289380586e-23
-0.4808557756250025	-2.6404941255405965e-23
-0.4807947404687525	-2.7090277477188264e-23
-0.4807337053125025	-2.7768058484122674e-23
-0.4806726701562525	-2.843753660789125e-23
-0.4806116350000025	-2.9099786734511324e-23
-0.4805505998437525	-2.975637332256106e-23
-0.4804895646875025	-3.0407575890569927e-23
-0.4804285295312525	-3.105199740169536e-23
-0.4803674943750025	-3.1687899218686386e-23
-0.4803064592187525	-3.2314828750695154e-23
-0.4802454240625025	-3.293386783416323e-23
-0.4801843889062525	-3.3546309430184776e-23
-0.4801233537500025	-3.415218064818105e-23
-0.4800623185937525	-3.475012141451046e-23
-0.4800012834375025	-3.53386839026867e-23
-0.4799402482812525	-3.591766989691344e-23
-0.4798792131250025	-3.648813476767477e-23
-0.4798181779687525	-3.705110694482474e-23
-0.4797571428125025	-3.760639169793348e-23
-0.4796961076562525	-3.8152682465075446e-23
-0.4796350725000025	-3.868881297412976e-23
-0.4795740373437525	-3.9214819687438756e-23
-0.4795130021875025	-3.9731725147269124e-23
-0.4794519670312525	-4.024031330492143e-23
-0.4793909318750025	-4.074019938928186e-23
-0.4793298967187525	-4.1230140869087143e-23
-0.4792688615625025	-4.170922430576383e-23
-0.4792078264062525	-4.217767686063918e-23
-0.4791467912500025	-4.263647615754352e-23
-0.4790857560937525	-4.3086197431291387e-23
-0.4790247209375025	-4.352631411794206e-23
-0.4789636857812525	-4.3955661410528487e-23
-0.4789026506250025	-4.437354923576663e-23
-0.4788416154687525	-4.4780357222060507e-23
-0.4787805803125025	-4.517700983208474e-23
-0.4787195451562525	-4.556390204188143e-23
-0.4786585100000025	-4.5940400933942007e-23
-0.4785974748437525	-4.630542496243047e-23
-0.4785364396875025	-4.6658479181525e-23
-0.4784754045312525	-4.7000067077008406e-23
-0.4784143693750025	-4.7331061642040025e-23
-0.4783533342187525	-4.7651705613304973e-23
-0.4782922990625025	-4.7961285867409306e-23
-0.4782312639062525	-4.825880714812949e-23
-0.4781702287500025	-4.854394812935662e-23
-0.4781091935937525	-4.8817305302063986e-23
-0.4780481584375025	-4.9079688655921015e-23
-0.4779871232812525	-4.933121531484201e-23
-0.4779260881250025	-4.9571134225211893e-23
-0.4778650529687525	-4.979854742124142e-23
-0.4778040178125025	-5.0013274401611737e-23
-0.4777429826562525	-5.021596897969282e-23
-0.4776819475000025	-5.0407378378240236e-23
-0.4776209123437525	-5.0587520712047354e-23
-0.4775598771875025	-5.075563008986793e-23
-0.4774988420312525	-5.091091207776751e-23
-0.4774378068750025	-5.105331585762395e-23
-0.4773767717187525	-5.11835300192306e-23
-0.4773157365625025	-5.1302224791914665e-23
-0.4772547014062525	-5.140933359528219e-23
-0.4771936662500025	-5.1504105949150565e-23
-0.4771326310937525	-5.1585859926861656e-23
-0.4770715959375025	-5.1654652068908966e-23
-0.4770105607812525	-5.171118271019615e-23
-0.4769495256250025	-5.1756047899148176e-23
-0.4768884904687525	-5.178911539560784e-23
-0.4768274553125025	-5.1809660516848266e-23
-0.4767664201562525	-5.181710848999804e-23
-0.4767053850000025	-5.1811613095681657e-23
-0.4766443498437525	-5.179388184026069e-23
-0.4765833146875025	-5.176444000556948e-23
-0.4765222795312525	-5.1723098562988466e-23
-0.4764612443750025	-5.166916714429899e-23
-0.4764002092187525	-5.160217885233197e-23
-0.4763391740625025	-5.152237432517183e-23
-0.4762781389062525	-5.1430454480995216e-23
-0.4762171037500025	-5.1326870537573636e-23
-0.4761560685937525	-5.1211388185319926e-23
-0.4760950334375025	-5.1083366632988313e-23
-0.4760339982812525	-5.0942451278382204e-23
-0.4759729631250025	-5.078895988432598e-23
-0.4759119279687525	-5.062357298195203e-23
-0.4758508928125025	-5.0446663295065086e-23
-0.4757898576562525	-5.0257959101174636e-23
-0.4757288225000025	-5.00568782964971e-23
-0.4756677873437525	-4.984317733307798e-23
-0.4756067521875025	-4.9617241822243835e-23
-0.4755457170312525	-4.937972734715215e-23
-0.4754846818750025	-4.913093442869444e-23
-0.4754236467187525	-4.887056520645213e-23
-0.4753626115625025	-4.859810250996268e-23
-0.4753015764062525	-4.831340748345631e-23
-0.4752405412500025	-4.801691773448249e-23
-0.4751795060937525	-4.7709253775281177e-23
-0.4751184709375025	-4.7390650344151984e-23
-0.4750574357812525	-4.706079780092966e-23
-0.4749964006250025	-4.671924673979812e-23
-0.4749353654687525	-4.6365950201090676e-23
-0.4748743303125025	-4.600138680700682e-23
-0.4748132951562525	-4.562614663411978e-23
-0.4747522600000025	-4.524041486106838e-23
-0.4746912248437525	-4.484388200556446e-23
-0.4746301896875025	-4.4436159527049384e-23
-0.4745691545312525	-4.401727133572758e-23
-0.4745081193750025	-4.358772424472012e-23
-0.4744470842187525	-4.314808563985496e-23
-0.4743860490625025	-4.269850332699392e-23
-0.4743250139062525	-4.223866557140321e-23
-0.4742639787500025	-4.176823631924374e-23
-0.4742029435937525	-4.128731002256037e-23
-0.4741419084375025	-4.0796422973154333e-23
-0.4740808732812525	-4.0296118413262357e-23
-0.4740198381250025	-3.978651395809054e-23
-0.4739588029687525	-3.926730736204649e-23
-0.4738977678125025	-3.8738209212837615e-23
-0.4738367326562525	-3.819936535549623e-23
-0.4737756975000025	-3.7651338310563817e-23
-0.4737146623437525	-3.70946617288589e-23
-0.4736536271875025	-3.652942584375075e-23
-0.4735925920312525	-3.595532152138332e-23
-0.4735315568750025	-3.5372095909277416e-23
-0.4734705217187525	-3.4779949075374994e-23
-0.4734094865625025	-3.4179468803354337e-23
-0.4733484514062525	-3.3571177723776333e-23
-0.4732874162500025	-3.295514926498496e-23
-0.4732263810937525	-3.233107994923137e-23
-0.4731653459375025	-3.1698750356035874e-23
-0.4731043107812525	-3.105840236518513e-23
-0.4730432756250025	-3.0410644665675146e-23
-0.4729822404687525	-2.9755987280649473e-23
-0.4729212053125025	-2.9094482003204734e-23
-0.4728601701562525	-2.842583155461247e-23
-0.4727991350000025	-2.7749854722486065e-23
-0.4727380998437525	-2.7066834500404676e-23
-0.4726770646875025	-2.6377393373261807e-23
-0.4726160295312525	-2.568202553960831e-23
-0.4725549943750025	-2.4980763039071817e-23
-0.4724939592187525	-2.427331076290329e-23
-0.4724329240625025	-2.3559517131880077e-23
-0.4723718889062525	-2.2839706773981075e-23
-0.4723108537500025	-2.2114530313775426e-23
-0.4722498185937525	-2.1384478634859927e-23
-0.4721887834375025	-2.064955567844185e-23
-0.4721277482812525	-1.9909447765075375e-23
-0.4720667131250025	-1.9164024382807097e-23
-0.4720056779687525	-1.841365712613326e-23
-0.4719446428125025	-1.7659027083586435e-23
-0.4718836076562525	-1.690061767330534e-23
-0.4718225725000025	-1.6138407064056582e-23
-0.4717615373437525	-1.5372072409383645e-23
-0.4717005021875025	-1.460150349475408e-23
