Time	Frequency
-0.5000267008749972	2.2666950100999365e-23
-0.49996566571874723	2.3690180634127692e-23
-0.49990463056249723	2.4710381733125471e-23
-0.49984359540624723	2.5724110764758894e-23
-0.49978256024999723	2.6732748123353944e-23
-0.49972152509374723	2.7740045151960303e-23
-0.49966048993749723	2.8745495117662776e-23
-0.49959945478124723	2.9744750405377795e-23
-0.49953841962499723	3.073667069508743e-23
-0.49947738446874723	3.172515742445355e-23
-0.49941634931249723	3.2712401511650225e-23
-0.49935531415624723	3.369478054827817e-23
-0.49929427899999723	3.4668553325658144e-23
-0.49923324384374723	3.563600575607456e-23
-0.49917220868749723	3.6601525328332746e-23
-0.49911117353124723	3.756389896177788e-23
-0.49905013837499723	3.8517894252221673e-23
-0.49898910321874723	3.946280758829245e-23
-0.49892806806249723	4.040360971035048e-23
-0.49886703290624723	4.1342414477021734e-23
-0.49880599774999723	4.2274485843724967e-23
-0.49874496259374723	4.319581563565164e-23
-0.49868392743749723	4.4109775975542737e-23
-0.49862289228124723	4.5021401507674317e-23
-0.49856185712499723	4.592857729366272e-23
-0.49850082196874723	4.682511362866977e-23
-0.49843978681249723	4.7710928617000696e-23
-0.49837875165624723	4.8592196853256636e-23
-0.49831771649999723	4.947080767995597e-23
-0.49825668134374723	5.0340721606213903e-23
-0.49819564618749723	5.1197744793227474e-23
-0.49813461103124723	5.204655447861831e-23
-0.49807357587499723	5.289282031067396e-23
-0.49801254071874723	5.373328494354468e-23
-0.49795150556249723	5.456072403255676e-23
-0.49789047040624723	5.53759380289628e-23
-0.49782943524999723	5.61865367307829e-23
-0.49776840009374723	5.699399876462502e-23
-0.49770736493749723	5.779062210696285e-23
-0.49764632978124723	5.857206054943439e-23
-0.49758529462499723	5.93447286282736e-23
-0.49752425946874723	6.011511599315094e-23
-0.49746322431249723	6.087842039322789e-23
-0.49740218915624723	6.162598553916699e-23
-0.49734115399999723	6.235977394861917e-23
-0.49728011884374723	6.308939860411117e-23
-0.49721908368749723	6.38158461241325e-23
-0.49715804853124723	6.452907098382032e-23
-0.49709701337499723	6.522436615689045e-23
-0.49703597821874723	6.591055663320872e-23
-0.49697494306249723	6.659552672074488e-23
-0.49691390790624723	6.727248402319393e-23
-0.49685287274999723	6.79304781637895e-23
-0.49679183759374723	6.857267360937534e-23
-0.49673080243749723	6.921164214505484e-23
-0.49666976728124723	6.984831596184501e-23
-0.49660873212499723	7.046950258255602e-23
-0.49654769696874723	7.106930339054049e-23
-0.49648666181249723	7.165942210609616e-23
-0.49642562665624723	7.225019403812424e-23
-0.49636459149999723	7.28328076860659e-23
-0.49630355634374723	7.339292379656118e-23
-0.49624252118749723	7.393445603359986e-23
-0.49618148603124723	7.447387544519504e-23
-0.49612045087499723	7.50129995973186e-23
-0.49605941571874723	7.553497560009079e-23
-0.49599838056249723	7.603144091814702e-23
-0.49593734540624723	7.651682832204504e-23
-0.49587631024999723	7.700521465174395e-23
-0.49581527509374723	7.748667908664351e-23
-0.49575423993749723	7.794261697815297e-23
-0.49569320478124723	7.837616558160809e-23
-0.49563216962499723	7.880775330691374e-23
-0.49557113446874723	7.92418174947513e-23
-0.49551009931249723	7.965879122741162e-23
-0.49544906415624723	8.004645715484938e-23
-0.49538802899999723	8.042014840550162e-23
-0.49532699384374723	8.07982198060964e-23
-0.49526595868749723	8.117196716411361e-23
-0.49520492353124723	8.151919403340887e-23
-0.49514388837499723	8.18400624949078e-23
-0.49508285321874723	8.215704634102967e-23
-0.49502181806249723	8.247859808011591e-23
-0.49496078290624723	8.278526054425787e-23
-0.49489974774999723	8.306092235439132e-23
-0.49483871259374723	8.331874773559969e-23
-0.49477767743749723	8.357983598663555e-23
-0.49471664228124723	8.383916896788809e-23
-0.49465560712499723	8.407380332803608e-23
-0.49459457196874723	8.427978846244187e-23
-0.49453353681249723	8.447817369271413e-23
-0.49447250165624723	8.468088041908441e-23
-0.49441146649999723	8.48717735389655e-23
-0.49435043134374723	8.503294379785371e-23
-0.49428939618749723	8.517324604249491e-23
-0.49422836103124723	8.531346671319313e-23
-0.49416732587499723	8.545286974536366e-23
-0.49410629071874723	8.557095880854735e-23
-0.49404525556249723	8.566063557783073e-23
-0.49398422040624723	8.573900943868504e-23
-0.49392318524999723	8.58193759793135e-23
-0.49386215009374723	8.589021558148393e-23
-0.49380111493749723	8.593434195696269e-23
-0.49374007978124723	8.595634855049916e-23
-0.49367904462499723	8.597448342509129e-23
-0.49361800946874723	8.599119318303265e-23
-0.49355697431249723	8.598986260498116e-23
-0.49349593915624723	8.59618759336704e-23
-0.49343490399999723	8.591991557817015e-23
-0.49337386884374723	8.587701857966252e-23
-0.49331283368749723	8.582596497557884e-23
-0.49325179853124723	8.575155996916276e-23
-0.49319076337499723	8.565496428735798e-23
-0.49312972821874723	8.55511474561358e-23
-0.49306869306249723	8.544470669783623e-23
-0.49300765790624723	8.53231332362843e-23
-0.49294662274999723	8.517729299411187e-23
-0.49288558759374723	8.501562173391523e-23
-0.49282455243749723	8.48500626758894e-23
-0.49276351728124723	8.467723179064902e-23
-0.49270248212499723	8.448454808549395e-23
-0.49264144696874723	8.427039198823451e-23
-0.49258041181249723	8.404605909571161e-23
-0.49251937665624723	8.38175141730712e-23
-0.49245834149999723	8.35764949144315e-23
-0.49239730634374723	8.331421704136939e-23
-0.49233627118749723	8.303504733035191e-23
-0.49227523603124723	8.274896959468657e-23
-0.49221420087499723	8.245588040872427e-23
-0.49215316571874723	8.214651792991281e-23
-0.49209213056249723	8.181741800958496e-23
-0.49203109540624723	8.147585526471676e-23
-0.49197006024999723	8.112794458845546e-23
-0.49190902509374723	8.076948124592499e-23
-0.49184798993749723	8.039329595354919e-23
-0.49178695478124723	8.000048111965372e-23
-0.49172591962499723	7.959806406026782e-23
-0.49166488446874723	7.918791394840774e-23
-0.49160384931249723	7.876452789734841e-23
-0.49154281415624723	7.832415769484772e-23
-0.49148177899999723	7.787033728671698e-23
-0.49142074384374723	7.74078764606615e-23
-0.49135970868749723	7.693562574696842e-23
-0.49129867353124723	7.644901218155991e-23
-0.49123763837499723	7.594738841761632e-23
-0.49117660321874723	7.543460181187287e-23
-0.49111556806249723	7.49127899151109e-23
-0.49105453290624723	7.437955754246065e-23
-0.49099349774999723	7.383228668360655e-23
-0.49093246259374723	7.327215566955799e-23
-0.49087142743749723	7.270194116146648e-23
-0.49081039228124723	7.212180298952184e-23
-0.49074935712499723	7.152960547121391e-23
-0.49068832196874723	7.092457429233575e-23
-0.49062728681249723	7.030832713226808e-23
-0.49056625165624723	6.968220966760483e-23
-0.49050521649999723	6.904552525583741e-23
-0.49044418134374723	6.839707871836746e-23
-0.49038314618749723	6.773713996007199e-23
-0.49032211103124723	6.706690069165003e-23
-0.49026107587499723	6.638672423284515e-23
-0.49020004071874723	6.569596118848301e-23
-0.49013900556249723	6.499423497448768e-23
-0.49007797040624723	6.428201967022894e-23
-0.49001693524999723	6.355991697679534e-23
-0.48995590009374723	6.28280034212732e-23
-0.48989486493749723	6.208604964102784e-23
-0.48983382978124723	6.133400389599989e-23
-0.48977279462499723	6.057209227013408e-23
-0.48971175946874723	5.98006494778653e-23
-0.48965072431249723	5.901993299358834e-23
-0.48958968915624723	5.822994497834443e-23
-0.48952865399999723	5.74304776002891e-23
-0.48946761884374723	5.662154731478704e-23
-0.48940658368749723	5.580367223384342e-23
-0.48934554853124723	5.497737402037511e-23
-0.48928451337499723	5.414249890061239e-23
-0.48922347821874723	5.329853766244036e-23
-0.48916244306249723	5.24456334309181e-23
-0.48910140790624723	5.1584659847135683e-23
-0.48904037274999723	5.0716080442860477e-23
-0.48897933759374723	4.983934053172267e-23
-0.48891830243749723	4.895388885618233e-23
-0.48885726728124723	4.8060325278617394e-23
-0.48879623212499723	4.715976570750334e-23
-0.48873519696874723	4.625229458996906e-23
-0.48867416181249723	4.533698009462035e-23
-0.48861312665624723	4.4413534744952266e-23
-0.48855209149999723	4.3483038516666765e-23
-0.48849105634374723	4.254651369208913e-23
-0.48843002118749723	4.1603516929014244e-23
-0.48836898603124723	4.065301623811839e-23
-0.48830795087499723	3.9695240680430516e-23
-0.48824691571874723	3.873156735407478e-23
-0.48818588056249723	3.7762609749372497e-23
-0.48812484540624723	3.678750491961052e-23
-0.48806381024999723	3.580549490532899e-23
-0.48800277509374723	3.481733871871677e-23
-0.48794173993749723	3.3824359919240417e-23
-0.48788070478124723	3.282662792931343e-23
-0.48781966962499723	3.182312721564838e-23
-0.48775863446874723	3.081359624257852e-23
-0.48769759931249723	2.9799125730291534e-23
-0.48763656415624723	2.8780663097395656e-23
-0.48757552899999723	2.775781916135046e-23
-0.48751449384374723	2.672977915272993e-23
-0.48745345868749723	2.569681267744609e-23
-0.48739242353124723	2.466004990949443e-23
-0.48733138837499723	2.361997239931403e-23
-0.48727035321874723	2.2575971841516405e-23
-0.48720931806249723	2.1527573860811416e-23
-0.48714828290624723	2.047539234501069e-23
-0.48708724774999723	1.9420384891490723e-23
-0.48702621259374723	1.836262735139889e-23
-0.48696517743749723	1.7301499341882708e-23
-0.48690414228124723	1.6236918350085162e-23
-0.48684310712499723	1.51696836623713e-23
-0.48678207196874723	1.4100473842268442e-23
-0.48672103681249723	1.3029097304631768e-23
-0.48666000165624723	1.1955087715770744e-23
-0.48659896649999723	1.0878662213398039e-23
-0.48653793134374723	9.80060370751465e-24
-0.48647689618749723	8.721324392385331e-24
-0.48641586103124723	7.640545719397202e-24
-0.48635482587499723	6.5580033652002936e-24
-0.48629379071874723	5.474069278451923e-24
-0.48623275556249723	4.3894030160727765e-24
-0.48617172040624723	3.3042066220553103e-24
-0.48611068524999723	2.218199875195082e-24
-0.48604965009374723	1.1313301973828086e-24
-0.48598861493749723	4.411747301338778e-26
-0.48592757978124723	-1.0428885694296378e-24
-0.48586654462499723	-2.1296748854936557e-24
-0.48580550946874723	-3.2164948916736524e-24
-0.48574447431249723	-4.3032176076700016e-24
-0.48568343915624723	-5.3892972795418294e-24
-0.48562240399999723	-6.474372293663696e-24
-0.48556136884374723	-7.558546792284965e-24
-0.48550033368749723	-8.641950339048298e-24
-0.48543929853124723	-9.724281193451673e-24
-0.48537826337499723	-1.0805008260453309e-23
-0.48531722821874723	-1.1883905430507777e-23
-0.48525619306249723	-1.2961123801668665e-23
-0.48519515790624723	-1.4036706474601153e-23
-0.48513412274999723	-1.5110273404866275e-23
-0.48507308759374723	-1.6181337964592912e-23
-0.48501205243749723	-1.7249775831140612e-23
-0.48495101728124723	-1.8315750198132374e-23
-0.48488998212499723	-1.9379216078206455e-23
-0.48482894696874723	-2.0439748844207537e-23
-0.48476791181249723	-2.1496934121558784e-23
-0.48470687665624723	-2.2550717331799562e-23
-0.48464584149999723	-2.36012143559613e-23
-0.48458480634374723	-2.4648302433998767e-23
-0.48452377118749723	-2.569157541172446e-23
-0.48446273603124723	-2.673068292346735e-23
-0.48440170087499723	-2.7765575641687643e-23
-0.48434066571874723	-2.8796337022568444e-23
-0.48427963056249723	-2.982283965137091e-23
-0.48421859540624723	-3.084470018657759e-23
-0.48415756024999723	-3.1861586862941664e-23
-0.48409652509374723	-3.2873456437184875e-23
-0.48403548993749723	-3.3880399863637567e-23
-0.48397445478124723	-3.4882286096341933e-23
-0.48391341962499723	-3.5878689019063184e-23
-0.48385238446874723	-3.686924486462999e-23
-0.48379134931249723	-3.7853964096271884e-23
-0.48373031415624723	-3.883301748366363e-23
-0.48366927899999723	-3.980625635970857e-23
-0.48360824384374723	-4.07731712893276e-23
-0.48354720868749723	-4.1733401844812155e-23
-0.48348617353124723	-4.268707000667789e-23
-0.48342513837499723	-4.363439659282536e-23
-0.48336410321874723	-4.4575112214460495e-23
-0.48330306806249723	-4.550858099474e-23
-0.48324203290624723	-4.6434541141259877e-23
-0.48318099774999723	-4.7353336660758686e-23
-0.48311996259374723	-4.8265187209295696e-23
-0.48305892743749723	-4.9169567032806926e-23
-0.48299789228124723	-5.006574517180153e-23
-0.48293685712499723	-5.095374018550431e-23
-0.48287582196874723	-5.183412345603927e-23
-0.48281478681249723	-5.2706871342111953e-23
-0.48275375165624723	-5.357110886795172e-23
-0.48269271649999723	-5.442625780655701e-23
-0.48263168134374723	-5.527279789605672e-23
-0.48257064618749723	-5.611133635354145e-23
-0.48250961103124723	-5.694137959234845e-23
-0.48244857587499723	-5.776182526801011e-23
-0.48238754071874723	-5.857251118176856e-23
-0.48232650556249723	-5.937433816033562e-23
-0.48226547040624723	-6.016763569979866e-23
-0.48220443524999723	-6.095135500134543e-23
-0.48214340009374723	-6.17245103446831e-23
-0.48208236493749723	-6.248762362447133e-23
-0.48202132978124723	-6.324175331952747e-23
-0.48196029462499723	-6.39865613796846e-23
-0.48189925946874723	-6.472057820892383e-23
-0.48183822431249723	-6.544336398649378e-23
-0.48177718915624723	-6.615609080589967e-23
-0.48171615399999723	-6.685948614839111e-23
-0.48165511884374723	-6.755240372126132e-23
-0.48159408368749723	-6.82334391845739e-23
-0.48153304853124723	-6.890306535863269e-23
-0.48147201337499723	-6.956276386809286e-23
-0.48141097821874723	-7.021244114292596e-23
-0.48134994306249723	-7.085032340832503e-23
-0.48128890790624723	-7.147564177510897e-23
-0.48122787274999723	-7.208978810422917e-23
-0.48116683759374723	-7.269392859194697e-23
-0.48110580243749723	-7.328688003756268e-23
-0.48104476728124723	-7.386680178945587e-23
-0.48098373212499723	-7.443405898784029e-23
-0.48092269696874723	-7.499054696934936e-23
-0.48086166181249723	-7.553645052548128e-23
-0.48080062665624723	-7.606972622672448e-23
-0.48073959149999723	-7.65892783592463e-23
-0.48067855634374723	-7.709666965580729e-23
-0.48061752118749723	-7.759345576131233e-23
-0.48055648603124723	-7.807844430388501e-23
-0.48049545087499723	-7.854945735269505e-23
-0.48043441571874723	-7.900680091977146e-23
-0.48037338056249723	-7.945269608702542e-23
-0.48031234540624723	-7.988749400155774e-23
-0.48025131024999723	-8.030891281206147e-23
-0.48019027509374723	-8.071566789387031e-23
-0.48012923993749723	-8.110953301313728e-23
-0.48006820478124723	-8.149232735581117e-23
-0.48000716962499723	-8.186275239855539e-23
-0.47994613446874723	-8.221838946529034e-23
-0.47988509931249723	-8.2559625722232e-23
-0.47982406415624723	-8.288895644540151e-23
-0.47976302899999723	-8.320674067405245e-23
-0.47970199384374723	-8.351046841756583e-23
-0.47964095868749723	-8.379883507378885e-23
-0.47957992353124723	-8.407386325834868e-23
-0.47951888837499723	-8.433747191866256e-23
-0.47945785321874723	-8.458817093604989e-23
-0.47939681806249723	-8.482344149210824e-23
-0.47933578290624723	-8.504388581178702e-23
-0.47927474774999723	-8.525218647602296e-23
-0.47921371259374723	-8.544854451820982e-23
-0.47915267743749723	-8.563023818363775e-23
-0.47909164228124723	-8.57961160757436e-23
-0.47903060712499723	-8.594851280218336e-23
-0.47896957196874723	-8.608930940073279e-23
-0.47890853681249723	-8.621670066973588e-23
-0.47884750165624723	-8.632814273491843e-23
-0.47878646649999723	-8.642459957542429e-23
-0.47872543134374723	-8.650892867484694e-23
-0.47866439618749723	-8.658104128060191e-23
-0.47860336103124723	-8.663797584292261e-23
-0.47854232587499723	-8.66788436339395e-23
-0.47848129071874723	-8.670635105131858e-23
-0.47842025556249723	-8.672225158094024e-23
-0.47835922040624723	-8.672433041827059e-23
-0.47829818524999723	-8.671007912153177e-23
-0.47823715009374723	-8.668095887332627e-23
-0.47817611493749723	-8.664000747855154e-23
-0.47811507978124723	-8.658669416253026e-23
-0.47805404462499723	-8.651772349180817e-23
-0.47799300946874723	-8.643259217599343e-23
-0.47793197431249723	-8.633455187269478e-23
-0.47787093915624723	-8.622518788961712e-23
-0.47780990399999723	-8.610167162375224e-23
-0.47774886884374723	-8.596147079364721e-23
-0.47768783368749723	-8.580671598368921e-23
-0.47762679853124723	-8.564074551071619e-23
-0.47756576337499723	-8.546247059726283e-23
-0.47750472821874723	-8.526812872080194e-23
-0.47744369306249723	-8.505768063427205e-23
-0.47738265790624723	-8.48350557195118e-23
-0.47732162274999723	-8.460160408462946e-23
-0.47726058759374723	-8.435373243102069e-23
-0.47719955243749723	-8.408894124235354e-23
-0.47713851728124723	-8.38102342414188e-23
-0.47707748212499723	-8.352125492283603e-23
-0.47701644696874723	-8.322011400664875e-23
-0.47695541181249723	-8.29024624671352e-23
-0.47689437665624723	-8.256893109916615e-23
-0.47683334149999723	-8.222435174782097e-23
-0.47677230634374723	-8.18697340177992e-23
-0.47671127118749723	-8.150044531811939e-23
-0.47665023603124723	-8.111400596288018e-23
-0.47658920087499723	-8.071454519494024e-23
-0.47652816571874723	-8.030610521251474e-23
-0.47646713056249723	-7.988580094971669e-23
-0.47640609540624723	-7.944857201348023e-23
-0.47634506024999723	-7.899587088121494e-23
-0.47628402509374723	-7.853356130554298e-23
-0.47622298993749723	-7.806217215949015e-23
-0.47616195478124723	-7.757588941022735e-23
-0.47610091962499723	-7.707238455970718e-23
-0.47603988446874723	-7.655708453938156e-23
-0.47597884931249723	-7.603433356931548e-23
-0.47591781415624723	-7.550004090544144e-23
-0.47585677899999723	-7.494846391987724e-23
-0.47579574384374723	-7.438210893006782e-23
-0.47573470868749723	-7.380793178003606e-23
-0.47567367353124723	-7.322575976866142e-23
-0.47561263837499723	-7.262843498618118e-23
-0.47555160321874723	-7.201394104188084e-23
-0.47549056806249723	-7.138925012741393e-23
-0.47542953290624723	-7.075892561166113e-23
-0.47536849774999723	-7.011733863851636e-23
-0.47530746259374723	-6.945802128689152e-23
-0.47524642743749723	-6.878491257098815e-23
-0.47518539228124723	-6.810628017423087e-23
-0.47512435712499723	-6.742090522128753e-23
-0.47506332196874723	-6.671987042508279e-23
-0.47500228681249723	-6.600167885239697e-23
-0.47494125165624723	-6.527543270267474e-23
-0.47488021649999723	-6.454596427444886e-23
-0.47481918134374723	-6.380545628981091e-23
-0.47475814618749723	-6.304632050578028e-23
-0.47469711103124723	-6.227446298770127e-23
-0.47463607587499723	-6.15001823088107e-23
-0.47457504071874723	-6.072096663136261e-23
-0.47451400556249723	-5.992519968546919e-23
-0.47445297040624723	-5.911171383299565e-23
-0.47439193524999723	-5.829268417133831e-23
-0.47433090009374723	-5.747386256149492e-23
-0.47426986493749723	-5.664452283479448e-23
-0.47420882978124723	-5.579493078511578e-23
-0.47414779462499723	-5.493327334134763e-23
-0.47408675946874723	-5.4073110270954e-23
-0.47402572431249723	-5.321084699693901e-23
-0.47396468915624723	-5.2330956960860396e-23
-0.47390365399999723	-5.143182987041385e-23
-0.47384261884374723	-5.052963890967725e-23
-0.47378158368749723	-4.963229863599067e-23
-0.47372054853124723	-4.8725797561625203e-23
-0.47365951337499723	-4.779676642956307e-23
-0.47359847821874723	-4.6855291226050303e-23
-0.47353744306249723	-4.591954225748891e-23
-0.47347640790624723	-4.4985988841664303e-23
-0.47341537274999723	-4.40344206930636e-23
-0.47335433759374723	-4.3061108742902995e-23
-0.47329330243749723	-4.208605666813357e-23
-0.47323226728124723	-4.112107505802031e-23
-0.47317123212499723	-4.015007883289118e-23
-0.47311019696874723	-3.9154823604151156e-23
-0.47304916181249723	-3.814522234427375e-23
-0.47298812665624723	-3.714427839796872e-23
-0.47292709149999723	-3.615096638757924e-23
-0.47286605634374723	-3.5141496837069124e-23
-0.47280502118749723	-3.4107916374402234e-23
-0.47274398603124723	-3.3071671420424424e-23
-0.47268295087499723	-3.204947484423366e-23
-0.47262191571874723	-3.1026359923436514e-23
-0.47256088056249723	-2.997985593778682e-23
-0.47249984540624723	-2.891654321497331e-23
-0.47243881024999723	-2.7861832820950224e-23
-0.47237777509374723	-2.681932374950296e-23
-0.47231673993749723	-2.5765348039770856e-23
-0.47225570478124723	-2.468739659098385e-23
-0.47219466962499723	-2.360433093153065e-23
-0.47213363446874723	-2.2536086749483562e-23
