Time	Frequency
-0.5000232666562567	-2.9811766710231524e-23
-0.49996223150000674	-3.085462385574914e-23
-0.49990119634375674	-3.189904394917135e-23
-0.49984016118750674	-3.2916336444844314e-23
-0.49977912603125674	-3.3898990522106455e-23
-0.49971809087500674	-3.486836002570466e-23
-0.49965705571875674	-3.585441512881957e-23
-0.49959602056250674	-3.686668245378483e-23
-0.49953498540625674	-3.7884497273122767e-23
-0.49947395025000674	-3.887640454648384e-23
-0.49941291509375674	-3.9830299644395846e-23
-0.49935187993750674	-4.0765175532726053e-23
-0.49929084478125674	-4.1712910261566544e-23
-0.49922980962500674	-4.268749193927944e-23
-0.49916877446875674	-4.3671348127208907e-23
-0.49910773931250674	-4.463204722631115e-23
-0.49904670415625674	-4.555331822916546e-23
-0.49898566900000674	-4.645048386157018e-23
-0.49892463384375674	-4.735547867738373e-23
-0.49886359868750674	-4.828601067814196e-23
-0.49880256353125674	-4.922861713781051e-23
-0.49874152837500674	-5.0151747170224904e-23
-0.49868049321875674	-5.103600043236621e-23
-0.49861945806250674	-5.1892334896286735e-23
-0.49855842290625674	-5.275097938695403e-23
-0.49849738775000674	-5.363213676093149e-23
-0.49843635259375674	-5.452681312641575e-23
-0.49837531743750674	-5.540589341772083e-23
-0.49831428228125674	-5.624819653172272e-23
-0.49825324712500674	-5.706029747710088e-23
-0.49819221196875674	-5.786940897926797e-23
-0.49813117681250674	-5.869679600618642e-23
-0.49807014165625674	-5.953761580025384e-23
-0.49800910650000674	-6.036623896418403e-23
-0.49794807134375674	-6.11611776446912e-23
-0.49788703618750674	-6.192522615381232e-23
-0.49782600103125674	-6.268181679311195e-23
-0.49776496587500674	-6.345188441168607e-23
-0.49770393071875674	-6.423395502267798e-23
-0.49764289556250674	-6.500631336765664e-23
-0.49758186040625674	-6.57483515757051e-23
-0.49752082525000674	-6.646001384224556e-23
-0.49745979009375674	-6.716087895073799e-23
-0.49739875493750674	-6.787057234442543e-23
-0.49733771978125674	-6.858996417707545e-23
-0.49727668462500674	-6.93010661850975e-23
-0.49721564946875674	-6.998492939473966e-23
-0.49715461431250674	-7.063966921112797e-23
-0.49709357915625674	-7.128138899242807e-23
-0.49703254400000674	-7.192786646314608e-23
-0.49697150884375674	-7.258135984391637e-23
-0.49691047368750674	-7.32270465463415e-23
-0.49684943853125674	-7.384792105607234e-23
-0.49678840337500674	-7.44411401338991e-23
-0.49672736821875674	-7.502004660516639e-23
-0.49666633306250674	-7.560052488487146e-23
-0.49660529790625674	-7.618547427817725e-23
-0.49654426275000674	-7.676245435361005e-23
-0.49648322759375674	-7.73162591335469e-23
-0.49642219243750674	-7.784367700485451e-23
-0.49636115728125674	-7.835606326705516e-23
-0.49630012212500674	-7.886769418279085e-23
-0.49623908696875674	-7.938170097828563e-23
-0.49617805181250674	-7.988731052620465e-23
-0.49611701665625674	-8.037070849967907e-23
-0.49605598150000674	-8.082853294318976e-23
-0.49599494634375674	-8.127079327274224e-23
-0.49593391118750674	-8.171067860014953e-23
-0.49587287603125674	-8.215151451698914e-23
-0.49581184087500674	-8.258364937062803e-23
-0.49575080571875674	-8.299409051527245e-23
-0.49568977056250674	-8.337921322599754e-23
-0.49562873540625674	-8.374808576610482e-23
-0.49556770025000674	-8.411335589089149e-23
-0.49550666509375674	-8.447879027434057e-23
-0.49544562993750674	-8.483563775446297e-23
-0.49538459478125674	-8.517123185564251e-23
-0.49532355962500674	-8.548132196250295e-23
-0.49526252446875674	-8.577410171619549e-23
-0.49520148931250674	-8.606210753895565e-23
-0.49514045415625674	-8.634996878909849e-23
-0.49507941900000674	-8.662990642951129e-23
-0.49501838384375674	-8.688926821950341e-23
-0.49495734868750674	-8.71227394340495e-23
-0.49489631353125674	-8.733741247772415e-23
-0.49483527837500674	-8.754587312194812e-23
-0.49477424321875674	-8.775404019185599e-23
-0.49471320806250674	-8.795547064715283e-23
-0.49465217290625674	-8.813753799212344e-23
-0.49459113775000674	-8.829350029205005e-23
-0.49453010259375674	-8.842889664193841e-23
-0.49446906743750674	-8.855619431194755e-23
-0.49440803228125674	-8.868285642118668e-23
-0.49434699712500674	-8.880424063583461e-23
-0.49428596196875674	-8.890804979898036e-23
-0.49422492681250674	-8.898601812139211e-23
-0.49416389165625674	-8.904169622687085e-23
-0.49410285650000674	-8.908699702797806e-23
-0.49404182134375674	-8.913086746833164e-23
-0.49398078618750674	-8.917085985769738e-23
-0.49391975103125674	-8.919552504080206e-23
-0.49385871587500674	-8.91952653625018e-23
-0.49379768071875674	-8.917134011594013e-23
-0.49373664556250674	-8.913456234494136e-23
-0.49367561040625674	-8.909503120966206e-23
-0.49361457525000674	-8.905266683150218e-23
-0.49355354009375674	-8.899742677894997e-23
-0.49349250493750674	-8.891885841972611e-23
-0.49343146978125674	-8.881588985661752e-23
-0.49337043462500674	-8.86976879821479e-23
-0.49330939946875674	-8.85749264898377e-23
-0.49324836431250674	-8.844979761761688e-23
-0.49318732915625674	-8.831413885177636e-23
-0.49312629400000674	-8.815727333594002e-23
-0.49306525884375674	-8.797603496620176e-23
-0.49300422368750674	-8.77775733568426e-23
-0.49294318853125674	-8.757248381015714e-23
-0.49288215337500674	-8.736487552091259e-23
-0.49282111821875674	-8.714871398653426e-23
-0.49276008306250674	-8.691372275505955e-23
-0.49269904790625674	-8.665510568272161e-23
-0.49263801275000674	-8.637790628812393e-23
-0.49257697759375674	-8.609206647628919e-23
-0.49251594243750674	-8.580304750960997e-23
-0.49245490728125674	-8.550689949099784e-23
-0.49239387212500674	-8.519426156470357e-23
-0.49233283696875674	-8.485930279892015e-23
-0.49227180181250674	-8.450510672121036e-23
-0.49221076665625674	-8.414056056306535e-23
-0.49214973150000674	-8.377190028058972e-23
-0.49208869634375674	-8.339699854498872e-23
-0.49202766118750674	-8.300768401480461e-23
-0.49196662603125674	-8.259765415702409e-23
-0.49190559087500674	-8.216836687659169e-23
-0.49184455571875674	-8.172745874453722e-23
-0.49178352056250674	-8.128141830478611e-23
-0.49172248540625674	-8.082958473966959e-23
-0.49166145025000674	-8.036508296426237e-23
-0.49160041509375674	-7.988158460235358e-23
-0.49153937993750674	-7.937931840973005e-23
-0.49147834478125674	-7.886468424430814e-23
-0.49141730962500674	-7.834405070570673e-23
-0.49135627446875674	-7.781779624771572e-23
-0.49129523931250674	-7.728023857626508e-23
-0.49123420415625674	-7.672531972559111e-23
-0.49117316900000674	-7.615244499444483e-23
-0.49111213384375674	-7.55669259987975e-23
-0.49105109868750674	-7.497479021274354e-23
-0.49099006353125674	-7.437708871069349e-23
-0.49092902837500674	-7.376915209636763e-23
-0.49086799321875674	-7.314534072597781e-23
-0.49080695806250674	-7.250456615525654e-23
-0.49074592290625674	-7.185126480492026e-23
-0.49068488775000674	-7.119102567068846e-23
-0.49062385259375674	-7.052525819228542e-23
-0.49056281743750674	-6.985007664997342e-23
-0.49050178228125674	-6.916032881552853e-23
-0.49044074712500674	-6.84547145665607e-23
-0.49037971196875674	-6.773701617678217e-23
-0.49031867681250674	-6.701236625806659e-23
-0.49025764165625674	-6.628233356589639e-23
-0.49019660650000674	-6.554361996840123e-23
-0.49013557134375674	-6.479150450520476e-23
-0.49007453618750674	-6.402456581213958e-23
-0.49001350103125674	-6.32460764847822e-23
-0.48995246587500674	-6.246080489172286e-23
-0.48989143071875674	-6.167045619366687e-23
-0.48983039556250674	-6.087221822194045e-23
-0.48976936040625674	-6.006173008353629e-23
-0.48970832525000674	-5.923747108934812e-23
-0.48964729009375674	-5.840227905380741e-23
-0.48958625493750674	-5.756060041715386e-23
-0.48952521978125674	-5.671424924684204e-23
-0.48946418462500674	-5.58608207985967e-23
-0.48940314946875674	-5.499623940706626e-23
-0.48934211431250674	-5.411888648160591e-23
-0.48928107915625674	-5.323125309935173e-23
-0.48922004400000674	-5.233755053993212e-23
-0.48915900884375674	-5.143970921356831e-23
-0.48909797368750674	-5.0535699516369234e-23
-0.48903693853125674	-4.962173982819841e-23
-0.48897590337500674	-4.869613441447689e-23
-0.48891486821875674	-4.776095329072663e-23
-0.48885383306250674	-4.682003050960929e-23
-0.48879279790625674	-4.587537093219376e-23
-0.48873176275000674	-4.4925448337144296e-23
-0.48867072759375674	-4.396694689743311e-23
-0.48860969243750674	-4.299813198800249e-23
-0.48854865728125674	-4.202054078635517e-23
-0.48848762212500674	-4.1037492834247756e-23
-0.48842658696875674	-4.005100900704271e-23
-0.48836555181250674	-3.906011904128324e-23
-0.48830451665625674	-3.806209190750432e-23
-0.48824348150000674	-3.7055253804071127e-23
-0.48818244634375674	-3.6040615975697226e-23
-0.48812141118750674	-3.502088287093155e-23
-0.48806037603125674	-3.399795496203438e-23
-0.48799934087500674	-3.2971355561346715e-23
-0.48793830571875674	-3.1939017787181514e-23
-0.48787727056250674	-3.08995072375941e-23
-0.48781623540625674	-2.985342117659282e-23
-0.48775520025000674	-2.8802740870022233e-23
-0.48769416509375674	-2.774900370394641e-23
-0.48763312993750674	-2.6692125013777627e-23
-0.48757209478125674	-2.5630857459510404e-23
-0.48751105962500674	-2.4564217163849324e-23
-0.48745002446875674	-2.3492417322795217e-23
-0.48738898931250674	-2.2416590901199483e-23
-0.48732795415625674	-2.1337788589115164e-23
-0.48726691900000674	-2.0256269130250707e-23
-0.48720588384375674	-1.9171641216781516e-23
-0.48714484868750674	-1.8083489077069167e-23
-0.48708381353125674	-1.699177102266293e-23
-0.48702277837500674	-1.5896773911484868e-23
-0.48696174321875674	-1.479892345970498e-23
-0.48690070806250674	-1.3698700174297222e-23
-0.48683967290625674	-1.2596572807617303e-23
-0.48677863775000674	-1.1492780282303931e-23
-0.48671760259375674	-1.038709541393578e-23
-0.48665656743750674	-9.27896274754595e-24
-0.48659553228125674	-8.168117824138246e-24
-0.48653449712500674	-7.055166894316388e-24
-0.48647346196875674	-5.941407144087565e-24
-0.48641242681250674	-4.827811427067915e-24
-0.48635139165625674	-3.714087723843941e-24
-0.48629035650000674	-2.5988940002489662e-24
-0.48622932134375674	-1.4812204370451588e-24
-0.48616828618750674	-3.616884959241173e-25
-0.48610725103125674	7.576389758295789e-25
-0.48604621587500674	1.875021822618952e-24
-0.48598518071875674	2.9907403211249494e-24
-0.48592414556250674	4.106882466570353e-24
-0.48586311040625674	5.2252126011269975e-24
-0.48580207525000674	6.345136092156969e-24
-0.48574104009375674	7.463877689850167e-24
-0.48568000493750674	8.578945578911043e-24
-0.48561896978125674	9.690580864497991e-24
-0.48555793462500674	1.0801610890813624e-23
-0.48549689946875674	1.191456800078921e-23
-0.48543586431250674	1.3028839655310175e-23
-0.48537482915625674	1.4140858841809832e-23
-0.48531379400000674	1.5247392529633618e-23
-0.48525275884375674	1.6348741900478733e-23
-0.48519172368750674	1.7448520881031273e-23
-0.48513068853125674	1.8549982902965052e-23
-0.48506965337500674	1.9652461729525335e-23
-0.48500861821875674	2.0751637542323826e-23
-0.48494758306250674	2.1843594759815078e-23
-0.48488654790625674	2.292870157921664e-23
-0.48482551275000674	2.4011303075901942e-23
-0.48476447759375674	2.5095297573949936e-23
-0.48470344243750674	2.617991780588486e-23
-0.48464240728125674	2.726010309554492e-23
-0.48458137212500674	2.8331327112984806e-23
-0.48452033696875674	2.9394109650707706e-23
-0.48445930181250674	3.0453558795553e-23
-0.48439826665625674	3.151417515550037e-23
-0.48433723150000674	3.25750276822042e-23
-0.48427619634375674	3.363029050107936e-23
-0.48421516118750674	3.4674831723642875e-23
-0.48415412603125674	3.570933948269941e-23
-0.48409309087500674	3.673971104968544e-23
-0.48403205571875674	3.7771078174167166e-23
-0.48397102056250674	3.880236385160441e-23
-0.48390998540625674	3.982697062831369e-23
-0.48384895025000674	4.083913472297339e-23
-0.48378791509375674	4.1839664273474294e-23
-0.48372687993750674	4.283519503586777e-23
-0.48366584478125674	4.383149408073497e-23
-0.48360480962500674	4.482741419324151e-23
-0.48354377446875674	4.581567678731624e-23
-0.48348273931250674	4.678990174622718e-23
-0.48342170415625674	4.775093871534552e-23
-0.48336066900000674	4.8706075541786746e-23
-0.48329963384375674	4.9661708880386814e-23
-0.48323859868750674	5.061669998396673e-23
-0.48317756353125674	5.156316630567347e-23
-0.48311652837500674	5.249411267122761e-23
-0.48305549321875674	5.341036181839344e-23
-0.48299445806250674	5.431976134309427e-23
-0.48293342290625674	5.522929498111485e-23
-0.48287238775000674	5.613790348334778e-23
-0.48281135259375674	5.70372568899768e-23
-0.48275031743750674	5.791984518036251e-23
-0.48268928228125674	5.878636359807691e-23
-0.48262824712500674	5.964498040999788e-23
-0.48256721196875674	6.050315085042224e-23
-0.48250617681250674	6.136006572658199e-23
-0.48244514165625674	6.220725086799006e-23
-0.48238410650000674	6.303678678510262e-23
-0.48232307134375674	6.384902023709171e-23
-0.48226203618750674	6.465211681309225e-23
-0.48220100103125674	6.545388435524373e-23
-0.48213996587500674	6.625395429327966e-23
-0.48207893071875674	6.70440471063764e-23
-0.48201789556250674	6.781601918023597e-23
-0.48195686040625674	6.856971731343218e-23
-0.48189582525000674	6.931293198248231e-23
-0.48183479009375674	7.005359055170077e-23
-0.48177375493750674	7.079193830933503e-23
-0.48171271978125674	7.152031937887746e-23
-0.48165168462500674	7.223061250533436e-23
-0.48159064946875674	7.292196250256408e-23
-0.48152961431250674	7.360132895154254e-23
-0.48146857915625674	7.427649593711036e-23
-0.48140754400000674	7.494849436058397e-23
-0.48134650884375674	7.56107358200419e-23
-0.48128547368750674	7.625543924249717e-23
-0.48122443853125674	7.68809402445758e-23
-0.48116340337500674	7.749290775271618e-23
-0.48110236821875674	7.809860551166369e-23
-0.48104133306250674	7.869995892725842e-23
-0.48098029790625674	7.929196593730425e-23
-0.48091926275000674	7.986758671497156e-23
-0.48085822759375674	8.042419573153133e-23
-0.48079719243750674	8.096561416282522e-23
-0.48073615728125674	8.149819675321383e-23
-0.48067512212500674	8.202492697686068e-23
-0.48061408696875674	8.254292861109336e-23
-0.48055305181250674	8.30462957964353e-23
-0.48049201665625674	8.353133260251082e-23
-0.48043098150000674	8.39995061130893e-23
-0.48036994634375674	8.445582127451442e-23
-0.48030891118750674	8.490436946066279e-23
-0.48024787603125674	8.534491376932615e-23
-0.48018684087500674	8.577316982224807e-23
-0.48012580571875674	8.618434235107687e-23
-0.48006477056250674	8.65770154057045e-23
-0.48000373540625674	8.695433867226698e-23
-0.47994270025000674	8.732153066018049e-23
-0.47988166509375674	8.768152975198183e-23
-0.47982062993750674	8.803221309355243e-23
-0.47975959478125674	8.836770170516717e-23
-0.47969855962500674	8.868316005943425e-23
-0.47963752446875674	8.897930571911937e-23
-0.47957648931250674	8.926242453698921e-23
-0.47951545415625674	8.953913511095786e-23
-0.47945441900000674	8.981005720842162e-23
-0.47939338384375674	9.006835426678316e-23
-0.47933234868750674	9.030534083618699e-23
-0.47927131353125674	9.051869824631441e-23
-0.47921027837500674	9.071553899473436e-23
-0.47914924321875674	9.090653262114173e-23
-0.47908820806250674	9.109572652657696e-23
-0.47902717290625674	9.12756959443942e-23
-0.47896613775000674	9.143358518680376e-23
-0.47890510259375674	9.156329920474125e-23
-0.47884406743750674	9.167229328880092e-23
-0.47878303228125674	9.17755136416619e-23
-0.47872199712500674	9.18811883124258e-23
-0.47866096196875674	9.198191660059838e-23
-0.47859992681250674	9.206056938301133e-23
-0.47853889165625674	9.210651095621653e-23
-0.47847785650000674	9.212679061657443e-23
-0.47841682134375674	9.214059791447902e-23
-0.47835578618750674	9.216109342563277e-23
-0.47829475103125674	9.218178938362598e-23
-0.47823371587500674	9.218150506523333e-23
-0.47817268071875674	9.214437431323261e-23
-0.47811164556250674	9.207600294118023e-23
-0.47805061040625674	9.199935321061051e-23
-0.47798957525000674	9.193308685173101e-23
-0.47792854009375674	9.187281073844012e-23
-0.47786750493750674	9.179406155067397e-23
-0.47780646978125674	9.167535613661834e-23
-0.47774543462500674	9.151957497090999e-23
-0.47768439946875674	9.13523893200996e-23
-0.47762336431250674	9.119811074699762e-23
-0.47756232915625674	9.105574048412106e-23
-0.47750129400000674	9.089886331959352e-23
-0.47744025884375674	9.070052114122581e-23
-0.47737922368750674	9.04596126665441e-23
-0.47731818853125674	9.020293545986826e-23
-0.47725715337500674	8.995998534527167e-23
-0.47719611821875674	8.973430656954571e-23
-0.47713508306250674	8.949933382840029e-23
-0.47707404790625674	8.922347229041112e-23
-0.47701301275000674	8.890068414397594e-23
-0.47695197759375674	8.855691508836718e-23
-0.47689094243750674	8.822561289855903e-23
-0.47682990728125674	8.79155500890781e-23
-0.47676887212500674	8.760205539129139e-23
-0.47670783696875674	8.725048250828809e-23
-0.47664680181250674	8.684954903665459e-23
-0.47658576665625674	8.642238388951646e-23
-0.47652473150000674	8.600448386887056e-23
-0.47646369634375674	8.560972101537654e-23
-0.47640266118750674	8.521712230648574e-23
-0.47634162603125674	8.479112311322759e-23
-0.47628059087500674	8.431572535202851e-23
-0.47621955571875674	8.380969022147814e-23
-0.47615852056250674	8.330834273680863e-23
-0.47609748540625674	8.282974769871627e-23
-0.47603645025000674	8.23578095830264e-23
-0.47597541509375674	8.18582183171682e-23
-0.47591437993750674	8.131149047706903e-23
-0.47585334478125674	8.073126511729687e-23
-0.47579230962500674	8.015068987733195e-23
-0.47573127446875674	7.9590560682375e-23
-0.47567023931250674	7.903999280508146e-23
-0.47560920415625674	7.846770193348464e-23
-0.47554816900000674	7.785234141085198e-23
-0.47548713384375674	7.7202507652807e-23
-0.47542609868750674	7.654769538814097e-23
-0.47536506353125674	7.590972253829528e-23
-0.47530402837500674	7.528243738575448e-23
-0.47524299321875674	7.463868349121228e-23
-0.47518195806250674	7.395691350364956e-23
-0.47512092290625674	7.324145978344843e-23
-0.47505988775000674	7.251745901443162e-23
-0.47499885259375674	7.180624973947216e-23
-0.47493781743750674	7.11054180801434e-23
-0.47487678228125674	7.039225810577798e-23
-0.47481574712500674	6.964634691575376e-23
-0.47475471196875674	6.886892575610557e-23
-0.47469367681250674	6.808079243025447e-23
-0.47463264165625674	6.730169925764778e-23
-0.47457160650000674	6.653172863181263e-23
-0.47451057134375674	6.575228926390259e-23
-0.47444953618750674	6.494486298921061e-23
-0.47438850103125674	6.410878248738988e-23
-0.47432746587500674	6.326110500239785e-23
-0.47426643071875674	6.241954613586711e-23
-0.47420539556250674	6.158560267544491e-23
-0.47414436040625674	6.074402607624492e-23
-0.47408332525000674	5.987840279867398e-23
-0.47402229009375674	5.898713043810995e-23
-0.47396125493750674	5.808438972955442e-23
-0.47390021978125674	5.718585239440837e-23
-0.47383918462500674	5.62935862885997e-23
-0.47377814946875674	5.539477935742625e-23
-0.47371711431250674	5.447494165695045e-23
-0.47365607915625674	5.353219046636243e-23
-0.47359504400000674	5.257872485666122e-23
-0.47353400884375674	5.1628561245408627e-23
-0.47347297368750674	5.068393311107287e-23
-0.47341193853125674	4.9733625176145736e-23
-0.47335090337500674	4.8764485735852717e-23
-0.47328986821875674	4.777450123383976e-23
-0.47322883306250674	4.6774638254663424e-23
-0.47316779790625674	4.577793646354392e-23
-0.47310676275000674	4.4786818347780185e-23
-0.47304572759375674	4.379106214018481e-23
-0.47298469243750674	4.27781854349652e-23
-0.47292365728125674	4.1745868628523636e-23
-0.47286262212500674	4.07042630355559e-23
-0.47280158696875674	3.966607319318385e-23
-0.47274055181250674	3.863424571302714e-23
-0.47267951665625674	3.7599305936550585e-23
-0.47261848150000674	3.654883966530042e-23
-0.47255744634375674	3.547977333829161e-23
-0.47249641118750674	3.440149389010866e-23
-0.47243537603125674	3.3326849331479306e-23
-0.47237434087500674	3.2259832119915846e-23
-0.47231330571875674	3.1191881527623787e-23
-0.47225227056250674	3.011033492725334e-23
-0.47219123540625674	2.9010815343838706e-23
-0.47213020025000674	2.790158952737688e-23
