Time	Frequency
-0.5000395122812478	-0.16960484038858128
-0.49997847712499777	-0.17569272679690648
-0.49991744196874777	-0.18175971695583656
-0.49985640681249777	-0.18773333457285812
-0.49979537165624777	-0.19362262228386326
-0.49973433649999777	-0.19950328490503963
-0.49967330134374777	-0.205427827817128
-0.49961226618749777	-0.21136588321129726
-0.49955123103124777	-0.21724132322076026
-0.49949019587499777	-0.22301994886452933
-0.49942916071874777	-0.22874573586367034
-0.49936812556249777	-0.23448640399651238
-0.49930709040624777	-0.2402541878809365
-0.49924605524999777	-0.24599322833269782
-0.49918502009374777	-0.2516452083838495
-0.49912398493749777	-0.2572151604643369
-0.49906294978124777	-0.2627622407538318
-0.49900191462499777	-0.2683288924640661
-0.49894087946874777	-0.2738918809288191
-0.49887984431249777	-0.27939052705151707
-0.49881880915624777	-0.28479684513549175
-0.49875777399999777	-0.29014555409966414
-0.49869673884374777	-0.295491005315923
-0.49863570368749777	-0.30084306133189276
-0.49857466853124777	-0.3061563258115276
-0.49851363337499777	-0.31138338968556856
-0.49845259821874777	-0.31652869532476025
-0.49839156306249777	-0.3216408478848222
-0.49833052790624777	-0.3267541994941925
-0.49826949274999777	-0.33184874957926835
-0.49820845759374777	-0.3368740466017347
-0.49814742243749777	-0.3418075373013327
-0.49808638728124777	-0.34667902982164306
-0.49802535212499777	-0.35153392658409227
-0.49796431696874777	-0.3563793042622215
-0.49790328181249777	-0.3611757968016822
-0.49784224665624777	-0.3658836024639911
-0.49778121149999777	-0.3705078554154623
-0.49772017634374777	-0.37509081421013946
-0.49765914118749777	-0.3796612394683892
-0.49759810603124777	-0.38420052116779285
-0.49753707087499777	-0.38866441448150096
-0.49747603571874777	-0.3930340751577683
-0.49741500056249777	-0.3973367107389706
-0.49735396540624777	-0.4016124948953597
-0.49729293024999777	-0.4058669698888633
-0.49723189509374777	-0.4100643512871943
-0.49717085993749777	-0.41416892604930866
-0.49710982478124777	-0.41818579832103875
-0.49704878962499777	-0.42215370331457863
-0.49698775446874777	-0.42609892855715525
-0.49692671931249777	-0.43000428653945144
-0.49686568415624777	-0.43382885616114947
-0.49680464899999777	-0.4375550056040141
-0.49674361384374777	-0.4412079171382324
-0.49668257868749777	-0.4448252959293222
-0.49662154353124777	-0.44841291878533246
-0.49656050837499777	-0.45193766628184445
-0.49649947321874777	-0.4553656383533148
-0.49643843806249777	-0.4587007344809743
-0.49637740290624777	-0.461979152055609
-0.49631636774999777	-0.46522664794302365
-0.49625533259374777	-0.4684283076444353
-0.49619429743749777	-0.4715456183796409
-0.49613326228124777	-0.4745605921016769
-0.49607222712499777	-0.47749571663713825
-0.49601119196874777	-0.4803870638321424
-0.49595015681249777	-0.4832420938621719
-0.49588912165624777	-0.4860308897825993
-0.49582808649999777	-0.48872050546824347
-0.49576705134374777	-0.491312385033463
-0.49570601618749777	-0.4938397818845718
-0.49564498103124777	-0.49632868031779764
-0.49558394587499777	-0.49876760652723545
-0.49552291071874777	-0.5011208896555099
-0.49546187556249777	-0.5033695323548261
-0.49540084040624777	-0.5055323180334924
-0.49533980524999777	-0.507643243856329
-0.49527877009374777	-0.509711911777032
-0.49521773493749777	-0.5117125650766895
-0.49515669978124777	-0.5136138334604251
-0.49509566462499777	-0.5154144035960617
-0.49503462946874777	-0.517143653044777
-0.49497359431249777	-0.5188271299445794
-0.49491255915624777	-0.5204570151571706
-0.49485152399999777	-0.5220013381134843
-0.49479048884374777	-0.5234407515207562
-0.49472945368749777	-0.5247902227500726
-0.49466841853124777	-0.5260809967063872
-0.49460738337499777	-0.5273241925639752
-0.49454634821874777	-0.5284981456127626
-0.49448531306249777	-0.5295736391055232
-0.49442427790624777	-0.5305473696655214
-0.49436324274999777	-0.5314450407760517
-0.49430220759374777	-0.5322910938759391
-0.49424117243749777	-0.5330804746430103
-0.49418013728124777	-0.5337848312107223
-0.49411910212499777	-0.5343853792109119
-0.49405806696874777	-0.5348941693130397
-0.49399703181249777	-0.5353395192799817
-0.49393599665624777	-0.5357330058464638
-0.49387496149999777	-0.5360563236989587
-0.49381392634374777	-0.5362828038411763
-0.49375289118749777	-0.5364082165490375
-0.49369185603124777	-0.5364551934016799
-0.49363082087499777	-0.5364465990562028
-0.49356978571874777	-0.5363790898475415
-0.49350875056249777	-0.5362273794712142
-0.49344771540624777	-0.5359737916352697
-0.49338668024999777	-0.5356285698937082
-0.49332564509374777	-0.5352176193612643
-0.49326460993749777	-0.5347523245895774
-0.49320357478124777	-0.5342165937906628
-0.49314253962499777	-0.5335859011002912
-0.49308150446874777	-0.5328558883671954
-0.49302046931249777	-0.5320472591210477
-0.49295943415624777	-0.5311815571954029
-0.49289839899999777	-0.5302562522281794
-0.49283736384374777	-0.529248035461221
-0.49277632868749777	-0.52814021821162
-0.49271529353124777	-0.5269422154148823
-0.49265425837499777	-0.5256785453223822
-0.49259322321874777	-0.5243603473647342
-0.49253218806249777	-0.5229726665891282
-0.49247115290624777	-0.521492219211006
-0.49241011774999777	-0.519914784676991
-0.49234908259374777	-0.5182602699409524
-0.49228804743749777	-0.5165496427048665
-0.49222701228124777	-0.5147807006864762
-0.49216597712499777	-0.512930933799576
-0.49210494196874777	-0.5109841095201977
-0.49204390681249777	-0.5089495194740256
-0.49198287165624777	-0.5068514167679572
-0.49192183649999777	-0.5047010085008431
-0.49186080134374777	-0.5024836959809894
-0.49179976618749777	-0.5001764090252713
-0.49173873103124777	-0.4977748455632738
-0.49167769587499777	-0.4952989090692416
-0.49161666071874777	-0.4927699287527798
-0.49155562556249777	-0.4901861408347696
-0.49149459040624777	-0.4875250520221894
-0.49143355524999777	-0.484770022791432
-0.49137252009374777	-0.48193016126821236
-0.49131148493749777	-0.4790302732656627
-0.49125044978124777	-0.4760824299266174
-0.49118941462499777	-0.47307224865463027
-0.49112837946874777	-0.46997597027188814
-0.49106734431249777	-0.4667886061718427
-0.49100630915624777	-0.4635304183092003
-0.49094527399999777	-0.46022398895358757
-0.49088423884374777	-0.456868397395338
-0.49082320368749777	-0.4534406255501884
-0.49076216853124777	-0.44992277063240305
-0.49070113337499777	-0.4463235436850575
-0.49064009821874777	-0.4426689158833718
-0.49057906306249777	-0.43897253171865747
-0.49051802790624777	-0.43522025011345633
-0.49045699274999777	-0.43138699092689814
-0.49039595759374777	-0.4274665145087129
-0.49033492243749777	-0.42347952048267257
-0.49027388728124777	-0.4194504136651855
-0.49021285212499777	-0.41537951439928494
-0.49015181696874777	-0.41124307946395666
-0.49009078181249777	-0.4070213941414792
-0.49002974665624777	-0.4027224896403223
-0.48996871149999777	-0.39837382811829997
-0.48990767634374777	-0.39399122123524855
-0.48984664118749777	-0.3895608797606291
-0.48978560603124777	-0.38505581125833527
-0.48972457087499777	-0.38046794610058127
-0.48966353571874777	-0.3758185933977319
-0.48960250056249777	-0.37113468686124396
-0.48954146540624777	-0.36641815942522
-0.48948043024999777	-0.3616441271978432
-0.48941939509374777	-0.35679034522361963
-0.48935835993749777	-0.35186399791765033
-0.48929732478124777	-0.3468945718788676
-0.48923628962499777	-0.34190058230031706
-0.48917525446874777	-0.3368685613060158
-0.48911421931249777	-0.33176907985109605
-0.48905318415624777	-0.32659170379195607
-0.48899214899999777	-0.32135836107109333
-0.48893111384374777	-0.3160991294814239
-0.48887007868749777	-0.31081811643051516
-0.48880904353124777	-0.3054891437902639
-0.48874800837499777	-0.3000867125100659
-0.48868697321874777	-0.2946166578824389
-0.48862593806249777	-0.28911075385401575
-0.48856490290624777	-0.28359094917775524
-0.48850386774999777	-0.27804445495551106
-0.48844283259374777	-0.2724390071844423
-0.48838179743749777	-0.26676118266934
-0.48832076228124777	-0.2610333707747992
-0.48825972712499777	-0.25528916349016867
-0.48819869196874777	-0.24953519721841744
-0.48813765681249777	-0.2437438764372983
-0.48807662165624777	-0.23788603434685485
-0.48801558649999777	-0.23196600252161273
-0.48795455134374777	-0.2260181373447119
-0.48789351618749777	-0.22006818280490303
-0.48783248103124777	-0.2141040020200493
-0.48777144587499777	-0.2080900567431688
-0.48771041071874777	-0.20200953074674272
-0.48764937556249777	-0.19588539583894152
-0.48758834040624777	-0.18975531828371672
-0.48752730524999777	-0.18362885474595408
-0.48746627009374777	-0.17747676112018018
-0.48740523493749777	-0.17126554423515816
-0.48734419978124777	-0.16499766802021312
-0.48728316462499777	-0.15871043888946557
-0.48722212946874777	-0.15243402419728783
-0.48716109431249777	-0.14615698002740543
-0.48710005915624777	-0.1398398887735162
-0.48703902399999777	-0.1334620904947216
-0.48697798884374777	-0.12704734623842126
-0.48691695368749777	-0.12063795359419834
-0.48685591853124777	-0.1142466361797229
-0.48679488337499777	-0.10784212156547549
-0.48673384821874777	-0.101386000086842
-0.48667281306249777	-0.09487871335856143
-0.48661177790624777	-0.0883609520548802
-0.48655074274999777	-0.08186788756786217
-0.48648970759374777	-0.0753889061527033
-0.48642867243749777	-0.06888016673765589
-0.48636763728124777	-0.062316388054010484
-0.48630660212499777	-0.05572203467295684
-0.48624556696874777	-0.049144880025815664
-0.48618453181249777	-0.042601612782710366
-0.48612349665624777	-0.036058640700035303
-0.48606246149999777	-0.029471462290620816
-0.48600142634374777	-0.022837778490417952
-0.48594039118749777	-0.016202340432964375
-0.48587935603124777	-0.009606698436209591
-0.48581832087499777	-0.003041422859909759
-0.48575728571874777	0.003543020514795777
-0.48569625056249777	0.010177922979432156
-0.48563521540624777	0.016837916715442124
-0.48557418024999777	0.023468209276866284
-0.48551314509374777	0.030047087706101285
-0.48545210993749777	0.03661113836884288
-0.48539107478124777	0.043212625063372735
-0.48533003962499777	0.04985733519812578
-0.48526900446874777	0.056495378689415565
-0.48520796931249777	0.06307722163844848
-0.48514693415624777	0.06961089268533717
-0.48508589899999777	0.07615301256334442
-0.48502486384374777	0.08274233615983448
-0.48496382868749777	0.089352464431369
-0.48490279353124777	0.09591992347926202
-0.48484175837499777	0.10241669889244764
-0.48478072321874777	0.108883102030965
-0.48471968806249777	0.11538115735310446
-0.48465865290624777	0.12192110335238181
-0.48459761774999777	0.12844670000961916
-0.48453658259374777	0.13489838520097852
-0.48447554743749777	0.14128220607634243
-0.48441451228124777	0.1476634695911036
-0.48435347712499777	0.1540904582786931
-0.48429244196874777	0.1605360067690981
-0.48423140681249777	0.16692612070100973
-0.48417037165624777	0.17322451552565246
-0.48410933649999777	0.17947535857413063
-0.48404830134374777	0.1857526737917831
-0.48398726618749777	0.19207306938517502
-0.48392623103124777	0.19837336389427107
-0.48386519587499777	0.20458134643381126
-0.48380416071874777	0.2106992489770694
-0.48374312556249777	0.21680231400336436
-0.48368209040624777	0.22295156921385487
-0.48362105524999777	0.2291206275989774
-0.48356002009374777	0.23522297036346915
-0.48349898493749777	0.2412106466255245
-0.48343794978124777	0.24713063056408568
-0.48337691462499777	0.2530715341573831
-0.48331587946874777	0.2590599538625081
-0.48325484431249777	0.26502640837071206
-0.48319380915624777	0.2708827604708401
-0.48313277399999777	0.27662378655237574
-0.48307173884374777	0.2823347803788453
-0.48301070368749777	0.2880935192847249
-0.48294966853124777	0.29387808840376856
-0.48288863337499777	0.2995884475540996
-0.48282759821874777	0.3051599420888031
-0.48276656306249777	0.3106389441994194
-0.48270552790624777	0.31613117919248857
-0.48264449274999777	0.32167924223941996
-0.48258345759374777	0.3272099855620195
-0.48252242243749777	0.33261515034826195
-0.48246138728124777	0.3378754037330388
-0.48240035212499777	0.3430847274014605
-0.48233931696874777	0.3483437099005341
-0.48227828181249777	0.35364187404057107
-0.48221724665624777	0.3588654747745776
-0.48215621149999777	0.3639254480894209
-0.48209517634374777	0.3688606471036716
-0.48203414118749777	0.37379588753603993
-0.48197310603124777	0.3787990535480767
-0.48191207087499777	0.3837998137753062
-0.48185103571874777	0.38866589680863833
-0.48179000056249777	0.3933533598065915
-0.48172896540624777	0.39795930757339026
-0.48166793024999777	0.4026132049210929
-0.48160689509374777	0.4073275121236597
-0.48154585993749777	0.41197891960938626
-0.48148482478124777	0.4164456711828835
-0.48142378962499777	0.42074712548944754
-0.48136275446874777	0.4250248447539071
-0.48130171931249777	0.42938251006196254
-0.48124068415624777	0.43376483911228103
-0.48117964899999777	0.4380158443154018
-0.48111861384374777	0.44205444111975
-0.48105757868749777	0.44596880860342564
-0.48099654353124777	0.4499190271849134
-0.48093550837499777	0.45395479555331514
-0.48087447321874777	0.4579550581809639
-0.48081343806249777	0.4617616954440684
-0.48075240290624777	0.465358791422411
-0.48069136774999777	0.4688933335797182
-0.48063033259374777	0.4725102227276532
-0.48056929743749777	0.4761863169181609
-0.48050826228124777	0.4797530074837056
-0.48044722712499777	0.48308503240966993
-0.48038619196874777	0.48624308987753556
-0.48032515681249777	0.4894070364693462
-0.48026412165624777	0.4926726470651431
-0.48020308649999777	0.49594132457432605
-0.48014205134374777	0.49902926595716257
-0.48008101618749777	0.501874402323536
-0.48001998103124777	0.5046070741777944
-0.47995894587499777	0.5074031930233291
-0.47989791071874777	0.5102850490340697
-0.47983687556249777	0.5130952597591577
-0.47977584040624777	0.5156738193318529
-0.47971480524999777	0.518038105310832
-0.47965377009374777	0.520362349194192
-0.47959273493749777	0.5227802474385609
-0.47953169978124777	0.5252342718244196
-0.47947066462499777	0.5275414878471643
-0.47940962946874777	0.5296000760807966
-0.47934859431249777	0.5315024305554072
-0.47928755915624777	0.5334283914415462
-0.47922652399999777	0.5354416416655516
-0.47916548884374777	0.5374198676954737
-0.47910445368749777	0.5391951139155263
-0.47904341853124777	0.540742716107523
-0.47898238337499777	0.5422054518400922
-0.47892134821874777	0.5437292591631718
-0.47886031306249777	0.5452993831979642
-0.47879927790624777	0.5467609615763952
-0.47873824274999777	0.5479961567566903
-0.47867720759374777	0.5490547318256543
-0.47861617243749777	0.5500928575396428
-0.47855513728124777	0.551194575219816
-0.47849410212499777	0.5522799540227747
-0.47843306696874777	0.5532001678873808
-0.47837203181249777	0.5539064541061591
-0.47831099665624777	0.5545007825867799
-0.47824996149999777	0.5551156716119573
-0.47818892634374777	0.5557643875056272
-0.47812789118749777	0.5563307908560159
-0.47806685603124777	0.5567047581846303
-0.47800582087499777	0.5569052992520432
-0.47794478571874777	0.5570535918025796
-0.47788375056249777	0.5572324580066315
-0.47782271540624777	0.5573950152108985
-0.47776168024999777	0.5574231124742168
-0.47770064509374777	0.5572633241256081
-0.47763960993749777	0.5569840454752737
-0.47757857478124777	0.5566928944688867
-0.47751753962499777	0.5564137206197222
-0.47745650446874777	0.556063665355886
-0.47739546931249777	0.5555516029213167
-0.47733443415624777	0.554881382751508
-0.47727339899999777	0.5541430946388469
-0.47721236384374777	0.5534073035202636
-0.47715132868749777	0.5526462578390102
-0.47709029353124777	0.5517700073092563
-0.47702925837499777	0.5507312923665391
-0.47696822321874777	0.5495772394786078
-0.47690718806249777	0.5483916914949726
-0.47684615290624777	0.5471985210943306
-0.47678511774999777	0.5459374067347532
-0.47672408259374777	0.5445363918465772
-0.47666304743749777	0.5429944878512075
-0.47660201228124777	0.5413798690604964
-0.47654097712499777	0.5397493592417868
-0.47647994196874777	0.5380843505798871
-0.47641890681249777	0.5363155476036406
-0.47635787165624777	0.5344045510696435
-0.47629683649999777	0.5323867276505395
-0.47623580134374777	0.5303279797365856
-0.47617476618749777	0.5282483609600875
-0.47611373103124777	0.5261012760224597
-0.47605269587499777	0.5238299020024878
-0.47599166071874777	0.5214331509567564
-0.47593062556249777	0.518965133564309
-0.47586959040624777	0.5164712636051506
-0.47580855524999777	0.5139367398386723
-0.47574752009374777	0.5113061626266144
-0.47568648493749777	0.508549205023545
-0.47562544978124777	0.5056951460353059
-0.47556441462499777	0.5027975294462397
-0.47550337946874777	0.4998719892892404
-0.47544234431249777	0.49687985846779
-0.47538130915624777	0.4937750672123371
-0.47532027399999777	0.4905581841071585
-0.47525923884374777	0.48727491615557356
-0.47519820368749777	0.48396241506917914
-0.47513716853124777	0.48060695376058804
-0.47507613337499777	0.47716170434228494
-0.47501509821874777	0.47360248984099373
-0.47495406306249777	0.4699558858875689
-0.47489302790624777	0.4662677865923588
-0.47483199274999777	0.46255031319008766
-0.47477095759374777	0.45876903603278757
-0.47470992243749777	0.4548844859656188
-0.47464888728124777	0.4508987868916018
-0.47458785212499777	0.44685313909988966
-0.47452681696874777	0.44277992059534776
-0.47446578181249777	0.4386658439180957
-0.47440474665624777	0.4344687627555826
-0.47434371149999777	0.4301677439210898
-0.47428267634374777	0.425787808192785
-0.47422164118749777	0.4213710239894366
-0.47416060603124777	0.4169281928977878
-0.47409957087499777	0.4124274074132239
-0.47403853571874777	0.40783229536097954
-0.47397750056249777	0.4031450086209191
-0.47391646540624777	0.3984041138538079
-0.47385543024999777	0.3936403291914642
-0.47379439509374777	0.38884183064142797
-0.47373335993749777	0.3839692148585441
-0.47367232478124777	0.37900220643738547
-0.47361128962499777	0.37396371761139346
-0.47355025446874777	0.3688937313608428
-0.47348921931249777	0.36380375532142595
-0.47342818415624777	0.35866465726428653
-0.47336714899999777	0.3534415348512094
-0.47330611384374777	0.3481348908771864
-0.47324507868749777	0.3427805950076826
-0.47318404353124777	0.3374091160258426
-0.47312300837499777	0.33201142907964043
-0.47306197321874777	0.32655077726255316
-0.47300093806249777	0.32100618473451303
-0.47293990290624777	0.31539728007272344
-0.47287886774999777	0.30976214361902693
-0.47281783259374777	0.3041142672027563
-0.47275679743749777	0.29842838513924524
-0.47269576228124777	0.2926709892491434
-0.47263472712499777	0.2868398044579747
-0.47257369196874777	0.28096686198307436
-0.47251265681249777	0.2750822445362748
-0.47245162165624777	0.26918067325210965
-0.47239058649999777	0.26322916062538676
-0.47232955134374777	0.25720626157461707
-0.47226851618749777	0.2511274167513977
-0.47220748103124777	0.24502763609577025
-0.47214644587499777	0.23892210552131762
-0.47208541071874777	0.23279014750897056
-0.47202437556249777	0.22660055892088363
-0.47196334040624777	0.22034864645098298
-0.47190230524999777	0.21406220381042682
-0.47184127009374777	0.20777010107526125
-0.47178023493749777	0.2014702348078567
-0.47171919978124777	0.19513359100359237
-0.47165816462499777	0.18873910044941233
-0.47159712946874777	0.18229874027165124
-0.47153609431249777	0.17584421184500712
-0.47147505915624777	0.1693912426877748
-0.47141402399999777	0.1629229839239096
-0.47135298884374777	0.15641113694580916
-0.47129195368749777	0.14984979358763578
-0.47123091853124777	0.14326291692248314
-0.47116988337499777	0.13667732776313335
-0.47110884821874777	0.13009289026329288
-0.47104781306249777	0.12348430306170553
-0.47098677790624777	0.11683183993388688
-0.47092574274999777	0.11014509773458522
-0.47086470759374777	0.1034525425137449
-0.47080367243749777	0.09676949489896146
-0.47074263728124777	0.09008183893853544
-0.47068160212499777	0.08336398967353449
-0.47062056696874777	0.0766097999769536
-0.47055953181249777	0.06984051681109897
-0.47049849665624777	0.06308097399842649
-0.47043746149999777	0.056331975375693455
-0.47037642634374777	0.0495708469151423
-0.47031539118749777	0.042779208554933335
-0.47025435603124777	0.035965433826801146
