Time	Frequency
-0.5000534043124958	4.190569246297092e-24
-0.4999923691562458	4.856351325006959e-24
-0.4999313339999958	5.5209436335761545e-24
-0.4998702988437458	6.184199372001484e-24
-0.4998092636874958	6.845811198941883e-24
-0.4997482285312458	7.505590110480584e-24
-0.4996871933749958	8.163486535188216e-24
-0.4996261582187458	8.819318024612859e-24
-0.4995651230624958	9.47278174883822e-24
-0.4995040879062458	1.0123722951609175e-23
-0.4994430527499958	1.0772095823177501e-23
-0.4993820175937458	1.1417696744545058e-23
-0.4993209824374958	1.2060225968949744e-23
-0.4992599472812458	1.2699548839674448e-23
-0.4991989121249958	1.3335611173851944e-23
-0.4991378769687458	1.396818852727069e-23
-0.4990768418124958	1.4596997596931915e-23
-0.4990158066562458	1.5221934180559022e-23
-0.4989547714999958	1.5842936144304438e-23
-0.4988937363437458	1.6459762694852293e-23
-0.4988327011874958	1.7072152235380873e-23
-0.4987716660312458	1.7680022032509635e-23
-0.4987106308749958	1.8283290033662076e-23
-0.4986495957187458	1.8881696889942446e-23
-0.4985885605624958	1.9475006667717422e-23
-0.4985275254062458	2.0063164191916164e-23
-0.4984664902499958	2.064607745132425e-23
-0.4984054550937458	2.122348132397171e-23
-0.4983444199374958	2.1795162707646447e-23
-0.4982833847812458	2.2361075201994387e-23
-0.4982223496249958	2.2921112649989438e-23
-0.4981613144687458	2.347501513702124e-23
-0.4981002793124958	2.402259237397545e-23
-0.4980392441562458	2.4563797284082062e-23
-0.4979782089999958	2.5098508591194535e-23
-0.4979171738437458	2.5626482844189494e-23
-0.4978561386874958	2.6147566644359033e-23
-0.4977951035312458	2.666171776655455e-23
-0.4977340683749958	2.7168799023694445e-23
-0.4976730332187458	2.766857425881007e-23
-0.4976119980624958	2.8160907145077266e-23
-0.4975509629062458	2.8645756804124886e-23
-0.4974899277499958	2.912298435688471e-23
-0.4974288925937458	2.95923676835467e-23
-0.4973678574374958	3.005378978956279e-23
-0.4973068222812458	3.0507211379972113e-23
-0.4972457871249958	3.0952494421706394e-23
-0.4971847519687458	3.138943935848428e-23
-0.4971237168124958	3.181794250065333e-23
-0.4970626816562458	3.223795216303929e-23
-0.4970016464999958	3.264933181584502e-23
-0.4969406113437458	3.3051910930316665e-23
-0.4968795761874958	3.3445605799999895e-23
-0.4968185410312458	3.3830361996502723e-23
-0.4967575058749958	3.420604434642702e-23
-0.4966964707187458	3.4572498000818393e-23
-0.4966354355624958	3.4929649982187604e-23
-0.4965744004062458	3.5277447279650436e-23
-0.4965133652499958	3.5615763542073307e-23
-0.4964523300937458	3.594446210787164e-23
-0.4963912949374958	3.6263481266960825e-23
-0.4963302597812458	3.657277116790098e-23
-0.4962692246249958	3.6872217396062183e-23
-0.4962081894687458	3.7161702700642344e-23
-0.4961471543124958	3.744117464979264e-23
-0.4960861191562458	3.771058523367307e-23
-0.4960250839999958	3.796982977767087e-23
-0.4959640488437458	3.821880545526932e-23
-0.4959030136874958	3.845746849410209e-23
-0.4958419785312458	3.8685778669434626e-23
-0.4957809433749958	3.8903646148135857e-23
-0.4957199082187458	3.911098525389313e-23
-0.4956588730624958	3.930776198483287e-23
-0.4955978379062458	3.9493940698849246e-23
-0.4955368027499958	3.966944298065832e-23
-0.4954757675937458	3.983419953243901e-23
-0.4954147324374958	3.998818557887995e-23
-0.4953536972812458	4.0131372194961486e-23
-0.4952926621249958	4.0263694707672054e-23
-0.4952316269687458	4.0385098427635194e-23
-0.4951705918124958	4.04955693410169e-23
-0.4951095566562458	4.059508947939391e-23
-0.4950485214999958	4.068360570346366e-23
-0.4949874863437458	4.076107542552209e-23
-0.4949264511874958	4.082749773224619e-23
-0.4948654160312458	4.0882863845593945e-23
-0.4948043808749958	4.092712803989914e-23
-0.4947433457187458	4.0960263961898294e-23
-0.4946823105624958	4.09822891630483e-23
-0.4946212754062458	4.0993201581860136e-23
-0.4945602402499958	4.0992961576041084e-23
-0.4944992050937458	4.098156041440257e-23
-0.4944381699374958	4.0959031056660817e-23
-0.4943771347812458	4.092537647464292e-23
-0.4943160996249958	4.088056679464334e-23
-0.4942550644687458	4.0824614024801775e-23
-0.4941940293124958	4.075756527280677e-23
-0.4941329941562458	4.0679425571988295e-23
-0.4940719589999958	4.0590175270262187e-23
-0.4940109238437458	4.0489847908514177e-23
-0.4939498886874958	4.03785029107324e-23
-0.4938888535312458	4.025614844598068e-23
-0.4938278183749958	4.0122777627238594e-23
-0.4937667832187458	3.9978443852430277e-23
-0.4937057480624958	3.9823216090626526e-23
-0.4936447129062458	3.9657106728019415e-23
-0.4935836777499958	3.9480124884615356e-23
-0.4935226425937458	3.929234349422742e-23
-0.4934616074374958	3.909383672133058e-23
-0.4934005722812458	3.888461860701959e-23
-0.4933395371249958	3.8664715195455355e-23
-0.4932785019687458	3.8434222280028647e-23
-0.4932174668124958	3.8193225346937924e-23
-0.4931564316562458	3.7941743077518726e-23
-0.4930953964999958	3.767981323105987e-23
-0.4930343613437458	3.7407546365215245e-23
-0.4929733261874958	3.712503317162828e-23
-0.4929122910312458	3.6832297356585485e-23
-0.4928512558749958	3.6529398212551185e-23
-0.4927902207187458	3.621646799730961e-23
-0.4927291855624958	3.5893597247152607e-23
-0.4926681504062458	3.5560808364557744e-23
-0.4926071152499958	3.521818115745867e-23
-0.4925460800937458	3.486586794489855e-23
-0.4924850449374958	3.4503960572088374e-23
-0.4924240097812458	3.413248652409278e-23
-0.4923629746249958	3.3751546220264146e-23
-0.4923019394687458	3.3361305431057614e-23
-0.4922409043124958	3.2961856000588326e-23
-0.4921798691562458	3.255323719927675e-23
-0.4921188339999958	3.213557484796907e-23
-0.4920577988437458	3.1709042222639134e-23
-0.4919967636874958	3.1273720260128955e-23
-0.4919357285312458	3.082965587220394e-23
-0.4918746933749958	3.0377004768129224e-23
-0.4918136582187458	2.991595449684205e-23
-0.4917526230624958	2.9446580038804144e-23
-0.4916915879062458	2.896893696771331e-23
-0.4916305527499958	2.848319989965063e-23
-0.4915695175937458	2.798955454878714e-23
-0.4915084824374958	2.748807268012071e-23
-0.4914474472812458	2.697883765298792e-23
-0.4913864121249958	2.6462054518109005e-23
-0.4913253769687458	2.5937902245685514e-23
-0.4912643418124958	2.540643623593686e-23
-0.4912033066562458	2.486776151169186e-23
-0.4911422714999958	2.4322117139294858e-23
-0.4910812363437458	2.376967558372172e-23
-0.4910202011874958	2.3210474639652803e-23
-0.4909591660312458	2.264464165144737e-23
-0.4908981308749958	2.2072437743436726e-23
-0.4908370957187458	2.149401772728358e-23
-0.4907760605624958	2.090941950286487e-23
-0.4907150254062458	2.0318814384593653e-23
-0.4906539902499958	1.972247762704993e-23
-0.4905929550937458	1.912053168272189e-23
-0.4905319199374958	1.851301882051055e-23
-0.4904708847812458	1.7900160080664924e-23
-0.4904098496249958	1.7282235349964296e-23
-0.4903488144687458	1.6659324264821074e-23
-0.4902877793124958	1.6031475478236273e-23
-0.4902267441562458	1.5398962690618408e-23
-0.4901657089999958	1.476206631721412e-23
-0.4901046738437458	1.412082895026289e-23
-0.4900436386874958	1.347532186808762e-23
-0.4899826035312458	1.2825864388735628e-23
-0.4899215683749958	1.2172711449554182e-23
-0.4898605332187458	1.1515870671672288e-23
-0.4897994980624958	1.0855456254927504e-23
-0.4897384629062458	1.0191830179466949e-23
-0.4896774277499958	9.525208416222732e-24
-0.4896163925937458	8.85556329002176e-24
-0.4895553574374958	8.183057299041406e-24
-0.4894943222812458	7.508093897523614e-24
-0.4894332871249958	6.830846915604338e-24
-0.4893722519687458	6.151263903099502e-24
-0.4893112168124958	5.4695643170046456e-24
-0.4892501816562458	4.786169978316429e-24
-0.4891891464999958	4.101189553850235e-24
-0.4891281113437458	3.414565765127287e-24
-0.4890670761874958	2.726598119093293e-24
-0.4890060410312458	2.0377109535250325e-24
-0.4889450058749958	1.3479325319559913e-24
-0.4888839707187458	6.57212926854559e-25
-0.4888229355624958	-3.406494467302323e-26
-0.4887619004062458	-7.2548885896568175e-25
-0.4887008652499958	-1.4171088622487212e-24
-0.4886398300937458	-2.10894762841554e-24
-0.4885787949374958	-2.8005431667044057e-24
-0.4885177597812458	-3.49152660187451e-24
-0.4884567246249958	-4.182031574525182e-24
-0.4883956894687458	-4.872026651303514e-24
-0.4883346543124958	-5.560965173615003e-24
-0.4882736191562458	-6.248541794501878e-24
-0.4882125839999958	-6.934965954828512e-24
-0.4881515488437458	-7.620120624431919e-24
-0.4880905136874958	-8.30338775065941e-24
-0.4880294785312458	-8.984568206362153e-24
-0.4879684433749958	-9.663944065421268e-24
-0.4879074082187458	-1.0341293218230792e-23
-0.4878463730624958	-1.1015947879280426e-23
-0.4877853379062458	-1.1687827574591911e-23
-0.4877243027499958	-1.2357248198460624e-23
-0.4876632675937458	-1.3023855637245617e-23
-0.4876022324374958	-1.368695932152466e-23
-0.4875411972812458	-1.4346621510575416e-23
-0.4874801621249958	-1.500317506215577e-23
-0.4874191269687458	-1.565612748591188e-23
-0.4873580918124958	-1.6304800346176105e-23
-0.4872970566562458	-1.6949409920262478e-23
-0.4872360214999958	-1.759026206426167e-23
-0.4871749863437458	-1.8226705836760696e-23
-0.4871139511874958	-1.8858112540558263e-23
-0.4870529160312458	-1.9484873659654645e-23
-0.4869918808749958	-2.0107238952419672e-23
-0.4869308457187458	-2.072438713216115e-23
-0.4868698105624958	-2.1335777209252448e-23
-0.4868087754062458	-2.1941983107412198e-23
-0.4867477402499958	-2.2543155237609063e-23
-0.4866867050937458	-2.313830549637906e-23
-0.4866256699374958	-2.3727024401181678e-23
-0.4865646347812458	-2.4310054760499328e-23
-0.4865035996249958	-2.488740071642489e-23
-0.4864425644687458	-2.545791638806206e-23
-0.4863815293124958	-2.602137282983708e-23
-0.4863204941562458	-2.657868678213212e-23
-0.4862594589999958	-2.7129676871763e-23
-0.4861984238437458	-2.7673042357205007e-23
-0.4861373886874958	-2.820878139334e-23
-0.4860763535312458	-2.873797311136592e-23
-0.4860153183749958	-2.926019141708651e-23
-0.4859542832187458	-2.977399543835703e-23
-0.4858932480624958	-3.027967076183117e-23
-0.4858322129062458	-3.0778436583419624e-23
-0.4857711777499958	-3.126956567548888e-23
-0.4857101425937458	-3.175151049678763e-23
-0.4856491074374958	-3.2224903737842697e-23
-0.4855880722812458	-3.2691067732037294e-23
-0.4855270371249958	-3.314892002401128e-23
-0.4854660019687458	-3.3596853823075196e-23
-0.4854049668124958	-3.40358950838547e-23
-0.4853439316562458	-3.4467414844027545e-23
-0.4852828964999958	-3.488994263048068e-23
-0.4852218613437458	-3.530187465995849e-23
-0.4851608261874958	-3.570465132473602e-23
-0.4850997910312458	-3.6099619582021626e-23
-0.4850387558749958	-3.648490972972613e-23
-0.4849777207187458	-3.685900261504281e-23
-0.4849166855624958	-3.722375097419609e-23
-0.4848556504062458	-3.7580395890456075e-23
-0.4847946152499958	-3.7926695332788404e-23
-0.4847335800937458	-3.8261296286534103e-23
-0.4846725449374958	-3.858640854849347e-23
-0.4846115097812458	-3.890308695645007e-23
-0.4845504746249958	-3.9208803090821636e-23
-0.4844894394687458	-3.950245341561276e-23
-0.4844284043124958	-3.9786499587484343e-23
-0.4843673691562458	-4.0061734841032854e-23
-0.4843063339999958	-4.032546574206136e-23
-0.4842452988437458	-4.057689929634195e-23
-0.4841842636874958	-4.081861191697145e-23
-0.4841232285312458	-4.10510855372033e-23
-0.4840621933749958	-4.127160777166545e-23
-0.4840011582187458	-4.1479734829169916e-23
-0.4839401230624958	-4.1678013333013967e-23
-0.4838790879062458	-4.186659302341661e-23
-0.4838180527499958	-4.2042881863772485e-23
-0.4837570175937458	-4.2206789217427654e-23
-0.4836959824374958	-4.2360703989260273e-23
-0.4836349472812458	-4.250445825243703e-23
-0.4835739121249958	-4.2635696937053085e-23
-0.4835128769687458	-4.275465309010206e-23
-0.4834518418124958	-4.28634566948881e-23
-0.4833908066562458	-4.296166363339263e-23
-0.4833297714999958	-4.304723675836833e-23
-0.4832687363437458	-4.31206805181739e-23
-0.4832077011874958	-4.3183805857951623e-23
-0.4831466660312458	-4.323595449361836e-23
-0.4830856308749958	-4.327544929903141e-23
-0.4830245957187458	-4.330299866050037e-23
-0.4829635605624958	-4.332007088403066e-23
-0.4829025254062458	-4.332586512256601e-23
-0.4828414902499958	-4.3319072572669034e-23
-0.4827804550937458	-4.330053322386341e-23
-0.4827194199374958	-4.3271377146303856e-23
-0.4826583847812458	-4.323073115107487e-23
-0.4825973496249958	-4.3177639313035384e-23
-0.4825363144687458	-4.3113006341689555e-23
-0.4824752793124958	-4.303764852484967e-23
-0.4824142441562458	-4.2950683494650527e-23
-0.4823532089999958	-4.285147612779069e-23
-0.4822921738437458	-4.274093576252424e-23
-0.4822311386874958	-4.2619603079641553e-23
-0.4821701035312458	-4.248664347216906e-23
-0.4821090683749958	-4.234170171017048e-23
-0.4820480332187458	-4.2185641094391134e-23
-0.4819869980624958	-4.2018768553346564e-23
-0.4819259629062458	-4.1840339500592634e-23
-0.4818649277499958	-4.1650234929663086e-23
-0.4818038925937458	-4.144923739519023e-23
-0.4817428574374958	-4.1237466628743715e-23
-0.4816818222812458	-4.1014295767995305e-23
-0.4816207871249958	-4.0779790672290636e-23
-0.4815597519687458	-4.05346280593665e-23
-0.4814987168124958	-4.0278791301630646e-23
-0.4814376816562458	-4.001179396204689e-23
-0.4813766464999958	-3.9733840956265996e-23
-0.4813156113437458	-3.944548584171339e-23
-0.4812545761874958	-3.9146618813383674e-23
-0.4811935410312458	-3.883690601280514e-23
-0.4811325058749958	-3.851664874000874e-23
-0.4810714707187458	-3.8186267252223824e-23
-0.4810104355624958	-3.784559288353955e-23
-0.4809494004062458	-3.749444415633999e-23
-0.4808883652499958	-3.7133189575507393e-23
-0.4808273300937458	-3.676212908487637e-23
-0.4807662949374958	-3.638106872889665e-23
-0.4807052597812458	-3.5989963790753824e-23
-0.4806442246249958	-3.5589211761323195e-23
-0.4805831894687458	-3.517899974298508e-23
-0.4805221543124958	-3.475913816007682e-23
-0.4804611191562458	-3.43297099983034e-23
-0.4804000839999958	-3.3891121171584474e-23
-0.4803390488437458	-3.3443466972189787e-23
-0.4802780136874958	-3.298658391485913e-23
-0.4802169785312458	-3.2520652902428714e-23
-0.4801559433749958	-3.204605591795013e-23
-0.4800949082187458	-3.156281722829539e-23
-0.4800338730624958	-3.107082835789367e-23
-0.4799728379062458	-3.0570352760097414e-23
-0.4799118027499958	-3.006173291033299e-23
-0.4798507675937458	-2.954494534053462e-23
-0.4797897324374958	-2.901994430798135e-23
-0.4797286972812458	-2.848704579463536e-23
-0.4796676621249958	-2.794654659466536e-23
-0.4796066269687458	-2.7398398625136264e-23
-0.4795455918124958	-2.684261752698495e-23
-0.4794845566562458	-2.627954916863283e-23
-0.4794235214999958	-2.570944319877349e-23
-0.4793624863437458	-2.5132249666311197e-23
-0.4793014511874958	-2.454805191640937e-23
-0.4792404160312458	-2.3957206216042818e-23
-0.4791793808749958	-2.335991098606215e-23
-0.4791183457187458	-2.2756127915519415e-23
-0.4790573105624958	-2.2146004456829355e-23
-0.4789962754062458	-2.1529892678575344e-23
-0.4789352402499958	-2.0907941668004378e-23
-0.4788742050937458	-2.0280138445678077e-23
-0.4788131699374958	-1.9646694748641939e-23
-0.4787521347812458	-1.9007949322590617e-23
-0.4786910996249958	-1.836400389357374e-23
-0.4786300644687458	-1.7714872455342595e-23
-0.4785690293124958	-1.7060816982856204e-23
-0.4785079941562458	-1.640215280684718e-23
-0.4784469589999958	-1.573894948270958e-23
-0.4783859238437458	-1.5071260107935372e-23
-0.4783248886874958	-1.439938245697299e-23
-0.4782638535312458	-1.3723608492223438e-23
-0.4782028183749958	-1.304400070146497e-23
-0.4781417832187458	-1.2360652876483216e-23
-0.4780807480624958	-1.1673866553877684e-23
-0.4780197129062458	-1.0983882213568559e-23
-0.4779586777499958	-1.0290758124064714e-23
-0.4778976425937458	-9.594646592025646e-24
-0.4778366074374958	-8.895866663078222e-24
-0.4777755722812458	-8.194627603763704e-24
-0.4777145371249958	-7.490992028273545e-24
-0.4776535019687458	-6.785145305009585e-24
-0.4775924668124958	-6.077400951769798e-24
-0.4775314316562458	-5.3679346662228546e-24
-0.4774703964999958	-4.656809955594935e-24
-0.4774093613437458	-3.944244889071037e-24
-0.4773483261874958	-3.2305577861955112e-24
-0.4772872910312458	-2.515905189372776e-24
-0.4772262558749958	-1.8003615112423463e-24
-0.4771652207187458	-1.0841690059465361e-24
-0.4771041855624958	-3.6763193561089154e-25
-0.4770431504062458	3.4911955747027404e-25
-0.4769821152499958	1.0659960686213855e-24
-0.4769210800937458	1.782728297436123e-24
-0.4768600449374958	2.499024084909984e-24
-0.4767990097812458	3.2147737466836507e-24
-0.4767379746249958	3.9298757468303324e-24
-0.4766769394687458	4.6440463402432925e-24
-0.4766159043124958	5.357009268810332e-24
-0.4765548691562458	6.068667512579731e-24
-0.4764938339999958	6.778898479877259e-24
-0.4764327988437458	7.48740656324157e-24
-0.4763717636874958	8.193942972120857e-24
-0.4763107285312458	8.89842605632471e-24
-0.4762496933749958	9.600711861419483e-24
-0.4761886582187458	1.0300499498140074e-23
-0.4761276230624958	1.0997560039137724e-23
-0.4760665879062458	1.1691810684245246e-23
-0.4760055527499958	1.2383091366280943e-23
-0.4759445175937458	1.307110923760297e-23
-0.4758834824374958	1.375565777568293e-23
-0.4758224472812458	1.4436653908660345e-23
-0.4757614121249958	1.5113924642776977e-23
-0.4757003769687458	1.57871855925097e-23
-0.4756393418124958	1.6456246889904895e-23
-0.4755783066562458	1.7121022647850743e-23
-0.4755172714999958	1.77813332858772e-23
-0.4754562363437458	1.8436907960273408e-23
-0.4753952011874958	1.9087573444069037e-23
-0.4753341660312458	1.9733238791606008e-23
-0.4752731308749958	2.0373717857417253e-23
-0.4752120957187458	2.1008755533224543e-23
-0.4751510605624958	2.163818975771192e-23
-0.4750900254062458	2.2261919178304627e-23
-0.4750289902499958	2.2879758545492993e-23
-0.4749679550937458	2.3491475486836643e-23
-0.4749069199374958	2.4096920796171503e-23
-0.4748458847812458	2.4695987816382057e-23
-0.4747848496249958	2.528849543103177e-23
-0.4747238144687458	2.587423243801232e-23
-0.4746627793124958	2.6453059562724725e-23
-0.4746017441562458	2.7024858772543823e-23
-0.4745407089999958	2.7589442896486604e-23
-0.4744796738437458	2.814661468444167e-23
-0.4744186386874958	2.869625418586313e-23
-0.4743576035312458	2.923825640598027e-23
-0.4742965683749958	2.977244485305211e-23
-0.4742355332187458	3.0298630924034645e-23
-0.4741744980624958	3.081669413070869e-23
-0.4741134629062458	3.132652769131887e-23
-0.4740524277499958	3.1827968480067256e-23
-0.4739913925937458	3.2320846853671386e-23
-0.4739303574374958	3.280504927088785e-23
-0.4738693222812458	3.3280471814143356e-23
-0.4738082871249958	3.374696247987192e-23
-0.4737472519687458	3.420436794853707e-23
-0.4736862168124958	3.465258446471182e-23
-0.4736251816562458	3.509150839593561e-23
-0.4735641464999958	3.552099433616047e-23
-0.4735031113437458	3.5940905540016945e-23
-0.4734420761874958	3.6351148578135034e-23
-0.4733810410312458	3.6751626328744916e-23
-0.4733200058749958	3.714220728951125e-23
-0.4732589707187458	3.752276824455727e-23
-0.4731979355624958	3.789322449046212e-23
-0.4731369004062458	3.825348869666633e-23
-0.4730758652499958	3.8603439578153314e-23
-0.4730148300937458	3.894296444473254e-23
-0.4729537949374958	3.9271991690937127e-23
-0.4728927597812458	3.959044520124781e-23
-0.4728317246249958	3.9898212050570596e-23
-0.4727706894687458	4.0195193179751126e-23
-0.4727096543124958	4.048133215515978e-23
-0.4726486191562458	4.075655844383005e-23
-0.4725875839999958	4.10207657026434e-23
-0.4725265488437458	4.127387372469632e-23
-0.4724655136874958	4.1515842488754295e-23
-0.4724044785312458	4.174660592636999e-23
-0.4723434433749958	4.1966066201733344e-23
-0.4722824082187458	4.2174164745211033e-23
-0.4722213730624958	4.237087825685518e-23
-0.4721603379062458	4.2556143863848e-23
-0.4720993027499958	4.2729873216310804e-23
-0.4720382675937458	4.289202844365507e-23
-0.4719772324374958	4.304259878437489e-23
-0.4719161972812458	4.318152544462069e-23
-0.4718551621249958	4.330873363441149e-23
-0.4717941269687458	4.342420661763587e-23
-0.4717330918124958	4.3527945119722405e-23
-0.4716720566562458	4.361989469058252e-23
