Time	Frequency
-0.5000509486874876	0.49917866468332067
-0.49998991353123756	0.4936958937924902
-0.49992887837498756	0.48810027343934287
-0.49986784321873756	0.4823943844743857
-0.49980680806248756	0.47658097411475525
-0.49974577290623756	0.4706606376355262
-0.49968473774998756	0.4646328280194249
-0.49962370259373756	0.4584986134545396
-0.49956266743748756	0.45226091382018213
-0.49950163228123756	0.44592203115104084
-0.49944059712498756	0.4394822897539914
-0.49937956196873756	0.4329416308063565
-0.49931852681248756	0.4263017077758727
-0.49925749165623756	0.419565502157721
-0.49919645649998756	0.4127350514239071
-0.49913542134373756	0.40581066033468954
-0.49907438618748756	0.39879272646431885
-0.49901335103123756	0.3916832768652099
-0.49895231587498756	0.3844850301860948
-0.49889128071873756	0.3771996343588337
-0.49883024556248756	0.36982761736391223
-0.49876921040623756	0.3623699872992457
-0.49870817524998756	0.3548290912330033
-0.49864714009373756	0.34720748885226654
-0.49858610493748756	0.3395066102303191
-0.49852506978123756	0.33172717960376835
-0.49846403462498756	0.3238706719414654
-0.49840299946873756	0.3159395887992784
-0.49834196431248756	0.3079361840936326
-0.49828092915623756	0.29986163739386384
-0.49821989399998756	0.29171694353301697
-0.49815885884373756	0.2835040940164405
-0.49809782368748756	0.27522562464937117
-0.49803678853123756	0.26688334294417293
-0.49797575337498756	0.25847843351625716
-0.49791471821873756	0.25001264276508456
-0.49785368306248756	0.24148848226884467
-0.49779264790623756	0.2329080980745766
-0.49773161274998756	0.22427267259288197
-0.49767057759373756	0.21558349944850513
-0.49760954243748756	0.2068430603235553
-0.49754850728123756	0.19805422722391836
-0.49748747212498756	0.18921868708782233
-0.49742643696873756	0.18033715050139
-0.49736540181248756	0.17141125483283604
-0.49730436665623756	0.1624441347705941
-0.49724333149998756	0.15343856969259154
-0.49718229634373756	0.14439562119384203
-0.49712126118748756	0.1353160722599011
-0.49706022603123756	0.1262024830781189
-0.49699919087498756	0.11705838558402497
-0.49693815571873756	0.10788573300932322
-0.49687712056248756	0.09868485568853128
-0.49681608540623756	0.08945712983047864
-0.49675505024998756	0.08020609254682999
-0.49669401509373756	0.07093516678622756
-0.49663297993748756	0.06164543874124163
-0.49657194478123756	0.052337001005500816
-0.49651090962498756	0.043012020505353785
-0.49644987446873756	0.03367475085348936
-0.49638883931248756	0.02432813769552074
-0.49632780415623756	0.014972242432067255
-0.49626676899998756	0.005607268340788044
-0.49620573384373756	-0.003763391003892791
-0.49614469868748756	-0.013135091669038819
-0.49608366353123756	-0.0225060099215924
-0.49602262837498756	-0.031876883192867925
-0.49596159321873756	-0.04124665782330435
-0.49590055806248756	-0.050610792830213726
-0.49583952290623756	-0.05996510342678608
-0.49577848774998756	-0.06930923374492809
-0.49571745259373756	-0.07864399432011723
-0.49565641743748756	-0.08796664366928009
-0.49559538228123756	-0.0972718232513999
-0.49553434712498756	-0.10655675702442632
-0.49547331196873756	-0.11582244962943182
-0.49541227681248756	-0.12506899776442054
-0.49535124165623756	-0.13429222763757545
-0.49529020649998756	-0.14348689610535356
-0.49522917134373756	-0.15265173930486345
-0.49516813618748756	-0.1617884286216332
-0.49510710103123756	-0.17089564571274074
-0.49504606587498756	-0.17996766832347882
-0.49498503071873756	-0.1890002391827095
-0.49492399556248756	-0.19799443420822022
-0.49486296040623756	-0.20695190521454382
-0.49480192524998756	-0.21586888615984823
-0.49474089009373756	-0.22473876164843218
-0.49467985493748756	-0.23355942890488332
-0.49461881978123756	-0.24233369357235515
-0.49455778462498756	-0.25106176454354995
-0.49449674946873756	-0.25973772590238486
-0.49443571431248756	-0.26835576879458894
-0.49437467915623756	-0.2769163871355183
-0.49431364399998756	-0.2854226182941526
-0.49425260884373756	-0.2938720802966397
-0.49419157368748756	-0.3022574847569066
-0.49413053853123756	-0.31057522533143356
-0.49406950337498756	-0.3188284802382122
-0.49400846821873756	-0.32701935182228453
-0.49394743306248756	-0.33514230055847205
-0.49388639790623756	-0.34318983352265664
-0.49382536274998756	-0.3511617282410899
-0.49376432759373756	-0.35906282007549817
-0.49370329243748756	-0.36689249298776283
-0.49364225728123756	-0.37464252411280996
-0.49358122212498756	-0.3823071071268074
-0.49352018696873756	-0.38988947305755167
-0.49345915181248756	-0.39739425365337905
-0.49339811665623756	-0.4048172710235177
-0.49333708149998756	-0.41214919818019086
-0.49327604634373756	-0.41938780214829974
-0.49321501118748756	-0.42653929682283437
-0.49315397603123756	-0.43360604134971076
-0.49309294087498756	-0.4405798440337365
-0.49303190571873756	-0.44745208491577976
-0.49297087056248756	-0.45422511443225655
-0.49290983540623756	-0.4609064580658837
-0.49284880024998756	-0.4674944002043967
-0.49278776509373756	-0.47397792433646607
-0.49272672993748756	-0.4803517208024313
-0.49266569478123756	-0.48662263570458947
-0.49260465962498756	-0.4927967866795622
-0.49254362446873756	-0.4988673216390524
-0.49248258931248756	-0.5048226579970313
-0.49242155415623756	-0.5106627925687619
-0.49236051899998756	-0.5163975857240433
-0.49229948384373756	-0.5220290449653915
-0.49223844868748756	-0.5275456698927361
-0.49217741353123756	-0.5329384466510191
-0.49211637837498756	-0.538213485791657
-0.49205534321873756	-0.5433807949579988
-0.49199430806248756	-0.548436314633866
-0.49193327290623756	-0.5533659461176349
-0.49187223774998756	-0.5581660331863916
-0.49181120259373756	-0.5628478558486311
-0.49175016743748756	-0.5674182075254663
-0.49168913228123756	-0.5718665256663878
-0.49162809712498756	-0.5761796165666561
-0.49156706196873756	-0.5803612391987499
-0.49150602681248756	-0.5844250849765034
-0.49144499165623756	-0.5883714510196827
-0.49138395649998756	-0.592184681791895
-0.49132292134373756	-0.5958563258203254
-0.49126188618748756	-0.5993976257817284
-0.49120085103123756	-0.6028207998838642
-0.49113981587498756	-0.6061180549999626
-0.49107878071873756	-0.6092720775497851
-0.49101774556248756	-0.6122823737321058
-0.49095671040623756	-0.6151655335636945
-0.49089567524998756	-0.6179279082049586
-0.49083464009373756	-0.6205538232190053
-0.49077360493748756	-0.6230290160562985
-0.49071256978123756	-0.6253627279760927
-0.49065153462498756	-0.6275727126562629
-0.49059049946873756	-0.6296560083591487
-0.49052946431248756	-0.6315920924813094
-0.49046842915623756	-0.6333745443079821
-0.49040739399998756	-0.6350211865000049
-0.49034635884373756	-0.636545470520146
-0.49028532368748756	-0.6379339001629972
-0.49022428853123756	-0.6391662574554932
-0.49016325337498756	-0.6402474921965184
-0.49010221821873756	-0.6412000982222602
-0.49004118306248756	-0.6420278644849425
-0.48998014790623756	-0.6427086605936517
-0.48991911274998756	-0.6432290053936972
-0.48985807759373756	-0.6436058989168909
-0.48979704243748756	-0.6438600960927926
-0.48973600728123756	-0.6439824059558544
-0.48967497212498756	-0.6439473593495679
-0.48961393696873756	-0.6437538186389896
-0.48955290181248756	-0.6434276756869314
-0.48949186665623756	-0.6429808183593326
-0.48943083149998756	-0.6423913117292505
-0.48936979634373756	-0.6416378214049112
-0.48930876118748756	-0.6407344959889655
-0.48924772603123756	-0.6397096103282959
-0.48918669087498756	-0.638560365040885
-0.48912565571873756	-0.6372563997722949
-0.48906462056248756	-0.6357884239377347
-0.48900358540623756	-0.6341847460651835
-0.48894255024998756	-0.6324673218732417
-0.48888151509373756	-0.630616148583489
-0.48882047993748756	-0.6286003887722639
-0.48875944478123756	-0.626428707182555
-0.48869840962498756	-0.6241377874954087
-0.48863737446873756	-0.6217346748457873
-0.48857633931248756	-0.6191845332520975
-0.48851530415623756	-0.6164660720873089
-0.48845426899998756	-0.6136078115270187
-0.48839323384373756	-0.6106451853854407
-0.48833219868748756	-0.6075642400093481
-0.48827116353123756	-0.6043226664545365
-0.48821012837498756	-0.6009180079037854
-0.48814909321873756	-0.5973949958257015
-0.48808805806248756	-0.5937768579644732
-0.48802702290623756	-0.5900276336630856
-0.48796598774998756	-0.5861082248319653
-0.48790495259373756	-0.582040766523752
-0.48784391743748756	-0.5778777428213262
-0.48778288228123756	-0.5736203913377896
-0.48772184712498756	-0.569215145661586
-0.48766081196873756	-0.5646381607503445
-0.48759977681248756	-0.5599368573869759
-0.48753874165623756	-0.5551594725679081
-0.48747770649998756	-0.550279533449159
-0.48741667134373756	-0.5452358061860731
-0.48735563618748756	-0.5400298585143601
-0.48729460103123756	-0.5347285853937214
-0.48723356587498756	-0.5293629261314234
-0.48717253071873756	-0.5238786996558936
-0.48711149556248756	-0.5182201416963671
-0.48705046040623756	-0.5124199551150608
-0.48698942524998756	-0.5065536367141406
-0.48692839009373756	-0.5006243230364464
-0.48686735493748756	-0.4945568368792
-0.48680631978123756	-0.4883146367809965
-0.48674528462498756	-0.4819606834849708
-0.48668424946873756	-0.4755647511476548
-0.48662321431248756	-0.4690968706037261
-0.48656217915623756	-0.4624729508179638
-0.48650114399998756	-0.4556860759815993
-0.48644010884373756	-0.4488215127671649
-0.48637907368748756	-0.44192925519640275
-0.48631803853123756	-0.4349484709505201
-0.48625700337498756	-0.4278017069348255
-0.48619596821873756	-0.4205161992891751
-0.48613493306248756	-0.41318563858162666
-0.48607389790623756	-0.4058295156029144
-0.48601286274998756	-0.3983653073220466
-0.48595182759373756	-0.39073668436030873
-0.48589079243748756	-0.38300185311954527
-0.48582975728123756	-0.3752471614274143
-0.48576872212498756	-0.36745837984755403
-0.48570768696873756	-0.3595458704401708
-0.48564665181248756	-0.35148386786061375
-0.48558561665623756	-0.34335106047300135
-0.48552458149998756	-0.33521256448438963
-0.48546354634373756	-0.3270247902674289
-0.48540251118748756	-0.3187064433228197
-0.48534147603123756	-0.3102645552972522
-0.48528044087498756	-0.301784054640069
-0.48521940571873756	-0.29330049440034767
-0.48515837056248756	-0.28475114473605456
-0.48509733540623756	-0.27607542991585254
-0.48503630024998756	-0.2673085644307803
-0.48497526509373756	-0.2585280046053649
-0.48491422993748756	-0.24973858848079863
-0.48485319478123756	-0.24087106610271783
-0.48479215962498756	-0.23189183557292561
-0.48473112446873756	-0.2228547951263045
-0.48467008931248756	-0.21381983860401935
-0.48460905415623756	-0.20476593288416955
-0.48454801899998756	-0.19562937496938854
-0.48448698384373756	-0.18640415306909164
-0.48442594868748756	-0.17715115911157683
-0.48436491353123756	-0.16790681307006441
-0.48430387837498756	-0.15863281752918293
-0.48424284321873756	-0.14928029705529708
-0.48418180806248756	-0.13986661462479805
-0.48412077290623756	-0.13044925163807847
-0.48405973774998756	-0.12104095199435821
-0.48399870259373756	-0.11159596264663578
-0.48393766743748756	-0.10208442647822524
-0.48387663228123756	-0.09253932419010268
-0.48381559712498756	-0.08300725178093953
-0.48375456196873756	-0.07348146915864477
-0.48369352681248756	-0.06391798932846193
-0.48363249165623756	-0.054306263919195435
-0.48357145649998756	-0.0446862523333207
-0.48351042134373756	-0.0350894523640962
-0.48344938618748756	-0.02549567879201116
-0.48338835103123756	-0.01586891402958762
-0.48332731587498756	-0.006214818367759367
-0.48326628071873756	0.003426613459065412
-0.48320524556248756	0.01303897701056216
-0.48314421040623756	0.02264931187242707
-0.48308317524998756	0.03228248124527456
-0.48302214009373756	0.04192131933761654
-0.48296110493748756	0.05153117725696863
-0.48290006978123756	0.06110880124031771
-0.48283903462498756	0.07068203242674471
-0.48277799946873756	0.08026390805524417
-0.48271696431248756	0.08983140949240205
-0.48265592915623756	0.0993582524298903
-0.48259489399998756	0.10885027886528098
-0.48253385884373756	0.11833172447448394
-0.48247282368748756	0.12780560635732882
-0.48241178853123756	0.13724766775070807
-0.48235075337498756	0.14664042739771052
-0.48228971821873756	0.15599497842595317
-0.48222868306248756	0.1653297964127554
-0.48216764790623756	0.17464044780440888
-0.48210661274998756	0.1839046312493666
-0.48204557759373756	0.1931125730523042
-0.48198454243748756	0.2022770623102466
-0.48192350728123756	0.21141036437302074
-0.48186247212498756	0.22050383284297495
-0.48180143696873756	0.2295391120079552
-0.48174040181248756	0.23851215906537876
-0.48167936665623756	0.24743475699266596
-0.48161833149998756	0.2563134934144514
-0.48155729634373756	0.26513808559697394
-0.48149626118748756	0.2738946593461392
-0.48143522603123756	0.28258286206861855
-0.48137419087498756	0.2912122409948469
-0.48131315571873756	0.29978504119840993
-0.48125212056248756	0.30829107629834973
-0.48119108540623756	0.31672057133256737
-0.48113005024998756	0.32507501574726666
-0.48106901509373756	0.33336119244951024
-0.48100797993748756	0.3415786496055711
-0.48094694478123756	0.3497186175459446
-0.48088590962498756	0.3577744359266297
-0.48082487446873756	0.3657478885005008
-0.48076383931248756	0.37364327815647563
-0.48070280415623756	0.3814587037743392
-0.48064176899998756	0.38918685764210886
-0.48058073384373756	0.3968232097149895
-0.48051969868748756	0.4043695205386798
-0.48045866353123756	0.4118284416045464
-0.48039762837498756	0.4191975001950726
-0.48033659321873756	0.4264706618620487
-0.48027555806248756	0.433644575106805
-0.48021452290623756	0.44072057266765613
-0.48015348774998756	0.44770020245880343
-0.48009245259373756	0.454580968711683
-0.48003141743748756	0.46135792669502274
-0.47997038228123756	0.46802845010253447
-0.47990934712498756	0.47459350666706873
-0.47984831196873756	0.481053981045154
-0.47978727681248756	0.48740741955475836
-0.47972624165623756	0.49364958893990724
-0.47966520649998756	0.49977840181297833
-0.47960417134373756	0.5057947252546943
-0.47954313618748756	0.5116990774231572
-0.47948210103123756	0.51748896975786
-0.47942106587498756	0.5231606196283696
-0.47936003071873756	0.5287124750708151
-0.47929899556248756	0.534145522347712
-0.47923796040623756	0.5394599721053853
-0.47917692524998756	0.5446531330192647
-0.47911589009373756	0.5497216081606267
-0.47905485493748756	0.5546645361461292
-0.47899381978123756	0.5594830651651391
-0.47893278462498756	0.5641769456202539
-0.47887174946873756	0.5687433032010274
-0.47881071431248756	0.5731793201686425
-0.47874967915623756	0.577484853414612
-0.47868864399998756	0.5816611207051935
-0.47862760884373756	0.585707384412031
-0.47856657368748756	0.5896206019099022
-0.47850553853123756	0.5933985759207604
-0.47844450337498756	0.597041853716719
-0.47838346821873756	0.6005515598505887
-0.47832243306248756	0.6039264593269923
-0.47826139790623756	0.6071636065747602
-0.47820036274998756	0.6102615493023357
-0.47813932759373756	0.6132213173934539
-0.47807829243748756	0.6160437939919753
-0.47801725728123756	0.6187274272845622
-0.47795622212498756	0.6212696191446845
-0.47789518696873756	0.6236696402256702
-0.47783415181248756	0.6259287562882652
-0.47777311665623756	0.6280474439723703
-0.47771208149998756	0.6300238916162876
-0.47765104634373756	0.6318559959717902
-0.47759001118748756	0.6335437886401932
-0.47752897603123756	0.6350886741129409
-0.47746794087498756	0.6364907149119406
-0.47740690571873756	0.6377480377403708
-0.47734587056248756	0.638859148236
-0.47728483540623756	0.6398246373502883
-0.47722380024998756	0.6406458192591196
-0.47716276509373756	0.6413224400687215
-0.47710172993748756	0.6418528378952366
-0.47704069478123756	0.6422361684848558
-0.47697965962498756	0.6424733331023685
-0.47691862446873756	0.6425653849882673
-0.47685758931248756	0.6425119031285788
-0.47679655415623756	0.6423116493867431
-0.47673551899998756	0.641964399124095
-0.47667448384373756	0.6414712245252514
-0.47661344868748756	0.6408329098268102
-0.47655241353123756	0.6400489463935236
-0.47649137837498756	0.6391185619134175
-0.47643034321873756	0.6380421085016802
-0.47636930806248756	0.6368207188800376
-0.47630827290623756	0.6354548762306185
-0.47624723774998756	0.6339441160309955
-0.47618620259373756	0.6322882603578758
-0.47612516743748756	0.6304881826123947
-0.47606413228123756	0.6285448869639166
-0.47600309712498756	0.6264584851273247
-0.47594206196873756	0.6242287696643032
-0.47588102681248756	0.621856358721661
-0.47581999165623756	0.619342445514119
-0.47575895649998756	0.6166875769383626
-0.47569792134373756	0.6138915775038308
-0.47563688618748756	0.6109548289771137
-0.47557585103123756	0.6078787767735846
-0.47551481587498756	0.6046646733986053
-0.47545378071873756	0.6013125172776778
-0.47539274556248756	0.5978220818797827
-0.47533171040623756	0.5941945393703608
-0.47527067524998756	0.5904319505562504
-0.47520964009373756	0.5865352427282418
-0.47514860493748756	0.5825039537369229
-0.47508756978123756	0.5783383479583932
-0.47502653462498756	0.5740405417504126
-0.47496549946873756	0.5696126568852478
-0.47490446431248756	0.5650548543744762
-0.47484342915623756	0.5603665146209686
-0.47478239399998756	0.555548828868042
-0.47472135884373756	0.55060466052912
-0.47466032368748756	0.5455357694168852
-0.47459928853123756	0.5403416894357983
-0.47453825337498756	0.5350221556421217
-0.47447721821873756	0.5295794707857161
-0.47441618306248756	0.5240169528746423
-0.47435514790623756	0.5183356169419236
-0.47429411274998756	0.51253434619811
-0.47423307759373756	0.5066135739899604
-0.47417204243748756	0.5005768117970328
-0.47411100728123756	0.4944273613272425
-0.47404997212498756	0.48816513761302305
-0.47398893696873756	0.4817887916647831
-0.47392790181248756	0.47530006125932617
-0.47386686665623756	0.46870342140229787
-0.47380583149998756	0.46200135995788827
-0.47374479634373756	0.45519271418357077
-0.47368376118748756	0.44827689415165217
-0.47362272603123756	0.4412573759656518
-0.47356169087498756	0.43413875625482456
-0.47350065571873756	0.42692191686467507
-0.47343962056248756	0.4196050282313038
-0.47337858540623756	0.41218897637090374
-0.47331755024998756	0.40467869005547374
-0.47325651509373756	0.397078078054296
-0.47319547993748756	0.3893864472040906
-0.47313444478123756	0.38160223710613567
-0.47307340962498756	0.3737283771166042
-0.47301237446873756	0.3657706618810121
-0.47295133931248756	0.3577313382848504
-0.47289030415623756	0.34960810951397026
-0.47282926899998756	0.3414006112956111
-0.47276823384373756	0.3331141125346171
-0.47270719868748756	0.32475419885058227
-0.47264616353123756	0.3163207999470787
-0.47258512837498756	0.3078112049571934
-0.47252409321873756	0.2992274303661409
-0.47246305806248756	0.2905762807445125
-0.47240202290623756	0.281861768241926
-0.47234098774998756	0.2730817107327591
-0.47227995259373756	0.2642341875904669
-0.47221891743748756	0.25532390086931445
-0.47215788228123756	0.24635808670459639
-0.47209684712498756	0.2373381251614437
-0.47203581196873756	0.22826033791392208
-0.47197477681248756	0.2191251629047427
-0.47191374165623756	0.20994008288417332
-0.47185270649998756	0.2007111179429596
-0.47179167134373756	0.1914362986360499
-0.47173063618748756	0.18211192752203365
-0.47166960103123756	0.17274196292451227
-0.47160856587498756	0.16333540943068992
-0.47154753071873756	0.1538954576008297
-0.47148649556248756	0.1444175676531486
-0.47142546040623756	0.13489996153044725
-0.47136442524998756	0.12535017448446645
-0.47130339009373756	0.11577684098435795
-0.47124235493748756	0.10617922107262684
-0.47118131978123756	0.09655144257838957
-0.47112028462498756	0.08689535203639419
-0.47105924946873756	0.07722151484463229
-0.47099821431248756	0.06753620360052255
-0.47093717915623756	0.05783465124997006
-0.47087614399998756	0.04811177736480101
-0.47081510884373756	0.03837404132550098
-0.47075407368748756	0.028633155140969018
-0.47069303853123756	0.018890885812023337
-0.47063200337498756	0.00913933322447599
-0.47057096821873756	-0.000623049145954824
-0.47050993306248756	-0.010385036400736347
-0.47044889790623756	-0.0201366010478823
-0.47038786274998756	-0.029881501946772346
-0.47032682759373756	-0.0396281008441667
-0.47026579243748756	-0.04937237611164318
