Time	Frequency
-0.5000160391874999	0.6060141853341887
-0.4999550040312499	0.6064574340235045
-0.4998939688749999	0.6067851057683804
-0.4998329337187499	0.6069964731301404
-0.4997718985624999	0.6070917937895567
-0.4997108634062499	0.6070714194542185
-0.4996498282499999	0.6069345801364485
-0.4995887930937499	0.606681548311925
-0.4995277579374999	0.6063128814259592
-0.4994667227812499	0.6058278628318202
-0.4994056876249999	0.6052267616399984
-0.4993446524687499	0.6045103428688187
-0.4992836173124999	0.6036779008360355
-0.4992225821562499	0.6027295693711588
-0.4991615469999999	0.6016663470102677
-0.4991005118437499	0.6004876958381479
-0.4990394766874999	0.5991935873644285
-0.4989784415312499	0.597785140099396
-0.4989174063749999	0.5962620699576415
-0.4988563712187499	0.5946242951311907
-0.4987953360624999	0.5928729700641312
-0.4987343009062499	0.5910079631588755
-0.4986732657499999	0.5890291439524393
-0.4986122305937499	0.5869377294893331
-0.4985511954374999	0.584733774437136
-0.4984901602812499	0.582417163673817
-0.4984291251249999	0.5799891906776403
-0.4983680899687499	0.5774500187774823
-0.4983070548124999	0.5747994451367286
-0.4982460196562499	0.5720388324824911
-0.4981849844999999	0.5691686084343507
-0.4981239493437499	0.5661885622788866
-0.4980629141874999	0.563099989057747
-0.4980018790312499	0.5599035264187555
-0.4979408438749999	0.5565990476415282
-0.4978798087187499	0.5531877377792405
-0.4978187735624999	0.5496702974404699
-0.4977577384062499	0.5460467541783391
-0.4976967032499999	0.5423184533652499
-0.4976356680937499	0.5384862233666937
-0.4975746329374999	0.5345500075447207
-0.4975135977812499	0.53051104691929
-0.4974525626249999	0.5263702749525532
-0.4973915274687499	0.5221278142199149
-0.4973304923124999	0.5177850385921697
-0.4972694571562499	0.5133429563107328
-0.4972084219999999	0.5088016726297762
-0.4971473868437499	0.5041625434643844
-0.4970863516874999	0.49942664985653684
-0.4970253165312499	0.49459416224250663
-0.4969642813749999	0.48966653444071834
-0.4969032462187499	0.4846449778381827
-0.4968422110624999	0.479529660592586
-0.4967811759062499	0.4743220663646257
-0.4967201407499999	0.46902350995295006
-0.4966591055937499	0.46363404715161943
-0.4965980704374999	0.45815509917106667
-0.4965370352812499	0.45258836688442244
-0.4964760001249999	0.4469342161155362
-0.4964149649687499	0.4411938634269486
-0.4963539298124999	0.435368789843661
-0.4962928946562499	0.4294594450739774
-0.4962318594999999	0.4234672417749661
-0.4961708243437499	0.4173937637648137
-0.4961097891874999	0.41123942934952346
-0.4960487540312499	0.40500572187920075
-0.4959877188749999	0.3986943903357729
-0.4959266837187499	0.39230579891211076
-0.4958656485624999	0.38584132810161514
-0.4958046134062499	0.37930288364234493
-0.4957435782499999	0.3726910342267312
-0.4956825430937499	0.36600725244232396
-0.4956215079374999	0.35925342725903
-0.4955604727812499	0.3524299096699899
-0.4954994376249999	0.34553806329167147
-0.4954384024687499	0.3385800014177805
-0.4953773673124999	0.33155622684665037
-0.4953163321562499	0.32446820592987424
-0.4952552969999999	0.31731829748459406
-0.4951942618437499	0.31010693572189346
-0.4951332266874999	0.3028353449674065
-0.4950721915312499	0.2955059912577834
-0.4950111563749999	0.288119338504769
-0.4949501212187499	0.28067650372514447
-0.4948890860624999	0.2731802665544051
-0.4948280509062499	0.2656312710655604
-0.4947670157499999	0.25803037089142833
-0.4947059805937499	0.2503804666672433
-0.4946449454374999	0.24268246389588188
-0.4945839102812499	0.2349369910205037
-0.4945228751249999	0.2271467344482186
-0.4944618399687499	0.21931263134309056
-0.4944008048124999	0.21143543960113662
-0.4943397696562499	0.20351818851660117
-0.4942787344999999	0.19556193623458953
-0.4942176993437499	0.18756709148751316
-0.4941566641874999	0.1795367044679776
-0.4940956290312499	0.1714721827734788
-0.4940345938749999	0.16337384304646
-0.4939735587187499	0.15524472357874808
-0.4939125235624999	0.1470863721152765
-0.4938514884062499	0.1388987314951055
-0.4937904532499999	0.13068471048181873
-0.4937294180937499	0.12244623323650887
-0.4936683829374999	0.11418319982516759
-0.4936073477812499	0.1058985183888232
-0.4935463126249999	0.09759453961212924
-0.4934852774687499	0.08927108564275887
-0.4934242423124999	0.08093072360364492
-0.4933632071562499	0.07257584454456543
-0.4933021719999999	0.06420623529149551
-0.4932411368437499	0.05582458137673651
-0.4931801016874999	0.04743362329975918
-0.4931190665312499	0.039032796715512436
-0.4930580313749999	0.030624467425791637
-0.4929969962187499	0.022211935511411065
-0.4929359610624999	0.013794722707372531
-0.4928749259062499	0.00537473396816029
-0.4928138907499999	-0.0030446286180111225
-0.4927528555937499	-0.011463843862256054
-0.4926918204374999	-0.019881077683024703
-0.4926307852812499	-0.028292405625597254
-0.4925697501249999	-0.03669839139097262
-0.4925087149687499	-0.0450977134757911
-0.4924476798124999	-0.053486040634331454
-0.4923866446562499	-0.061863817503179354
-0.4923256094999999	-0.0702303164416072
-0.4922645743437499	-0.0785810827913951
-0.4922035391874999	-0.08691637473892723
-0.4921425040312499	-0.09523565121394803
-0.4920814688749999	-0.10353396832001785
-0.4920204337187499	-0.11181155278559682
-0.4919593985624999	-0.12006868694820348
-0.4918983634062499	-0.12830015697673255
-0.4918373282499999	-0.13650576778173817
-0.4917762930937499	-0.14468628215826923
-0.4917152579374999	-0.15283609606410753
-0.4916542227812499	-0.1609547892850505
-0.4915931876249999	-0.16904409506635937
-0.4915321524687499	-0.177098070750884
-0.4914711173124999	-0.1851156647108775
-0.4914100821562499	-0.1930994680445861
-0.4913490469999999	-0.20104331409810003
-0.4912880118437499	-0.20894556424440344
-0.4912269766874999	-0.21680975745308095
-0.4911659415312499	-0.22462943237131133
-0.4911049063749999	-0.23240215464907285
-0.4910438712187499	-0.24013268385105502
-0.4909828360624999	-0.2478144639990577
-0.4909218009062499	-0.2554438019284891
-0.4908607657499999	-0.26302672295815377
-0.4907997305937499	-0.270557046494984
-0.4907386954374999	-0.27802958761062824
-0.4906776602812499	-0.28545142180088534
-0.4906166251249999	-0.2928168732381031
-0.4905555899687499	-0.30011911277865577
-0.4904945548124999	-0.30736648452372245
-0.4904335196562499	-0.31455424677391425
-0.4903724844999999	-0.32167341879663175
-0.4903114493437499	-0.32873331363665886
-0.4902504141874999	-0.33573062564643497
-0.4901893790312499	-0.3426539278845085
-0.4901283438749999	-0.3495132547169466
-0.4900673087187499	-0.3563075907884666
-0.4900062735624999	-0.36302301162620526
-0.4899452384062499	-0.36966958045174586
-0.4898842032499999	-0.376248956465574
-0.4898231680937499	-0.3827445075500457
-0.4897621329374999	-0.38916570915346693
-0.4897010977812499	-0.3955181326667034
-0.4896400626249999	-0.4017829303773862
-0.4895790274687499	-0.4079674137132201
-0.4895179923124999	-0.4140812587509255
-0.4894569571562499	-0.4201043612666061
-0.4893959219999999	-0.4260407366560651
-0.4893348868437499	-0.4319043431299298
-0.4892738516874999	-0.4376753235811547
-0.4892128165312499	-0.44335322283950385
-0.4891517813749999	-0.4489555877726571
-0.4890907462187499	-0.45446455107280004
-0.4890297110624999	-0.45987441597355216
-0.4889686759062499	-0.4652046878834131
-0.4889076407499999	-0.47044123684773587
-0.4888466055937499	-0.47557367536408035
-0.4887855704374999	-0.48062176701161335
-0.4887245352812499	-0.48557620074135627
-0.4886635001249999	-0.4904228345759183
-0.4886024649687499	-0.49517965773506845
-0.4885414298124999	-0.49984241854118344
-0.4884803946562499	-0.5043949293014348
-0.4884193594999999	-0.5088520079429416
-0.4883583243437499	-0.5132138800483625
-0.4882972891874999	-0.5174641786911188
-0.4882362540312499	-0.5216139743364638
-0.4881752188749999	-0.5256666192660852
-0.4881141837187499	-0.5296067681776879
-0.4880531485624999	-0.5334419793020944
-0.4879921134062499	-0.5371776898960533
-0.4879310782499999	-0.5408003978067333
-0.4878700430937499	-0.5443145420248044
-0.4878090079374999	-0.54772644205143
-0.4877479727812499	-0.5510247341611882
-0.4876869376249999	-0.5542115432015052
-0.4876259024687499	-0.557293330138887
-0.4875648673124999	-0.5602607709130407
-0.4875038321562499	-0.563114454808433
-0.4874427969999999	-0.5658606147890239
-0.4873817618437499	-0.5684915733517044
-0.4873207266874999	-0.5710068247823388
-0.4872596915312499	-0.5734123216374745
-0.4871986563749999	-0.5757018664969109
-0.4871376212187499	-0.5778741080945458
-0.4870765860624999	-0.5799345097518047
-0.4870155509062499	-0.581878137966536
-0.4869545157499999	-0.5837031443785006
-0.4868934805937499	-0.5854145633635027
-0.4868324454374999	-0.5870085309605539
-0.4867714102812499	-0.5884828367262384
-0.4867103751249999	-0.5898421046462774
-0.4866493399687499	-0.5910833729898879
-0.4865883048124999	-0.5922040987294805
-0.4865272696562499	-0.5932084870945736
-0.4864662344999999	-0.594094493076185
-0.4864051993437499	-0.5948593981685174
-0.4863441641874999	-0.5955069099459482
-0.4862831290312499	-0.5960358115639739
-0.4862220938749999	-0.5964433285756274
-0.4861610587187499	-0.5967325598729042
-0.4861000235624999	-0.596903029316767
-0.4860389884062499	-0.5969521884206012
-0.4859779532499999	-0.5968825379388297
-0.4859169180937499	-0.5966940266798156
-0.4858558829374999	-0.5963843439378937
-0.4857948477812499	-0.5959555596267996
-0.4857338126249999	-0.5954080888711766
-0.4856727774687499	-0.5947399392593363
-0.4856117423124999	-0.5939526604546488
-0.4855507071562499	-0.5930469103815873
-0.4854896719999999	-0.5920211265779581
-0.4854286368437499	-0.5908765205434402
-0.4853676016874999	-0.5896139050307975
-0.4853065665312499	-0.5882321210830582
-0.4852455313749999	-0.5867320206732932
-0.4851844962187499	-0.5851143874915198
-0.4851234610624999	-0.5833785609409483
-0.4850624259062499	-0.5815253381329509
-0.4850013907499999	-0.5795554569520432
-0.4849403555937499	-0.577468602327342
-0.4848793204374999	-0.5752654530092463
-0.4848182852812499	-0.5729465225952975
-0.4847572501249999	-0.5705118431027207
-0.4846962149687499	-0.5679623416548126
-0.4846351798124999	-0.5652983726523589
-0.4845741446562499	-0.5625200028413807
-0.4845131094999999	-0.5596283467564018
-0.4844520743437499	-0.5566237188914982
-0.4843910391874999	-0.5535062520146897
-0.4843300040312499	-0.5502773433989641
-0.4842689688749999	-0.5469373361039831
-0.4842079337187499	-0.5434863044922775
-0.4841468985624999	-0.5399258145548431
-0.4840858634062499	-0.5362561854577858
-0.4840248282499999	-0.5324773347206782
-0.4839637930937499	-0.5285910893665339
-0.4839027579374999	-0.5245980356872185
-0.4838417227812499	-0.5204979827786502
-0.4837806876249999	-0.5162928546706229
-0.4837196524687499	-0.5119833980528693
-0.4836586173124999	-0.5075691539295145
-0.4835975821562499	-0.5030520815710096
-0.4835365469999999	-0.4984334134028149
-0.4834755118437499	-0.49371268404356383
-0.4834144766874999	-0.4888916745908607
-0.4833534415312499	-0.48397190579960764
-0.4832924063749999	-0.4789530134752439
-0.4832313712187499	-0.4738366440950142
-0.4831703360624999	-0.4686244661304472
-0.4831093009062499	-0.46331610552238517
-0.4830482657499999	-0.45791312803397266
-0.4829872305937499	-0.45241747369297997
-0.4829261954374999	-0.4468287842645594
-0.4828651602812499	-0.4411485167457722
-0.4828041251249999	-0.4353789967386485
-0.4827430899687499	-0.4295199888551625
-0.4826820548124999	-0.42357264369782366
-0.4826210196562499	-0.4175394489617432
-0.4825599844999999	-0.41142034304844965
-0.4824989493437499	-0.4052162018414244
-0.4824379141874999	-0.3989296138767754
-0.4823768790312499	-0.39256090673287514
-0.4823158438749999	-0.38611097600313066
-0.4822548087187499	-0.37958245632726473
-0.4821937735624999	-0.37297574865074745
-0.4821327384062499	-0.3662914471682574
-0.4820717032499999	-0.35953218210376703
-0.4820106680937499	-0.3526987202584107
-0.4819496329374999	-0.34579166411511
-0.4818885977812499	-0.33881367175083926
-0.4818275626249999	-0.3317657578992608
-0.4817665274687499	-0.32464843608014476
-0.4817054923124999	-0.31746428087984757
-0.4816444571562499	-0.31021446350309806
-0.4815834219999999	-0.30289930053303077
-0.4815223868437499	-0.29552122837128886
-0.4814613516874999	-0.28808186951451137
-0.4814003165312499	-0.28058173234225614
-0.4813392813749999	-0.2730230663297145
-0.4812782462187499	-0.26540767446068486
-0.4812172110624999	-0.2577361786544442
-0.4811561759062499	-0.2500105885745868
-0.4810951407499999	-0.24223270194136215
-0.4810341055937499	-0.23440326006602064
-0.4809730704374999	-0.2265242681536786
-0.4809120352812499	-0.21859760369476644
-0.4808510001249999	-0.21062410423269964
-0.4807899649687499	-0.20260577784960604
-0.4807289298124999	-0.1945444789812215
-0.4806678946562499	-0.18644097176825014
-0.4806068594999999	-0.17829732837609544
-0.4805458243437499	-0.17011573373935912
-0.4804847891874999	-0.1618970066967468
-0.4804237540312499	-0.15364290533383826
-0.4803627188749999	-0.14535567452663933
-0.4803016837187499	-0.1370364134424542
-0.4802406485624999	-0.12868668720455573
-0.4801796134062499	-0.12030848065146604
-0.4801185782499999	-0.11190312187105393
-0.4800575430937499	-0.10347251522601772
-0.4799965079374999	-0.09501863407316904
-0.4799354727812499	-0.08654254769996558
-0.4798744376249999	-0.07804601993199352
-0.4798134024687499	-0.06953114788615511
-0.4797523673124999	-0.06099924577485573
-0.4796913321562499	-0.052452233502555276
-0.4796302969999999	-0.043892104396320665
-0.4795692618437499	-0.035319921120330555
-0.4795082266874999	-0.02673759354818405
-0.4794471915312499	-0.01814738453135762
-0.4793861563749999	-0.009550396359848876
-0.4793251212187499	-0.000948305101840353
-0.4792640860624999	0.007656608835193604
-0.4792030509062499	0.01626307237159686
-0.4791420157499999	0.024869412867289716
-0.4790809805937499	0.033473485592642335
-0.4790199454374999	0.04207422477337984
-0.4789589102812499	0.050669905100224455
-0.4788978751249999	0.05925787284809797
-0.4788368399687499	0.06783675083206468
-0.4787758048124999	0.07640520930384183
-0.4787147696562499	0.08496114481395342
-0.4786537344999999	0.09350328616680859
-0.4785926993437499	0.10203003637267191
-0.4785316641874999	0.11053886734459258
-0.4784706290312499	0.11902835438081615
-0.4784095938749999	0.12749726997349295
-0.4783485587187499	0.13594338424264465
-0.4782875235624999	0.144365225160516
-0.4782264884062499	0.15276153078667093
-0.4781654532499999	0.16113004474470669
-0.4781044180937499	0.16946922612536136
-0.4780433829374999	0.17777770411667404
-0.4779823477812499	0.18605300270721686
-0.4779213126249999	0.1942935953842468
-0.4778602774687499	0.20249852903800178
-0.4777992423124999	0.2106656377903138
-0.4777382071562499	0.21879328195367204
-0.4776771719999999	0.22688029444513816
-0.4776161368437499	0.2349244911666427
-0.4775551016874999	0.24292437227884064
-0.4774940665312499	0.250878893646843
-0.4774330313749999	0.2587857552664079
-0.4773719962187499	0.2666432935604813
-0.4773109610624999	0.27445054365167804
-0.4772499259062499	0.2822052301762788
-0.4771888907499999	0.28990572863229785
-0.4771278555937499	0.2975514993166192
-0.4770668204374999	0.30514041651106694
-0.4770057852812499	0.3126703800210567
-0.4769447501249999	0.3201406673528079
-0.4768837149687499	0.3275494426722091
-0.4768226798124999	0.3348947695914949
-0.4767616446562499	0.3421759987637583
-0.4767006094999999	0.34939128232894395
-0.4766395743437499	0.3565385129980245
-0.4765785391874999	0.3636172041668974
-0.4765175040312499	0.3706258557605123
-0.4764564688749999	0.3775622318650173
-0.4763954337187499	0.3844256061635033
-0.4763343985624999	0.3912145539655557
-0.4762733634062499	0.3979269565555978
-0.4762123282499999	0.40456224700708965
-0.4761512930937499	0.4111191463554906
-0.4760902579374999	0.41759536313046536
-0.4760292227812499	0.4239902238886696
-0.4759681876249999	0.4303027500306611
-0.4759071524687499	0.4365308151408138
-0.4758461173124999	0.44267364624452277
-0.4757850821562499	0.4487303434838857
-0.4757240469999999	0.45469888217538096
-0.4756630118437499	0.46057842307543323
-0.4756019766874999	0.4663680502615093
-0.4755409415312499	0.47206579457032555
-0.4754799063749999	0.4776709346784452
-0.4754188712187499	0.48318268798749
-0.4753578360624999	0.4885990268846477
-0.4752968009062499	0.4939191870506241
-0.4752357657499999	0.4991426642117578
-0.4751747305937499	0.5042676812191096
-0.4751136954374999	0.5092933698642794
-0.4750526602812499	0.5142190588088572
-0.4749916251249999	0.5190430039369399
-0.4749305899687499	0.5237645228753259
-0.4748695548124999	0.5283831223370762
-0.4748085196562499	0.5328970709436784
-0.4747474844999999	0.5373056596085708
-0.4746864493437499	0.5416084493769296
-0.4746254141874999	0.5458036975416906
-0.4745643790312499	0.5498907829751519
-0.4745033438749999	0.5538695900781987
-0.4744423087187499	0.5577384874030351
-0.4743812735624999	0.5614966710159152
-0.4743202384062499	0.5651440310083965
-0.4742592032499999	0.5686790962002842
-0.4741981680937499	0.5721010927112767
-0.4741371329374999	0.5754099421109937
-0.4740760977812499	0.5786042512250603
-0.4740150626249999	0.5816833453764181
-0.4739540274687499	0.5846473215496772
-0.4738929923124999	0.5874948551903827
-0.4738319571562499	0.5902252480596836
-0.4737709219999999	0.592838689111745
-0.4737098868437499	0.5953339201373629
-0.4736488516874999	0.5977102395898997
-0.4735878165312499	0.5999679437214114
-0.4735267813749999	0.602105883796907
-0.4734657462187499	0.6041234346039888
-0.4734047110624999	0.606021023709308
-0.4733436759062499	0.607797467280856
-0.4732826407499999	0.6094520959398115
-0.4732216055937499	0.6109855965210353
-0.4731605704374999	0.6123968928958209
-0.4730995352812499	0.6136852183723629
-0.4730385001249999	0.6148514600833871
-0.4729774649687499	0.6158946682728411
-0.4729164298124999	0.6168139457700774
-0.4728553946562499	0.6176103749107286
-0.4727943594999999	0.6182832128411043
-0.4727333243437499	0.6188314028644439
-0.4726722891874999	0.6192561272760061
-0.4726112540312499	0.6195568880775023
-0.4725502188749999	0.6197325424162669
-0.4724891837187499	0.6197843641778971
-0.4724281485624999	0.6197120874351834
-0.4723671134062499	0.619514481622289
-0.4723060782499999	0.6191928818339251
-0.4722450430937499	0.6187472472619271
-0.4721840079374999	0.618176267354743
-0.4721229727812499	0.6174813754391039
-0.4720619376249999	0.6166628411581089
-0.4720009024687499	0.6157192023685893
-0.4719398673124999	0.6146518134748586
-0.4718788321562499	0.6134612789203371
-0.4718177969999999	0.6121461188003863
-0.4717567618437499	0.6107076626176778
-0.4716957266874999	0.609146892970733
-0.4716346915312499	0.6074623147259124
-0.4715736563749999	0.6056551132614698
-0.4715126212187499	0.6037265544521885
-0.4714515860624999	0.601675120979246
-0.4713905509062499	0.5995018513580723
-0.4713295157499999	0.5972083917884767
-0.4712684805937499	0.5947933737353925
-0.4712074454374999	0.5922576930529496
-0.4711464102812499	0.5896032058325169
-0.4710853751249999	0.5868285262069852
-0.4710243399687499	0.5839344172403524
-0.4709633048124999	0.5809231450255451
-0.4709022696562499	0.5777934200621611
-0.4708412344999999	0.5745458072654086
-0.4707801993437499	0.571182972492711
-0.4707191641874999	0.5677036794098145
-0.4706581290312499	0.564108078712057
-0.4705970938749999	0.5603991711740254
-0.4705360587187499	0.5565759568345341
-0.4704750235624999	0.5526383149284182
-0.4704139884062499	0.5485896380427977
-0.4703529532499999	0.544429118996213
-0.4702919180937499	0.5401561402612167
-0.4702308829374999	0.5357744150175997
-0.4701698477812499	0.5312836426493631
-0.4701088126249999	0.526682970248287
-0.4700477774687499	0.5219762499864624
-0.4699867423124999	0.5171631971228078
-0.4699257071562499	0.5122424356303211
-0.4698646719999999	0.5072183436226112
-0.4698036368437499	0.5020912075207209
-0.4697426016874999	0.4968590210386872
-0.4696815665312499	0.4915263979747108
-0.4696205313749999	0.48609429052438397
-0.4695594962187499	0.4805600260695161
-0.4694984610624999	0.4749282271038936
-0.4694374259062499	0.4692004756806175
