Time	Frequency
-0.5000232138125114	-0.6086867136778594
-0.49996217865626136	-0.6077053150900215
-0.49990114350001136	-0.6065937665262829
-0.49984010834376136	-0.6053556762328834
-0.49977907318751136	-0.603996694130695
-0.49971803803126136	-0.6025197993988037
-0.49965700287501136	-0.6009228848940468
-0.49959596771876136	-0.5992007464297529
-0.49953493256251136	-0.5973498075495368
-0.49947389740626136	-0.5953715464461362
-0.49941286225001136	-0.5932716645147306
-0.49935182709376136	-0.5910556407731171
-0.49929079193751136	-0.588724375589151
-0.49922975678126136	-0.5862736167476045
-0.49916872162501136	-0.5836977756272587
-0.49910768646876136	-0.5809950313908504
-0.49904665131251136	-0.5781694573948266
-0.49898561615626136	-0.5752282920940223
-0.49892458100001136	-0.5721764375099807
-0.49886354584376136	-0.5690127082028574
-0.49880251068751136	-0.5657310895251638
-0.49874147553126136	-0.5623261001322923
-0.49868044037501136	-0.5587979036152614
-0.49861940521876136	-0.5551529654828247
-0.49855837006251136	-0.5513995525737895
-0.49849733490626136	-0.5475415450391026
-0.49843629975001136	-0.5435756453753934
-0.49837526459376136	-0.5394944805136557
-0.49831422943751136	-0.5352932120539632
-0.49825319428126136	-0.5309742886156964
-0.49819215912501136	-0.5265463827327497
-0.49813112396876136	-0.5220181955520742
-0.49807008881251136	-0.5173920220717504
-0.49800905365626136	-0.5126623650839462
-0.49794801850001136	-0.5078209342986748
-0.49788698334376136	-0.5028641387704766
-0.49782594818751136	-0.49779701575095747
-0.49776491303126136	-0.49263023685872687
-0.49770387787501136	-0.48737239087650946
-0.49764284271876136	-0.48202373485843764
-0.49758180756251136	-0.4765766003678654
-0.49752077240626136	-0.4710223140245509
-0.49745973725001136	-0.4653591241099159
-0.49739870209376136	-0.45959472938848306
-0.49733766693751136	-0.4537412527663622
-0.49727663178126136	-0.44780645197011915
-0.49721559662501136	-0.44178818649029783
-0.49715456146876136	-0.43567683356157594
-0.49709352631251136	-0.42946391613691387
-0.49703249115626136	-0.4231500414889358
-0.49697145600001136	-0.41674569927996596
-0.49691042084376136	-0.410264119332842
-0.49684938568751136	-0.4037117159997199
-0.49678835053126136	-0.3970837308314906
-0.49672731537501136	-0.39036878025294053
-0.49666628021876136	-0.3835589610619841
-0.49660524506251136	-0.3766575199516245
-0.49654420990626136	-0.36967772635846147
-0.49648317475001136	-0.3626335354291106
-0.49642213959376136	-0.3555294257518171
-0.49636110443751136	-0.3483576837062678
-0.49630006928126136	-0.34110547848662465
-0.49623903412501136	-0.3337662415986392
-0.49617799896876136	-0.32634636881290113
-0.49611696381251136	-0.3188616779420847
-0.49605592865626136	-0.3113260685568088
-0.49599489350001136	-0.30374140203262306
-0.49593385834376136	-0.2960969376752
-0.49587282318751136	-0.28837898305456644
-0.49581178803126136	-0.2805831804346208
-0.49575075287501136	-0.27271957392032686
-0.49568971771876136	-0.26480618005517026
-0.49562868256251136	-0.25685594406239737
-0.49556764740626136	-0.24886738021037533
-0.49550661225001136	-0.24082664547780427
-0.49544557709376136	-0.23271978959711004
-0.49538454193751136	-0.22454543629271576
-0.49532350678126136	-0.21631758693780515
-0.49526247162501136	-0.20805605550186826
-0.49520143646876136	-0.19977192825094703
-0.49514040131251136	-0.1914596928765138
-0.49507936615626136	-0.18310262413117573
-0.49501833100001136	-0.17468742237395735
-0.49495729584376136	-0.16621651282473968
-0.49489626068751136	-0.1577079518244349
-0.49483522553126136	-0.14918262714653854
-0.49477419037501136	-0.1406488015638298
-0.49471315521876136	-0.13209645572285397
-0.49465212006251136	-0.12350631892112618
-0.49459108490626136	-0.11486674963125716
-0.49453004975001136	-0.10618494281682984
-0.49446901459376136	-0.09748307828993784
-0.49440797943751136	-0.08878207170510717
-0.49434694428126136	-0.08008588971801348
-0.49428590912501136	-0.07137927706626361
-0.49422487396876136	-0.062641148690304
-0.49416383881251136	-0.05386317294627274
-0.49410280365626136	-0.04505844866872111
-0.49404176850001136	-0.036252920015204554
-0.49398073334376136	-0.027466033590543358
-0.49391969818751136	-0.018696046841255476
-0.49385866303126136	-0.009922225433009949
-0.49379762787501136	-0.0011227470400401018
-0.49373659271876136	0.007705886126930404
-0.49367555756251136	0.01654380561332538
-0.49361452240626136	0.025361756556906513
-0.49355348725001136	0.034143355040523134
-0.49349245209376136	0.04289759230265011
-0.49343141693751136	0.05165082764261321
-0.49337038178126136	0.06042410818546762
-0.49330934662501136	0.06921410534427261
-0.49324831146876136	0.0779935459562836
-0.49318727631251136	0.08673138436947912
-0.49312624115626136	0.0954167892311964
-0.49306520600001136	0.10406732351637904
-0.49300417084376136	0.11271395986802354
-0.49294313568751136	0.12137445565685766
-0.49288210053126136	0.1300366891728415
-0.49282106537501136	0.1386660820116435
-0.49276003021876136	0.147231811220563
-0.49269899506251136	0.15573088694299062
-0.49263795990626136	0.16419022808618064
-0.49257692475001136	0.1726441903572504
-0.49251588959376136	0.18110507823165892
-0.49245485443751136	0.18955066084919242
-0.49239381928126136	0.19793964695592198
-0.49233278412501136	0.20624349352532775
-0.49227174896876136	0.21446900858514967
-0.49221071381251136	0.22265271997253475
-0.49214967865626136	0.23083051768295662
-0.49208864350001136	0.23900662935704045
-0.49202760834376136	0.24714748193066688
-0.49196657318751136	0.2552064739996187
-0.49190553803126136	0.26316040392970624
-0.49184450287501136	0.27102805721463685
-0.49178346771876136	0.2788550568756747
-0.49172243256251136	0.2866761067164088
-0.49166139740626136	0.2944847162135937
-0.49160036225001136	0.3022354948549961
-0.49153932709376136	0.30987844926314206
-0.49147829193751136	0.3173984990246683
-0.49141725678126136	0.3248279680186995
-0.49135622162501136	0.33222071095204514
-0.49129518646876136	0.33960759576739413
-0.49123415131251136	0.34696902802800883
-0.49117311615626136	0.3542476283995046
-0.49111208100001136	0.36139232428188456
-0.49105104584376136	0.3683990840631015
-0.49099001068751136	0.37531490163118875
-0.49092897553126136	0.38220036156627935
-0.49086794037501136	0.3890795694225352
-0.49080690521876136	0.39591771611673626
-0.49074587006251136	0.40264581823144224
-0.49068483490626136	0.40921438991451153
-0.49062379975001136	0.4156334066348608
-0.49056276459376136	0.4219655099847241
-0.49050172943751136	0.42827618504025283
-0.49044069428126136	0.43457962975177217
-0.49037965912501136	0.44082396946577845
-0.49031862396876136	0.4469294256544875
-0.49025758881251136	0.4528507379286123
-0.49019655365626136	0.45861422479747993
-0.49013551850001136	0.46429843096718915
-0.49007448334376136	0.4699717811642289
-0.49001344818751136	0.47563588422837916
-0.48995241303126136	0.4812204829550603
-0.48989137787501136	0.4866362214614393
-0.48983034271876136	0.49184497615856204
-0.48976930756251136	0.49689174598521546
-0.48970827240626136	0.5018708895674404
-0.48964723725001136	0.5068513195048827
-0.48958620209376136	0.5118192316378742
-0.48952516693751136	0.5166850390347125
-0.48946413178126136	0.5213514323076418
-0.48940309662501136	0.5257903154143964
-0.48934206146876136	0.5300671754931943
-0.48928102631251136	0.5342913993028183
-0.48921999115626136	0.5385296874633948
-0.48915895600001136	0.5427504461187688
-0.48909792084376136	0.5468446549370499
-0.48903688568751136	0.5507093123201666
-0.48897585053126136	0.554329071113943
-0.48891481537501136	0.5577908711625503
-0.48885378021876136	0.5612176440696489
-0.48879274506251136	0.5646712065355619
-0.48873170990626136	0.5681005740117856
-0.48867067475001136	0.5713781889819255
-0.48860963959376136	0.5743980397896332
-0.48854860443751136	0.5771596862712114
-0.48848756928126136	0.5797711399586039
-0.48842653412501136	0.582366066851224
-0.48836549896876136	0.5849985318459624
-0.48830446381251136	0.5875978615822757
-0.48824342865626136	0.59002074885505
-0.48818239350001136	0.5921618323337409
-0.48812135834376136	0.5940369445437186
-0.48806032318751136	0.5957728826273812
-0.48799928803126136	0.5975098332998579
-0.48793825287501136	0.5992914650628136
-0.48787721771876136	0.6010287529742085
-0.48781618256251136	0.6025671359136574
-0.48775514740626136	0.6038059767257852
-0.48769411225001136	0.6047775331151095
-0.48763307709376136	0.6056231560398834
-0.48757204193751136	0.606484146771655
-0.48751100678126136	0.607391633754786
-0.48744997162501136	0.6082413914054245
-0.48738893646876136	0.6088738297016139
-0.48732790131251136	0.6091974094223768
-0.48726686615626136	0.6092596382630033
-0.48720583100001136	0.609210360692393
-0.48714479584376136	0.6091857477427002
-0.48708376068751136	0.609203040857715
-0.48702272553126136	0.6091476284161643
-0.48696169037501136	0.6088621297259785
-0.48690065521876136	0.608268017036896
-0.48683962006251136	0.6074255063493317
-0.48677858490626136	0.6064859286684314
-0.48671754975001136	0.6055743695459853
-0.48665651459376136	0.6046939122998368
-0.48659547943751136	0.6037250957608635
-0.48653444428126136	0.60251969769305
-0.48647340912501136	0.6010151623226737
-0.48641237396876136	0.5992812323989636
-0.48635133881251136	0.5974640729593601
-0.48629030365626136	0.5956727995318116
-0.48622926850001136	0.5938968747816346
-0.48616823334376136	0.5920172300432075
-0.48610719818751136	0.5899004456208506
-0.48604616303126136	0.5875016698962154
-0.48598512787501136	0.5848969544671175
-0.48592409271876136	0.5822219699169666
-0.48586305756251136	0.5795667456239075
-0.48580202240626136	0.5769084658701623
-0.48574098725001136	0.5741327586561634
-0.48567995209376136	0.5711245670102404
-0.48561891693751136	0.5678567672937096
-0.48555788178126136	0.5644085391704964
-0.48549684662501136	0.560901623559622
-0.48543581146876136	0.5574060818029561
-0.48537477631251136	0.5538888953421467
-0.48531374115626136	0.5502434183274657
-0.48525270600001136	0.5463743445624237
-0.48519167084376136	0.5422710437544453
-0.48513063568751136	0.5380132841683773
-0.48506960053126136	0.5337072532883991
-0.48500856537501136	0.5294035819790296
-0.48494753021876136	0.5250611826654841
-0.48488649506251136	0.5205830371679344
-0.48482545990626136	0.5158936386745113
-0.48476442475001136	0.5109969360488021
-0.48470338959376136	0.5059709547324365
-0.48464235443751136	0.5009056303921853
-0.48458131928126136	0.49583385650470424
-0.48452028412501136	0.49070911366136755
-0.48445924896876136	0.4854452302345773
-0.48439821381251136	0.4799852672342486
-0.48433717865626136	0.4743451555247729
-0.48427614350001136	0.46859935643215117
-0.48421510834376136	0.46282193738194943
-0.48415407318751136	0.45703028933433737
-0.48409303803126136	0.45117479625953344
-0.48403200287501136	0.44518069614787714
-0.48397096771876136	0.4390078375408021
-0.48390993256251136	0.4326813693463068
-0.48384889740626136	0.42627071291349683
-0.48378786225001136	0.4198351923561176
-0.48372682709376136	0.4133795922810693
-0.48366579193751136	0.40685350176508245
-0.48360475678126136	0.400193422183769
-0.48354372162501136	0.39337350959751016
-0.48348268646876136	0.38642523523695943
-0.48342165131251136	0.37941189351164084
-0.48336061615626136	0.37237947876712074
-0.48329958100001136	0.365322903553023
-0.48323854584376136	0.3581929978441557
-0.48317751068751136	0.35093729487915115
-0.48311647553126136	0.343541944200365
-0.48305544037501136	0.33604221420340274
-0.48299440521876136	0.3284944850058126
-0.48293337006251136	0.3209329435086754
-0.48287233490626136	0.31334519556145035
-0.48281129975001136	0.30568492913243434
-0.48275026459376136	0.29791031147133706
-0.48268922943751136	0.29001738162432233
-0.48262819428126136	0.28204283984199996
-0.48256715912501136	0.2740353329784297
-0.48250612396876136	0.2660186841219062
-0.48244508881251136	0.25797575005662116
-0.48238405365626136	0.24986456566156365
-0.48232301850001136	0.2416530545192838
-0.48226198334376136	0.2333447241809701
-0.48220094818751136	0.22497583895789322
-0.48213991303126136	0.2165874053592409
-0.48207887787501136	0.20819462986269321
-0.48201784271876136	0.19977761165692787
-0.48195680756251136	0.191299610895249
-0.48189577240626136	0.1827375358898716
-0.48183473725001136	0.174100547981992
-0.48177370209376136	0.16542293277279152
-0.48171266693751136	0.15673784185068582
-0.48165163178126136	0.14805309661136742
-0.48159059662501136	0.13934772870176973
-0.48152956146876136	0.13059094305507654
-0.48146852631251136	0.12176776339198572
-0.48140749115626136	0.11289125529003467
-0.48134645600001136	0.10399257537070614
-0.48128542084376136	0.09509756415284838
-0.48122438568751136	0.08620847981083343
-0.48116335053126136	0.07730472520482837
-0.48110231537501136	0.068361258635602
-0.48104128021876136	0.05936965953106611
-0.48098024506251136	0.05034530090639272
-0.48091920990626136	0.041315742683147805
-0.48085817475001136	0.032300288262501115
-0.48079713959376136	0.023296921161974852
-0.48073610443751136	0.014286436322560376
-0.48067506928126136	0.005249690836790478
-0.48061403412501136	-0.0038161527729567873
-0.48055299896876136	-0.012894811637202599
-0.48049196381251136	-0.021962980317799183
-0.48043092865626136	-0.031007294683330695
-0.48036989350001136	-0.04003267675581838
-0.48030885834376136	-0.04905604819273825
-0.48024782318751136	-0.05809113828463267
-0.48018678803126136	-0.0671365989892549
-0.48012575287501136	-0.07617638882630935
-0.48006471771876136	-0.08519144156048022
-0.48000368256251136	-0.09417306864892583
-0.47994264740626136	-0.10312765824339407
-0.47988161225001136	-0.11206940191994655
-0.47982057709376136	-0.12100735033567828
-0.47975954193751136	-0.12993724595790063
-0.47969850678126136	-0.13884421722422252
-0.47963747162501136	-0.14771355431237362
-0.47957643646876136	-0.15654063080481054
-0.47951540131251136	-0.16533230838528243
-0.47945436615626136	-0.17409938673998215
-0.47939333100001136	-0.18284655456741233
-0.47933229584376136	-0.1915677033998739
-0.47927126068751136	-0.20024993798403032
-0.47921022553126136	-0.20888266193769975
-0.47914919037501136	-0.21746425765950606
-0.47908815521876136	-0.2260012566109655
-0.47902712006251136	-0.2345011670935379
-0.47896608490626136	-0.24296506680110974
-0.47890504975001136	-0.2513858586835919
-0.47884401459376136	-0.25975313604543676
-0.47878297943751136	-0.2680602594739051
-0.47872194428126136	-0.27630788362101716
-0.47866090912501136	-0.28450142226001585
-0.47859987396876136	-0.2926449100680742
-0.47853883881251136	-0.3007364702196023
-0.47847780365626136	-0.308768910664021
-0.47841676850001136	-0.3167345498271526
-0.47835573334376136	-0.3246300971835322
-0.47829469818751136	-0.33245769448641366
-0.47823366303126136	-0.34022145160515727
-0.47817262787501136	-0.34792242414593627
-0.47811159271876136	-0.3555563791463112
-0.47805055756251136	-0.36311627382560835
-0.47798952240626136	-0.3705970442731183
-0.47792848725001136	-0.3779984985430714
-0.47786745209376136	-0.3853240119248159
-0.47780641693751136	-0.39257618575448094
-0.47774538178126136	-0.3997531631269896
-0.47768434662501136	-0.40684883995937426
-0.47762331146876136	-0.4138568384796231
-0.47756227631251136	-0.42077475327754116
-0.47750124115626136	-0.42760499336993507
-0.47744020600001136	-0.43435152959323453
-0.47737917084376136	-0.4410152337018025
-0.47731813568751136	-0.4475917110042413
-0.47725710053126136	-0.45407362924078376
-0.47719606537501136	-0.46045572487725894
-0.47713503021876136	-0.46673820387577686
-0.47707399506251136	-0.472925589686861
-0.47701295990626136	-0.47902190630395225
-0.47695192475001136	-0.48502611715447763
-0.47689088959376136	-0.4909316546562882
-0.47682985443751136	-0.4967305882374622
-0.47676881928126136	-0.5024191210697873
-0.47670778412501136	-0.5079999117123692
-0.47664674896876136	-0.513479147265799
-0.47658571381251136	-0.5188605341466025
-0.47652467865626136	-0.5241410837574003
-0.47646364350001136	-0.5293123164022383
-0.47640260834376136	-0.5343661063616144
-0.47634157318751136	-0.5393004831568106
-0.47628053803126136	-0.5441205669891351
-0.47621950287501136	-0.5488337063383236
-0.47615846771876136	-0.553442653400669
-0.47609743256251136	-0.5579422926156917
-0.47603639740626136	-0.562322713509497
-0.47597536225001136	-0.5665763539696848
-0.47591432709376136	-0.570703495343421
-0.47585329193751136	-0.5747115473832576
-0.47579225678126136	-0.5786084868990437
-0.47573122162501136	-0.5823955966940024
-0.47567018646876136	-0.5860654581552175
-0.47560915131251136	-0.5896070450144758
-0.47554811615626136	-0.5930139521035523
-0.47548708100001136	-0.5962891183980809
-0.47542604584376136	-0.5994420962985835
-0.47536501068751136	-0.6024808808886525
-0.47530397553126136	-0.6054047726814386
-0.47524294037501136	-0.6082040959528184
-0.47518190521876136	-0.6108672445940224
-0.47512087006251136	-0.6133895594955966
-0.47505983490626136	-0.6157768468856079
-0.47499879975001136	-0.6180405110221912
-0.47493776459376136	-0.6201879972027905
-0.47487672943751136	-0.6222161774733398
-0.47481569428126136	-0.6241131646436211
-0.47475465912501136	-0.6258673190482932
-0.47469362396876136	-0.6274763288266999
-0.47463258881251136	-0.6289490213047546
-0.47457155365626136	-0.6302982482532903
-0.47451051850001136	-0.6315303113766289
-0.47444948334376136	-0.6326393627271698
-0.47438844818751136	-0.6336115069983288
-0.47432741303126136	-0.6344355993099271
-0.47426637787501136	-0.6351121635178065
-0.47420534271876136	-0.6356531350414114
-0.47414430756251136	-0.6360723725802748
-0.47408327240626136	-0.6363743520554761
-0.47402223725001136	-0.6365501455379499
-0.47396120209376136	-0.6365841655499859
-0.47390016693751136	-0.6364665327202642
-0.47383913178126136	-0.6362012044883278
-0.47377809662501136	-0.6358031524216713
-0.47371706146876136	-0.6352865595465145
-0.47365602631251136	-0.6346533403662427
-0.47359499115626136	-0.6338912862647137
-0.47353395600001136	-0.6329836081775446
-0.47347292084376136	-0.6319225000897047
-0.47341188568751136	-0.630715853651932
-0.47335085053126136	-0.6293814439004962
-0.47328981537501136	-0.6279329523363574
-0.47322878021876136	-0.6263689550311606
-0.47316774506251136	-0.6246738742185445
-0.47310670990626136	-0.6228304488417311
-0.47304567475001136	-0.6208339354302703
-0.47298463959376136	-0.6186965781996998
-0.47292360443751136	-0.6164384575473819
-0.47286256928126136	-0.6140717478546939
-0.47280153412501136	-0.6115909518383272
-0.47274049896876136	-0.6089772187697753
-0.47267946381251136	-0.6062136825660431
-0.47261842865626136	-0.6032996655115065
-0.47255739350001136	-0.6002521413220204
-0.47249635834376136	-0.5970928933021172
-0.47243532318751136	-0.593831369239944
-0.47237428803126136	-0.5904570838041663
-0.47231325287501136	-0.5869481216014073
-0.47225221771876136	-0.5832892927758996
-0.47219118256251136	-0.57948534511931
-0.47213014740626136	-0.5755582761153208
-0.47206911225001136	-0.571530472336829
-0.47200807709376136	-0.5674070044664027
-0.47194704193751136	-0.5631715733207465
-0.47188600678126136	-0.55879990166521
-0.47182497162501136	-0.5542801241676446
-0.47176393646876136	-0.5496236725580455
-0.47170290131251136	-0.5448573985441544
-0.47164186615626136	-0.5400027545860643
-0.47158083100001136	-0.535058740581425
-0.47151979584376136	-0.5300027811534588
-0.47145876068751136	-0.5248094116363309
-0.47139772553126136	-0.5194720385247517
-0.47133669037501136	-0.5140099559638102
-0.47127565521876136	-0.5084542509979232
-0.47121462006251136	-0.5028234535415685
-0.47115358490626136	-0.4971087010061275
-0.47109254975001136	-0.49128102556627573
-0.47103151459376136	-0.4853155245358258
-0.47097047943751136	-0.4792130901289194
-0.47090944428126136	-0.47300167541612625
-0.47084840912501136	-0.4667152384553503
-0.47078737396876136	-0.4603669358367188
-0.47072633881251136	-0.4539385276394573
-0.47066530365626136	-0.4473953280709642
-0.47060426850001136	-0.4407153424484515
-0.47054323334376136	-0.4339090968509489
-0.47048219818751136	-0.42701338191188354
-0.47042116303126136	-0.4200630409354534
-0.47036012787501136	-0.4130632449020065
-0.47029909271876136	-0.40598516832463977
