Time	Frequency
-0.5000123767812568	0.46366559849036093
-0.49995134162500676	0.4682166168416647
-0.49989030646875676	0.4726921297472012
-0.49982927131250676	0.4770763078083308
-0.49976823615625676	0.48136443031938797
-0.49970720100000676	0.48556706524454857
-0.49964616584375676	0.4896954835999021
-0.49958513068750676	0.49374685655416056
-0.49952409553125676	0.4977073734106304
-0.49946306037500676	0.5015688865094737
-0.49940202521875676	0.5053380429764053
-0.49934099006250676	0.5090266949114207
-0.49927995490625676	0.5126359599249694
-0.49921891975000676	0.5161539702183245
-0.49915788459375676	0.519570096363413
-0.49909684943750676	0.5228878555866328
-0.49903581428125676	0.5261200179757798
-0.49897477912500676	0.5292715697821626
-0.49891374396875676	0.532332024896553
-0.49885270881250676	0.5352874141431373
-0.49879167365625676	0.5381374739184819
-0.49873063850000676	0.5408962913487239
-0.49866960334375676	0.5435745507427383
-0.49860856818750676	0.5461648017444843
-0.49854753303125676	0.5486488304503544
-0.49848649787500676	0.5510194175788041
-0.49842546271875676	0.5532898684408161
-0.49836442756250676	0.555478330622634
-0.49830339240625676	0.5575848191002296
-0.49824235725000676	0.5595892095380475
-0.49818132209375676	0.5614741904886468
-0.49812028693750676	0.5632464527237048
-0.49805925178125676	0.5649298237617325
-0.49799821662500676	0.5665368289581137
-0.49793718146875676	0.5680520554615719
-0.49787614631250676	0.5694486151138836
-0.49781511115625676	0.570719912191896
-0.49775407600000676	0.5718887597608143
-0.49769304084375676	0.5729811481713969
-0.49763200568750676	0.5739945558055024
-0.49757097053125676	0.574899074629551
-0.49750993537500676	0.5756717568667141
-0.49744890021875676	0.5763243987754306
-0.49738786506250676	0.576890973031113
-0.49732682990625676	0.5773878207288135
-0.49726579475000676	0.5777930327742438
-0.49720475959375676	0.5780706958079159
-0.49714372443750676	0.5782131018558923
-0.49708268928125676	0.578251155976654
-0.49702165412500676	0.578219062175746
-0.49696061896875676	0.5781135745266546
-0.49689958381250676	0.5778963160996919
-0.49683854865625676	0.5775381266250661
-0.49677751350000676	0.5770541597581025
-0.49671647834375676	0.5764875369909865
-0.49665544318750676	0.5758591069701123
-0.49659440803125676	0.5751419381779568
-0.49653337287500676	0.5742918458004189
-0.49647233771875676	0.5732994837321459
-0.49641130256250676	0.5722026945409364
-0.49635026740625676	0.5710432087877308
-0.49628923225000676	0.5698173638729837
-0.49622819709375676	0.5684791826091765
-0.49616716193750676	0.5669939157570895
-0.49610612678125676	0.565380035033471
-0.49604509162500676	0.56368926174931
-0.49598405646875676	0.5619463640325466
-0.49592302131250676	0.5601191394919058
-0.49586198615625676	0.5581553276469673
-0.49580095100000676	0.5560445708285041
-0.49573991584375676	0.553832325816691
-0.49567888068750676	0.5515677511236969
-0.49561784553125676	0.5492458086377507
-0.49555681037500676	0.5468122950880833
-0.49549577521875676	0.5442273677641649
-0.49543474006250676	0.5415136103215085
-0.49537370490625676	0.5387313459976933
-0.49531266975000676	0.5359086588179891
-0.49525163459375676	0.533007892703054
-0.49519059943750676	0.5299692241140944
-0.49512956428125676	0.5267814813541397
-0.49506852912500676	0.5234970054342881
-0.49500749396875676	0.5201718327561641
-0.49494645881250676	0.5168003104262485
-0.49488542365625676	0.513321183825568
-0.49482438850000676	0.5096894224000473
-0.49476335334375676	0.5059303534297922
-0.49470231818750676	0.5021118198856508
-0.49464128303125676	0.49826563312573374
-0.49458024787500676	0.49435022782238486
-0.49451921271875676	0.49029938830153463
-0.49445817756250676	0.48610078688510255
-0.49439714240625676	0.48181198416505566
-0.49433610725000676	0.47749422710688544
-0.49427507209375676	0.4731412359521175
-0.49421403693750676	0.46868677604276365
-0.49415300178125676	0.46408278408169495
-0.49409196662500676	0.4593570421822924
-0.49403093146875676	0.4545823755071215
-0.49396989631250676	0.44979236959172075
-0.49390886115625676	0.44494226069937676
-0.49384782600000676	0.4399617883167479
-0.49378679084375676	0.4348387689201158
-0.49372575568750676	0.4296351350333712
-0.49366472053125676	0.42441572539083366
-0.49360368537500676	0.4191727752441351
-0.49354265021875676	0.41383519581663225
-0.49348161506250676	0.40835291299856286
-0.49342057990625676	0.4027576305409813
-0.49335954475000676	0.39712768634923185
-0.49329850959375676	0.3914970997104405
-0.49323747443750676	0.3858155941888336
-0.49317643928125676	0.3800078078520833
-0.49311540412500676	0.37406340333916843
-0.49305436896875676	0.36805190331868537
-0.49299333381250676	0.36204310439084464
-0.49293229865625676	0.3560254247269773
-0.49287126350000676	0.3499189372845622
-0.49281022834375676	0.3436698736654632
-0.49274919318750676	0.3373165854139743
-0.49268815803125676	0.33094786543767174
-0.49262712287500676	0.32460013961486495
-0.49256608771875676	0.3182138391668666
-0.49250505256250676	0.31170238894332175
-0.49244401740625676	0.30505546566304226
-0.49238298225000676	0.2983552843635821
-0.49232194709375676	0.29168375794891316
-0.49226091193750676	0.28502671711278205
-0.49219987678125676	0.2782885362951588
-0.49213884162500676	0.271403829557943
-0.49207780646875676	0.26441739329352254
-0.49201677131250676	0.2574367525232874
-0.49195573615625676	0.2505089637318269
-0.49189470100000676	0.2435641891194623
-0.49183366584375676	0.23649482192331206
-0.49177263068750676	0.22928217380112226
-0.49171159553125676	0.22202355223545697
-0.49165056037500676	0.2148240387572957
-0.49158952521875676	0.20767503009259175
-0.49152849006250676	0.2004614554795066
-0.49146745490625676	0.1930937416086077
-0.49140641975000676	0.1856148277480815
-0.49134538459375676	0.17815651687732043
-0.49128434943750676	0.170790670121301
-0.49122331428125676	0.16344504188875156
-0.49116227912500676	0.15598390611105087
-0.49110124396875676	0.148364754617496
-0.49104020881250676	0.14069167809263963
-0.49097917365625676	0.13310107311793906
-0.49091813850000676	0.12560718610683272
-0.49085710334375676	0.11808437564587666
-0.49079606818750676	0.11040950744835956
-0.49073503303125676	0.10260421667589227
-0.49067399787500676	0.09481420025969015
-0.49061296271875676	0.08714682974130294
-0.49055192756250676	0.07955037567332732
-0.49049089240625676	0.07187273811649442
-0.49042985725000676	0.06403437953365604
-0.49036882209375676	0.05611967700514108
-0.49030778693750676	0.04828328145086259
-0.49024675178125676	0.04057795296384387
-0.49018571662500676	0.032898009834626395
-0.49012468146875676	0.025100544581890046
-0.49006364631250676	0.017166608073368173
-0.49000261115625676	0.00922178244081237
-0.48994157600000676	0.001395527314754489
-0.48988054084375676	-0.006320784213548373
-0.48981950568750676	-0.014059072596285551
-0.48975847053125676	-0.021923842005717818
-0.48969743537500676	-0.029876758104794735
-0.48963640021875676	-0.03778247863400803
-0.48957536506250676	-0.045559083609935484
-0.48951432990625676	-0.0532636171620667
-0.48945329475000676	-0.06102184497492763
-0.48939225959375676	-0.0688865597584311
-0.48933122443750676	-0.07678267268562915
-0.48927018928125676	-0.08459413519270392
-0.48920915412500676	-0.09229025776204913
-0.48914811896875676	-0.09995213633441836
-0.48908708381250676	-0.10767684349705538
-0.48902604865625676	-0.11547076082024046
-0.48896501350000676	-0.12324746384231558
-0.48890397834375676	-0.1309249370232245
-0.48884294318750676	-0.13851095347536746
-0.48878190803125676	-0.14608661682451898
-0.48872087287500676	-0.15371352569529376
-0.48865983771875676	-0.16136894623705514
-0.48859880256250676	-0.16897499964503715
-0.48853776740625676	-0.17648328184386425
-0.48847673225000676	-0.18392159493028254
-0.48841569709375676	-0.19135729850786676
-0.48835466193750676	-0.1988228341420078
-0.48829362678125676	-0.2062839746828775
-0.48823259162500676	-0.21367924215856704
-0.48817155646875676	-0.22098327681533253
-0.48811052131250676	-0.22822798388278823
-0.48804948615625676	-0.2354645271960314
-0.48798845100000676	-0.2427094229888861
-0.48792741584375676	-0.2499294516698427
-0.48786638068750676	-0.25707676229311327
-0.48780534553125676	-0.2641355864966888
-0.48774431037500676	-0.27113457810982705
-0.48768327521875676	-0.27811539532009155
-0.48762224006250676	-0.2850900970702678
-0.48756120490625676	-0.29202877803031274
-0.48750016975000676	-0.2988884772501059
-0.48743913459375676	-0.30565467087448084
-0.48737809943750676	-0.31235487390757877
-0.48731706428125676	-0.31903051727117687
-0.48725602912500676	-0.32569382403991526
-0.48719499396875676	-0.33231267230249223
-0.48713395881250676	-0.3388406724471989
-0.48707292365625676	-0.34526403057294897
-0.48701188850000676	-0.3516168018617751
-0.48695085334375676	-0.3579460625101682
-0.48688981818750676	-0.3642608718421639
-0.48682878303125676	-0.37051885455385847
-0.48676774787500676	-0.3766676182305382
-0.48670671271875676	-0.3827000266396473
-0.48664567756250676	-0.38866379394422496
-0.48658464240625676	-0.39461129827363867
-0.48652360725000676	-0.4005408778039038
-0.48646257209375676	-0.4063942386093843
-0.48640153693750676	-0.4121164585467081
-0.48634050178125676	-0.4177157575847777
-0.48627946662500676	-0.42325661526590186
-0.48621843146875676	-0.42879005234430495
-0.48615739631250676	-0.43429516572771354
-0.48609636115625676	-0.43969780166295247
-0.48603532600000676	-0.4449495313336205
-0.48597429084375676	-0.45008144935342215
-0.48591325568750676	-0.4551715368937034
-0.48585222053125676	-0.46025864449908144
-0.48579118537500676	-0.4652971282436242
-0.48573015021875676	-0.4702040233023322
-0.48566911506250676	-0.4749490259878282
-0.48560807990625676	-0.4795882486346937
-0.48554704475000676	-0.48420280962192075
-0.48548600959375676	-0.48880862642022943
-0.48542497443750676	-0.49333694246646814
-0.48536393928125676	-0.4977081846236292
-0.48530290412500676	-0.5019187263739362
-0.48524186896875676	-0.5060446072550764
-0.48518083381250676	-0.510157281169829
-0.48511979865625676	-0.5142441323040811
-0.48505876350000676	-0.518221596726224
-0.48499772834375676	-0.5220263337896351
-0.48493669318750676	-0.5256837721127702
-0.48487565803125676	-0.529278680563157
-0.48481462287500676	-0.5328608199683675
-0.48475358771875676	-0.5363901537648523
-0.48469255256250676	-0.5397814527613706
-0.48463151740625676	-0.5429977445801428
-0.48457048225000676	-0.5460890108852022
-0.48450944709375676	-0.549134731234762
-0.48444841193750676	-0.552155648710605
-0.48438737678125676	-0.5550922924282483
-0.48432634162500676	-0.5578717166148531
-0.48426530646875676	-0.5604867766205465
-0.48420427131250676	-0.5630009952509472
-0.48414323615625676	-0.5654761921947504
-0.48408220100000676	-0.5679047002254397
-0.48402116584375676	-0.5702200980467882
-0.48396013068750676	-0.5723715748839978
-0.48389909553125676	-0.574378042837612
-0.48383806037500676	-0.5763038300259622
-0.48377702521875676	-0.5781860181422216
-0.48371599006250676	-0.5799950325102967
-0.48365495490625676	-0.5816698899307104
-0.48359391975000676	-0.583185796779493
-0.48353288459375676	-0.5845787239617249
-0.48347184943750676	-0.5859026272048499
-0.48341081428125676	-0.587169611166806
-0.48334977912500676	-0.5883389537954623
-0.48328874396875676	-0.5893640129463721
-0.48322770881250676	-0.5902427488850346
-0.48316667365625676	-0.5910169661784243
-0.48310563850000676	-0.5917242695937878
-0.48304460334375676	-0.5923576622915865
-0.48298356818750676	-0.5928758843839095
-0.48292253303125676	-0.5932498150610241
-0.48286149787500676	-0.5934925249840599
-0.48280046271875676	-0.5936421735010982
-0.48273942756250676	-0.5937196269720476
-0.48267839240625676	-0.5937076826182145
-0.48261735725000676	-0.593572109582585
-0.48255632209375676	-0.5932988879579073
-0.48249528693750676	-0.5929071637464939
-0.48243425178125676	-0.5924265611294599
-0.48237321662500676	-0.5918657176958589
-0.48231218146875676	-0.591205297892938
-0.48225114631250676	-0.5904202578894727
-0.48219011115625676	-0.5895059060712128
-0.48212907600000676	-0.5884810152131909
-0.48206804084375676	-0.5873670072083712
-0.48200700568750676	-0.5861664118124382
-0.48194597053125676	-0.5848622031826767
-0.48188493537500676	-0.583436509282061
-0.48182390021875676	-0.5818883148535671
-0.48176286506250676	-0.5802332347391678
-0.48170182990625676	-0.5784874888867374
-0.48164079475000676	-0.5766526608746874
-0.48157975959375676	-0.5747152965558379
-0.48151872443750676	-0.572660594869877
-0.48145768928125676	-0.5704868603103909
-0.48139665412500676	-0.5682073486841627
-0.48133561896875676	-0.5658378246077996
-0.48127458381250676	-0.5633814939913113
-0.48121354865625676	-0.5608258171526124
-0.48115251350000676	-0.5581548600112617
-0.48109147834375676	-0.5553658342605157
-0.48103044318750676	-0.5524732540019335
-0.48096940803125676	-0.5494953106893442
-0.48090837287500676	-0.546435367865861
-0.48084733771875676	-0.5432779248778619
-0.48078630256250676	-0.540004572558406
-0.48072526740625676	-0.5366142705597934
-0.48066423225000676	-0.5331262666981477
-0.48060319709375676	-0.5295611230595425
-0.48054216193750676	-0.5259188268717153
-0.48048112678125676	-0.5221780827208402
-0.48042009162500676	-0.5183193979743682
-0.48035905646875676	-0.5143475795455182
-0.48029802131250676	-0.5102882999562964
-0.48023698615625676	-0.5061612563356632
-0.48017595100000676	-0.5019587226972834
-0.48011491584375676	-0.49765388156566037
-0.48005388068750676	-0.4932310355087765
-0.47999284553125676	-0.4887044216505181
-0.47993181037500676	-0.484103874980488
-0.47987077521875676	-0.4794425288161192
-0.47980974006250676	-0.47470263935125306
-0.47974870490625676	-0.4698560867139721
-0.47968766975000676	-0.46489693691075795
-0.47962663459375676	-0.4598491451306393
-0.47956559943750676	-0.4547405114953868
-0.47950456428125676	-0.449572370938662
-0.47944352912500676	-0.44431929072074294
-0.47938249396875676	-0.4389590318082016
-0.47932145881250676	-0.4334985980236225
-0.47926042365625676	-0.4279668654585912
-0.47919938850000676	-0.4223826856419671
-0.47913835334375676	-0.41673497942189464
-0.47907731818750676	-0.41099714945339116
-0.47901628303125676	-0.40515877036544556
-0.47895524787500676	-0.3992380112982668
-0.47889421271875676	-0.3932612031137979
-0.47883317756250676	-0.3872339255941667
-0.47877214240625676	-0.381136704462741
-0.47871110725000676	-0.3749493243469712
-0.47865007209375676	-0.3686750806374987
-0.47858903693750676	-0.36233724509904236
-0.47852800178125676	-0.35595281516762095
-0.47846696662500676	-0.3495145857861754
-0.47840593146875676	-0.343001935877504
-0.47834489631250676	-0.3364066698686984
-0.47828386115625676	-0.32974321214819513
-0.47822282600000676	-0.32303205546983255
-0.47816179084375676	-0.3162769734654851
-0.47810075568750676	-0.3094628459070735
-0.47803972053125676	-0.3025757934114326
-0.47797868537500676	-0.29562087425224587
-0.47791765021875676	-0.2886164877627658
-0.47785661506250676	-0.28157336168385727
-0.47779557990625676	-0.2744838249239409
-0.47773454475000676	-0.2673335387297355
-0.47767350959375676	-0.26012053584166883
-0.47761247443750676	-0.25285830414993354
-0.47755143928125676	-0.24556015345656876
-0.47749040412500676	-0.23822474239149896
-0.47742936896875676	-0.23084002569478657
-0.47736833381250676	-0.22340011583723166
-0.47730729865625676	-0.2159140800423578
-0.47724626350000676	-0.20839578430137926
-0.47718522834375676	-0.20084788326720107
-0.47712419318750676	-0.19326046808835823
-0.47706315803125676	-0.18562564448379182
-0.47700212287500676	-0.17794935404383974
-0.47694108771875676	-0.17024574512272164
-0.47688005256250676	-0.1625208749540424
-0.47681901740625676	-0.15476618886072532
-0.47675798225000676	-0.14697068815583955
-0.47669694709375676	-0.13913693182138107
-0.47663591193750676	-0.13128045197241905
-0.47657487678125676	-0.12341245603092386
-0.47651384162500676	-0.11552689547168982
-0.47645280646875676	-0.10760868905663508
-0.47639177131250676	-0.09965417790249523
-0.47633073615625676	-0.09167859266261667
-0.47626970100000676	-0.0836999840349361
-0.47620866584375676	-0.07571834629301437
-0.47614763068750676	-0.06771595515170033
-0.47608659553125676	-0.059680011727061326
-0.47602556037500676	-0.051620931098411024
-0.47596452521875676	-0.0435631062564604
-0.47590349006250676	-0.035517576139487056
-0.47584245490625676	-0.027469135445071204
-0.47578141975000676	-0.019394782972835527
-0.47572038459375676	-0.011293182293611466
-0.47565934943750676	-0.003189785870916172
-0.47559831428125676	0.004890681376211641
-0.47553727912500676	0.012952786796827482
-0.47547624396875676	0.0210247990090042
-0.47541520881250676	0.029123896013485893
-0.47535417365625676	0.03723302754266678
-0.47529313850000676	0.045317914474440696
-0.47523210334375676	0.05336561246355629
-0.47517106818750676	0.06139943039137829
-0.47511003303125676	0.0694511142847669
-0.47504899787500676	0.07752142608517765
-0.47498796271875676	0.0855758973695596
-0.47492692756250676	0.09358257071896381
-0.47486589240625676	0.101548497533871
-0.47480485725000676	0.1095113682937387
-0.47474382209375676	0.11749413013080097
-0.47468278693750676	0.12547521900849917
-0.47462175178125676	0.13341083386782696
-0.47456071662500676	0.14128458691584414
-0.47449968146875676	0.14912628551098203
-0.47443864631250676	0.15697641047135966
-0.47437761115625676	0.1648365494641402
-0.47431657600000676	0.17266445260094687
-0.47425554084375676	0.18042119646042767
-0.47419450568750676	0.18811584679249274
-0.47413347053125676	0.19579450192302522
-0.47407243537500676	0.20348501830580734
-0.47401140021875676	0.21116155771865935
-0.47395036506250676	0.21877188289748498
-0.47388932990625676	0.2262970445721297
-0.47382829475000676	0.23377340358678453
-0.47376725959375676	0.24124952679210818
-0.47370622443750676	0.24872699029211195
-0.47364518928125676	0.2561552140024993
-0.47358415412500676	0.26348853355464547
-0.47352311896875676	0.27073924554294965
-0.47346208381250676	0.2779631114037144
-0.47340104865625676	0.2851926674681361
-0.47334001350000676	0.2923962722621362
-0.47327897834375676	0.2995123101517178
-0.47321794318750676	0.30651989221733217
-0.47315690803125676	0.3134631739146016
-0.47309587287500676	0.32039925652200857
-0.47303483771875676	0.32732932479014154
-0.47297380256250676	0.33419426613504477
-0.47291276740625676	0.3409416560068129
-0.47285173225000676	0.34758641008717894
-0.47279069709375676	0.3541931840985063
-0.47272966193750676	0.3607997086075149
-0.47266862678125676	0.3673703157778685
-0.47260759162500676	0.37383499867206393
-0.47254655646875676	0.38016976683121784
-0.47248552131250676	0.38642443085829037
-0.47242448615625676	0.3926638265239551
-0.47236345100000676	0.39889024691004216
-0.47230241584375676	0.40503844815592516
-0.47224138068750676	0.4110502499115336
-0.47218034553125676	0.41694185642961473
-0.47211931037500676	0.42278434330199366
-0.47205827521875676	0.42861924430376175
-0.47199724006250676	0.4344080241763652
-0.47193620490625676	0.44007523639479573
-0.47187516975000676	0.44559562355033705
-0.47181413459375676	0.45102322818603935
-0.47175309943750676	0.4564274462687651
-0.47169206428125676	0.46181020835788905
-0.47163102912500676	0.46710178260847574
-0.47156999396875676	0.4722410413838571
-0.47150895881250676	0.47724649983217854
-0.47144792365625676	0.4821942868625649
-0.47138688850000676	0.48712780004725253
-0.47132585334375676	0.4920047941514489
-0.47126481818750676	0.49674506214740305
-0.47120378303125676	0.5013238058911343
-0.47114274787500676	0.5058008583664869
-0.47108171271875676	0.5102501220527462
-0.47102067756250676	0.5146711471518434
-0.47095964240625676	0.5189872730945273
-0.47089860725000676	0.5231341319747755
-0.47083757209375676	0.5271353718072423
-0.47077653693750676	0.5310755647007496
-0.47071550178125676	0.5350002425580386
-0.47065446662500676	0.5388598670439985
-0.47059343146875676	0.5425653171249732
-0.47053239631250676	0.5460920497149163
-0.47047136115625676	0.5495104432608209
-0.47041032600000676	0.5529041128648915
-0.47034929084375676	0.5562699588423565
-0.47028825568750676	0.5595181130108433
-0.47022722053125676	0.5625750860389305
