Time	Frequency
-0.5000305160625089	9.817961553550357e-24
-0.4999694809062589	1.0484642533343896e-23
-0.4999084457500089	1.1148882167097172e-23
-0.4998474105937589	1.1810503763943724e-23
-0.4997863754375089	1.246921568168375e-23
-0.4997253402812589	1.3124697960280848e-23
-0.4996643051250089	1.3776755062513813e-23
-0.4996032699687589	1.442538216541548e-23
-0.4995422348125089	1.5070648299446535e-23
-0.4994811996562589	1.5712480893411218e-23
-0.4994201645000089	1.635054537300883e-23
-0.4993591293437589	1.698434600963118e-23
-0.4992980941875089	1.7613499277564204e-23
-0.4992370590312589	1.8237954749038453e-23
-0.4991760238750089	1.8857937772151848e-23
-0.4991149887187589	1.9473624733221636e-23
-0.4990539535625089	2.0084828787948582e-23
-0.4989929184062589	2.0690986512065535e-23
-0.4989318832500089	2.129147595636396e-23
-0.4988708480937589	2.1886020874115538e-23
-0.4988098129375089	2.2474833917422368e-23
-0.4987487777812589	2.30583299021139e-23
-0.4986877426250089	2.3636632689257265e-23
-0.4986267074687589	2.42093096887863e-23
-0.4985656723125089	2.4775578459497727e-23
-0.4985046371562589	2.533483409668049e-23
-0.4984436020000089	2.588705779210457e-23
-0.4983825668437589	2.643274024389591e-23
-0.4983215316875089	2.6972354011384515e-23
-0.4982604965312589	2.7505811207437774e-23
-0.4981994613750089	2.8032385914909436e-23
-0.4981384262187589	2.855119095694302e-23
-0.4980773910625089	2.9061819910705447e-23
-0.4980163559062589	2.9564606678090544e-23
-0.4979553207500089	3.006025295068337e-23
-0.4978942855937589	3.054911157801607e-23
-0.4978332504375089	3.1030743391280255e-23
-0.4977722152812589	3.150415561852047e-23
-0.4977111801250089	3.196853284529925e-23
-0.4976501449687589	3.2423838134152354e-23
-0.4975891098125089	3.2870767040896813e-23
-0.4975280746562589	3.3310069620336746e-23
-0.4974670395000089	3.374179625935769e-23
-0.4974060043437589	3.4165125104875785e-23
-0.4973449691875089	3.457894828331102e-23
-0.4972839340312589	3.4982725611126527e-23
-0.4972228988750089	3.537687213292762e-23
-0.4971618637187589	3.5762333458391904e-23
-0.4971008285625089	3.613968911783526e-23
-0.4970397934062589	3.650854611471732e-23
-0.4969787582500089	3.6867759762136596e-23
-0.4969177230937589	3.721631844656998e-23
-0.4968566879375089	3.7554144624912576e-23
-0.4967956527812589	3.7882106571077565e-23
-0.4967346176250089	3.8201207219053575e-23
-0.4966735824687589	3.851163808716663e-23
-0.4966125473125089	3.8812516030185734e-23
-0.4965515121562589	3.910254975842829e-23
-0.4964904770000089	3.938108336146697e-23
-0.4964294418437589	3.964861427686047e-23
-0.4963684066875089	3.9906318469206595e-23
-0.4963073715312589	4.015497760010644e-23
-0.4962463363750089	4.0394230788430903e-23
-0.4961853012187589	4.062280434277543e-23
-0.4961242660625089	4.083953958355531e-23
-0.4960632309062589	4.1044344286452095e-23
-0.4960021957500089	4.1238240635452347e-23
-0.4959411605937589	4.142245170099504e-23
-0.4958801254375089	4.159729794963513e-23
-0.4958190902812589	4.1761853897581747e-23
-0.4957580551250089	4.191468133369106e-23
-0.4956970199687589	4.205502776231445e-23
-0.4956359848125089	4.2183456994069096e-23
-0.4955749496562589	4.2301351315302505e-23
-0.4955139145000089	4.240969387843259e-23
-0.4954528793437589	4.250817359292196e-23
-0.4953918441875089	4.259539928919524e-23
-0.4953308090312589	4.267006237087393e-23
-0.4952697738750089	4.2732055229675877e-23
-0.4952087387187589	4.2782568785003696e-23
-0.4951477035625089	4.2823062932753013e-23
-0.4950866684062589	4.285398395128569e-23
-0.4950256332500089	4.2874341593213866e-23
-0.4949645980937589	4.288253319924296e-23
-0.4949035629375089	4.287772159435059e-23
-0.4948425277812589	4.286057506643724e-23
-0.4947814926250089	4.2832710409750735e-23
-0.4947204574687589	4.279529910802659e-23
-0.4946594223125089	4.274803761475955e-23
-0.4945983871562589	4.268938980744485e-23
-0.4945373520000089	4.261791438358901e-23
-0.4944763168437589	4.253353537230947e-23
-0.4944152816875089	4.243764472733058e-23
-0.4943542465312589	4.233192862545419e-23
-0.4942932113750089	4.221691784970942e-23
-0.4942321762187589	4.209152210811228e-23
-0.4941711410625089	4.1953976628122156e-23
-0.4941101059062589	4.1803398830267726e-23
-0.4940490707500089	4.164060172597892e-23
-0.4939880355937589	4.146744102806251e-23
-0.4939270004375089	4.1285243801569626e-23
-0.4938659652812589	4.1093677060551983e-23
-0.4938049301250089	4.0891050961454665e-23
-0.4937438949687589	4.067581386011124e-23
-0.4936828598125089	4.044795258276963e-23
-0.4936218246562589	4.020907443741889e-23
-0.4935607895000089	3.996107832452349e-23
-0.4934997543437589	3.970454989554927e-23
-0.4934387191875089	3.943827863390213e-23
-0.4933776840312589	3.9160342762337635e-23
-0.4933166488750089	3.88698398872649e-23
-0.4932556137187589	3.856775348053386e-23
-0.4931945785625089	3.8256180523792367e-23
-0.4931335434062589	3.7936575306098144e-23
-0.4930725082500089	3.7608534430248026e-23
-0.4930114730937589	3.7270195018840253e-23
-0.4929504379375089	3.691991964258231e-23
-0.4928894027812589	3.6557808486391846e-23
-0.4928283676250089	3.618571290361015e-23
-0.4927673324687589	3.5805717158254465e-23
-0.4927062973125089	3.5418393801350167e-23
-0.4926452621562589	3.5022361619447927e-23
-0.4925842270000089	3.4615557155753766e-23
-0.4925231918437589	3.419712701735777e-23
-0.4924621566875089	3.3768285871887974e-23
-0.4924011215312589	3.33313691336615e-23
-0.4923400863750089	3.2887888515911067e-23
-0.4922790512187589	3.243729081122399e-23
-0.4922180160625089	3.197752019892088e-23
-0.4921569809062589	3.150691051318952e-23
-0.4920959457500089	3.1025757764610906e-23
-0.4920349105937589	3.0536184607815367e-23
-0.4919738754375089	3.0040397204861614e-23
-0.4919128402812589	2.9538850657951004e-23
-0.4918518051250089	2.9029940869523985e-23
-0.4917907699687589	2.8511514173737866e-23
-0.4917297348125089	2.79828790766056e-23
-0.4916686996562589	2.744554833174722e-23
-0.4916076645000089	2.6902043884320103e-23
-0.4915466293437589	2.6353800957340187e-23
-0.4914855941875089	2.5800014452745754e-23
-0.4914245590312589	2.5238450317266174e-23
-0.4913635238750089	2.4667526193919788e-23
-0.4913024887187589	2.408784771029245e-23
-0.4912414535625089	2.3501831928819544e-23
-0.4911804184062589	2.2911718669527577e-23
-0.4911193832500089	2.231771556196548e-23
-0.4910583480937589	2.1717924605389522e-23
-0.4909973129375089	2.1110135817548762e-23
-0.4909362777812589	2.049392357174605e-23
-0.4908752426250089	1.9871185702960904e-23
-0.4908142074687589	1.9244625613374244e-23
-0.4907531723125089	1.8615505121900388e-23
-0.4906921371562589	1.7982652685233112e-23
-0.4906311020000089	1.7343615198406137e-23
-0.4905700668437589	1.6696957395064156e-23
-0.4905090316875089	1.6043698921232026e-23
-0.4904479965312589	1.5386603470528194e-23
-0.4903869613750089	1.4727902421411147e-23
-0.4903259262187589	1.4067450490276345e-23
-0.4902648910625089	1.3402963746763534e-23
-0.4902038559062589	1.2732162571103344e-23
-0.4901428207500089	1.2054949718058176e-23
-0.4900817855937589	1.1373692120829868e-23
-0.4900207504375089	1.0691324054269206e-23
-0.4899597152812589	1.0008910932045923e-23
-0.4898986801250089	9.324826502938607e-24
-0.4898376449687589	8.63630230794338e-24
-0.4897766098125089	7.94201223051711e-24
-0.4897155746562589	7.243432106533006e-24
-0.4896545395000089	6.543758446130329e-24
-0.4895935043437589	5.845280694827629e-24
-0.4895324691875089	5.147484508546926e-24
-0.4894714340312589	4.447592681430521e-24
-0.4894103988750089	3.743139750607995e-24
-0.4893493637187589	3.0343408010625328e-24
-0.4892883285625089	2.3241323626111704e-24
-0.4892272934062589	1.6157963758857674e-24
-0.4891662582500089	9.102228802167221e-25
-0.4891052230937589	2.0521807869835368e-25
-0.4890441879375089	-5.0247299604748925e-25
-0.4889831527812589	-1.2141402782657369e-24
-0.4889221176250089	-1.9277479766601757e-24
-0.4888610824687589	-2.6394855933636172e-24
-0.4888000473125089	-3.346919241325222e-24
-0.4887390121562589	-4.05101356905277e-24
-0.4886779770000089	-4.755221031195284e-24
-0.4886169418437589	-5.462349151063952e-24
-0.4885559066875089	-6.171895914010205e-24
-0.4884948715312589	-6.880221783564562e-24
-0.4884338363750089	-7.583495945246127e-24
-0.4883728012187589	-8.280906144977197e-24
-0.4883117660625089	-8.975311072381235e-24
-0.4882507309062589	-9.670673932575336e-24
-0.4881896957500089	-1.0368443393045476e-23
-0.4881286605937589	-1.1066043292584574e-23
-0.4880676254375089	-1.1758852041184155e-23
-0.4880065902812589	-1.244403609874864e-23
-0.4879455551250089	-1.3122936113909094e-23
-0.4878845199687589	-1.3799860188500458e-23
-0.4878234848125089	-1.4478236700978134e-23
-0.4877624496562589	-1.5157431490798757e-23
-0.4877014145000089	-1.5833026353687796e-23
-0.4876403793437589	-1.650040896109761e-23
-0.4875793441875089	-1.715864022234802e-23
-0.4875183090312589	-1.7811231870172672e-23
-0.4874572738750089	-1.846306241083969e-23
-0.4873962387187589	-1.9116011757673724e-23
-0.4873352035625089	-1.9767086859984236e-23
-0.4872741684062589	-2.041073776587556e-23
-0.4872131332500089	-2.1043464063359506e-23
-0.4871520980937589	-2.1666768567155286e-23
-0.4870910629375089	-2.2285841216740848e-23
-0.4870300277812589	-2.2905003055977205e-23
-0.4869689926250089	-2.352379166755441e-23
-0.4869079574687589	-2.4137106974404656e-23
-0.4868469223125089	-2.473937605057122e-23
-0.4867858871562589	-2.5329215257511444e-23
-0.4867248520000089	-2.5910580561231574e-23
-0.4866638168437589	-2.648933897896722e-23
-0.4866027816875089	-2.706811624975875e-23
-0.4865417465312589	-2.764383281377028e-23
-0.4864807113750089	-2.82101153503495e-23
-0.4864196762187589	-2.876259279252447e-23
-0.4863586410625089	-2.930255200985901e-23
-0.4862976059062589	-2.983578768515026e-23
-0.4862365707500089	-3.036757702318741e-23
-0.4861755355937589	-3.089803371292685e-23
-0.4861145004375089	-3.142182519755397e-23
-0.4860534652812589	-3.1932552285915387e-23
-0.4859924301250089	-3.242809217878529e-23
-0.4859313949687589	-3.291233618261465e-23
-0.4858703598125089	-3.3391797856596004e-23
-0.4858093246562589	-3.386995492732716e-23
-0.4857482895000089	-3.434415857661334e-23
-0.4856872543437589	-3.4807764913599303e-23
-0.4856262191875089	-3.525567423548507e-23
-0.4855651840312589	-3.5688558973060365e-23
-0.4855041488750089	-3.611218778742969e-23
-0.4854431137187589	-3.653242523914615e-23
-0.4853820785625089	-3.695016075683194e-23
-0.4853210434062589	-3.736047646725946e-23
-0.4852600082500089	-3.7756748587655053e-23
-0.4851989730937589	-3.8136173890272276e-23
-0.4851379379375089	-3.8502019827879365e-23
-0.4850769027812589	-3.8860720215579023e-23
-0.4850158676250089	-3.9216323935581766e-23
-0.4849548324687589	-3.956701946403625e-23
-0.4848937973125089	-3.9906656807745785e-23
-0.4848327621562589	-4.022991806189379e-23
-0.4847717270000089	-4.0536710580042705e-23
-0.4847106918437589	-4.0832085902771217e-23
-0.4846496566875089	-4.112182769654823e-23
-0.4845886215312589	-4.14075007401773e-23
-0.4845275863750089	-4.168514583577208e-23
-0.4844665512187589	-4.194865587170155e-23
-0.4844055160625089	-4.219489416293951e-23
-0.4843444809062589	-4.242620648185927e-23
-0.4842834457500089	-4.264826895416029e-23
-0.4842224105937589	-4.286518686950231e-23
-0.4841613754375089	-4.307603263517928e-23
-0.4841003402812589	-4.3275701247957234e-23
-0.4840393051250089	-4.345925517192451e-23
-0.4839782699687589	-4.362601753434298e-23
-0.4839172348125089	-4.3779982023587807e-23
-0.4838561996562589	-4.392629226409272e-23
-0.4837951645000089	-4.4066855673064756e-23
-0.4837341293437589	-4.4198802675224806e-23
-0.4836730941875089	-4.4317003575460466e-23
-0.4836120590312589	-4.441840827883794e-23
-0.4835510238750089	-4.450451041658469e-23
-0.4834899887187589	-4.4579927529641856e-23
-0.4834289535625089	-4.4648410918356295e-23
-0.4833679184062589	-4.470971110913919e-23
-0.4833068832500089	-4.4759898375283896e-23
-0.4832458480937589	-4.479475922260851e-23
-0.4831848129375089	-4.481332295027129e-23
-0.4831237777812589	-4.4818557881970076e-23
-0.4830627426250089	-4.481474590918985e-23
-0.4830017074687589	-4.48038466483138e-23
-0.4829406723125089	-4.4783933937641584e-23
-0.4828796371562589	-4.4750943716513705e-23
-0.4828186020000089	-4.470215408041173e-23
-0.4827575668437589	-4.463842244610451e-23
-0.4826965316875089	-4.4563349215403897e-23
-0.4826354965312589	-4.4480177531685335e-23
-0.4825744613750089	-4.438910612545675e-23
-0.4825134262187589	-4.428724989570288e-23
-0.4824523910625089	-4.417118582676748e-23
-0.4823913559062589	-4.403985754336103e-23
-0.4823303207500089	-4.3895393700553386e-23
-0.4822692855937589	-4.374123355894381e-23
-0.4822082504375089	-4.3579228792516665e-23
-0.4821472152812589	-4.34081876677737e-23
-0.4820861801250089	-4.3225026002807336e-23
-0.4820251449687589	-4.3027456914748706e-23
-0.4819641098125089	-4.2815907205789977e-23
-0.4819030746562589	-4.259309108694855e-23
-0.4818420395000089	-4.236169445131906e-23
-0.4817810043437589	-4.2122182852087603e-23
-0.4817199691875089	-4.187255548493725e-23
-0.4816589340312589	-4.16101666780663e-23
-0.4815978988750089	-4.1334010245290683e-23
-0.4815368637187589	-4.104554330666161e-23
-0.4814758285625089	-4.0747427436041316e-23
-0.4814147934062589	-4.044132592984185e-23
-0.4813537582500089	-4.0126627031178964e-23
-0.4812927230937589	-3.9801115957957596e-23
-0.4812316879375089	-3.9462955036046554e-23
-0.4811706527812589	-3.9112263472894273e-23
-0.4811096176250089	-3.875099887729244e-23
-0.4810485824687589	-3.838131999712053e-23
-0.4809875473125089	-3.8003865219303285e-23
-0.4809265121562589	-3.7617379067372003e-23
-0.4808654770000089	-3.721992748439666e-23
-0.4808044418437589	-3.6810615604528276e-23
-0.4807434066875089	-3.6390358251528084e-23
-0.4806823715312589	-3.59611164272849e-23
-0.4806213363750089	-3.552431503351599e-23
-0.4805603012187589	-3.507978863069404e-23
-0.4804992660625089	-3.4626098242156205e-23
-0.4804382309062589	-3.416188365218165e-23
-0.4803771957500089	-3.3687076903798e-23
-0.4803161605937589	-3.320298457317251e-23
-0.4802551254375089	-3.271122917659851e-23
-0.4801940902812589	-3.221249711283077e-23
-0.4801330551250089	-3.170614566951032e-23
-0.4800720199687589	-3.119092253593736e-23
-0.4800109848125089	-3.066613545215556e-23
-0.4799499496562589	-3.0132296688675437e-23
-0.4798889145000089	-2.9590738449969396e-23
-0.4798278793437589	-2.904257620202929e-23
-0.4797668441875089	-2.848792447726463e-23
-0.4797058090312589	-2.7925998466559333e-23
-0.4796447738750089	-2.735594800584837e-23
-0.4795837387187589	-2.6777669590757836e-23
-0.4795227035625089	-2.6191941496486952e-23
-0.4794616684062589	-2.559984552671095e-23
-0.4794006332500089	-2.5001997126599335e-23
-0.4793395980937589	-2.439821758702275e-23
-0.4792785629375089	-2.378787878619649e-23
-0.4792175277812589	-2.317057726622073e-23
-0.4791564926250089	-2.254656113616524e-23
-0.4790954574687589	-2.1916592993851138e-23
-0.4790344223125089	-2.1281419284316753e-23
-0.4789733871562589	-2.064131131312337e-23
-0.4789123520000089	-1.9996036813256734e-23
-0.4788513168437589	-1.934524360355368e-23
-0.4787902816875089	-1.8688893594640646e-23
-0.4787292465312589	-1.8027378979653037e-23
-0.4786682113750089	-1.7361277331401084e-23
-0.4786071762187589	-1.6691009201769805e-23
-0.4785461410625089	-1.601668414862968e-23
-0.4784851059062589	-1.53382163002476e-23
-0.4784240707500089	-1.4655569437346234e-23
-0.4783630355937589	-1.3968905632941645e-23
-0.4783020004375089	-1.3278533679650686e-23
-0.4782409652812589	-1.2584765615870103e-23
-0.4781799301250089	-1.1887834470513822e-23
-0.4781188949687589	-1.1187908994769376e-23
-0.4780578598125089	-1.0485148099891761e-23
-0.4779968246562589	-9.779722944999364e-24
-0.4779357895000089	-9.071783903898738e-24
-0.4778747543437589	-8.361436399831842e-24
-0.4778137191875089	-7.648801071024706e-24
-0.4777526840312589	-6.934110008300486e-24
-0.4776916488750089	-6.217715960775888e-24
-0.4776306137187589	-5.499976995497669e-24
-0.4775695785625089	-4.781097433014601e-24
-0.4775085434062589	-4.061070225197272e-24
-0.4774475082500089	-3.339811643647304e-24
-0.4773864730937589	-2.617401300564626e-24
-0.4773254379375089	-1.894214219570689e-24
-0.4772644027812589	-1.1708044954871699e-24
-0.4772033676250089	-4.4761086189455415e-25
-0.4771423324687589	2.7528212254882638e-25
-0.4770812973125089	9.981034300443188e-25
-0.4770202621562589	1.7210612728058107e-24
-0.4769592270000089	2.4439768198005818e-24
-0.4768981918437589	3.1662218366565986e-24
-0.4768371566875089	3.88706128104051e-24
-0.4767761215312589	4.60612951309176e-24
-0.4767150863750089	5.323608555865587e-24
-0.4766540512187589	6.039933684326765e-24
-0.4765930160625089	6.755269262397928e-24
-0.4765319809062589	7.46918913780084e-24
-0.4764709457500089	8.180843176216335e-24
-0.4764099105937589	8.889503396651726e-24
-0.4763488754375089	9.595041473855333e-24
-0.4762878402812589	1.029790930136867e-23
-0.4762268051250089	1.0998610029808212e-23
-0.4761657699687589	1.169709815251248e-23
-0.4761047348125089	1.239262646854857e-23
-0.4760436996562589	1.3084197972380233e-23
-0.4759826645000089	1.377126093266987e-23
-0.4759216293437589	1.445404938884937e-23
-0.4758605941875089	1.5133255546912357e-23
-0.4757995590312589	1.5809287613837148e-23
-0.4757385238750089	1.648174025962327e-23
-0.4756774887187589	1.7149554919179645e-23
-0.4756164535625089	1.7811760582506396e-23
-0.4755554184062589	1.846816762968723e-23
-0.4754943832500089	1.911940765537053e-23
-0.4754333480937589	1.9766260488970326e-23
-0.4753723129375089	2.0408828833032425e-23
-0.4753112777812589	2.104627603895973e-23
-0.4752502426250089	2.1677371078114918e-23
-0.4751892074687589	2.2301392717763205e-23
-0.4751281723125089	2.2918626384508677e-23
-0.4750671371562589	2.3530003960917438e-23
-0.4750061020000089	2.4136165287377683e-23
-0.4749450668437589	2.4736750434692384e-23
-0.4748840316875089	2.53305473213789e-23
-0.4748229965312589	2.5916379976911366e-23
-0.4747619613750089	2.6493986712178434e-23
-0.4747009262187589	2.7064133122624094e-23
-0.4746398910625089	2.762784241992798e-23
-0.4745788559062589	2.818537816003219e-23
-0.4745178207500089	2.8735858098932505e-23
-0.4744567855937589	2.9277866075168265e-23
-0.4743957504375089	2.9810547721391475e-23
-0.4743347152812589	3.033423632282444e-23
-0.4742736801250089	3.085006052322065e-23
-0.4742126449687589	3.1358858571304224e-23
-0.4741516098125089	3.186032554644127e-23
-0.4740905746562589	3.2353133824647e-23
-0.4740295395000089	3.2835942326975797e-23
-0.4739685043437589	3.3308442658980566e-23
-0.4739074691875089	3.377153602755226e-23
-0.4738464340312589	3.422646665994848e-23
-0.4737853988750089	3.46736401495633e-23
-0.4737243637187589	3.5112145693337305e-23
-0.4736633285625089	3.554041381042604e-23
-0.4736022934062589	3.595746403434469e-23
-0.4735412582500089	3.636366883637526e-23
-0.4734802230937589	3.6760356910449416e-23
-0.4734191879375089	3.7148579454150646e-23
-0.4733581527812589	3.7528097061475075e-23
-0.4732971176250089	3.789746991968723e-23
-0.4732360824687589	3.825519486307981e-23
-0.4731750473125089	3.8600924957299684e-23
-0.4731140121562589	3.8935712961671585e-23
-0.4730529770000089	3.926104165406398e-23
-0.4729919418437589	3.95774568704167e-23
-0.4729309066875089	3.988399061961328e-23
-0.4728698715312589	4.0178899764113195e-23
-0.4728088363750089	4.046110198746106e-23
-0.4727478012187589	4.073106327779706e-23
-0.4726867660625089	4.099035080661544e-23
-0.4726257309062589	4.1240220401845116e-23
-0.4725646957500089	4.148045282089724e-23
-0.4725036605937589	4.1709458052997074e-23
-0.4724426254375089	4.1925580305479833e-23
-0.4723815902812589	4.2128486280394385e-23
-0.4723205551250089	4.231942758633831e-23
-0.4722595199687589	4.2500127563384756e-23
-0.4721984848125089	4.267123758069015e-23
-0.4721374496562589	4.2831703345193794e-23
-0.4720764145000089	4.297961374725774e-23
-0.4720153793437589	4.311381772024806e-23
-0.4719543441875089	4.3234906972226904e-23
-0.4718933090312589	4.334469410457596e-23
-0.4718322738750089	4.344461821499711e-23
-0.4717712387187589	4.353445299996874e-23
-0.4717102035625089	4.3612451481127147e-23
-0.4716491684062589	4.3676825608855186e-23
