Time	Frequency
-0.5000534034687547	0.5566519580227036
-0.4999923683125047	0.5574225140841067
-0.4999313331562547	0.5580525472991874
-0.4998702980000047	0.5585503673532984
-0.4998092628437547	0.558963724844431
-0.4997482276875047	0.5593380836228423
-0.4996871925312547	0.5596758815529789
-0.4996261573750047	0.5599331983639465
-0.4995651222187547	0.5600577419847812
-0.4995040870625047	0.5600352579860348
-0.4994430519062547	0.559903162512264
-0.4993820167500047	0.5597184165700599
-0.4993209815937547	0.5595071453499506
-0.4992599464375047	0.5592405237530633
-0.4991989112812547	0.5588591560036507
-0.4991378761250047	0.5583253902445632
-0.4990768409687547	0.557657523453264
-0.4990158058125047	0.5569149256225607
-0.4989547706562547	0.5561461382082088
-0.4988937355000047	0.5553453011071633
-0.4988327003437547	0.55445603260219
-0.4987716651875047	0.5534205752002382
-0.4987106300312547	0.5522315084325359
-0.4986495948750047	0.5509398745130477
-0.4985885597187547	0.54961126879304
-0.4985275245625047	0.5482677273712556
-0.4984664894062547	0.5468669549766368
-0.4984054542500047	0.5453385065942201
-0.4983444190937547	0.5436462054274047
-0.4982833839375047	0.5418217196252859
-0.4982223487812547	0.539938445274056
-0.4981613136250047	0.5380473228063675
-0.4981002784687547	0.5361308042258656
-0.4980392433125047	0.5341166660608638
-0.4979782081562547	0.5319411873618994
-0.4979171730000047	0.5296067403185419
-0.4978561378437547	0.5271821116410867
-0.4977951026875047	0.5247434178963498
-0.4977340675312547	0.5223065003747461
-0.4976730323750047	0.5198109863816772
-0.4976119972187547	0.5171720345290414
-0.4975509620625047	0.5143558004124009
-0.4974899269062547	0.511411934896574
-0.4974288917500047	0.5084325400251575
-0.4973678565937547	0.5054716643348193
-0.4973068214375047	0.5024959096733538
-0.4972457862812547	0.4994114613463502
-0.4971847511250047	0.4961461402095147
-0.4971237159687547	0.49271517687855326
-0.4970626808125047	0.48921143114530036
-0.4970016456562547	0.48572593544199133
-0.4969406105000047	0.48226692963663503
-0.4968795753437547	0.47874963454222436
-0.4968185401875047	0.4750687354926973
-0.4967575050312547	0.4711920522457627
-0.4966964698750047	0.4671926590457445
-0.4966354347187547	0.4631885312911754
-0.4965743995625047	0.45923983274475083
-0.4965133644062547	0.4552935264201635
-0.4964523292500047	0.4512264722831527
-0.4963912940937547	0.4469526194993874
-0.4963302589375047	0.4425015885386128
-0.4962692237812547	0.4379977416001499
-0.4962081886250047	0.43355433767980717
-0.4961471534687547	0.42917321828819943
-0.4960861183125047	0.42473916073100204
-0.4960250831562547	0.4201176771461023
-0.4959640480000047	0.41527382040789873
-0.4959030128437547	0.41030782251072195
-0.4958419776875047	0.40537279977725604
-0.4957809425312547	0.40054245520159876
-0.4957199073750047	0.39574348561006756
-0.4956588722187547	0.3908148836387782
-0.4955978370625047	0.3856468535370309
-0.4955368019062547	0.38028007831704486
-0.4954757667500047	0.37487655643349155
-0.4954147315937547	0.369582845097
-0.4953536964375047	0.36440175812151987
-0.4952926612812547	0.35918528516258297
-0.4952316261250047	0.35375922477849875
-0.4951705909687547	0.34807516999936655
-0.4951095558125047	0.3422579577082327
-0.4950485206562547	0.3365035126588152
-0.4949874855000047	0.3309113371148914
-0.4949264503437547	0.32539569109256095
-0.4948654151875047	0.3197551142271806
-0.4948043800312547	0.3138444287357901
-0.4947433448750047	0.3077028834511205
-0.4946823097187547	0.30152611948386326
-0.4946212745625047	0.29550209204907124
-0.4945602394062547	0.2896495294616481
-0.4944992042500047	0.283798552670173
-0.4944381690937547	0.27773342272895046
-0.4943771339375047	0.2713778877485695
-0.4943160987812547	0.2648642812055291
-0.4942550636250047	0.2584246941200951
-0.4941940284687547	0.252194677495898
-0.4941329933125047	0.24609664114793695
-0.4940719581562547	0.23990415279361968
-0.4940109230000047	0.23343427215228324
-0.4939498878437547	0.2267047031958638
-0.4938888526875047	0.21992130192018314
-0.4938278175312547	0.2133053366455506
-0.4937667823750047	0.2069066153821217
-0.4937057472187547	0.2005614694354178
-0.4936447120625047	0.19403178992176184
-0.4935836769062547	0.18720734536889522
-0.4935226417500047	0.18019972572263102
-0.4934616065937547	0.17324836066520766
-0.4934005714375047	0.16651887622330086
-0.4933395362812547	0.1599649931735039
-0.4932785011250047	0.15337010972188367
-0.4932174659687547	0.14653190714162773
-0.4931564308125047	0.13943296597777907
-0.4930953956562547	0.13225391191576238
-0.4930343605000047	0.12522011741349418
-0.4929733253437547	0.11841321805132167
-0.4929122901875047	0.11170627077601938
-0.4928512550312547	0.10487474004387114
-0.4927902198750047	0.09778697819028923
-0.4927291847187547	0.09051309982340498
-0.4926681495625047	0.08326273099492344
-0.4926071144062547	0.07620765075353333
-0.4925460792500047	0.0693405890148812
-0.4924850440937547	0.06248707907571914
-0.4924240089375047	0.05545628138574698
-0.4923629737812547	0.04820123388899329
-0.4923019386250047	0.04085452867573726
-0.4922409034687547	0.033613331800929944
-0.4921798683125047	0.026574389239929237
-0.4921188331562547	0.019658034726858096
-0.4920577980000047	0.0126814154383939
-0.4919967628437547	0.005514880496662285
-0.4919357276875047	-0.0018114633473661648
-0.4918746925312547	-0.009137756057454465
-0.4918136573750047	-0.016310938257296136
-0.4917526222187547	-0.02331042762591543
-0.4916915870625047	-0.03025898450178458
-0.4916305519062547	-0.03731423908691066
-0.4915695167500047	-0.04453570787386716
-0.4915084815937547	-0.051838661658171976
-0.4914474464375047	-0.05906942794079391
-0.4913864112812547	-0.06613454520503993
-0.4913253761250047	-0.07307452878443821
-0.4912643409687547	-0.08002353710710218
-0.4912033058125047	-0.0870933056289516
-0.4911422706562547	-0.09428090291055623
-0.4910812355000047	-0.10147552175185388
-0.4910202003437547	-0.10855399006690022
-0.4909591651875047	-0.11548200370788538
-0.4908981300312547	-0.1223372916505452
-0.4908370948750047	-0.12923923580274063
-0.4907760597187547	-0.1362474803888557
-0.4907150245625047	-0.14331475912401323
-0.4906539894062547	-0.15033019988620294
-0.4905929542500047	-0.15721286674898197
-0.4905319190937547	-0.16397593891782955
-0.4904708839375047	-0.17071013479939348
-0.4904098487812547	-0.17750423051191416
-0.4903488136250047	-0.18437140853090977
-0.4902877784687547	-0.1912415574736976
-0.4902267433125047	-0.19802221760889616
-0.4901657081562547	-0.20467453459522428
-0.4901046730000047	-0.21124125673469935
-0.4900436378437547	-0.21780643418682655
-0.4899826026875047	-0.22442359520041497
-0.4899215675312547	-0.23107300339895062
-0.4898605323750047	-0.23768108488272463
-0.4897994972187547	-0.24418245358309928
-0.4897384620625047	-0.2505716241346077
-0.4896774269062547	-0.25690301611563837
-0.4896163917500047	-0.2632424750850913
-0.4895553565937547	-0.2696126013474998
-0.4894943214375047	-0.275976310772786
-0.4894332862812547	-0.28226948981244976
-0.4893722511250047	-0.28845340849319023
-0.4893112159687547	-0.2945433985417416
-0.4892501808125047	-0.30059230041476326
-0.4891891456562547	-0.30664501304281
-0.4891281105000047	-0.3127024462978956
-0.4890670753437547	-0.3187230108118189
-0.4890060401875047	-0.32465775573430355
-0.4889450050312547	-0.3304887077272876
-0.4888839698750047	-0.33623996329087436
-0.4888229347187547	-0.3419549884024842
-0.4887618995625047	-0.347660501353781
-0.4887008644062547	-0.3533462099717643
-0.4886398292500047	-0.3589748974921192
-0.4885787940937547	-0.3645125355827017
-0.4885177589375047	-0.36995350906169117
-0.4884567237812547	-0.37532198736250083
-0.4883956886250047	-0.3806504702434422
-0.4883346534687547	-0.38595376030294165
-0.4882736183125047	-0.3912184266385814
-0.4882125831562547	-0.39641446876599484
-0.4881515480000047	-0.40151856085557147
-0.4880905128437547	-0.4065303982970924
-0.4880294776875047	-0.41147050309564653
-0.4879684425312547	-0.4163627411779336
-0.4879074073750047	-0.4212157621729243
-0.4878463722187547	-0.4260170857012185
-0.4877853370625047	-0.43074322139696836
-0.4877243019062547	-0.43537717383039093
-0.4876632667500047	-0.43991994530184686
-0.4876022315937547	-0.44438812965753144
-0.4875411964375047	-0.44880026365809556
-0.4874801612812547	-0.45316252659798223
-0.4874191261250047	-0.4574642751857391
-0.4873580909687547	-0.46168611476954
-0.4872970558125047	-0.4658140163879103
-0.4872360206562547	-0.46984899419346016
-0.4871749855000047	-0.4738053855988717
-0.4871139503437547	-0.4776992400865001
-0.4870529151875047	-0.4815357078417922
-0.4869918800312547	-0.48530496052019706
-0.4869308448750047	-0.4889895050237891
-0.4868698097187547	-0.4925771438239703
-0.4868087745625047	-0.4960697212069704
-0.4867477394062547	-0.4994810058606878
-0.4866867042500047	-0.5028253856895026
-0.4866256690937547	-0.5061062310024188
-0.4865646339375047	-0.5093130279508578
-0.4865035987812547	-0.5124294269194869
-0.4864425636250047	-0.5154457582221712
-0.4863815284687547	-0.518366109169429
-0.4863204933125047	-0.5212043966060345
-0.4862594581562547	-0.5239726901641016
-0.4861984230000047	-0.52667128416457
-0.4861373878437547	-0.5292884396898043
-0.4860763526875047	-0.5318097487839331
-0.4860153175312547	-0.5342293607579762
-0.4859542823750047	-0.5365540121980449
-0.4858932472187547	-0.5387968280879035
-0.4858322120625047	-0.5409662074962978
-0.4857711769062547	-0.5430589507696246
-0.4857101417500047	-0.5450630592721888
-0.4856491065937547	-0.5469675580623128
-0.4855880714375047	-0.548771027389451
-0.4855270362812547	-0.5504819425706824
-0.4854660011250047	-0.5521109831997085
-0.4854049659687547	-0.5536620277753425
-0.4853439308125047	-0.5551292466077293
-0.4852828956562547	-0.5565022724514068
-0.4852218605000047	-0.5577746767006824
-0.4851608253437547	-0.5589486200380873
-0.4850997901875047	-0.560032209351188
-0.4850387550312547	-0.5610322957478526
-0.4849777198750047	-0.5619489437961532
-0.4849166847187547	-0.5627759248877855
-0.4848556495625047	-0.5635062456670918
-0.4847946144062547	-0.5641376686461766
-0.4847335792500047	-0.5646737507403558
-0.4846725440937547	-0.5651201322859282
-0.4846115089375047	-0.5654797263991389
-0.4845504737812547	-0.5657508526813267
-0.4844894386250047	-0.5659293132805056
-0.4844284034687547	-0.566012021195068
-0.4843673683125047	-0.5659989991156703
-0.4843063331562547	-0.5658925493734961
-0.4842452980000047	-0.5656949642907431
-0.4841842628437547	-0.5654069857533911
-0.4841232276875047	-0.5650279632930137
-0.4840621925312547	-0.5645569142658647
-0.4840011573750047	-0.5639931614326691
-0.4839401222187547	-0.5633361807319925
-0.4838790870625047	-0.5625854674396058
-0.4838180519062547	-0.5617411058105095
-0.4837570167500047	-0.5608044810255268
-0.4836959815937547	-0.5597779184861985
-0.4836349464375047	-0.5586629407030339
-0.4835739112812547	-0.557458500661831
-0.4835128761250047	-0.5561611931459802
-0.4834518409687547	-0.5547679694998208
-0.4833908058125047	-0.5532793634918689
-0.4833297706562547	-0.5517000873006153
-0.4832687355000047	-0.5500356832521849
-0.4832077003437547	-0.5482876706639855
-0.4831466651875047	-0.546451641411613
-0.4830856300312547	-0.5445205995674156
-0.4830245948750047	-0.542491254239637
-0.4829635597187547	-0.5403678715304152
-0.4829025245625047	-0.5381596841704582
-0.4828414894062547	-0.535873346481467
-0.4827804542500047	-0.5335068385572359
-0.4827194190937547	-0.5310506411121639
-0.4826583839375047	-0.5284959044755742
-0.4825973487812547	-0.5258428801522865
-0.4825363136250047	-0.5231019315934978
-0.4824752784687547	-0.5202854792554666
-0.4824142433125047	-0.5173973955425368
-0.4823532081562547	-0.5144291976797555
-0.4822921730000047	-0.5113670224252153
-0.4822311378437547	-0.5082040493639579
-0.4821701026875047	-0.5049476072929061
-0.4821090675312547	-0.5016140808443726
-0.4820480323750047	-0.49821531091377885
-0.4819869972187547	-0.49474815482877227
-0.4819259620625047	-0.49119680502573343
-0.4818649269062547	-0.48754662406772165
-0.4818038917500047	-0.4837978045237968
-0.4817428565937547	-0.47996653043589416
-0.4816818214375047	-0.47607188567507747
-0.4816207862812547	-0.4721195614245866
-0.4815597511250047	-0.46809673858291656
-0.4814987159687547	-0.46398315671135426
-0.4814376808125047	-0.45976929206405814
-0.4813766456562547	-0.4554658609840099
-0.4813156105000047	-0.45109580817461
-0.4812545753437547	-0.4466750841958108
-0.4811935401875047	-0.4421988053984885
-0.4811325050312547	-0.4376453519364343
-0.4810714698750047	-0.4329955029589357
-0.4810104347187547	-0.4282502095729655
-0.4809493995625047	-0.4234311671083168
-0.4808883644062547	-0.4185630180422034
-0.4808273292500047	-0.41365229814087606
-0.4807662940937547	-0.4086817023429052
-0.4807052589375047	-0.4036253565802916
-0.4806442237812547	-0.3984722526227465
-0.4805831886250047	-0.3932371673845003
-0.4805221534687547	-0.3879489635973513
-0.4804611183125047	-0.3826261167938949
-0.4804000831562547	-0.3772608069079106
-0.4803390480000047	-0.3718258785288403
-0.4802780128437547	-0.36629921520001946
-0.4802169776875047	-0.3606843468603122
-0.4801559425312547	-0.3550087637107936
-0.4800949073750047	-0.34930088144491744
-0.4800338722187547	-0.34356562079824393
-0.4799728370625047	-0.3377802256153966
-0.4799118019062547	-0.3319146231655384
-0.4798507667500047	-0.32595889357064045
-0.4797897315937547	-0.31993345902410564
-0.4797286964375047	-0.3138724640831657
-0.4796676612812547	-0.30779453603421875
-0.4796066261250047	-0.30168663972088994
-0.4795455909687547	-0.29551579998997535
-0.4794845558125047	-0.28925896346594604
-0.4794235206562547	-0.2829246907632659
-0.4793624855000047	-0.27654714868384417
-0.4793014503437547	-0.2701572063528956
-0.4792404151875047	-0.2637557454657507
-0.4791793800312547	-0.2573130321578453
-0.4791183448750047	-0.25079547357247234
-0.4790573097187547	-0.2441964586351039
-0.4789962745625047	-0.23754384190715944
-0.4789352394062547	-0.23087685300922817
-0.4788742042500047	-0.22421225040614895
-0.4788131690937547	-0.21752975651712897
-0.4787521339375047	-0.2107902327743389
-0.4786910987812547	-0.20397111106418145
-0.4786300636250047	-0.1970880032436218
-0.4785690284687547	-0.19018285260476792
-0.4785079933125047	-0.18328816212330462
-0.4784469581562547	-0.17639860185532585
-0.4783859230000047	-0.16947570633532266
-0.4783248878437547	-0.16248237983976366
-0.4782638526875047	-0.1554171254122881
-0.4782028175312547	-0.14831740703543256
-0.4781417823750047	-0.1412282614328535
-0.4780807472187547	-0.1341632009184219
-0.4780197120625047	-0.12709224987679923
-0.4779586769062547	-0.11996867093405558
-0.4778976417500047	-0.11277141192894312
-0.4778366065937547	-0.10552563229722907
-0.4777755714375047	-0.09828244979956845
-0.4777145362812547	-0.09107501120409663
-0.4776535011250047	-0.08388949050933606
-0.4775924659687547	-0.07667725176305971
-0.4775314308125047	-0.06939840113586274
-0.4774703956562547	-0.062058683996988113
-0.4774093605000047	-0.05470663395320716
-0.4773483253437547	-0.047392448900168915
-0.4772872901875047	-0.04012427309240875
-0.4772262550312547	-0.032860930364738465
-0.4771652198750047	-0.02554851976265869
-0.4771041847187547	-0.018169240468026603
-0.4770431495625047	-0.010759229670994588
-0.4769821144062547	-0.0033787611692683945
-0.4769210792500047	0.003939865937186316
-0.4768600440937547	0.011220804273191415
-0.4767990089375047	0.018523410300655418
-0.4767379737812547	0.02588902551196922
-0.4766769386250047	0.03330251577808394
-0.4766159034687547	0.04070325334478265
-0.4765548683125047	0.04803704576341197
-0.4764938331562547	0.0553036766278741
-0.4764327980000047	0.06255743751563074
-0.4763717628437547	0.06985896227264249
-0.4763107276875047	0.07722010141627385
-0.4762496925312547	0.0845908857529566
-0.4761886573750047	0.09190142618548204
-0.4761276222187547	0.09912284738823277
-0.4760665870625047	0.10629320783772063
-0.4760055519062547	0.11348422461769664
-0.4759445167500047	0.12073697025738549
-0.4758834815937547	0.12802318316445763
-0.4758224464375047	0.13526748083305473
-0.4757614112812547	0.14241231595234727
-0.4757003761250047	0.14946896894611963
-0.4756393409687547	0.15650861056834103
-0.4755783058125047	0.1635993797889485
-0.4755172706562547	0.1707441033754461
-0.4754562355000047	0.17787453312650017
-0.4753952003437547	0.18490905475938543
-0.4753341651875047	0.191824356386483
-0.4752731300312547	0.19867737340111605
-0.4752120948750047	0.205556067458927
-0.4751510597187547	0.2125006241698022
-0.4750900245625047	0.21946464272882688
-0.4750289894062547	0.22635250058172882
-0.4749679542500047	0.23310216227447436
-0.4749069190937547	0.2397410264648239
-0.4748458839375047	0.24636384248897966
-0.4747848487812547	0.253049442703236
-0.4747238136250047	0.25978849005787685
-0.4746627784687547	0.2664873343092611
-0.4746017433125047	0.2730474178282355
-0.4745407081562547	0.2794522364594323
-0.4744796730000047	0.28578452151216516
-0.4744186378437547	0.29215546963809813
-0.4743576026875047	0.29860560601823105
-0.4742965675312547	0.3050646312998688
-0.4742355323750047	0.3114085090737697
-0.4741744972187547	0.31756687802328487
-0.4741134620625047	0.3235871819035387
-0.4740524269062547	0.3295965836550927
-0.4739913917500047	0.3356912299202814
-0.4739303565937547	0.34184838137661794
-0.4738693214375047	0.3479405305294539
-0.4738082862812547	0.3538432369373617
-0.4737472511250047	0.3595448959964663
-0.4736862159687547	0.3651611152433721
-0.4736251808125047	0.37083693849663524
-0.4735641456562547	0.3766188105758277
-0.4735031105000047	0.38240827150243534
-0.4734420753437547	0.3880417896088374
-0.4733810401875047	0.39343157539946516
-0.4733200050312547	0.39864556985179056
-0.4732589698750047	0.4038534094815983
-0.4731979347187547	0.4091804963084691
-0.4731368995625047	0.4145949852730703
-0.4730758644062547	0.41992843503425403
-0.4730148292500047	0.42501732309107204
-0.4729537940937547	0.42984591671828903
-0.4728927589375047	0.43456521329670816
-0.4728317237812547	0.43936661337196764
-0.4727706886250047	0.44431542728195206
-0.4727096534687547	0.4492883428031579
-0.4726486183125047	0.45407329657116297
-0.4725875831562547	0.45855030904236677
-0.4725265480000047	0.4627983139000715
-0.4724655128437547	0.46703256974472057
-0.4724044776875047	0.47142175327284114
-0.4723434425312547	0.47593974920620363
-0.4722824073750047	0.48038172322929684
-0.4722213722187547	0.4845353538120875
-0.4721603370625047	0.48836320068736355
-0.4720993019062547	0.4920388482612743
-0.4720382667500047	0.49580212465860984
-0.4719772315937547	0.49975397814211725
-0.4719161964375047	0.5037662718046743
-0.4718551612812547	0.5075864761794409
-0.4717941261250047	0.5110509964384403
-0.4717330909687547	0.5142259134085537
-0.4716720558125047	0.5173534241693794
-0.4716110206562547	0.5206472099249939
-0.4715499855000047	0.5241097810084315
-0.4714889503437547	0.5275278577418402
-0.4714279151875047	0.5306512687478341
-0.4713668800312547	0.5334043406592196
-0.4713058448750047	0.5359502162747501
-0.4712448097187547	0.538553009688603
-0.4711837745625047	0.5413543622378327
-0.4711227394062547	0.5442537154736763
-0.4710617042500047	0.5469934551252413
-0.4710006690937547	0.5493761460925578
-0.4709396339375047	0.5514296822521689
-0.4708785987812547	0.5533815102231878
-0.4708175636250047	0.5554654122268647
-0.4707565284687547	0.5577252249696897
-0.4706954933125047	0.5599804851402145
-0.4706344581562547	0.5619805419061091
-0.4705734230000047	0.5636148988936412
-0.4705123878437547	0.5650025390785992
-0.4704513526875047	0.5663877146945712
-0.4703903175312547	0.5679333260028004
-0.4703292823750047	0.5695868679382429
-0.4702682472187547	0.5711292628738076
-0.4702072120625047	0.5723613012113132
-0.4701461769062547	0.5732685424221717
-0.4700851417500047	0.5740277920883788
-0.4700241065937547	0.5748543011744869
-0.4699630714375047	0.575821662870896
-0.4699020362812547	0.5768051693396606
-0.4698410011250047	0.5775917994721722
-0.4697799659687547	0.578059828035174
-0.4697189308125047	0.5782763814724956
-0.4696578956562547	0.5784347782163716
-0.4695968605000047	0.57868950332284
-0.4695358253437547	0.5790296585171889
