Time	Frequency
-0.5000423734374948	-0.005722957565645733
-0.4999813382812448	0.0007295595747883623
-0.4999203031249948	0.007092409158718497
-0.4998592679687448	0.013488241575448891
-0.4997982328124948	0.019989981826917948
-0.4997371976562448	0.02651534526673798
-0.4996761624999948	0.03294860497174153
-0.4996151273437448	0.03930740393360844
-0.4995540921874948	0.04571210328971504
-0.4994930570312448	0.05220756178631554
-0.4994320218749948	0.058699244830821236
-0.4993709867187448	0.0650926191397826
-0.4993099515624948	0.07142830061279602
-0.4992489164062448	0.07781782972602079
-0.4991878812499948	0.08427901579853318
-0.4991268460937448	0.09071185719239816
-0.4990658109374948	0.09704535642978449
-0.4990047757812448	0.1033377604049115
-0.4989437406249948	0.10968709604534342
-0.4988827054687448	0.11608711548096202
-0.4988216703124948	0.12243808556256626
-0.4987606351562448	0.128692145909459
-0.4986995999999948	0.13491948824967231
-0.4986385648437448	0.14120222560204745
-0.4985775296874948	0.14751426875888018
-0.4985164945312448	0.1537607775601165
-0.4984554593749948	0.1599154632501777
-0.4983944242187448	0.16605523217780246
-0.4983333890624948	0.17224540222493442
-0.4982723539062448	0.17844481025470493
-0.4982113187499948	0.18456657579561003
-0.4981502835937448	0.19060276942512405
-0.4980892484374948	0.19663226266353376
-0.4980282132812448	0.20270398611338467
-0.4979671781249948	0.2087664361041834
-0.4979061429687448	0.2147428785289019
-0.4978451078124948	0.2206404132070221
-0.4977840726562448	0.22653616576986818
-0.4977230374999948	0.23246413468216562
-0.4976620023437448	0.23836690955931086
-0.4976009671874948	0.2441787595121701
-0.4975399320312448	0.24991789480260038
-0.4974788968749948	0.255656773851752
-0.4974178617187448	0.2614164852712987
-0.4973568265624948	0.2671372937837101
-0.4972957914062448	0.2727645951835563
-0.4972347562499948	0.2783248300023323
-0.4971737210937448	0.2838843344413562
-0.4971126859374948	0.2894532775347308
-0.4970516507812448	0.2949721066028973
-0.4969906156249948	0.30039659612187497
-0.4969295804687448	0.30575826317847227
-0.4968685453124948	0.31111616792499686
-0.4968075101562448	0.3164718356504454
-0.4967464749999948	0.32176814612417826
-0.4966854398437448	0.32697058218969716
-0.4966244046874948	0.33211370203248414
-0.4965633695312448	0.33724897780438184
-0.4965023343749948	0.342370892680278
-0.4964412992187448	0.34742582224678226
-0.4963802640624948	0.3523881025697501
-0.4963192289062448	0.3572938344578761
-0.4962581937499948	0.3621866352523038
-0.4961971585937448	0.3670550905879786
-0.4961361234374948	0.3718500196356743
-0.4960750882812448	0.3765540163465041
-0.4960140531249948	0.3812035629157367
-0.4959530179687448	0.3858346586727972
-0.4958919828124948	0.3904313162142346
-0.4958309476562448	0.39494908985192406
-0.4957699124999948	0.3993777036396391
-0.4957088773437448	0.40375328952868095
-0.4956478421874948	0.40810487942077467
-0.4955868070312448	0.4124128115816072
-0.4955257718749948	0.41663719452642767
-0.4954647367187448	0.42077392285762183
-0.4954037015624948	0.4248584059998596
-0.4953426664062448	0.42891343713553376
-0.4952816312499948	0.43291648303012015
-0.4952205960937448	0.4368320541709997
-0.4951595609374948	0.4406614852415863
-0.4950985257812448	0.4444391340277916
-0.4950374906249948	0.4481818969397056
-0.4949764554687448	0.4518648942296188
-0.4949154203124948	0.4554570961863599
-0.4948543851562448	0.45896477024813725
-0.4947933499999948	0.4624208848045692
-0.4947323148437448	0.46583684438472145
-0.4946712796874948	0.4691860123869328
-0.4946102445312448	0.4724417315249492
-0.4945492093749948	0.47561455994330487
-0.4944881742187448	0.4787357306079465
-0.4944271390624948	0.4818115162549897
-0.4943661039062448	0.48481406888032275
-0.4943050687499948	0.48772107282557964
-0.4942440335937448	0.49054684618779737
-0.4941829984374948	0.49332069439395587
-0.4941219632812448	0.49604423571316614
-0.4940609281249948	0.4986889019134174
-0.4939998929687448	0.5012365287090151
-0.4939388578124948	0.5037044968531272
-0.4938778226562448	0.5061198466972583
-0.4938167874999948	0.508480024114019
-0.4937557523437448	0.5107564211579398
-0.4936947171874948	0.5129350660727908
-0.4936336820312448	0.5150358591694404
-0.4935726468749948	0.5170831771192035
-0.4935116117187448	0.5190705192945391
-0.4934505765624948	0.5209697712087169
-0.4933895414062448	0.5227712167979228
-0.4933285062499948	0.5244967200387812
-0.4932674710937448	0.5261676239139903
-0.4932064359374948	0.5277738782494222
-0.4931454007812448	0.5292884965724919
-0.4930843656249948	0.5307060063420023
-0.4930233304687448	0.5320495515331342
-0.4929622953124948	0.5333369755370005
-0.4929012601562448	0.5345550945642578
-0.4928402249999948	0.5356788393653809
-0.4927791898437448	0.5367070408732069
-0.4927181546874948	0.5376633375434584
-0.4926571195312448	0.5385616059365322
-0.4925960843749948	0.539386087047175
-0.4925350492187448	0.5401143339555002
-0.4924740140624948	0.5407492718268434
-0.4924129789062448	0.5413142926830996
-0.4923519437499948	0.5418191457513339
-0.4922909085937448	0.5422460957023779
-0.4922298734374948	0.5425757860008944
-0.4921688382812448	0.5428149209491027
-0.4921078031249948	0.5429860187397929
-0.4920467679687448	0.5430946457170052
-0.4919857328124948	0.5431216469404926
-0.4919246976562448	0.543051141337055
-0.4918636624999948	0.5428933050115475
-0.4918026273437448	0.5426691787861743
-0.4917415921874948	0.5423801194912927
-0.4916805570312448	0.5420062392517845
-0.4916195218749948	0.5415355131072516
-0.4915584867187448	0.5409810110698936
-0.4914974515624948	0.5403616558253901
-0.4914364164062448	0.5396748896108388
-0.4913753812499948	0.5389008166561575
-0.4913143460937448	0.5380313689695732
-0.4912533109374948	0.5370819303862273
-0.4911922757812448	0.5360688352835827
-0.4911312406249948	0.5349858839749271
-0.4910702054687448	0.5338138844158373
-0.4910091703124948	0.5325488080191992
-0.4909481351562448	0.5312075430221165
-0.4908870999999948	0.5298033652648503
-0.4908260648437448	0.5283270867928281
-0.4907650296874948	0.5267609912900255
-0.4907039945312448	0.5251048519536631
-0.4906429593749948	0.5233762453593727
-0.4905819242187448	0.5215851829764102
-0.4905208890624948	0.519720128412222
-0.4904598539062448	0.5177653312421955
-0.4903988187499948	0.5157239704581693
-0.4903377835937448	0.5136136812509812
-0.4902767484374948	0.5114413125597681
-0.4902157132812448	0.5091936142060561
-0.4901546781249948	0.5068570722469362
-0.4900936429687448	0.5044378512088652
-0.4900326078124948	0.5019530620662433
-0.4899715726562448	0.49940640313282
-0.4899105374999948	0.49678355775443533
-0.4898495023437448	0.49407359761992153
-0.4897884671874948	0.49128512531728347
-0.4897274320312448	0.4884341347800841
-0.4896663968749948	0.48552149924918203
-0.4896053617187448	0.48253253290081366
-0.4895443265624948	0.47945896148697587
-0.4894832914062448	0.47631132762133543
-0.4894222562499948	0.4731041122538031
-0.4893612210937448	0.469835492821985
-0.4893001859374948	0.46649085853133654
-0.4892391507812448	0.46306462934788745
-0.4891781156249948	0.45956886468278607
-0.4891170804687448	0.4560164203051851
-0.4890560453124948	0.45240314061428555
-0.4889950101562448	0.44871478533126363
-0.4889339749999948	0.44494839948231546
-0.4888729398437448	0.4411171331719254
-0.4888119046874948	0.43723185332930387
-0.4887508695312448	0.433286344011342
-0.4886898343749948	0.4292672835971532
-0.4886287992187448	0.4251743465332329
-0.4885677640624948	0.4210213701743905
-0.4885067289062448	0.4168170449367182
-0.4884456937499948	0.41255322547390616
-0.4883846585937448	0.40821773164561265
-0.4883236234374948	0.40381289653890773
-0.4882625882812448	0.39935300876056934
-0.4882015531249948	0.39484452090114125
-0.4881405179687448	0.39027768501396587
-0.4880794828124948	0.3856416892899191
-0.4880184476562448	0.38094131651967933
-0.4879574124999948	0.37619085522222123
-0.4878963773437448	0.37139422001416855
-0.4878353421874948	0.366540302418598
-0.4877743070312448	0.361620169169435
-0.4877132718749948	0.3566410642455034
-0.4876522367187448	0.3516169793344157
-0.4875912015624948	0.34654940424410907
-0.4875301664062448	0.3414261317504713
-0.4874691312499948	0.3362400122565583
-0.4874080960937448	0.3310004569045731
-0.4873470609374948	0.3257208855765297
-0.4872860257812448	0.32040037668755855
-0.4872249906249948	0.3150261079289249
-0.4871639554687448	0.30959300856575545
-0.4871029203124948	0.30411229782398275
-0.4870418851562448	0.2985964678632656
-0.4869808499999948	0.29304223526834
-0.4869198148437448	0.28743634489159786
-0.4868587796874948	0.2817760314484503
-0.4867977445312448	0.2760743395375782
-0.4867367093749948	0.2703424372830824
-0.4866756742187448	0.2645744869071879
-0.4866146390624948	0.2587571600385192
-0.4865536039062448	0.252890285168869
-0.4864925687499948	0.2469885099472696
-0.4864315335937448	0.24106128513823916
-0.4863704984374948	0.23510027673896852
-0.4863094632812448	0.22909262713475675
-0.4862484281249948	0.22304098926127142
-0.4861873929687448	0.2169611793340683
-0.4861263578124948	0.21086048795566345
-0.4860653226562448	0.20472815404631547
-0.4860042874999948	0.1985521978166763
-0.4859432523437448	0.19233827532758146
-0.4858822171874948	0.1861029396332604
-0.4858211820312448	0.17985081591397392
-0.4857601468749948	0.1735689343197452
-0.4856991117187448	0.1672468788564722
-0.4856380765624948	0.16089362434099197
-0.4855770414062448	0.15452611887212128
-0.4855160062499948	0.14814574915261622
-0.4854549710937448	0.14173722874724712
-0.4853939359374948	0.13529219791726158
-0.4853329007812448	0.12882327219490694
-0.4852718656249948	0.12234737436761868
-0.4852108304687448	0.11586209045719043
-0.4851497953124948	0.1093500526787795
-0.4850887601562448	0.10280580158565673
-0.4850277249999948	0.09624577313138606
-0.4849666898437448	0.08968585925068648
-0.4849056546874948	0.08311899223023307
-0.4848446195312448	0.07652643542356805
-0.4847835843749948	0.0699070427906377
-0.4847225492187448	0.0632810660591123
-0.4846615140624948	0.05666184763141257
-0.4846004789062448	0.05003696884755121
-0.4845394437499948	0.043387629631917585
-0.4844784085937448	0.03671824430697965
-0.4844173734374948	0.03005195988477808
-0.4843563382812448	0.0233978195136104
-0.4842953031249948	0.01673819087876499
-0.4842342679687448	0.010056047344719736
-0.4841732328124948	0.0033621531613121504
-0.4841121976562448	-0.003318808006634313
-0.4840511624999948	-0.009983470941082467
-0.4839901273437448	-0.016653979061685385
-0.4839290921874948	-0.02334387412986194
-0.4838680570312448	-0.03003598825689979
-0.4838070218749948	-0.03670602682965096
-0.4837459867187448	-0.043357536411813474
-0.4836849515624948	-0.05001579035056136
-0.4836239164062448	-0.056688685164478864
-0.4835628812499948	-0.06335290253820898
-0.4835018460937448	-0.06998691942969419
-0.4834408109374948	-0.07660198678247677
-0.4833797757812448	-0.0832242002220563
-0.4833187406249948	-0.08985390713461996
-0.4832577054687448	-0.0964632931954708
-0.4831966703124948	-0.10303631275599026
-0.4831356351562448	-0.10959153739414557
-0.4830745999999948	-0.11615327023869215
-0.4830135648437448	-0.12271363697352901
-0.4829525296874948	-0.12924267650187718
-0.4828914945312448	-0.13573168685492207
-0.4828304593749948	-0.14220480627100832
-0.4827694242187448	-0.14868142974763468
-0.4827083890624948	-0.15514587877863864
-0.4826473539062448	-0.16156958068921481
-0.4825863187499948	-0.16795220667825211
-0.4825252835937448	-0.17432029885010555
-0.4824642484374948	-0.1806860096015642
-0.4824032132812448	-0.18702794991618085
-0.4823421781249948	-0.19332219640196915
-0.4822811429687448	-0.19957633349945214
-0.4822201078124948	-0.20581597261141793
-0.4821590726562448	-0.21204507564591346
-0.4820980374999948	-0.21823960227977898
-0.4820370023437448	-0.22438252839190587
-0.4819759671874948	-0.2304868939271458
-0.4819149320312448	-0.2365737928862182
-0.4818538968749948	-0.24264013826309289
-0.4817928617187448	-0.24866371287361322
-0.4817318265624948	-0.2546351457153508
-0.4816707914062448	-0.26056839183879194
-0.4816097562499948	-0.26647717370566104
-0.4815487210937448	-0.27235491385395655
-0.4814876859374948	-0.27818577787538
-0.4814266507812448	-0.2839663948138329
-0.4813656156249948	-0.2897063517485096
-0.4813045804687448	-0.29541149968623404
-0.4812435453124948	-0.3010769372854953
-0.4811825101562448	-0.3066958482636434
-0.4811214749999948	-0.3122665624387292
-0.4810604398437448	-0.3177896595784025
-0.4809994046874948	-0.3232656555013168
-0.4809383695312448	-0.3286974561990363
-0.4808773343749948	-0.33408739014837396
-0.4808162992187448	-0.33942902280982296
-0.4807552640624948	-0.344710857593744
-0.4806942289062448	-0.34993349114212985
-0.4806331937499948	-0.35511316034948054
-0.4805721585937448	-0.36025807361903844
-0.4805111234374948	-0.36534990216583524
-0.4804500882812448	-0.3703652890641777
-0.4803890531249948	-0.37531241824216705
-0.4803280179687448	-0.38022427373556195
-0.4802669828124948	-0.38510889088704175
-0.4802059476562448	-0.3899295462060484
-0.4801449124999948	-0.3946541237803438
-0.4800838773437448	-0.39930661849457544
-0.4800228421874948	-0.40393734590366487
-0.4799618070312448	-0.40854580606413876
-0.4799007718749948	-0.4130724301536242
-0.4798397367187448	-0.4174830278775007
-0.4797787015624948	-0.42182508609332636
-0.4797176664062448	-0.4261629396323678
-0.4796566312499948	-0.43047827417252954
-0.4795955960937448	-0.43468784418805906
-0.4795345609374948	-0.4387643435068479
-0.4794735257812448	-0.44278356129301993
-0.4794124906249948	-0.44681693427710273
-0.4793514554687448	-0.45082038046853007
-0.4792904203124948	-0.454690492893079
-0.4792293851562448	-0.45841656794481134
-0.4791683499999948	-0.46210343724472586
-0.4791073148437448	-0.465820014666849
-0.4790462796874948	-0.4694914415072998
-0.4789852445312448	-0.47300176490578844
-0.4789242093749948	-0.47636534990401425
-0.4788631742187448	-0.479712061535192
-0.4788021390624948	-0.48309783934104117
-0.4787411039062448	-0.4864164941372319
-0.4786800687499948	-0.4895501292620273
-0.4786190335937448	-0.49254355138546807
-0.4785579984374948	-0.49554303593524973
-0.4784969632812448	-0.4985820246762569
-0.4784359281249948	-0.5015274919723581
-0.4783748929687448	-0.5042713973254537
-0.4783138578124948	-0.5068899092310181
-0.4782528226562448	-0.5095341987376606
-0.4781917874999948	-0.5122089227405788
-0.4781307523437448	-0.5147630060285108
-0.4780697171874948	-0.5171088489745673
-0.4780086820312448	-0.5193501524173549
-0.4779476468749948	-0.5216304773902076
-0.4778866117187448	-0.5239234355061907
-0.4778255765624948	-0.5260711327242749
-0.4777645414062448	-0.5280140109601933
-0.4777035062499948	-0.5298759707077549
-0.4776424710937448	-0.5317820604609951
-0.4775814359374948	-0.5336767911987659
-0.4775204007812448	-0.5354069704141026
-0.4774593656249948	-0.5369447025421938
-0.4773983304687448	-0.5384247801976274
-0.4773372953124948	-0.5399459227013697
-0.4772762601562448	-0.541428670694143
-0.4772152249999948	-0.5427342856859464
-0.4771541898437448	-0.5438662488161907
-0.4770931546874948	-0.5449609078894483
-0.4770321195312448	-0.5460866067271415
-0.4769710843749948	-0.5471469133412784
-0.4769100492187448	-0.5480245535622551
-0.4768490140624948	-0.5487509152586986
-0.4767879789062448	-0.5494557147488873
-0.4767269437499948	-0.5501765020398016
-0.4766659085937448	-0.5508074170907528
-0.4766048734374948	-0.5512565281963329
-0.4765438382812448	-0.5515777927997365
-0.4764828031249948	-0.5518881133163255
-0.4764217679687448	-0.5521964170795763
-0.4763607328124948	-0.5523943392620374
-0.4762996976562448	-0.5524164653210071
-0.4762386624999948	-0.5523332083254197
-0.4761776273437448	-0.5522446474725772
-0.4761165921874948	-0.5521351254799812
-0.4760555570312448	-0.5518995601033
-0.4759945218749948	-0.5514978999882364
-0.4759334867187448	-0.5510109076328831
-0.4758724515624948	-0.5505200124921986
-0.4758114164062448	-0.5499899421871718
-0.4757503812499948	-0.5493230927645603
-0.4756893460937448	-0.5485020093269359
-0.4756283109374948	-0.5476123079755216
-0.4755672757812448	-0.546716751578482
-0.4755062406249948	-0.5457658635440945
-0.4754452054687448	-0.5446722805514679
-0.4753841703124948	-0.5434372909090446
-0.4753231351562448	-0.5421467087746006
-0.4752620999999948	-0.540845926523692
-0.4752010648437448	-0.5394763973183276
-0.4751400296874948	-0.5379624369441444
-0.4750789945312448	-0.5363199448606566
-0.4750179593749948	-0.5346313760138868
-0.4749569242187448	-0.5329267591076456
-0.4748958890624948	-0.5311429191591678
-0.4748348539062448	-0.529216309087173
-0.4747738187499948	-0.5271734634048694
-0.4747127835937448	-0.5250909982601081
-0.4746517484374948	-0.5229860367713693
-0.4745907132812448	-0.5207943080786674
-0.4745296781249948	-0.5184639651927035
-0.4744686429687448	-0.5160287519963245
-0.4744076078124948	-0.5135580360655178
-0.4743465726562448	-0.5110584580851766
-0.4742855374999948	-0.5084673420195774
-0.4742245023437448	-0.5057437363668645
-0.4741634671874948	-0.5029255549876251
-0.4741024320312448	-0.5000739677654091
-0.4740413968749948	-0.49718736039667016
-0.4739803617187448	-0.4942065637575646
-0.4739193265624948	-0.49110051803164145
-0.4738582914062448	-0.48790927902966025
-0.4737972562499948	-0.48468576716974715
-0.4737362210937448	-0.4814218467826614
-0.4736751859374948	-0.478062855797558
-0.4736141507812448	-0.47458666788189596
-0.4735531156249948	-0.471033981674073
-0.4734920804687448	-0.4674493969810951
-0.4734310453124948	-0.46381952868574156
-0.4733700101562448	-0.4600949914661466
-0.4733089749999948	-0.4562618623417392
-0.4732479398437448	-0.4523604382448658
-0.4731869046874948	-0.44842726854310405
-0.4731258695312448	-0.4444448441341093
-0.4730648343749948	-0.4403691655696228
-0.4730037992187448	-0.4361934357563156
-0.4729427640624948	-0.4319570266557985
-0.4728817289062448	-0.4276891561224267
-0.4728206937499948	-0.4233689446537018
-0.4727596585937448	-0.4189575347978724
-0.4726986234374948	-0.41445440818717566
-0.4726375882812448	-0.40989770143814874
-0.4725765531249948	-0.4053100377435327
-0.4725155179687448	-0.40066804196147404
-0.4724544828124948	-0.3959378065451536
-0.4723934476562448	-0.39112420773313994
-0.4723324124999948	-0.38626391656417935
-0.4722713773437448	-0.38137354016266195
-0.4722103421874948	-0.37642757996237874
-0.4721493070312448	-0.3713967380432129
-0.4720882718749948	-0.36629066316497977
-0.4720272367187448	-0.3611442744616755
-0.4719662015624948	-0.3559684964414906
-0.4719051664062448	-0.3507363402347917
-0.4718441312499948	-0.34542334209053793
-0.4717830960937448	-0.3400435799067909
-0.4717220609374948	-0.33462999419847134
-0.4716610257812448	-0.32918814423808646
-0.4715999906249948	-0.32368987841451907
-0.4715389554687448	-0.3181152841549096
-0.4714779203124948	-0.312482184322581
-0.4714168851562448	-0.3068212336274911
-0.4713558499999948	-0.30113312826654987
-0.4712948148437448	-0.2953892766642786
-0.4712337796874948	-0.2895742261939991
-0.4711727445312448	-0.2837087540763326
-0.4711117093749948	-0.2778209769031242
-0.4710506742187448	-0.27190740086809817
-0.4709896390624948	-0.26593961790770726
-0.4709286039062448	-0.2599064423789794
-0.4708675687499948	-0.2538309138065433
-0.4708065335937448	-0.24773823733628997
-0.4707454984374948	-0.2416210957247357
-0.4706844632812448	-0.23545187448122135
-0.4706234281249948	-0.22922361348022233
-0.4705623929687448	-0.2229609213474319
-0.4705013578124948	-0.2166857402191391
-0.4704403226562448	-0.2103873841407341
-0.4703792874999948	-0.20403970047442727
-0.4703182523437448	-0.1976401407697568
-0.4702572171874948	-0.19121431959963162
-0.4701961820312448	-0.18478020075147647
-0.4701351468749948	-0.17832399106245353
-0.4700741117187448	-0.17182187105906374
-0.4700130765624948	-0.16527559799239275
-0.4699520414062448	-0.1587108814949018
-0.4698910062499948	-0.15214156080863836
-0.4698299710937448	-0.1455515026505592
-0.4697689359374948	-0.13891979018466594
-0.4697079007812448	-0.1322522023802587
-0.4696468656249948	-0.12557370192579342
-0.4695858304687448	-0.11889363254687779
-0.4695247953124948	-0.11219416899271323
