Time	Frequency
-0.5000507147187534	-0.5057621921762596
-0.4999896795625034	-0.5011810933058877
-0.4999286444062534	-0.4965056025857665
-0.4998676092500034	-0.4917366705696013
-0.4998065740937534	-0.48687528330688024
-0.4997455389375034	-0.4819223218960866
-0.4996845037812534	-0.47687863259584173
-0.4996234686250034	-0.47174516442729
-0.4995624334687534	-0.46652288148567894
-0.4995013983125034	-0.4612126952845775
-0.4994403631562534	-0.4558155852247854
-0.4993793280000034	-0.4503326264798368
-0.4993182928437534	-0.4447648771559285
-0.4992572576875034	-0.4391132959816695
-0.4991962225312534	-0.4333788492323432
-0.4991351873750034	-0.4275626465179207
-0.4990741522187534	-0.42166588295978324
-0.4990131170625034	-0.41568972399991727
-0.4989520819062534	-0.4096352212835844
-0.4988910467500034	-0.40350341062383294
-0.4988300115937534	-0.39729548020613337
-0.4987689764375034	-0.3910126409311402
-0.4987079412812534	-0.38465599860711547
-0.4986469061250034	-0.37822669581324353
-0.4985858709687534	-0.3717260222101297
-0.4985248358125034	-0.3651553565623332
-0.4984638006562534	-0.3585159263420529
-0.4984027655000034	-0.35180873331857015
-0.4983417303437534	-0.3450349946049183
-0.4982806951875034	-0.33819620128029365
-0.4982196600312534	-0.3312936054413393
-0.4981586248750034	-0.32432834552157
-0.4980975897187534	-0.3173018406297635
-0.4980365545625034	-0.31021554810282465
-0.4979755194062534	-0.30307072795640877
-0.4979144842500034	-0.2958686228690033
-0.4978534490937534	-0.28861059088007435
-0.4977924139375034	-0.28129804472591824
-0.4977313787812534	-0.27393237441604834
-0.4976703436250034	-0.2665149518934506
-0.4976093084687534	-0.25904722377849165
-0.4975482733125034	-0.2515306314292223
-0.4974872381562534	-0.24396649272460233
-0.4974262030000034	-0.23635624837847277
-0.4973651678437534	-0.22870151483589743
-0.4973041326875034	-0.22100376646102432
-0.4972430975312534	-0.2132642738304932
-0.4971820623750034	-0.2054843223474511
-0.4971210272187534	-0.19766543015445126
-0.4970599920625034	-0.18980923815892012
-0.4969989569062534	-0.1819172576945551
-0.4969379217500034	-0.1739909565285561
-0.4968768865937534	-0.16603186761919167
-0.4968158514375034	-0.15804153808363014
-0.4967548162812534	-0.15002153423099113
-0.4966937811250034	-0.14197342457076298
-0.4966327459687534	-0.13389870111809804
-0.4965717108125034	-0.12579872044298598
-0.4965106756562534	-0.11767481058330695
-0.4964496405000034	-0.10952853006541434
-0.4963886053437534	-0.10136165086429551
-0.4963275701875034	-0.0931758735958615
-0.4962665350312534	-0.08497273582541529
-0.4962054998750034	-0.07675370773833767
-0.4961444647187534	-0.06852032860930111
-0.4960834295625034	-0.06027423103328912
-0.4960223944062534	-0.0520170144115067
-0.4959613592500034	-0.04375025907160204
-0.4959003240937534	-0.03547554923651134
-0.4958392889375034	-0.027194405716476334
-0.4957782537812534	-0.018908340425818144
-0.4957172186250034	-0.010618894781421482
-0.4956561834687534	-0.0023276081003558093
-0.4955951483125034	0.005963923582534543
-0.4955341131562534	0.014254002151692934
-0.4954730780000034	0.022540975744596084
-0.4954120428437534	0.030823269886139263
-0.4953510076875034	0.03909927045472632
-0.4952899725312534	0.04736741355961895
-0.4952289373750034	0.05562620250272429
-0.4951679022187534	0.063874101948842
-0.4951068670625034	0.07210950499607202
-0.4950458319062534	0.08033077075134522
-0.4949847967500034	0.08853636174694529
-0.4949237615937534	0.09672476653777654
-0.4948627264375034	0.10489434676487633
-0.4948016912812534	0.11304346683517433
-0.4947406561250034	0.12117057843123653
-0.4946796209687534	0.12927411927348154
-0.4946185858125034	0.1373525368608141
-0.4945575506562534	0.14540433396098792
-0.4944965155000034	0.15342798048864634
-0.4944354803437534	0.16142195865684994
-0.4943744451875034	0.16938474313835275
-0.4943134100312534	0.17731474498091296
-0.4942523748750034	0.18521041971952665
-0.4941913397187534	0.19307026190877946
-0.4941303045625034	0.20089279389732945
-0.4940692694062534	0.20867649289802587
-0.4940082342500034	0.21641979480822313
-0.4939471990937534	0.22412127823488423
-0.4938861639375034	0.2317794908071568
-0.4938251287812534	0.23939281418210687
-0.4937640936250034	0.24695972596478383
-0.4937030584687534	0.25447883682782435
-0.4936420233125034	0.2619487803014077
-0.4935809881562534	0.2693682128317746
-0.4935199530000034	0.2767356863469787
-0.4934589178437534	0.28404968931015007
-0.4933978826875034	0.2913088020037712
-0.4933368475312534	0.29851160684386824
-0.4932758123750034	0.3056566750958838
-0.4932147772187534	0.31274260117575703
-0.4931537420625034	0.31976800199488475
-0.4930927069062534	0.32673159529510987
-0.4930316717500034	0.33363209619436535
-0.4929706365937534	0.34046812557233774
-0.4929096014375034	0.3472383235483697
-0.4928485662812534	0.3539413922225467
-0.4927875311250034	0.3605760735327703
-0.4927264959687534	0.3671410437779778
-0.4926654608125034	0.37363488680005247
-0.4926044256562534	0.3800563176348912
-0.4925433905000034	0.38640424366413667
-0.4924823553437534	0.3926775419101591
-0.4924213201875034	0.3988749508515641
-0.4923602850312534	0.4049952064300605
-0.4922992498750034	0.4110370715345599
-0.4922382147187534	0.41699929839592165
-0.4921771795625034	0.42288075601431013
-0.4921161444062534	0.4286803995996697
-0.4920551092500034	0.43439708868632393
-0.4919940740937534	0.44002964153376056
-0.4919330389375034	0.4455769825248649
-0.4918720037812534	0.4510380589038326
-0.4918109686250034	0.4564117734899033
-0.4917499334687534	0.4616970575384306
-0.4916888983125034	0.46689284129996417
-0.4916278631562534	0.4719980834965279
-0.4915668280000034	0.47701185384251593
-0.4915057928437534	0.4819332278615075
-0.4914447576875034	0.48676121458896554
-0.4913837225312534	0.4914948417392713
-0.4913226873750034	0.4961331695587614
-0.4912616522187534	0.5006752721803412
-0.4912006170625034	0.5051202609789254
-0.4911395819062534	0.5094672580984118
-0.4910785467500034	0.5137154014071618
-0.4910175115937534	0.517863847459889
-0.4909564764375034	0.5219117656575385
-0.4908954412812534	0.5258583758694223
-0.4908344061250034	0.5297028988296903
-0.4907733709687534	0.5334445394629035
-0.4907123358125034	0.5370825737945762
-0.4906513006562534	0.5406163298064693
-0.4905902655000034	0.5440451057268156
-0.4905292303437534	0.5473681803585578
-0.4904681951875034	0.5505848699800865
-0.4904071600312534	0.5536945339483167
-0.4903461248750034	0.5566965428863655
-0.4902850897187534	0.5595903005927488
-0.4902240545625034	0.5623752497632425
-0.4901630194062534	0.5650508211540235
-0.4901019842500034	0.5676164665861819
-0.4900409490937534	0.5700716907578005
-0.4899799139375034	0.5724159970524829
-0.4899188787812534	0.5746488951562031
-0.4898578436250034	0.57676993292768
-0.4897968084687534	0.5787786789824404
-0.4897357733125034	0.5806747311976039
-0.4896747381562534	0.5824577032641313
-0.4896137030000034	0.5841271952194699
-0.4895526678437534	0.5856828408677085
-0.4894916326875034	0.5871243381455459
-0.4894305975312534	0.588451408895959
-0.4893695623750034	0.589663770551129
-0.4893085272187534	0.590761142707942
-0.4892474920625034	0.5917432807380811
-0.4891864569062534	0.5926099944954479
-0.4891254217500034	0.5933611090546546
-0.4890643865937534	0.5939964429633358
-0.4890033514375034	0.5945158368746291
-0.4889423162812534	0.5949191611909237
-0.4888812811250034	0.5952063131538182
-0.4888202459687534	0.5953772171309196
-0.4887592108125034	0.5954318136314988
-0.4886981756562534	0.5953700664875401
-0.4886371405000034	0.5951919657639406
-0.4885761053437534	0.5948975217494935
-0.4885150701875034	0.5944867749768769
-0.4884540350312534	0.5939597785615773
-0.4883929998750034	0.5933166009404475
-0.4883319647187534	0.5925573555937976
-0.4882709295625034	0.5916821654518758
-0.4882098944062534	0.5906911648836259
-0.4881488592500034	0.5895845291558072
-0.4880878240937534	0.5883624291084628
-0.4880267889375034	0.5870250400444579
-0.4879657537812534	0.5855726115343804
-0.4879047186250034	0.5840054598352008
-0.4878436834687534	0.5823238809132422
-0.4877826483125034	0.5805281310846702
-0.4877216131562534	0.5786185160780896
-0.4876605780000034	0.5765953866173985
-0.4875995428437534	0.5744591027853574
-0.4875385076875034	0.5722100899874282
-0.4874774725312534	0.5698487719016749
-0.4874164373750034	0.5673755354878758
-0.4873554022187534	0.564790854093727
-0.4872943670625034	0.5620952392843073
-0.4872333319062534	0.5592891704068895
-0.4871722967500034	0.5563731737148337
-0.4871112615937534	0.5533477868208727
-0.4870502264375034	0.550213536903022
-0.4869891912812534	0.5469710436894544
-0.4869281561250034	0.5436209271923832
-0.4868671209687534	0.5401637143111476
-0.4868060858125034	0.5366000619973367
-0.4867450506562534	0.5329307691194237
-0.4866840155000034	0.5291565064414304
-0.4866229803437534	0.5252779071225446
-0.4865619451875034	0.5212957466276572
-0.4865009100312534	0.5172108028946596
-0.4864398748750034	0.5130237826237593
-0.4863788397187534	0.5087354466018019
-0.4863178045625034	0.5043466564071544
-0.4862567694062534	0.49985827884661543
-0.4861957342500034	0.49527115983202774
-0.4861346990937534	0.49058621308575123
-0.4860736639375034	0.48580433895740505
-0.4860126287812534	0.4809263398315765
-0.4859515936250034	0.47595311472497215
-0.4858905584687534	0.470885669730466
-0.4858295233125034	0.46572496585601314
-0.4857684881562534	0.46047198681086615
-0.4857074530000034	0.45512773279886937
-0.4856464178437534	0.44969319186259255
-0.4855853826875034	0.44416939394384913
-0.4855243475312534	0.43855738930338894
-0.4854633123750034	0.43285830583225826
-0.4854022772187534	0.4270733245325564
-0.4853412420625034	0.4212035435742987
-0.4852802069062534	0.415250042034049
-0.4852191717500034	0.40921393199608685
-0.4851581365937534	0.4030963170411313
-0.4850971014375034	0.39689837992551885
-0.4850360662812534	0.39062138899445503
-0.4849750311250034	0.3842665546937625
-0.4849139959687534	0.37783499554152616
-0.4848529608125034	0.3713278737664034
-0.4847919256562534	0.36474649897632133
-0.4847308905000034	0.3580922643963606
-0.4846698553437534	0.35136653477553315
-0.4846088201875034	0.3445705557286475
-0.4845477850312534	0.3377055341028502
-0.4844867498750034	0.3307727722024287
-0.4844257147187534	0.32377362485704275
-0.4843646795625034	0.31670948064018717
-0.4843036444062534	0.3095817052465698
-0.4842426092500034	0.3023916073089003
-0.4841815740937534	0.29514055113546034
-0.4841205389375034	0.2878299516781688
-0.4840595037812534	0.28046131007610936
-0.4839984686250034	0.2730361415340077
-0.4839374334687534	0.26555578884708203
-0.4838763983125034	0.2580216802589806
-0.4838153631562534	0.25043535119632987
-0.4837543280000034	0.24279816525569797
-0.4836932928437534	0.23511155334435713
-0.4836322576875034	0.2273771154164356
-0.4835712225312534	0.2195963954199958
-0.4835101873750034	0.21177084761509865
-0.4834491522187534	0.2039018926388836
-0.4833881170625034	0.19599106887495057
-0.4833270819062534	0.1880400308701916
-0.4832660467500034	0.18005033040957072
-0.4832050115937534	0.17202343590839025
-0.4831439764375034	0.1639608820586044
-0.4830829412812534	0.15586432632584088
-0.4830219061250034	0.14773546688707492
-0.4829608709687534	0.13957582346718034
-0.4828998358125034	0.1313868177265081
-0.4828388006562534	0.12317005906579767
-0.4827777655000034	0.11492722802752721
-0.4827167303437534	0.10665990040573002
-0.4826556951875034	0.0983697303350367
-0.4825946600312534	0.09005843839167316
-0.4825336248750034	0.08172755519737462
-0.4824725897187534	0.0733785361319719
-0.4824115545625034	0.06501302722728025
-0.4823505194062534	0.05663283649057161
-0.4822894842500034	0.04823973360063065
-0.4822284490937534	0.03983529049173563
-0.4821674139375034	0.031420950299494606
-0.4821063787812534	0.02299833148170287
-0.4820453436250034	0.014569318164604973
-0.4819843084687534	0.006135684139269981
-0.4819232733125034	-0.002301100588283488
-0.4818622381562534	-0.010739602249736028
-0.4818012030000034	-0.019178210943666996
-0.4817401678437534	-0.027615123738551666
-0.4816791326875034	-0.03604850855468291
-0.4816180975312534	-0.04447666173377529
-0.4815570623750034	-0.05289796849480614
-0.4814960272187534	-0.06131087491263166
-0.4814349920625034	-0.06971380231668776
-0.4813739569062534	-0.07810505879816487
-0.4813129217500034	-0.08648294442113326
-0.4812518865937534	-0.094845821689293
-0.4811908514375034	-0.10319208807357128
-0.4811298162812534	-0.11152014011032278
-0.4810687811250034	-0.11982827845665521
-0.4810077459687534	-0.1281147242932456
-0.4809467108125034	-0.13637784349308074
-0.4808856756562534	-0.14461615715179152
-0.4808246405000034	-0.15282813112672308
-0.4807636053437534	-0.1610121067399766
-0.4807025701875034	-0.16916634080368717
-0.4806415350312534	-0.17728915712818577
-0.4805804998750034	-0.18537899386979476
-0.4805194647187534	-0.19343426325839838
-0.4804584295625034	-0.20145337575087027
-0.4803973944062534	-0.20943484241858942
-0.4803363592500034	-0.21737721321795878
-0.4802753240937534	-0.2252788907987366
-0.4802142889375034	-0.23313812235625841
-0.4801532537812534	-0.24095323498581211
-0.4800922186250034	-0.24872270999061108
-0.4800311834687534	-0.2564450912442247
-0.4799701483125034	-0.26411889681613143
-0.4799091131562534	-0.2717425863640117
-0.4798480780000034	-0.27931465185039894
-0.4797870428437534	-0.2868336083192684
-0.4797260076875034	-0.2942979093269589
-0.4796649725312534	-0.30170600903332795
-0.4796039373750034	-0.3090564646539961
-0.4795429022187534	-0.3163478896754382
-0.4794818670625034	-0.32357882702880936
-0.4794208319062534	-0.33074778892239837
-0.4793597967500034	-0.3378533763531021
-0.4792987615937534	-0.34489422428934247
-0.4792377264375034	-0.351868884925898
-0.4791766912812534	-0.35877588165768326
-0.4791156561250034	-0.36561381427705836
-0.4790546209687534	-0.37238133780311666
-0.4789935858125034	-0.3790771131305477
-0.4789325506562534	-0.3856998082746933
-0.4788715155000034	-0.39224811382468266
-0.4788104803437534	-0.3987207423419616
-0.4787494451875034	-0.4051164047952459
-0.4786884100312534	-0.4114338011493226
-0.4786273748750034	-0.4176716321805164
-0.4785663397187534	-0.4238286103401977
-0.4785053045625034	-0.42990351896932766
-0.4784442694062534	-0.43589521429352923
-0.4783832342500034	-0.44180247447679305
-0.4783221990937534	-0.4476240197336466
-0.4782611639375034	-0.45335866046465984
-0.4782001287812534	-0.45900526615161374
-0.4781390936250034	-0.4645627490627883
-0.4780780584687534	-0.4700300075499097
-0.4780170233125034	-0.47540583848899803
-0.4779559881562534	-0.4806890792449676
-0.4778949530000034	-0.4858787119305487
-0.4778339178437534	-0.4909737939635727
-0.4777728826875034	-0.49597333549961753
-0.4777118475312534	-0.5008762579548477
-0.4776508123750034	-0.5056815194671131
-0.4775897772187534	-0.510388145785755
-0.4775287420625034	-0.5149951592530341
-0.4774677069062534	-0.5195015976199306
-0.4774066717500034	-0.5239065468680464
-0.4773456365937534	-0.5282091169180826
-0.4772846014375034	-0.5324084127068317
-0.4772235662812534	-0.5365035688612101
-0.4771625311250034	-0.5404937818217828
-0.4771014959687534	-0.5443782616880312
-0.4770404608125034	-0.5481561799212513
-0.4769794256562534	-0.5518266966946817
-0.4769183905000034	-0.5553890281393766
-0.4768573553437534	-0.5588424739490012
-0.4767963201875034	-0.5621863731531932
-0.4767352850312534	-0.5654200204395037
-0.4766742498750034	-0.5685426798157268
-0.4766132147187534	-0.5715536869167416
-0.4765521795625034	-0.5744524390864865
-0.4764911444062534	-0.5772383207866486
-0.4764301092500034	-0.5799107257856843
-0.4763690740937534	-0.5824690971654636
-0.4763080389375034	-0.5849129209783794
-0.4762470037812534	-0.5872416842973187
-0.4761859686250034	-0.5894548468365876
-0.4761249334687534	-0.5915519140284282
-0.4760638983125034	-0.5935324545324354
-0.4760028631562534	-0.5953960244790304
-0.4759418280000034	-0.5971422043473706
-0.4758807928437534	-0.598770634710455
-0.4758197576875034	-0.600280957793466
-0.4757587225312534	-0.6016728161372504
-0.4756976873750034	-0.6029458849571703
-0.4756366522187534	-0.6040998730727045
-0.4755756170625034	-0.6051345164567912
-0.4755145819062534	-0.6060495653665445
-0.4754535467500034	-0.6068447859372691
-0.4753925115937534	-0.6075199822932061
-0.4753314764375034	-0.6080749897893548
-0.4752704412812534	-0.6085096454834225
-0.4752094061250034	-0.6088238049484346
-0.4751483709687534	-0.6090173750568687
-0.4750873358125034	-0.609090291535479
-0.4750263006562534	-0.6090424906513101
-0.4749652655000034	-0.6088739287309112
-0.4749042303437534	-0.6085845965672282
-0.4748431951875034	-0.6081744943068644
-0.4747821600312534	-0.6076436422804125
-0.4747211248750034	-0.6069921089398022
-0.4746600897187534	-0.6062199818387403
-0.4745990545625034	-0.6053273741152134
-0.4745380194062534	-0.6043144410988944
-0.4744769842500034	-0.6031813375463871
-0.4744159490937534	-0.6019282371182213
-0.4743549139375034	-0.6005553572318807
-0.4742938787812534	-0.5990628931441442
-0.4742328436250034	-0.5974510363490687
-0.4741718084687534	-0.5957200712275017
-0.4741107733125034	-0.5938703525007393
-0.4740497381562534	-0.5919022331284111
-0.4739887030000034	-0.5898160473692787
-0.4739276678437534	-0.5876121347644524
-0.4738666326875034	-0.5852908799942106
-0.4738055975312534	-0.582852711902087
-0.4737445623750034	-0.5802980788475279
-0.4736835272187534	-0.5776274107008091
-0.4736224920625034	-0.5748411482982652
-0.4735614569062534	-0.5719398361226478
-0.4735004217500034	-0.5689240666717966
-0.4734393865937534	-0.5657943886741701
-0.4733783514375034	-0.5625513276767584
-0.4733173162812534	-0.5591954443879057
-0.4732562811250034	-0.555727379187913
-0.4731952459687534	-0.5521477950283925
-0.4731342108125034	-0.5484573574629554
-0.4730731756562534	-0.5446567930282222
-0.4730121405000034	-0.5407468067869011
-0.4729511053437534	-0.5367280582109799
-0.4728900701875034	-0.5326013148499271
-0.4728290350312534	-0.5283674338288723
-0.4727679998750034	-0.5240271951474297
-0.4727069647187534	-0.519581342125616
-0.4726459295625034	-0.5150307298137083
-0.4725848944062534	-0.5103762699360777
-0.4725238592500034	-0.5056188095584611
-0.4724628240937534	-0.5007591842655275
-0.4724017889375034	-0.4957982945496022
-0.4723407537812534	-0.49073713624007537
-0.4722797186250034	-0.48557677906595464
-0.4722186834687534	-0.48031819125571906
-0.4721576483125034	-0.4749623061024963
-0.4720966131562534	-0.46951018185079885
-0.4720355780000034	-0.46396283911381864
-0.4719745428437534	-0.45832131263055137
-0.4719135076875034	-0.45258673801822624
-0.4718524725312534	-0.4467601789028709
-0.4717914373750034	-0.4408427152430415
-0.4717304022187534	-0.4348355063734747
-0.4716693670625034	-0.428739636967407
-0.4716083319062534	-0.42255623764842776
-0.4715472967500034	-0.41628658351902204
-0.4714862615937534	-0.4099319715876098
-0.4714252264375034	-0.403493694295374
-0.4713641912812534	-0.396972970072962
-0.4713031561250034	-0.39037096380926206
-0.4712421209687534	-0.3836889043193351
-0.4711810858125034	-0.3769280285462541
-0.4711200506562534	-0.3700896649891461
-0.4710590155000034	-0.36317529100479
-0.4709979803437534	-0.3561862769586199
-0.4709369451875034	-0.349123823474807
-0.4708759100312534	-0.3419891874428571
-0.4708148748750034	-0.3347837913147039
-0.4707538397187534	-0.32750913142770693
-0.4706928045625034	-0.32016672085392434
-0.4706317694062534	-0.31275805326779776
-0.4705707342500034	-0.30528444420252027
-0.4705096990937534	-0.2977471652582117
-0.4704486639375034	-0.2901477281638386
-0.4703876287812534	-0.2824877454530123
-0.4703265936250034	-0.2747687655154441
-0.4702655584687534	-0.266992284646496
-0.4702045233125034	-0.25915972318283054
-0.4701434881562534	-0.2512725691458938
-0.4700824530000034	-0.24333251043349408
-0.4700214178437534	-0.23534116216867984
-0.4699603826875034	-0.22729988869259257
-0.4698993475312534	-0.21921013481240428
-0.4698383123750034	-0.21107356636221183
-0.4697772772187534	-0.2028918025567694
-0.4697162420625034	-0.19466642823055866
-0.4696552069062534	-0.18639917729742486
-0.4695941717500034	-0.1780917696418849
