Time	Frequency
-0.5000081008437576	-0.6090030962803444
-0.4999470656875076	-0.6063487644693123
-0.4998860305312576	-0.6035668346354092
-0.4998249953750076	-0.6006645151851251
-0.4997639602187576	-0.5976405937034742
-0.4997029250625076	-0.5944883234057551
-0.4996418899062576	-0.5912067501547584
-0.4995808547500076	-0.5878030693627683
-0.4995198195937576	-0.5842825651577559
-0.4994587844375076	-0.5806416271068604
-0.4993977492812576	-0.5768744164715306
-0.4993367141250076	-0.5729828555351835
-0.4992756789687576	-0.5689747356626581
-0.4992146438125076	-0.5648530080525725
-0.4991536086562576	-0.5606126381224247
-0.4990925735000076	-0.5562496614880228
-0.4990315383437576	-0.5517685020738672
-0.4989705031875076	-0.5471764624414085
-0.4989094680312576	-0.5424739568319034
-0.4988484328750076	-0.5376554174556842
-0.4987873977187576	-0.532719311577287
-0.4987263625625076	-0.527671884187921
-0.4986653274062576	-0.522519085274668
-0.4986042922500076	-0.5172591324075152
-0.4985432570937576	-0.5118869443819293
-0.4984822219375076	-0.5064035608444651
-0.4984211867812576	-0.5008161924195368
-0.4983601516250076	-0.49512890503742396
-0.4982991164687576	-0.48933822361781587
-0.4982380813125076	-0.4834403001566278
-0.4981770461562576	-0.4774385820075257
-0.4981160110000076	-0.4713403099370767
-0.4980549758437576	-0.46514732522966545
-0.4979939406875076	-0.45885525451249876
-0.4979329055312576	-0.4524621921190009
-0.4978718703750076	-0.4459735405926063
-0.4978108352187576	-0.439395727236192
-0.4977498000625076	-0.43272850361347465
-0.4976887649062576	-0.425967524800838
-0.4976277297500076	-0.41911310110146827
-0.4975666945937576	-0.4121717398162375
-0.4975056594375076	-0.4051483228312908
-0.4974446242812576	-0.39804095308352355
-0.4973835891250076	-0.3908461929484962
-0.4973225539687576	-0.3835665714346587
-0.4972615188125076	-0.3762089375094106
-0.4972004836562576	-0.3687763073357621
-0.4971394485000076	-0.3612656619606378
-0.4970784133437576	-0.35367493076367584
-0.4970173781875076	-0.34600850572474584
-0.4969563430312576	-0.3382729284197661
-0.4968953078750076	-0.3304693231960631
-0.4968342727187576	-0.32259417546446556
-0.4967732375625076	-0.31464724388905013
-0.4967122024062576	-0.30663442428698584
-0.4966511672500076	-0.2985612756644624
-0.4965901320937576	-0.2904271944534539
-0.4965290969375076	-0.2822289893571804
-0.4964680617812576	-0.2739682695358987
-0.4964070266250076	-0.26565149762087514
-0.4963459914687576	-0.2572827964499633
-0.4962849563125076	-0.24886041465189676
-0.4962239211562576	-0.2403821169309773
-0.4961628860000076	-0.23185130323203854
-0.4961018508437576	-0.2232744850515508
-0.4960408156875076	-0.21465399001391117
-0.4959797805312576	-0.2059872029457055
-0.4959187453750076	-0.19727340722895734
-0.4958577102187576	-0.18851763749266437
-0.4957966750625076	-0.1797257912169372
-0.4957356399062576	-0.17089849676143767
-0.4956746047500076	-0.16203303944375158
-0.4956135695937576	-0.15313037154670917
-0.4955525344375076	-0.14419642288906212
-0.4954914992812576	-0.13523580871530988
-0.4954304641250076	-0.12624768738016984
-0.4953694289687576	-0.11722999708385104
-0.4953083938125076	-0.1081855283409545
-0.4952473586562576	-0.09912061561235269
-0.4951863235000076	-0.09003839507198375
-0.4951252883437576	-0.08093689917990474
-0.4950642531875076	-0.07181501788642473
-0.4950032180312576	-0.06267718451624556
-0.4949421828750076	-0.05352950831160447
-0.4948811477187576	-0.04437332046084376
-0.4948201125625076	-0.03520606551004524
-0.4947590774062576	-0.026028191215627206
-0.4946980422500076	-0.016845520456042335
-0.4946370070937576	-0.007663389295349041
-0.4945759719375076	0.0015185502861864684
-0.4945149367812576	0.010702829109452684
-0.4944539016250076	0.019887304974667192
-0.4943928664687576	0.02906548577239254
-0.4943318313125076	0.03823350593949795
-0.4942707961562576	0.047393073038204184
-0.4942097610000076	0.056545855911586757
-0.4941487258437576	0.06568788285914663
-0.4940876906875076	0.0748125889269283
-0.4940266555312576	0.08391793409634918
-0.4939656203750076	0.09300667700398693
-0.4939045852187576	0.10207921541497926
-0.4938435500625076	0.1111298931116748
-0.4937825149062576	0.12015260420665431
-0.4937214797500076	0.12914724977548384
-0.4936604445937576	0.1381170260763945
-0.4935994094375076	0.14706051019157973
-0.4935383742812576	0.1559708102690581
-0.4934773391250076	0.16484328934203699
-0.4934163039687576	0.17367990364192468
-0.4933552688125076	0.18248329773322633
-0.4932942336562576	0.19124971434802238
-0.4932331985000076	0.1999717990115031
-0.4931721633437576	0.2086471246099333
-0.4931111281875076	0.21727919394281134
-0.4930500930312576	0.22586915371138194
-0.4929890578750076	0.23441098624269635
-0.4929280227187576	0.2428978617723263
-0.4928669875625076	0.25133001250306874
-0.4928059524062576	0.2597117675944431
-0.4927449172500076	0.2680420311742936
-0.4926838820937576	0.27631295720609705
-0.4926228469375076	0.28451921691019616
-0.4925618117812576	0.292663660791067
-0.4925007766250076	0.3007503635888398
-0.4924397414687576	0.30877557653695215
-0.4923787063125076	0.31673069353336913
-0.4923176711562576	0.3246129205629522
-0.4922566360000076	0.3324271451063347
-0.4921956008437576	0.34017581181422174
-0.4921345656875076	0.3478523227141933
-0.4920735305312576	0.3554484551682288
-0.4920124953750076	0.3629646510952461
-0.4919514602187576	0.370407082867568
-0.4918904250625076	0.3777755835437938
-0.4918293899062576	0.38506111334148846
-0.4917683547500076	0.392257169744838
-0.4917073195937576	0.3993677357765742
-0.4916462844375076	0.4063990306854117
-0.4915852492812576	0.41334733913113414
-0.4915242141250076	0.42020201390337675
-0.4914631789687576	0.42695960038271846
-0.4914021438125076	0.4336272687885501
-0.4913411086562576	0.44020969421273615
-0.4912800735000076	0.44669931219842535
-0.4912190383437576	0.4530854199905682
-0.4911580031875076	0.45936866420841366
-0.4910969680312576	0.46555838835874985
-0.4910359328750076	0.4716562112713272
-0.4909748977187576	0.47765100285072537
-0.4909138625625076	0.4835337128454278
-0.4908528274062576	0.4893096775268929
-0.4907917922500076	0.49498892350506185
-0.4907307570937576	0.5005686734051007
-0.4906697219375076	0.5060351355751624
-0.4906086867812576	0.511382654282428
-0.4905476516250076	0.5166210764548593
-0.4904866164687576	0.5217593004554653
-0.4904255813125076	0.5267895826617979
-0.4903645461562576	0.5316970955296644
-0.4903035110000076	0.53648101498907
-0.4902424758437576	0.5411548361153974
-0.4901814406875076	0.5457244206863474
-0.4901204055312576	0.5501768823344534
-0.4900593703750076	0.5544981587018005
-0.4899983352187576	0.5586933045467228
-0.4899373000625076	0.5627780766762571
-0.4898762649062576	0.5667535632999297
-0.4898152297500076	0.570602421904728
-0.4897541945937576	0.5743135312453544
-0.4896931594375076	0.5778982227195001
-0.4896321242812576	0.5813725772341138
-0.4895710891250076	0.5847315452458449
-0.4895100539687576	0.5879545216552394
-0.4894490188125076	0.591035302890564
-0.4893879836562576	0.5939913272822185
-0.4893269485000076	0.5968368631113464
-0.4892659133437576	0.5995597509568216
-0.4892048781875076	0.6021378580675115
-0.4891438430312576	0.604571872818081
-0.4890828078750076	0.606884559689296
-0.4890217727187576	0.6090858687685762
-0.4889607375625076	0.6111560604340007
-0.4888997024062576	0.6130738731273857
-0.4888386672500076	0.6148486069991707
-0.4887776320937576	0.6165067593144764
-0.4887165969375076	0.6180513763432777
-0.4886555617812576	0.6194554499860158
-0.4885945266250076	0.6207014606156097
-0.4885334914687576	0.6218085308809768
-0.4884724563125076	0.622804524736663
-0.4884114211562576	0.6236830448514703
-0.4883503860000076	0.6244109382656928
-0.4882893508437576	0.6249777001162462
-0.4882283156875076	0.6254128277615127
-0.4881672805312576	0.6257423437975782
-0.4881062453750076	0.6259481144735073
-0.4880452102187576	0.6259930963215896
-0.4879841750625076	0.6258774522350437
-0.4879231399062576	0.6256405576577899
-0.4878621047500076	0.6253024563709365
-0.4878010695937576	0.6248316729689979
-0.4877400344375076	0.6241908329138769
-0.4876789992812576	0.6233942760649258
-0.4876179641250076	0.6224892702087446
-0.4875569289687576	0.6214851850170622
-0.4874958938125076	0.6203369354737671
-0.4874348586562576	0.6190116100648771
-0.4873738235000076	0.6175404008379523
-0.4873127883437576	0.6159747413093097
-0.4872517531875076	0.6143086464372272
-0.4871907180312576	0.6124850664995865
-0.4871296828750076	0.6104813201749694
-0.4870686477187576	0.6083465160032461
-0.4870076125625076	0.6061306752793659
-0.4869465774062576	0.6038086469695543
-0.4868855422500076	0.6013154633991437
-0.4868245070937576	0.5986446080028789
-0.4867634719375076	0.5958616602130343
-0.4867024367812576	0.5930083474046999
-0.4866414016250076	0.5900386937484033
-0.4865803664687576	0.5868862251297811
-0.4865193313125076	0.5835651862716745
-0.4864582961562576	0.5801529494247587
-0.4863972610000076	0.5766760106564985
-0.4863362258437576	0.5730693808303785
-0.4862751906875076	0.5692732244306203
-0.4862141555312576	0.5653243548107864
-0.4861531203750076	0.5613042230616319
-0.4860920852187576	0.5572187235852488
-0.4860310500625076	0.5529894786016982
-0.4859700149062576	0.5485713573660236
-0.4859089797500076	0.5440214539125859
-0.4858479445937576	0.5394158867463081
-0.4857869094375076	0.5347380465283359
-0.4857258742812576	0.5299049750817276
-0.4856648391250076	0.5248922564394168
-0.4856038039687576	0.5197711116329319
-0.4855427688125076	0.5146034717246918
-0.4854817336562576	0.5093524043571791
-0.4854206985000076	0.5039401874474085
-0.4853596633437576	0.4983652807742408
-0.4852986281875076	0.4927041869034851
-0.4852375930312576	0.4869985088996153
-0.4851765578750076	0.4811969556094964
-0.4851155227187576	0.47523575412492647
-0.4850544875625076	0.46913427922636375
-0.4849934524062576	0.4629649665398857
-0.4849324172500076	0.45674694256644643
-0.4848713820937576	0.4504226784469635
-0.4848103469375076	0.4439479065863046
-0.4847493117812576	0.43735747629104327
-0.4846882766250076	0.4307120350539571
-0.4846272414687576	0.4240101109724681
-0.4845662063125076	0.4171962182854319
-0.4845051711562576	0.41024738597033994
-0.4844441360000076	0.40320666426331675
-0.4843831008437576	0.396117965518984
-0.4843220656875076	0.3889640660911317
-0.4842610305312576	0.38169839198892175
-0.4841999953750076	0.374317609344589
-0.4841389602187576	0.3668656324116447
-0.4840779250625076	0.3593679744898958
-0.4840168899062576	0.35179801583378156
-0.4839558547500076	0.3441225942436176
-0.4838948195937576	0.33635384779047306
-0.4838337844375076	0.32853023057881214
-0.4837727492812576	0.3206599988566969
-0.4837117141250076	0.31271375011170316
-0.4836506789687576	0.30467364413152437
-0.4835896438125076	0.296561851653291
-0.4835286086562576	0.28840701360281995
-0.4834675735000076	0.28020331594377884
-0.4834065383437576	0.27192430837673176
-0.4833455031875076	0.2635670192478247
-0.4832844680312576	0.25515774243124095
-0.4832234328750076	0.24671300629788367
-0.4831623977187576	0.2382175938440681
-0.4831013625625076	0.22965228357258138
-0.4830403274062576	0.221026520069422
-0.4829792922500076	0.2123656361418125
-0.4829182570937576	0.20367395262059626
-0.4828572219375076	0.19493154762985523
-0.4827961867812576	0.1861288200860021
-0.4827351516250076	0.17728430037555273
-0.4826741164687576	0.16841832363531514
-0.4826130813125076	0.1595242129794037
-0.4825520461562576	0.15058184483351897
-0.4824910110000076	0.14159211385941875
-0.4824299758437576	0.13257863646275428
-0.4823689406875076	0.12355419817577606
-0.4823079055312576	0.11450391340499619
-0.4822468703750076	0.10541111078308016
-0.4821858352187576	0.0962861421661512
-0.4821248000625076	0.08715374400592454
-0.4820637649062576	0.07801815546211759
-0.4820027297500076	0.06885945343160262
-0.4819416945937576	0.05966693807369161
-0.4818806594375076	0.050458676642267004
-0.4818196242812576	0.041257267231797935
-0.4817585891250076	0.0320585787187195
-0.4816975539687576	0.02284093187465275
-0.4816365188125076	0.013600824990289025
-0.4815754836562576	0.004361266238342083
-0.4815144485000076	-0.0048597255543264125
-0.4814534133437576	-0.014073033721247517
-0.4813923781875076	-0.023299015416244122
-0.4813313430312576	-0.03253405916120001
-0.4812703078750076	-0.04175319232955732
-0.4812092727187576	-0.050944454860918496
-0.4811482375625076	-0.06012341706953969
-0.4810872024062576	-0.06930663867623095
-0.4810261672500076	-0.07848420550873604
-0.4809651320937576	-0.08763193806232865
-0.4809040969375076	-0.0967443465739524
-0.4808430617812576	-0.10583923487717949
-0.4807820266250076	-0.11492790273969469
-0.4807209914687576	-0.12399584379318013
-0.4806599563125076	-0.1330220287029886
-0.4805989211562576	-0.1420071091681745
-0.4805378860000076	-0.1509686968629406
-0.4804768508437576	-0.15991185116204826
-0.4804158156875076	-0.1688192426819589
-0.4803547805312576	-0.17767465981508107
-0.4802937453750076	-0.186483829162689
-0.4802327102187576	-0.19526212873739265
-0.4801716750625076	-0.20400873660300586
-0.4801106399062576	-0.21270578311186505
-0.4800496047500076	-0.22134262365736498
-0.4799885695937576	-0.2299283177832172
-0.4799275344375076	-0.23847444166741988
-0.4798664992812576	-0.246975060877435
-0.4798054641250076	-0.25541361489484843
-0.4797444289687576	-0.26378515399403557
-0.4796833938125076	-0.27210025589075143
-0.4796223586562576	-0.280365793617417
-0.4795613235000076	-0.2885722133650642
-0.4795002883437576	-0.29670586233437424
-0.4794392531875076	-0.304766827116306
-0.4793782180312576	-0.3127654095555848
-0.4793171828750076	-0.32070351145252735
-0.4792561477187576	-0.3285695324583739
-0.4791951125625076	-0.33635377083578816
-0.4791340774062576	-0.3440602414864031
-0.4790730422500076	-0.3516973906158366
-0.4790120070937576	-0.3592626530131628
-0.4789509719375076	-0.36674426828354023
-0.4788899367812576	-0.37413683940274495
-0.4788289016250076	-0.3814466529997098
-0.4787678664687576	-0.38867916068126285
-0.4787068313125076	-0.395828291637362
-0.4786457961562576	-0.40288367975963635
-0.4785847610000076	-0.4098441055641276
-0.4785237258437576	-0.4167166230168516
-0.4784626906875076	-0.423503221593482
-0.4784016555312576	-0.4301956041685652
-0.4783406203750076	-0.43678580197176414
-0.4782795852187576	-0.44327603692066536
-0.4782185500625076	-0.4496727949249349
-0.4781575149062576	-0.4559745859843531
-0.4780964797500076	-0.46217223097963006
-0.4780354445937576	-0.4682608966177906
-0.4779744094375076	-0.4742452122542607
-0.4779133742812576	-0.4801298591077701
-0.4778523391250076	-0.48591037492386374
-0.4777913039687576	-0.4915781526865342
-0.4777302688125076	-0.4971316594447626
-0.4776692336562576	-0.5025766935379851
-0.4776081985000076	-0.5079154974880308
-0.4775471633437576	-0.5131414831091703
-0.4774861281875076	-0.5182475541173656
-0.4774250930312576	-0.5232351451319288
-0.4773640578750076	-0.5281101514203752
-0.4773030227187576	-0.5328721430835404
-0.4772419875625076	-0.5375134195475426
-0.4771809524062576	-0.5420291815783103
-0.4771199172500076	-0.5464231655350015
-0.4770588820937576	-0.5507002685249784
-0.4769978469375076	-0.5548575670533052
-0.4769368117812576	-0.5588873818903781
-0.4768757766250076	-0.562787555792595
-0.4768147414687576	-0.5665632282232657
-0.4767537063125076	-0.570217551532066
-0.4766926711562576	-0.5737456141626209
-0.4766316360000076	-0.5771407292329624
-0.4765706008437576	-0.5804033703820434
-0.4765095656875076	-0.5835391599649197
-0.4764485305312576	-0.5865490969152055
-0.4763874953750076	-0.5894269828795023
-0.4763264602187576	-0.5921678763683339
-0.4762654250625076	-0.5947745594942178
-0.4762043899062576	-0.5972522081180994
-0.4761433547500076	-0.5995995446405253
-0.4760823195937576	-0.601809975413676
-0.4760212844375076	-0.6038808355250217
-0.4759602492812576	-0.6058165698532845
-0.4758992141250076	-0.6076211197475987
-0.4758381789687576	-0.6092912430120598
-0.4757771438125076	-0.6108208730867273
-0.4757161086562576	-0.6122097261266097
-0.4756550735000076	-0.6134630429957397
-0.4755940383437576	-0.6145830174214886
-0.4755330031875076	-0.6155650515073916
-0.4754719680312576	-0.6164044138334013
-0.4754109328750076	-0.6171030224312856
-0.4753498977187576	-0.6176660761468182
-0.4752888625625076	-0.6180938022829309
-0.4752278274062576	-0.6183809140378439
-0.4751667922500076	-0.6185244961621743
-0.4751057570937576	-0.6185282397442656
-0.4750447219375076	-0.6183966474731968
-0.4749836867812576	-0.6181281095742032
-0.4749226516250076	-0.6177173817185493
-0.4748616164687576	-0.6171636249165435
-0.4748005813125076	-0.6164717075208026
-0.4747395461562576	-0.6156448474002635
-0.4746785110000076	-0.6146799005936221
-0.4746174758437576	-0.6135724205758379
-0.4745564406875076	-0.6123236671169897
-0.4744954055312576	-0.610938915228249
-0.4744343703750076	-0.6094197622977752
-0.4743733352187576	-0.6077621670168033
-0.4743123000625076	-0.605963093236066
-0.4742512649062576	-0.6040255874381871
-0.4741902297500076	-0.6019546231101848
-0.4741291945937576	-0.5997501007686868
-0.4740681594375076	-0.5974076786839364
-0.4740071242812576	-0.594926104767336
-0.4739460891250076	-0.5923097880498733
-0.4738850539687576	-0.5895627675244648
-0.4738240188125076	-0.5866833920156317
-0.4737629836562576	-0.5836677678194191
-0.4737019485000076	-0.580516610596178
-0.4736409133437576	-0.5772350361811819
-0.4735798781875076	-0.5738256967825417
-0.4735188430312576	-0.5702858126983271
-0.4734578078750076	-0.5666125636412143
-0.4733967727187576	-0.5628085289711189
-0.4733357375625076	-0.5588789023258078
-0.4732747024062576	-0.5548247661069241
-0.4732136672500076	-0.550642693533166
-0.4731526320937576	-0.5463313031286645
-0.4730915969375076	-0.5418947491726751
-0.4730305617812576	-0.5373377597059148
-0.4729695266250076	-0.5326597795411705
-0.4729084914687576	-0.5278572599569558
-0.4728474563125076	-0.5229306587455578
-0.4727864211562576	-0.5178853500951349
-0.4727253860000076	-0.5127249955160036
-0.4726643508437576	-0.5074475587749497
-0.4726033156875076	-0.5020500684808928
-0.4725422805312576	-0.4965348777057707
-0.4724812453750076	-0.4909078616285866
-0.4724202102187576	-0.48517126143778466
-0.4723591750625076	-0.47932212402480434
-0.4722981399062576	-0.47335873533111855
-0.4722371047500076	-0.46728518801555224
-0.4721760695937576	-0.4611070753214737
-0.4721150344375076	-0.4548248713475626
-0.4720539992812576	-0.4484351618958648
-0.4719929641250076	-0.44193795685874393
-0.4719319289687576	-0.43533888055694164
-0.4718708938125076	-0.42864271994235553
-0.4718098586562576	-0.4218481908995621
-0.4717488235000076	-0.41495208344251816
-0.4716877883437576	-0.40795652335576466
-0.4716267531875076	-0.4008681092001966
-0.4715657180312576	-0.3936900703197087
-0.4715046828750076	-0.386419574455268
-0.4714436477187576	-0.3790544906014919
-0.4713826125625076	-0.37159918562056937
-0.4713215774062576	-0.364060320239198
-0.4712605422500076	-0.35643897387241186
-0.4711995070937576	-0.3487313198791903
-0.4711384719375076	-0.3409371165727652
-0.4710774367812576	-0.3330628824235268
-0.4710164016250076	-0.3251145277181283
-0.4709553664687576	-0.3170907341425623
-0.4708943313125076	-0.3089875453583445
-0.4708332961562576	-0.3008073135686226
-0.4707722610000076	-0.2925580407964717
-0.4707112258437576	-0.284243775666817
-0.4706501906875076	-0.2758608960767565
-0.4705891555312576	-0.26740638462213917
-0.4705281203750076	-0.25888547943610274
-0.4704670852187576	-0.2503066053343006
-0.4704060500625076	-0.24167115849578585
-0.4703450149062576	-0.2329740776805348
-0.4702839797500076	-0.22421460210793906
-0.4702229445937576	-0.21540057329119977
-0.4701619094375076	-0.20653935193747885
-0.4701008742812576	-0.19762924579504568
-0.4700398391250076	-0.18866494838332362
-0.4699788039687576	-0.17964891851357478
-0.4699177688125076	-0.1705909818873888
-0.4698567336562576	-0.16149629406026025
-0.4697956985000076	-0.15236013878746804
-0.4697346633437576	-0.14317805355030228
-0.4696736281875076	-0.1339560510408729
-0.4696125930312576	-0.1247048002085818
-0.4695515578750076	-0.11542612859166337
-0.4694905227187576	-0.10611291138373537
