Time	Frequency
-0.5000474955312484	-8.148216640628918e-24
-0.4999864603749984	-7.070510898290206e-24
-0.4999254252187484	-5.987988405370097e-24
-0.4998643900624984	-4.889968154265634e-24
-0.4998033549062484	-3.790005688017619e-24
-0.4997423197499984	-2.7026989215171294e-24
-0.4996812845937484	-1.619611022609644e-24
-0.4996202494374984	-5.245151062654485e-25
-0.4995592142812484	5.790352313200837e-25
-0.4994981791249984	1.6742595891577348e-24
-0.4994371439687484	2.7593556568420085e-24
-0.4993761088124984	3.849418481265878e-24
-0.4993150736562484	4.950269793385114e-24
-0.4992540384999984	6.0491163773220306e-24
-0.4991930033437484	7.136515493112517e-24
-0.4991319681874984	8.221465631273911e-24
-0.4990709330312484	9.315133186570707e-24
-0.4990098978749984	1.0412073766691902e-23
-0.4989488627187484	1.1500092084666971e-23
-0.4988878275624984	1.2580520370445123e-23
-0.4988267924062484	1.3664746056864174e-23
-0.4987657572499984	1.4754466666478198e-23
-0.4987047220937484	1.583940894425622e-23
-0.4986436869374984	1.6914873038594118e-23
-0.4985826517812484	1.798868370124833e-23
-0.4985216166249984	1.9067040908560665e-23
-0.4984605814687484	2.0144305032862425e-23
-0.4983995463124984	2.1213085400499225e-23
-0.4983385111562484	2.227617043124636e-23
-0.4982774759999984	2.3340617097573205e-23
-0.4982164408437484	2.4405548860118494e-23
-0.4981554056874984	2.546428033246795e-23
-0.4980943705312484	2.6515653964664923e-23
-0.4980333353749984	2.7564964506501486e-23
-0.4979723002187484	2.8614231750139875e-23
-0.4979112650624984	2.9659103018594567e-23
-0.4978502299062484	3.0696624837584594e-23
-0.4977891947499984	3.172962709631467e-23
-0.4977281595937484	3.276089483318426e-23
-0.4976671244374984	3.378826862762662e-23
-0.4976060892812484	3.4808807290499145e-23
-0.4975450541249984	3.582367967953687e-23
-0.4974840189687484	3.683525731906095e-23
-0.4974229838124984	3.7842471684783655e-23
-0.4973619486562484	3.8842883711043635e-23
-0.4973009134999984	3.9837074217570005e-23
-0.4972398783437484	4.0827102710429646e-23
-0.4971788431874984	4.1812208038380353e-23
-0.4971178080312484	4.2789938476735794e-23
-0.4970567728749984	4.37605741579169e-23
-0.4969957377187484	4.4726477093756545e-23
-0.4969347025624984	4.568740087655628e-23
-0.4968736674062484	4.664047466490725e-23
-0.4968126322499984	4.758516967781041e-23
-0.4967515970937484	4.8524225989759334e-23
-0.4966905619374984	4.945854890574077e-23
-0.4966295267812484	5.0385134642038094e-23
-0.4965684916249984	5.130202757048088e-23
-0.4965074564687484	5.2211679016527446e-23
-0.4964464213124984	5.311653391238258e-23
-0.4963853861562484	5.401441153997608e-23
-0.4963243509999984	5.490193789531272e-23
-0.4962633158437484	5.578023357350238e-23
-0.4962022806874984	5.665286231942946e-23
-0.4961412455312484	5.75194207501096e-23
-0.4960802103749984	5.837591060708416e-23
-0.4960191752187484	5.922139832268001e-23
-0.4959581400624984	6.005946614167768e-23
-0.4958971049062484	6.089184534168044e-23
-0.4958360697499984	6.171517564118153e-23
-0.4957750345937484	6.252654342289961e-23
-0.4957139994374984	6.332830003902372e-23
-0.4956529642812484	6.412382352917894e-23
-0.4955919291249984	6.491150176589381e-23
-0.4955308939687484	6.568731226637115e-23
-0.4954698588124984	6.645153719137382e-23
-0.4954088236562484	6.720804616955108e-23
-0.4953477884999984	6.795743074134638e-23
-0.4952867533437484	6.869581658924942e-23
-0.4952257181874984	6.942133837386743e-23
-0.4951646830312484	7.013711782673963e-23
-0.4951036478749984	7.084568673059368e-23
-0.4950426127187484	7.154449395488109e-23
-0.4949815775624984	7.223014780857493e-23
-0.4949205424062484	7.290401126315782e-23
-0.4948595072499984	7.356960473204604e-23
-0.4947984720937484	7.422641137588862e-23
-0.4947374369374984	7.487069241336964e-23
-0.4946764017812484	7.550174583414649e-23
-0.4946153666249984	7.612283805352129e-23
-0.4945543314687484	7.673538542755426e-23
-0.4944932963124984	7.733645278285927e-23
-0.4944322611562484	7.792370610450084e-23
-0.4943712259999984	7.849918407213311e-23
-0.4943101908437484	7.906553213354188e-23
-0.4942491556874984	7.962134983439227e-23
-0.4941881205312484	8.016357035098244e-23
-0.4941270853749984	8.069257774832615e-23
-0.4940660502187484	8.121128032280161e-23
-0.4940050150624984	8.171993356062912e-23
-0.4939439799062484	8.221567444008648e-23
-0.4938829447499984	8.269738346995964e-23
-0.4938219095937484	8.316739028717013e-23
-0.4937608744374984	8.36272384877271e-23
-0.4936998392812484	8.407495074142959e-23
-0.4936388041249984	8.450841119982733e-23
-0.4935777689687484	8.492887613914171e-23
-0.4935167338124984	8.533859223270993e-23
-0.4934556986562484	8.573679355727315e-23
-0.4933946634999984	8.612100361471047e-23
-0.4933336283437484	8.649124038845573e-23
-0.4932725931874984	8.684980268357918e-23
-0.4932115580312484	8.719713731780148e-23
-0.4931505228749984	8.753101928762306e-23
-0.4930894877187484	8.785036603135538e-23
-0.4930284525624984	8.815699006049426e-23
-0.4929674174062484	8.84523204148902e-23
-0.4929063822499984	8.873485983446484e-23
-0.4928453470937484	8.900274243283879e-23
-0.4927843119374984	8.925687378480684e-23
-0.4927232767812484	8.949923153478662e-23
-0.4926622416249984	8.972936368463959e-23
-0.4926012064687484	8.994515659512369e-23
-0.4925401713124984	9.014644837710322e-23
-0.4924791361562484	9.033519903343201e-23
-0.4924181009999984	9.051200420593598e-23
-0.4923570658437484	9.067504423590997e-23
-0.4922960306874984	9.082323003449519e-23
-0.4922349955312484	9.09580182619119e-23
-0.4921739603749984	9.108078472692388e-23
-0.4921129252187484	9.119040372380463e-23
-0.4920518900624984	9.128521735533225e-23
-0.4919908549062484	9.136588193147297e-23
-0.4919298197499984	9.143414552065333e-23
-0.4918687845937484	9.148976447693567e-23
-0.4918077494374984	9.153094316944696e-23
-0.4917467142812484	9.155746487190217e-23
-0.4916856791249984	9.157102172827739e-23
-0.4916246439687484	9.157221915424518e-23
-0.4915636088124984	9.155952808080962e-23
-0.4915025736562484	9.15319746707245e-23
-0.4914415384999984	9.149082226800935e-23
-0.4913805033437484	9.14373367437676e-23
-0.4913194681874984	9.137058166027834e-23
-0.4912584330312484	9.128908470397839e-23
-0.4911973978749984	9.119342940975526e-23
-0.4911363627187484	9.108523042222662e-23
-0.4910753275624984	9.096431048353149e-23
-0.4910142924062484	9.082904269834169e-23
-0.4909532572499984	9.067923695932257e-23
-0.4908922220937484	9.051649081284876e-23
-0.4908311869374984	9.034140989453e-23
-0.4907701517812484	9.015258741232005e-23
-0.4907091166249984	8.994911772083506e-23
-0.4906480814687484	8.973222546269399e-23
-0.4905870463124984	8.950315691557124e-23
-0.4905260111562484	8.92610383850221e-23
-0.4904649759999984	8.900446414529976e-23
-0.4904039408437484	8.873402577432342e-23
-0.4903429056874984	8.8451334725326e-23
-0.4902818705312484	8.815625121537647e-23
-0.4902208353749984	8.784718864095432e-23
-0.4901598002187484	8.752396310578384e-23
-0.4900987650624984	8.718819199428468e-23
-0.4900377299062484	8.684054199468428e-23
-0.4899766947499984	8.647964158759075e-23
-0.4899156595937484	8.610456088014983e-23
-0.4898546244374984	8.571652596504017e-23
-0.4897935892812484	8.531686947204734e-23
-0.4897325541249984	8.490479168226379e-23
-0.4896715189687484	8.447885172103542e-23
-0.4896104838124984	8.403959626362357e-23
-0.4895494486562484	8.358871399930244e-23
-0.4894884134999984	8.312617556936692e-23
-0.4894273783437484	8.265037760491662e-23
-0.4893663431874984	8.216106157748516e-23
-0.4893053080312484	8.165989987248883e-23
-0.4892442728749984	8.114770313612911e-23
-0.4891832377187484	8.062312180148879e-23
-0.4891222025624984	8.008511802089368e-23
-0.4890611674062484	7.95349022693237e-23
-0.4890001322499984	7.89739619778526e-23
-0.4889390970937484	7.840160818333713e-23
-0.4888780619374984	7.781631095488992e-23
-0.4888170267812484	7.721850248727586e-23
-0.4887559916249984	7.660996350416103e-23
-0.4886949564687484	7.599087158592017e-23
-0.4886339213124984	7.535964924806183e-23
-0.4885728861562484	7.471586887458598e-23
-0.4885118509999984	7.406116427409529e-23
-0.4884508158437484	7.339654526864998e-23
-0.4883897806874984	7.272079100852252e-23
-0.4883287455312484	7.203274183309034e-23
-0.4882677103749984	7.133348177085e-23
-0.4882066752187484	7.062461195024051e-23
-0.4881456400624984	6.99056479794633e-23
-0.4880846049062484	6.917505729438656e-23
-0.4880235697499984	6.843311198624638e-23
-0.4879625345937484	6.768159257352884e-23
-0.4879014994374984	6.6920858731763e-23
-0.4878404642812484	6.614940264617082e-23
-0.4877794291249984	6.536667731969854e-23
-0.4877183939687484	6.45742527225353e-23
-0.4876573588124984	6.377327502003977e-23
-0.4875963236562484	6.296268180233015e-23
-0.4875352884999984	6.214126437277924e-23
-0.4874742533437484	6.13099547242151e-23
-0.4874132181874984	6.047039135456292e-23
-0.4873521830312484	5.962228267930274e-23
-0.4872911478749984	5.876414355246274e-23
-0.4872301127187484	5.789611205361122e-23
-0.4871690775624984	5.701992313515552e-23
-0.4871080424062484	5.613608714946852e-23
-0.4870470072499984	5.524321482441989e-23
-0.4869859720937484	5.434067547088944e-23
-0.4869249369374984	5.342993926110251e-23
-0.4868639017812484	5.251223924719456e-23
-0.4868028666249984	5.15866399111966e-23
-0.4867418314687484	5.065190605719704e-23
-0.4866807963124984	4.970890319598964e-23
-0.4866197611562484	4.8759321135351973e-23
-0.4865587259999984	4.7802949482073647e-23
-0.4864976908437484	4.683828828326938e-23
-0.4864366556874984	4.5865434439539724e-23
-0.4863756205312484	4.488617082612338e-23
-0.4863145853749984	4.390108791332198e-23
-0.4862535502187484	4.2908783851576565e-23
-0.4861925150624984	4.1908567544240615e-23
-0.4861314799062484	4.090193996173913e-23
-0.4860704447499984	3.98902314259346e-23
-0.4860094095937484	3.8872512068379196e-23
-0.4859483744374984	3.7847466635344413e-23
-0.4858873392812484	3.6815996937938725e-23
-0.4858263041249984	3.577995131919104e-23
-0.4857652689687484	3.473912987910226e-23
-0.4857042338124984	3.369184528930667e-23
-0.4856431986562484	3.2638132704625923e-23
-0.4855821634999984	3.1579989222451725e-23
-0.4855211283437484	3.0518170764876234e-23
-0.4854600931874984	2.9451114211942026e-23
-0.4853990580312484	2.8377927279470536e-23
-0.4853380228749984	2.7300282473819045e-23
-0.4852769877187484	2.6219822728262016e-23
-0.4852159525624984	2.513551887022402e-23
-0.4851549174062484	2.4045669281392364e-23
-0.4850938822499984	2.295117388953923e-23
-0.4850328470937484	2.1854325422147914e-23
-0.4849718119374984	2.0755085190634712e-23
-0.4849107767812484	1.9651361090414364e-23
-0.4848497416249984	1.8542931572752013e-23
-0.4847887064687484	1.7432177984804892e-23
-0.4847276713124984	1.6320250396318746e-23
-0.4846666361562484	1.520530070503584e-23
-0.4846056009999984	1.4085949902516494e-23
-0.4845445658437484	1.2964027882171727e-23
-0.4844835306874984	1.1841722275924064e-23
-0.4844224955312484	1.0718010747707691e-23
-0.4843614603749984	9.590665111865882e-24
-0.4843004252187484	8.460462719835745e-24
-0.4842393900624984	7.330231155175736e-24
-0.4841783549062484	6.200213325360778e-24
-0.4841173197499984	5.067815461467024e-24
-0.4840562845937484	3.932383090480337e-24
-0.4839952494374984	2.7967495260867174e-24
-0.4839342142812484	1.662650828824639e-24
-0.4838731791249984	5.278959093925232e-25
-0.4838121439687484	-6.095861053263548e-25
-0.4837511088124984	-1.747749695646275e-24
-0.4836900736562484	-2.883617175368124e-24
-0.4836290384999984	-4.0182553366268996e-24
-0.4835680033437484	-5.154734500049612e-24
-0.4835069681874984	-6.2924255898922176e-24
-0.4834459330312484	-7.427665316280883e-24
-0.4833848978749984	-8.559859393525093e-24
-0.4833238627187484	-9.692365263529633e-24
-0.4832628275624984	-1.0826364795318977e-23
-0.4832017924062484	-1.1958354434985946e-23
-0.4831407572499984	-1.3085882201556418e-23
-0.4830797220937484	-1.4211648236232025e-23
-0.4830186869374984	-1.5338603179900743e-23
-0.4829576517812484	-1.646441810033766e-23
-0.4828966166249984	-1.758513922807992e-23
-0.4828355814687484	-1.870187855598628e-23
-0.4827745463124984	-1.9818733799739604e-23
-0.4827135111562484	-2.0935289047179915e-23
-0.4826524759999984	-2.204686758711521e-23
-0.4825914408437484	-2.315241620455766e-23
-0.4825304056874984	-2.4256238677848063e-23
-0.4824693705312484	-2.536020470416777e-23
-0.4824083353749984	-2.6459985846855274e-23
-0.4823473002187484	-2.7552230535528853e-23
-0.4822862650624984	-2.864030836531851e-23
-0.4822252299062484	-2.9728316031035056e-23
-0.4821641947499984	-3.081351283300966e-23
-0.4821031595937484	-3.1890589000902186e-23
-0.4820421244374984	-3.296073226975847e-23
-0.4819810892812484	-3.402953615419798e-23
-0.4819200541249984	-3.509692532422545e-23
-0.4818590189687484	-3.6156728363963674e-23
-0.4817979838124984	-3.7207122017097325e-23
-0.4817369486562484	-3.8253796086137704e-23
-0.4816759134999984	-3.9299861824495636e-23
-0.4816148783437484	-4.0339903196211947e-23
-0.4815538431874984	-4.136896268570716e-23
-0.4814928080312484	-4.239112052905337e-23
-0.4814317728749984	-4.3412353384742e-23
-0.4813707377187484	-4.4429684788373925e-23
-0.4813097025624984	-4.5435805822209867e-23
-0.4812486674062484	-4.643162920990779e-23
-0.4811876322499984	-4.7424766723327944e-23
-0.4811265970937484	-4.841601712287808e-23
-0.4810655619374984	-4.9397364913643996e-23
-0.4810045267812484	-5.036556711301484e-23
-0.4809434916249984	-5.132788060192344e-23
-0.4808824564687484	-5.228937060826646e-23
-0.4808214213124984	-5.324352164980618e-23
-0.4807603861562484	-5.41830228267555e-23
-0.4806993509999984	-5.51124765635737e-23
-0.4806383158437484	-5.604051888391469e-23
-0.4805772806874984	-5.696441445251e-23
-0.4805162455312484	-5.78741370058572e-23
-0.4804552103749984	-5.876958991757186e-23
-0.4803941752187484	-5.96610072818448e-23
-0.4803331400624984	-6.055102022279306e-23
-0.4802721049062484	-6.142936766691289e-23
-0.4802110697499984	-6.22902497120388e-23
-0.4801500345937484	-6.314259524687847e-23
-0.4800889994374984	-6.3994689261514e-23
-0.4800279642812484	-6.483920486967639e-23
-0.4799669291249984	-6.566521123128647e-23
-0.4799058939687484	-6.647717124300296e-23
-0.4798448588124984	-6.728757380768607e-23
-0.4797838236562484	-6.809495764986819e-23
-0.4797227884999984	-6.888556330649298e-23
-0.4796617533437484	-6.965687347344841e-23
-0.4796007181874984	-7.042242789977526e-23
-0.4795396830312484	-7.118845235503745e-23
-0.4794786478749984	-7.194227296756123e-23
-0.4794176127187484	-7.267357080551994e-23
-0.4793565775624984	-7.339251501451631e-23
-0.4792955424062484	-7.411263295336976e-23
-0.4792345072499984	-7.482693425547456e-23
-0.4791734720937484	-7.551902349042101e-23
-0.4791124369374984	-7.619128829780163e-23
-0.4790514017812484	-7.686138481969243e-23
-0.4789903666249984	-7.753176688262229e-23
-0.4789293314687484	-7.818454164152207e-23
-0.4788682963124984	-7.881174141202603e-23
-0.4788072611562484	-7.942948571067801e-23
-0.4787462259999984	-8.005063502730643e-23
-0.4786851908437484	-8.066207696179329e-23
-0.4786241556874984	-8.124640877944502e-23
-0.4785631205312484	-8.181184883742558e-23
-0.4785020853749984	-8.23786786868418e-23
-0.4784410502187484	-8.294436799783008e-23
-0.4783800150624984	-8.348714867399788e-23
-0.4783189799062484	-8.400288461632235e-23
-0.4782579447499984	-8.451244110123743e-23
-0.4781969095937484	-8.502622232470737e-23
-0.4781358744374984	-8.552600991277839e-23
-0.4780748392812484	-8.599556858641865e-23
-0.4780138041249984	-8.644827090695089e-23
-0.4779527689687484	-8.690445025722426e-23
-0.4778917338124984	-8.735672561195933e-23
-0.4778306986562484	-8.778232858840373e-23
-0.4777696634999984	-8.818157277818231e-23
-0.4777086283437484	-8.857712812725224e-23
-0.4776475931874984	-8.897548090001813e-23
-0.4775865580312484	-8.935604860314467e-23
-0.4775255228749984	-8.970605962240523e-23
-0.4774644877187484	-9.00417795663186e-23
-0.4774034525624984	-9.038057185840538e-23
-0.4773424174062484	-9.07117048779576e-23
-0.4772813822499984	-9.101492391699013e-23
-0.4772203470937484	-9.12944570482411e-23
-0.4771593119374984	-9.157111082181498e-23
-0.4770982767812484	-9.184696830547173e-23
-0.4770372416249984	-9.21025447509338e-23
-0.4769762064687484	-9.232994860978237e-23
-0.4769151713124984	-9.254541162065493e-23
-0.4768541361562484	-9.276121830018654e-23
-0.4767931009999984	-9.296548997226991e-23
-0.4767320658437484	-9.314300503988248e-23
-0.4766710306874984	-9.330047841511204e-23
-0.4766099955312484	-9.34541938306402e-23
-0.4765489603749984	-9.360253865940994e-23
-0.4764879252187484	-9.37297091507634e-23
-0.4764268900624984	-9.383258067854114e-23
-0.4763658549062484	-9.392496968393677e-23
-0.4763048197499984	-9.401374648003588e-23
-0.4762437845937484	-9.408802605947693e-23
-0.4761827494374984	-9.413829104119003e-23
-0.4761217142812484	-9.417184659343403e-23
-0.4760606791249984	-9.419951937611292e-23
-0.4759996439687484	-9.421766529564261e-23
-0.4759386088124984	-9.42153365736183e-23
-0.4758775736562484	-9.419275862889932e-23
-0.4758165384999984	-9.415992473680616e-23
-0.4757555033437484	-9.411941386379127e-23
-0.4756944681874984	-9.406295655635329e-23
-0.4756334330312484	-9.398598316581478e-23
-0.4755723978749984	-9.389461473997167e-23
-0.4755113627187484	-9.379454185905364e-23
-0.4754503275624984	-9.368190385187351e-23
-0.4753892924062484	-9.355075396642681e-23
-0.4753282572499984	-9.340295281626427e-23
-0.4752672220937484	-9.324409819080317e-23
-0.4752061869374984	-9.307396496176815e-23
-0.4751451517812484	-9.288779827491273e-23
-0.4750841166249984	-9.268480221414532e-23
-0.4750230814687484	-9.246881691598099e-23
-0.4749620463124984	-9.224123696223815e-23
-0.4749010111562484	-9.199916868775855e-23
-0.4748399759999984	-9.174112930948517e-23
-0.4747789408437484	-9.146941553077924e-23
-0.4747179056874984	-9.118551021106172e-23
-0.4746568705312484	-9.088757243610532e-23
-0.4745958353749984	-9.057430520162733e-23
-0.4745348002187484	-9.024749511229137e-23
-0.4744737650624984	-8.990852481879858e-23
-0.4744127299062484	-8.955569035041088e-23
-0.4743516947499984	-8.918751899568286e-23
-0.4742906595937484	-8.880583348099283e-23
-0.4742296244374984	-8.841258752361209e-23
-0.4741685892812484	-8.800616780661451e-23
-0.4741075541249984	-8.758422472401546e-23
-0.4740465189687484	-8.714817173821152e-23
-0.4739854838124984	-8.670101480119585e-23
-0.4739244486562484	-8.624203879025355e-23
-0.4738634134999984	-8.576792512621537e-23
-0.4738023783437484	-8.527870165769537e-23
-0.4737413431874984	-8.477803753634449e-23
-0.4736803080312484	-8.426702549303367e-23
-0.4736192728749984	-8.374224662703119e-23
-0.4735582377187484	-8.320175091391612e-23
-0.4734972025624984	-8.264867070536399e-23
-0.4734361674062484	-8.208602465993822e-23
-0.4733751322499984	-8.151158214680284e-23
-0.4733140970937484	-8.09217700226626e-23
-0.4732530619374984	-8.031799415872991e-23
-0.4731920267812484	-7.970442354558883e-23
-0.4731309916249984	-7.908096982987155e-23
-0.4730699564687484	-7.844356455577746e-23
-0.4730089213124984	-7.779130521242369e-23
-0.4729478861562484	-7.712818090681734e-23
-0.4728868509999984	-7.645639214741522e-23
-0.4728258158437484	-7.577274691792295e-23
-0.4727647806874984	-7.507431980503897e-23
-0.4727037455312484	-7.43636285708594e-23
-0.4726427103749984	-7.364445542060992e-23
-0.4725816752187484	-7.291554619566843e-23
-0.4725206400624984	-7.21729887420483e-23
-0.4724596049062484	-7.14171030733211e-23
-0.4723985697499984	-7.065202508770953e-23
-0.4723375345937484	-6.987879976437509e-23
-0.4722764994374984	-6.909385539801318e-23
-0.4722154642812484	-6.829536381133986e-23
-0.4721544291249984	-6.748650169876075e-23
-0.4720933939687484	-6.667013240133881e-23
-0.4720323588124984	-6.584415819266837e-23
-0.4719713236562484	-6.500541885745828e-23
-0.4719102884999984	-6.4155285934055e-23
-0.4718492533437484	-6.329742222584644e-23
-0.4717882181874984	-6.243173353976585e-23
-0.4717271830312484	-6.155487307543407e-23
-0.4716661478749984	-6.066622986777372e-23
-0.4716051127187484	-5.976906501011107e-23
-0.4715440775624984	-5.886506605357914e-23
-0.4714830424062484	-5.795179568096433e-23
-0.4714220072499984	-5.702721956452904e-23
