Time	Frequency
-0.5000381450000049	0.5363956004333591
-0.4999771098437549	0.5359543178092364
-0.4999160746875049	0.5353949618052624
-0.4998550395312549	0.5346089565102218
-0.4997940043750049	0.5336476840609677
-0.4997329692187549	0.5326669478095514
-0.4996719340625049	0.5317559789013921
-0.4996108989062549	0.530839268597499
-0.4995498637500049	0.529759730452836
-0.4994888285937549	0.5284515777128457
-0.4994277934375049	0.527012292385967
-0.4993667582812549	0.525594794681721
-0.4993057231250049	0.5242394839519078
-0.4992446879687549	0.5228313933238533
-0.4991836528125049	0.521228357496939
-0.4991226176562549	0.5194172833998631
-0.4990615825000049	0.517526473811014
-0.4990005473437549	0.5156827967840202
-0.4989395121875049	0.5138732555121253
-0.4988784770312549	0.5119627379232911
-0.4988174418750049	0.5098450663213631
-0.4987564067187549	0.5075585690570685
-0.4986953715625049	0.5052403462888134
-0.4986343364062549	0.5029737161024894
-0.4985733012500049	0.5006992005763493
-0.4985122660937549	0.4982847500610502
-0.4984512309375049	0.4956730900837613
-0.4983901957812549	0.49294202210965843
-0.4983291606250049	0.4902145753495079
-0.4982681254687549	0.48752293830873283
-0.4982070903125049	0.48477720488243337
-0.4981460551562549	0.4818693554889332
-0.4980850200000049	0.4787929998432966
-0.4980239848437549	0.47564654404982226
-0.4979629496875049	0.4725209992064439
-0.4979019145312549	0.46940070433093395
-0.4978408793750049	0.46618576843984805
-0.4977798442187549	0.4628063422117058
-0.4977188090625049	0.45929878063356855
-0.4976577739062549	0.45576128721415915
-0.4975967387500049	0.45224324827260487
-0.4975357035937549	0.4486934107401508
-0.4974746684375049	0.4450216231181496
-0.4974136332812549	0.44120095044758373
-0.4973525981250049	0.4372954064958648
-0.4972915629687549	0.43338565890251435
-0.4972305278125049	0.42947928010844894
-0.4971694926562549	0.4255059197442032
-0.4971084575000049	0.42139945743661444
-0.4970474223437549	0.4171722269610669
-0.4969863871875049	0.4128988910331928
-0.4969253520312549	0.4086313870698638
-0.4968643168750049	0.404342430548707
-0.4968032817187549	0.39995959204843845
-0.4967422465625049	0.39544858403606453
-0.4966812114062549	0.3908509874794857
-0.4966201762500049	0.38623589452389673
-0.4965591410937549	0.3816224165148589
-0.4964981059375049	0.3769606387010787
-0.4964370707812549	0.3721904809710784
-0.4963760356250049	0.3673101054407857
-0.4963150004687549	0.3623769751356937
-0.4962539653125049	0.3574425217287505
-0.4961929301562549	0.3524955196474332
-0.4961318950000049	0.34747723007844633
-0.4960708598437549	0.3423493802470788
-0.4960098246875049	0.33713740534640185
-0.4959487895312549	0.3319011178116929
-0.4958877543750049	0.32666756888720777
-0.4958267192187549	0.32140233609499314
-0.4957656840625049	0.3160504678155439
-0.4957046489062549	0.3105994819602831
-0.4956436137500049	0.30509327857132773
-0.4955825785937549	0.299582569625543
-0.4955215434375049	0.29406881637940535
-0.4954605082812549	0.288504561062864
-0.4953994731250049	0.2828485533438018
-0.4953384379687549	0.27711277086586966
-0.4952774028125049	0.2713488610400477
-0.4952163676562549	0.2655904684406393
-0.4951553325000049	0.25981686477955285
-0.4950942973437549	0.2539781341517632
-0.4950332621875049	0.24805255313784552
-0.4949722270312549	0.24207138424110558
-0.4949111918750049	0.2360839574443071
-0.4948501567187549	0.23010314776380034
-0.4947891215625049	0.22409256197564778
-0.4947280864062549	0.2180090216044495
-0.4946670512500049	0.21185194096322157
-0.4946060160937549	0.205664327207593
-0.4945449809375049	0.19948506891820492
-0.4944839457812549	0.1933066706878758
-0.4944229106250049	0.18708545024408213
-0.4943618754687549	0.1807917822125803
-0.4943008403125049	0.1744438540886749
-0.4942398051562549	0.16808773609572672
-0.4941787700000049	0.1617466929196255
-0.4941177348437549	0.15539665210066267
-0.4940566996875049	0.1489948237431573
-0.4939956645312549	0.14252872723122081
-0.4939346293750049	0.13603066165249925
-0.4938735942187549	0.12954210152162082
-0.4938125590625049	0.12306855985209318
-0.4937515239062549	0.11657525876496617
-0.4936904887500049	0.11002750843794519
-0.4936294535937549	0.10343013216710008
-0.4935684184375049	0.0968224320821703
-0.4935073832812549	0.09023514110826267
-0.4934463481250049	0.08365764358407775
-0.4933853129687549	0.07705161187548762
-0.4933242778125049	0.07039513654818351
-0.4932632426562549	0.06370780062814124
-0.4932022075000049	0.05702920903562888
-0.4931411723437549	0.05037577467450211
-0.4930801371875049	0.043724205905390064
-0.4930191020312549	0.037039365471843805
-0.4929580668750049	0.03031453706168892
-0.4928970317187549	0.023579233131269514
-0.4928359965625049	0.01686677321934805
-0.4927749614062549	0.010178469107028581
-0.4927139262500049	0.0034841051532693923
-0.4926528910937549	-0.003242666109284839
-0.4925918559375049	-0.009994122350267929
-0.4925308207812549	-0.01673680728273017
-0.4924697856250049	-0.0234481573183237
-0.4924087504687549	-0.03014010478033131
-0.4923477153125049	-0.03684380718128331
-0.4922866801562549	-0.04357346244029001
-0.4922256450000049	-0.050309890789266364
-0.4921646098437549	-0.05702156851875706
-0.4921035746875049	-0.06369883974897826
-0.4920425395312549	-0.07036297179010127
-0.4919815043750049	-0.0770405785960657
-0.4919204692187549	-0.08373265696557756
-0.4918594340625049	-0.09041291538224062
-0.4917983989062549	-0.09705669081446491
-0.4917373637500049	-0.10366736638294409
-0.4916763285937549	-0.11027078284813421
-0.4916152934375049	-0.11688468392899866
-0.4915542582812549	-0.12349785334293577
-0.4914932231250049	-0.13008213622561862
-0.4914321879687549	-0.13662333573547464
-0.4913711528125049	-0.14313580171018395
-0.4913101176562549	-0.1496446031300551
-0.4912490825000049	-0.15615607837440143
-0.4911880473437549	-0.16264994160761817
-0.4911270121875049	-0.1691013563237289
-0.4910659770312549	-0.17550783077458876
-0.4910049418750049	-0.18189064953312017
-0.4909439067187549	-0.188269506988046
-0.4908828715625049	-0.19463918630650484
-0.4908218364062549	-0.20097452450061548
-0.4907608012500049	-0.20725785960751533
-0.4906997660937549	-0.21349784317910533
-0.4906387309375049	-0.21971840567237536
-0.4905776957812549	-0.2259305448565243
-0.4905166606250049	-0.2321189513122651
-0.4904556254687549	-0.23825843621635984
-0.4903945903125049	-0.2443413731333711
-0.4903335551562549	-0.2503851477239557
-0.4902725200000049	-0.2564112887245547
-0.4902114848437549	-0.26241999695085466
-0.4901504496875049	-0.2683889908319175
-0.4900894145312549	-0.27429777605253713
-0.4900283793750049	-0.28014972575470726
-0.4899673442187549	-0.2859671844597069
-0.4899063090625049	-0.29176523087693057
-0.4898452739062549	-0.29753366220919175
-0.4897842387500049	-0.30324749839982434
-0.4897232035937549	-0.30889418787850187
-0.4896621684375049	-0.314486787808103
-0.4896011332812549	-0.3200481815069383
-0.4895400981250049	-0.32558425485452547
-0.4894790629687549	-0.3310763219410545
-0.4894180278125049	-0.3365012152801004
-0.4893569926562549	-0.3418564222986187
-0.4892959575000049	-0.34716200737397884
-0.4892349223437549	-0.3524371196254618
-0.4891738871875049	-0.3576775169916584
-0.4891128520312549	-0.36285941235183117
-0.4890518168750049	-0.36796532540391347
-0.4889907817187549	-0.3730028545795467
-0.4889297465625049	-0.37799522114771694
-0.4888687114062549	-0.3829542486221841
-0.4888076762500049	-0.3878662159308426
-0.4887466410937549	-0.3927064540983057
-0.4886856059375049	-0.3974662192249693
-0.4886245707812549	-0.4021616042334941
-0.4885635356250049	-0.40681454353191054
-0.4885025004687549	-0.4114273611188303
-0.4884414653125049	-0.41597941817133866
-0.4883804301562549	-0.4204495309778343
-0.4883193950000049	-0.42483893399496303
-0.4882583598437549	-0.4291690553416018
-0.4881973246875049	-0.43345666982987113
-0.4881362895312549	-0.4376943080693827
-0.4880752543750049	-0.4418579507650066
-0.4880142192187549	-0.4459333640520911
-0.4879531840625049	-0.4499313847852338
-0.4878921489062549	-0.4538749327557813
-0.4878311137500049	-0.4577724001032331
-0.4877700785937549	-0.46160747351058923
-0.4877090434375049	-0.4653568782263906
-0.4876480082812549	-0.46901595225495135
-0.4875869731250049	-0.4726032190818782
-0.4875259379687549	-0.4761388478772256
-0.4874649028125049	-0.47962126486891726
-0.4874038676562549	-0.4830282817801509
-0.4873428325000049	-0.48634152322131774
-0.4872817973437549	-0.489566634812253
-0.4872207621875049	-0.4927263397999722
-0.4871597270312549	-0.4958340726430264
-0.4870986918750049	-0.49887815471670766
-0.4870376567187549	-0.5018345303628087
-0.4869766215625049	-0.5046934930526259
-0.4869155864062549	-0.507470096615076
-0.4868545512500049	-0.5101865648078249
-0.4867935160937549	-0.51284659381236
-0.4867324809375049	-0.5154306452948356
-0.4866714457812549	-0.5179176277771772
-0.4866104106250049	-0.5203083665495863
-0.4865493754687549	-0.5226242452186275
-0.4864883403125049	-0.524882545555481
-0.4864273051562549	-0.5270763456435699
-0.4863662700000049	-0.5291818347331013
-0.4863052348437549	-0.5311849280189374
-0.4862441996875049	-0.533096988593957
-0.4861831645312549	-0.5349416675355657
-0.4861221293750049	-0.5367276574361779
-0.4860610942187549	-0.5384383081307327
-0.4860000590625049	-0.5400500910829067
-0.4859390239062549	-0.5415590802587568
-0.4858779887500049	-0.5429852848998189
-0.4858169535937549	-0.5443497147538306
-0.4857559184375049	-0.545650125133637
-0.4856948832812549	-0.5468630878567606
-0.4856338481250049	-0.5479702700886766
-0.4855728129687549	-0.5489792112487284
-0.4855117778125049	-0.5499148101401995
-0.4854507426562549	-0.5507908410404122
-0.4853897075000049	-0.5515938233824809
-0.4853286723437549	-0.5522979055044546
-0.4852676371875049	-0.5528941275395076
-0.4852066020312549	-0.5534007778195195
-0.4851455668750049	-0.5538427488520633
-0.4850845317187549	-0.5542230060275567
-0.4850234965625049	-0.5545186818203445
-0.4849624614062549	-0.5547067344463191
-0.4849014262500049	-0.5547903038007496
-0.4848403910937549	-0.5547955500671925
-0.4847793559375049	-0.554742047017299
-0.4847183207812549	-0.5546201424989987
-0.4846572856250049	-0.5544013800995319
-0.4845962504687549	-0.5540707584508546
-0.4845352153125049	-0.5536442965638207
-0.4844741801562549	-0.5531513819905747
-0.4844131450000049	-0.5526013446385593
-0.4843521098437549	-0.5519723024867311
-0.4842910746875049	-0.5512356324940583
-0.4842300395312549	-0.5503887753732556
-0.4841690043750049	-0.5494589158436588
-0.4841079692187549	-0.5484726412681967
-0.4840469340625049	-0.547425521059739
-0.4839858989062549	-0.5462864890370722
-0.4839248637500049	-0.5450329396388834
-0.4838638285937549	-0.5436771103421266
-0.4838027934375049	-0.5422532374742772
-0.4837417582812549	-0.5407790886599062
-0.4836807231250049	-0.5392352640444575
-0.4836196879687549	-0.5375865976069747
-0.4835586528125049	-0.5358223493886567
-0.4834976176562549	-0.5339695321195609
-0.4834365825000049	-0.5320632594444132
-0.4833755473437549	-0.5301069382189668
-0.4833145121875049	-0.5280677071576931
-0.4832534770312549	-0.5259133939703493
-0.4831924418750049	-0.5236498261432545
-0.4831314067187549	-0.52131567561236
-0.4830703715625049	-0.5189394563281031
-0.4830093364062549	-0.5165068687432732
-0.4829483012500049	-0.5139762988433814
-0.4828872660937549	-0.5113261510062758
-0.4828262309375049	-0.5085806132040903
-0.4827651957812549	-0.5057836410379517
-0.4827041606250049	-0.5029495431770976
-0.4826431254687549	-0.5000462096787486
-0.4825820903125049	-0.49703110084583274
-0.4825210551562549	-0.493900188075784
-0.4824600200000049	-0.49069415827900736
-0.4823989848437549	-0.4874536176975564
-0.4823379496875049	-0.484173181349451
-0.4822769145312549	-0.4808069088778875
-0.4822158793750049	-0.47732021234475547
-0.4821548442187549	-0.4737302125250147
-0.4820938090625049	-0.47008817489935767
-0.4820327739062549	-0.4664224885796312
-0.4819717387500049	-0.4627062601641731
-0.4819107035937549	-0.45888719788200194
-0.4818496684375049	-0.4549472520912319
-0.4817886332812549	-0.45092471777058474
-0.4817275981250049	-0.4468726697724792
-0.4816665629687549	-0.44279955475588156
-0.4816055278125049	-0.4386591706465345
-0.4815444926562549	-0.43440256473388345
-0.4814834575000049	-0.43003429107392577
-0.4814224223437549	-0.4256092262981848
-0.4813613871875049	-0.42117218698323755
-0.4813003520312549	-0.4167075689370224
-0.4812393168750049	-0.4121563375599524
-0.4811782817187549	-0.407482688151382
-0.4811172465625049	-0.4027160443371614
-0.4810562114062549	-0.39792014011258287
-0.4809951762500049	-0.3931224134458072
-0.4809341410937549	-0.38828282383383617
-0.4808731059375049	-0.38333836174706526
-0.4808120707812549	-0.3782746010353778
-0.4807510356250049	-0.37314401630602245
-0.4806900004687549	-0.3680091806600834
-0.4806289653125049	-0.36287321812348916
-0.4805679301562549	-0.3576756241627178
-0.4805068950000049	-0.3523596901866843
-0.4804458598437549	-0.34693739767608833
-0.4803848246875049	-0.3414787794590961
-0.4803237895312549	-0.3360356736989227
-0.4802627543750049	-0.33058373626892895
-0.4802017192187549	-0.3250484754065625
-0.4801406840625049	-0.31938846652109654
-0.4800796489062549	-0.3136438550401387
-0.4800186137500049	-0.30789471582481465
-0.4799575785937549	-0.3021733725284042
-0.4798965434375049	-0.2964275536117137
-0.4798355082812549	-0.29057721399008324
-0.4797744731250049	-0.28460435815132507
-0.4797134379687549	-0.2785763718975341
-0.4796524028125049	-0.2725745135816505
-0.4795913676562549	-0.26660433421936075
-0.4795303325000049	-0.26058767698408497
-0.4794692973437549	-0.2544481575564936
-0.4794082621875049	-0.24819790308491646
-0.4793472270312549	-0.24192852692576092
-0.4792861918750049	-0.23571263890778477
-0.4792251567187549	-0.22952260617982684
-0.4791641215625049	-0.22325841003280217
-0.4791030864062549	-0.21685789154875484
-0.4790420512500049	-0.21036918921166345
-0.4789810160937549	-0.203902565956897
-0.4789199809375049	-0.19751049131515644
-0.4788589457812549	-0.19112740727024377
-0.4787979106250049	-0.1846393029489248
-0.4787368754687549	-0.17801056067305193
-0.4786758403125049	-0.17132829639976396
-0.4786148051562549	-0.16471107726694503
-0.4785537700000049	-0.15817859104348966
-0.4784927348437549	-0.1516266019302677
-0.4784316996875049	-0.14493963891608874
-0.4783706645312549	-0.13812087888685715
-0.4783096293750049	-0.1312944686248235
-0.4782485942187549	-0.12457263450335965
-0.4781875590625049	-0.11793097182718193
-0.4781265239062549	-0.11123171217178322
-0.4780654887500049	-0.10437458245675207
-0.4780044535937549	-0.0974112052419925
-0.4779434184375049	-0.09049379551676512
-0.4778823832812549	-0.08370995889009035
-0.4778213481250049	-0.07698438223724992
-0.4777603129687549	-0.07015899591566187
-0.4776992778125049	-0.06316746715477954
-0.4776382426562549	-0.056112424033675064
-0.4775772075000049	-0.04915696545122036
-0.4775161723437549	-0.04234649831105681
-0.4774551371875049	-0.03555720884023203
-0.4773941020312549	-0.028631000494620085
-0.4773330668750049	-0.021550755722621124
-0.4772720317187549	-0.014462410163097525
-0.4772109965625049	-0.0075172007008055975
-0.4771499614062549	-0.0007063060735869092
-0.4770889262500049	0.006129512202378476
-0.4770278910937549	0.013124483050806011
-0.4769668559375049	0.02023907691726147
-0.4769058207812549	0.02730199395769553
-0.4768447856250049	0.034197019312559265
-0.4767837504687549	0.0409890047163119
-0.4767227153125049	0.047850612195565474
-0.4766616801562549	0.05487132524065318
-0.4766006450000049	0.06195931013430258
-0.4765396098437549	0.06894297610011688
-0.4764785746875049	0.07575842253425913
-0.4764175395312549	0.08251609185681458
-0.4763565043750049	0.08937563625053425
-0.4762954692187549	0.09636955446678162
-0.4762344340625049	0.10336970936388691
-0.4761733989062549	0.11023010881931296
-0.4761123637500049	0.11694537332620618
-0.4760513285937549	0.12365114396424529
-0.4759902934375049	0.13047047683290053
-0.4759292582812549	0.13737895750491025
-0.4758682231250049	0.1442354878317961
-0.4758071879687549	0.15093936772969851
-0.4757461528125049	0.15753738969083816
-0.4756851176562549	0.16416567076106267
-0.4756240825000049	0.17089615566559005
-0.4755630473437549	0.1776596494903042
-0.4755020121875049	0.18432659942845375
-0.4754409770312549	0.19085045811839021
-0.4753799418750049	0.19731373315179543
-0.4753189067187549	0.2038304007748824
-0.4752578715625049	0.21041822272062127
-0.4751968364062549	0.21698268732464535
-0.4751358012500049	0.2234251367151385
-0.4750747660937549	0.22975036455379066
-0.4750137309375049	0.23605522872139323
-0.4749526957812549	0.2424163795793168
-0.4748916606250049	0.24880560853827416
-0.4748306254687549	0.25512492110719875
-0.4747695903125049	0.26131706022952256
-0.4747085551562549	0.2674258723202122
-0.4746475200000049	0.2735419852097912
-0.4745864848437549	0.27969903932355994
-0.4745254496875049	0.28583775688479435
-0.4744644145312549	0.291874894558309
-0.4744033793750049	0.29779594329623615
-0.4743423442187549	0.3036673896670983
-0.4742813090625049	0.3095581902443237
-0.4742202739062549	0.31546160817661906
-0.4741592387500049	0.3213046145706761
-0.4740982035937549	0.32703101960325415
-0.4740371684375049	0.3326626439739414
-0.4739761332812549	0.33827105663890483
-0.4739150981250049	0.34389476716821704
-0.4738540629687549	0.34949626111425675
-0.4737930278125049	0.3550055442330051
-0.4737319926562549	0.3603986252077257
-0.4736709575000049	0.3657219552583694
-0.4736099223437549	0.3710372574656872
-0.4735488871875049	0.37635095885974884
-0.4734878520312549	0.3816076473820664
-0.4734268168750049	0.3867530425651114
-0.4733657817187549	0.39179389879061666
-0.4733047465625049	0.39678781902801674
-0.4732437114062549	0.4017764250585399
-0.4731826762500049	0.4067382142225826
-0.4731216410937549	0.4116133435725581
-0.4730606059375049	0.41637080196035703
-0.4729995707812549	0.4210416505708772
-0.4729385356250049	0.42568189123550726
-0.4728775004687549	0.43030823629042875
-0.4728164653125049	0.4348793809816773
-0.4727554301562549	0.43934276571672104
-0.4726943950000049	0.44369295428197864
-0.4726333598437549	0.44797593709683176
-0.4725723246875049	0.4522357661101031
-0.4725112895312549	0.4564645240244583
-0.4724502543750049	0.46061147269592456
-0.4723892192187549	0.46463988839387677
-0.4723281840625049	0.4685671248786545
-0.4722671489062549	0.4724435067996581
-0.4722061137500049	0.47629474652200754
-0.4721450785937549	0.4800928464527669
-0.4720840434375049	0.4837875756491737
-0.4720230082812549	0.48736233449448496
-0.4719619731250049	0.49085153564611345
-0.4719009379687549	0.49430072998403674
-0.4718399028125049	0.49771495993732945
-0.4717788676562549	0.5010531362183851
-0.4717178325000049	0.5042739150040151
-0.4716567973437549	0.507381173150353
-0.4715957621875049	0.510418458228625
-0.4715347270312549	0.5134193051542849
-0.4714736918750049	0.5163694574288652
-0.4714126567187549	0.5192229504442286
-0.4713516215625049	0.5219532521702858
-0.4712905864062549	0.5245819405947647
-0.4712295512500049	0.5271534241809013
-0.4711685160937549	0.5296847644418566
-0.4711074809375049	0.5321467541398129
-0.4710464457812549	0.5344966297200424
-0.4709854106250049	0.5367252097349546
-0.4709243754687549	0.5388659992091925
-0.4708633403125049	0.5409568871752568
-0.4708023051562549	0.542997756235736
-0.4707412700000049	0.5449510114042428
-0.4706802348437549	0.5467835673194176
-0.4706191996875049	0.5485029688919653
-0.4705581645312549	0.5501478017926692
-0.4704971293750049	0.5517440161918752
-0.4704360942187549	0.5532762508369506
-0.4703750590625049	0.5547055062089978
-0.4703140239062549	0.5560125163604611
-0.4702529887500049	0.5572182426272355
-0.4701919535937549	0.5583594071563944
-0.4701309184375049	0.5594472680315742
-0.4700698832812549	0.5604556501102576
-0.4700088481250049	0.5613506937508335
-0.4699478129687549	0.562128302372265
-0.4698867778125049	0.562817656361142
-0.4698257426562549	0.5634478266827235
-0.4697647075000049	0.5640154431752101
-0.4697036723437549	0.5644891999197473
-0.4696426371875049	0.5648452164673536
-0.4695816020312549	0.5650932202641306
