Time	Frequency
-0.5000126755625018	0.24585017410962576
-0.49995164040625184	0.24030609636474212
-0.49989060525000184	0.23466715512560704
-0.49982957009375184	0.22896421229068858
-0.49976853493750184	0.22326998206822118
-0.49970749978125184	0.21758414943571985
-0.49964646462500184	0.21183925752229643
-0.49958542946875184	0.20601107420699485
-0.49952439431250184	0.20015515041059445
-0.49946335915625184	0.19431704619464665
-0.49940232400000184	0.18846339510922097
-0.49934128884375184	0.18253967707916377
-0.49928025368750184	0.1765574334407898
-0.49921921853125184	0.17057379455066238
-0.49915818337500184	0.16460146825077698
-0.49909714821875184	0.15859290720358094
-0.49903611306250184	0.15251881263698883
-0.49897507790625184	0.146413871667605
-0.49891404275000184	0.14032085813576553
-0.49885300759375184	0.1342252570391358
-0.49879197243750184	0.128082043700609
-0.49873093728125184	0.12188844015543406
-0.49866990212500184	0.11568760831758838
-0.49860886696875184	0.10950075612060482
-0.49854783181250184	0.10329645190703327
-0.49848679665625184	0.0970433189907098
-0.49842576150000184	0.09076048273474156
-0.49836472634375184	0.08448706663557444
-0.49830369118750184	0.0782215309781578
-0.49824265603125184	0.07192697284088517
-0.49818162087500184	0.06559172400654852
-0.49812058571875184	0.05924832753080786
-0.49805955056250184	0.05292238488952117
-0.49799851540625184	0.04659375016538073
-0.49793748025000184	0.04023103415143824
-0.49787644509375184	0.033843121261729094
-0.49781540993750184	0.027465545522822925
-0.49775437478125184	0.021104789954710837
-0.49769333962500184	0.014730083819133042
-0.49763230446875184	0.00832472956282061
-0.49757126931250184	0.0019139402366675617
-0.49751023415625184	-0.004474743162723281
-0.49744919900000184	-0.0108540292634077
-0.49738816384375184	-0.01725427156336604
-0.49732712868750184	-0.02367294473273142
-0.49726609353125184	-0.03007780858570367
-0.49720505837500184	-0.0364579295176673
-0.49714402321875184	-0.0428395562605147
-0.49708298806250184	-0.049241566341873905
-0.49702195290625184	-0.05564346870435699
-0.49696091775000184	-0.06201771305084883
-0.49689988259375184	-0.06837290506742622
-0.49683884743750184	-0.07473773009928118
-0.49677781228125184	-0.08111267194309904
-0.49671677712500184	-0.08746825168883277
-0.49665574196875184	-0.09379185121897254
-0.49659470681250184	-0.10010633828598811
-0.49653367165625184	-0.10643072991363728
-0.49647263650000184	-0.11274789718432959
-0.49641160134375184	-0.1190317105210986
-0.49635056618750184	-0.12528820017264553
-0.49628953103125184	-0.1315434158803631
-0.49622849587500184	-0.13779909326998796
-0.49616746071875184	-0.1440291017937458
-0.49610642556250184	-0.15022124127633038
-0.49604539040625184	-0.1563950897682502
-0.49598435525000184	-0.16256770603861811
-0.49592332009375184	-0.16872459447070826
-0.49586228493750184	-0.1748428785883849
-0.49580124978125184	-0.18092727740386572
-0.49574021462500184	-0.18699996708955732
-0.49567917946875184	-0.19306245435344022
-0.49561814431250184	-0.199092509758964
-0.49555710915625184	-0.20507974974078472
-0.49549607400000184	-0.21104049178680773
-0.49543503884375184	-0.21698866740949568
-0.49537400368750184	-0.22291194245445423
-0.49531296853125184	-0.22879154956098754
-0.49525193337500184	-0.23463156119889905
-0.49519089821875184	-0.24044974758539284
-0.49512986306250184	-0.2462468327953206
-0.49506882790625184	-0.2520048805624519
-0.49500779275000184	-0.2577157965340789
-0.49494675759375184	-0.2633924066056224
-0.49488572243750184	-0.26904526052534866
-0.49482468728125184	-0.27466447532480776
-0.49476365212500184	-0.2802355804986313
-0.49470261696875184	-0.2857617497140364
-0.49464158181250184	-0.2912561730589181
-0.49458054665625184	-0.29671886765424776
-0.49451951150000184	-0.3021363176662818
-0.49445847634375184	-0.30750278761168154
-0.49439744118750184	-0.3128274950533531
-0.49433640603125184	-0.31811741480818423
-0.49427537087500184	-0.32336523201943573
-0.49421433571875184	-0.32856108478275886
-0.49415330056250184	-0.33370713507074523
-0.49409226540625184	-0.3388116001448422
-0.49403123025000184	-0.3438739712370473
-0.49397019509375184	-0.3488857323874228
-0.49390915993750184	-0.3538435018974299
-0.49384812478125184	-0.3587524427558448
-0.49378708962500184	-0.36361591474272237
-0.49372605446875184	-0.36842939847464007
-0.49366501931250184	-0.3731875399916687
-0.49360398415625184	-0.3778913571642455
-0.49354294900000184	-0.3825444877455012
-0.49348191384375184	-0.3871462099210769
-0.49342087868750184	-0.3916923765897672
-0.49335984353125184	-0.3961811879280799
-0.49329880837500184	-0.40061422253292567
-0.49323777321875184	-0.40499239162912987
-0.49317673806250184	-0.40931399797238943
-0.49311570290625184	-0.41357698350982663
-0.49305466775000184	-0.41778080660465794
-0.49299363259375184	-0.42192566147776833
-0.49293259743750184	-0.42601135217239916
-0.49287156228125184	-0.43003723674760697
-0.49281052712500184	-0.43400220982349524
-0.49274949196875184	-0.43790485768226955
-0.49268845681250184	-0.4417447158896315
-0.49262742165625184	-0.4455226850624481
-0.49256638650000184	-0.4492387907566476
-0.49250535134375184	-0.4528906705766288
-0.49244431618750184	-0.45647624619581656
-0.49238328103125184	-0.4599966442093978
-0.49232224587500184	-0.463453761005559
-0.49226121071875184	-0.4668459079814822
-0.49220017556250184	-0.470169342376328
-0.49213914040625184	-0.4734238311060278
-0.49207810525000184	-0.4766126554878125
-0.49201707009375184	-0.47973628566338533
-0.49195603493750184	-0.48279033076749694
-0.49189499978125184	-0.4857719446109261
-0.49183396462500184	-0.48868416976134227
-0.49177292946875184	-0.4915302934429033
-0.49171189431250184	-0.4943073182751348
-0.49165085915625184	-0.4970100089793283
-0.49158982400000184	-0.49963914228976364
-0.49152878884375184	-0.5021997417046183
-0.49146775368750184	-0.5046918106314026
-0.49140671853125184	-0.507109381472882
-0.49134568337500184	-0.5094499830968666
-0.49128464821875184	-0.5117184460925279
-0.49122361306250184	-0.5139181063250698
-0.49116257790625184	-0.5160442934955692
-0.49110154275000184	-0.518091602553565
-0.49104050759375184	-0.5200627181612776
-0.49097947243750184	-0.5219634297446811
-0.49091843728125184	-0.5237921028472045
-0.49085740212500184	-0.5255417775558593
-0.49079636696875184	-0.5272116142715074
-0.49073533181250184	-0.5288080199901575
-0.49067429665625184	-0.5303331805601278
-0.49061326150000184	-0.5317806943968711
-0.49055222634375184	-0.5331461544677926
-0.49049119118750184	-0.5344344881148461
-0.49043015603125184	-0.5356510948549155
-0.49036912087500184	-0.5367919910461595
-0.49030808571875184	-0.5378502391059743
-0.49024705056250184	-0.5388277308583185
-0.49018601540625184	-0.5397317551825876
-0.49012498025000184	-0.5405620049971616
-0.49006394509375184	-0.5413106466347742
-0.49000290993750184	-0.5419756781306759
-0.48994187478125184	-0.5425643692923303
-0.48988083962500184	-0.5430804475264142
-0.48981980446875184	-0.5435172150371033
-0.48975876931250184	-0.5438689162075554
-0.48969773415625184	-0.5441407799684677
-0.48963669900000184	-0.5443399454811395
-0.48957566384375184	-0.5444627540530511
-0.48951462868750184	-0.5445007822509513
-0.48945359353125184	-0.5444555354264327
-0.48939255837500184	-0.5443360704479995
-0.48933152321875184	-0.5441431580250273
-0.48927048806250184	-0.5438675688061028
-0.48920945290625184	-0.5435060721078063
-0.48914841775000184	-0.543067444908023
-0.48908738259375184	-0.5425574117424438
-0.48902634743750184	-0.5419684032925938
-0.48896531228125184	-0.5412925232886113
-0.48890427712500184	-0.5405356745300458
-0.48884324196875184	-0.5397078062189539
-0.48878220681250184	-0.5388055332381614
-0.48872117165625184	-0.5378176751399127
-0.48866013650000184	-0.5367449775891308
-0.48859910134375184	-0.5355996077009264
-0.48853806618750184	-0.5343843077343747
-0.48847703103125184	-0.5330872793878347
-0.48841599587500184	-0.531702673540552
-0.48835496071875184	-0.5302415649831878
-0.48829392556250184	-0.5287134764618102
-0.48823289040625184	-0.5271097464947012
-0.48817185525000184	-0.5254182761369618
-0.48811082009375184	-0.5236451339130067
-0.48804978493750184	-0.5218051473145616
-0.48798874978125184	-0.5198965381056092
-0.48792771462500184	-0.5179036549306552
-0.48786667946875184	-0.5158243767932478
-0.48780564431250184	-0.513674981076402
-0.48774460915625184	-0.5114627954011185
-0.48768357400000184	-0.5091733465041695
-0.48762253884375184	-0.5067953448194383
-0.48756150368750184	-0.5043412453899998
-0.48750046853125184	-0.501827008459754
-0.48743943337500184	-0.49924483155607935
-0.48737839821875184	-0.4965764077709321
-0.48731736306250184	-0.4938251827029281
-0.48725632790625184	-0.4910118904827638
-0.48719529275000184	-0.48813962904931296
-0.48713425759375184	-0.48518834387297843
-0.48707322243750184	-0.4821496497153014
-0.48701218728125184	-0.4790426962515062
-0.48695115212500184	-0.47588247322682314
-0.48689011696875184	-0.47265416737178645
-0.48682908181250184	-0.4693387221204464
-0.48676804665625184	-0.4659468010241876
-0.48670701150000184	-0.4625020516197052
-0.48664597634375184	-0.45900105581707473
-0.48658494118750184	-0.4554191430430621
-0.48652390603125184	-0.4517536229992626
-0.48646287087500184	-0.44803018580029924
-0.48640183571875184	-0.44425987517499393
-0.48634080056250184	-0.44042013014734294
-0.48627976540625184	-0.4364939712108461
-0.48621873025000184	-0.43250086580884256
-0.48615769509375184	-0.42846494192211876
-0.48609665993750184	-0.42437391398848245
-0.48603562478125184	-0.4202003277607194
-0.48597458962500184	-0.41595009972183583
-0.48591355446875184	-0.4116542517545202
-0.48585251931250184	-0.4073164778360006
-0.48579148415625184	-0.4029069194067476
-0.48573044900000184	-0.39841440971121794
-0.48566941384375184	-0.3938676255258318
-0.48560837868750184	-0.3892873048848708
-0.48554734353125184	-0.38465092798269557
-0.48548630837500184	-0.37993193430891586
-0.48542527321875184	-0.3751471956205614
-0.48536423806250184	-0.37032995050584644
-0.48530320290625184	-0.36547329820098257
-0.48524216775000184	-0.3605422892037801
-0.48518113259375184	-0.3555354808438821
-0.48512009743750184	-0.35048966163384165
-0.48505906228125184	-0.3454178385973761
-0.48499802712500184	-0.3402871135082376
-0.48493699196875184	-0.33507627603294926
-0.48487595681250184	-0.3298144985180064
-0.48481492165625184	-0.32453289407471253
-0.48475388650000184	-0.3192114108596107
-0.48469285134375184	-0.31381392534319935
-0.48463181618750184	-0.3083524175371354
-0.48457078103125184	-0.30286859360048257
-0.48450974587500184	-0.29736296299170406
-0.48444871071875184	-0.291794251438381
-0.48438767556250184	-0.2861520401845554
-0.48432664040625184	-0.2804772119261704
-0.48426560525000184	-0.2747930287250405
-0.48420457009375184	-0.26906543824983825
-0.48414353493750184	-0.263262892342664
-0.48408249978125184	-0.257413119710763
-0.48402146462500184	-0.2515572097883545
-0.48396042946875184	-0.24567930202284913
-0.48389939431250184	-0.23973472476406132
-0.48383835915625184	-0.23372924955116633
-0.48377732400000184	-0.22771144058431078
-0.48371628884375184	-0.22168976539954313
-0.48365525368750184	-0.21561851153020747
-0.48359421853125184	-0.2094787009508188
-0.48353318337500184	-0.20331362624621063
-0.48347214821875184	-0.19715538267835475
-0.48341111306250184	-0.1909694530042631
-0.48335007790625184	-0.18471571503926032
-0.48328904275000184	-0.17842097093255255
-0.48322800759375184	-0.17213476250086404
-0.48316697243750184	-0.16584360400422343
-0.48310593728125184	-0.15949480550283404
-0.48304490212500184	-0.15309085864361732
-0.48298386696875184	-0.1466885268504381
-0.48292283181250184	-0.1403009204444247
-0.48286179665625184	-0.13387395277799427
-0.48280076150000184	-0.1273822461762753
-0.48273972634375184	-0.12087767217145619
-0.48267869118750184	-0.11440139710002789
-0.48261765603125184	-0.10791086894268064
-0.48255662087500184	-0.10135370113467199
-0.48249558571875184	-0.09476339553892955
-0.48243455056250184	-0.08820579189469431
-0.48237351540625184	-0.08166393153995374
-0.48231248025000184	-0.07506498042096829
-0.48225144509375184	-0.06840961740226523
-0.48219040993750184	-0.06177767810050393
-0.48212937478125184	-0.055191797535728386
-0.48206833962500184	-0.04857431166927513
-0.48200730446875184	-0.04188105006862858
-0.48194626931250184	-0.03518471498421142
-0.48188523415625184	-0.028555254333682313
-0.48182419900000184	-0.021936518718974028
-0.48176316384375184	-0.015238654154516581
-0.48170212868750184	-0.008497038711365538
-0.48164109353125184	-0.0018205519191546683
-0.48158005837500184	0.004793839716672283
-0.48151902321875184	0.011462130539104729
-0.48145798806250184	0.01821563650729141
-0.48139695290625184	0.024938454458281658
-0.48133591775000184	0.03155833613470889
-0.48127488259375184	0.03817376245488859
-0.48121384743750184	0.044891928899250984
-0.48115281228125184	0.051641780023099396
-0.48109177712500184	0.05828463593890471
-0.48103074196875184	0.06484772764385312
-0.48096970681250184	0.07148463274663683
-0.48090867165625184	0.07821680718231855
-0.48084763650000184	0.08488884233586023
-0.48078660134375184	0.09142365523178247
-0.48072556618750184	0.09795516409125192
-0.48066453103125184	0.10460791317764433
-0.48060349587500184	0.11128455073054261
-0.48054246071875184	0.11782108929888552
-0.48048142556250184	0.12425911652588015
-0.48042039040625184	0.1307796905103532
-0.48035935525000184	0.1374017660854169
-0.48029832009375184	0.14394578767121347
-0.48023728493750184	0.15032815951312484
-0.48017624978125184	0.15669994602459023
-0.48011521462500184	0.16319679850369126
-0.48005417946875184	0.1697124869871979
-0.47999314431250184	0.1760721606444009
-0.47993210915625184	0.1823194705725101
-0.47987107400000184	0.18864257193286388
-0.47981003884375184	0.19506212980380044
-0.47974900368750184	0.2013970738174245
-0.47968796853125184	0.2075623248762954
-0.47962693337500184	0.21370550387927933
-0.47956589821875184	0.21996016144304187
-0.47950486306250184	0.22622602284542123
-0.47944382790625184	0.23233586715672827
-0.47938279275000184	0.23832854273783063
-0.47932175759375184	0.24437940524170265
-0.47926072243750184	0.2505095393655278
-0.47919968728125184	0.2565538795917415
-0.47913865212500184	0.26243365979702976
-0.47907761696875184	0.2682807607943041
-0.47901658181250184	0.27421551802601335
-0.47895554665625184	0.28014996963296235
-0.47889451150000184	0.28593583910269155
-0.47883347634375184	0.2916057724692787
-0.47877244118750184	0.29731301521308307
-0.47871140603125184	0.3030775242767745
-0.47865037087500184	0.3087567945898384
-0.47858933571875184	0.3142808491544118
-0.47852830056250184	0.31976156633407693
-0.47846726540625184	0.32530397381724757
-0.47840623025000184	0.3308355021999897
-0.47834519509375184	0.3362283422830103
-0.47828415993750184	0.34150622007900516
-0.47822312478125184	0.3467989352822541
-0.47816208962500184	0.35212807650299216
-0.47810105446875184	0.3573754927800035
-0.47804001931250184	0.36247740875963497
-0.47797898415625184	0.36752309875145944
-0.47791794900000184	0.3726042102641409
-0.47785691384375184	0.37766694189734856
-0.47779587868750184	0.3826031482081368
-0.47773484353125184	0.3874239289784146
-0.47767380837500184	0.39223525515840446
-0.47761277321875184	0.39706395234124153
-0.47755173806250184	0.4018178159257893
-0.47749070290625184	0.40643638944102317
-0.47742966775000184	0.41098385861625286
-0.47736863259375184	0.41554018431632844
-0.47730759743750184	0.42007306720535914
-0.47724656228125184	0.424493687977443
-0.47718552712500184	0.4287983875349236
-0.47712449196875184	0.4330686597900491
-0.47706345681250184	0.43733753349022786
-0.47700242165625184	0.44153960512078116
-0.47694138650000184	0.4456180133866126
-0.47688035134375184	0.4496117374260036
-0.47681931618750184	0.45358815359608046
-0.47675828103125184	0.45753544971438154
-0.47669724587500184	0.4613847881508706
-0.47663621071875184	0.4651197566573371
-0.47657517556250184	0.46879780058671305
-0.47651414040625184	0.4724557789926084
-0.47645310525000184	0.47605319519156825
-0.47639207009375184	0.47953875435542986
-0.47633103493750184	0.48292957731763675
-0.47626999978125184	0.4862797552176498
-0.47620896462500184	0.4895936642570876
-0.47614792946875184	0.4928213049643567
-0.47608689431250184	0.4959379622584679
-0.47602585915625184	0.49898027375565984
-0.47596482400000184	0.5019854585381993
-0.47590378884375184	0.504932878651627
-0.47584275368750184	0.5077782301146426
-0.47578171853125184	0.5105227995239363
-0.47572068337500184	0.5132086471129621
-0.47565964821875184	0.5158505989565836
-0.47559861306250184	0.5184136591711908
-0.47553757790625184	0.5208690811721488
-0.47547654275000184	0.5232384437531133
-0.47541550759375184	0.5255573565932993
-0.47535447243750184	0.5278185076777165
-0.47529343728125184	0.5299840308974785
-0.47523240212500184	0.5320455519949515
-0.47517136696875184	0.5340359919185891
-0.47511033181250184	0.5359758394956233
-0.47504929665625184	0.5378405125445492
-0.47498826150000184	0.5396000227279589
-0.47492722634375184	0.5412663126421231
-0.47486619118750184	0.5428728053000667
-0.47480515603125184	0.544420204317787
-0.47474412087500184	0.5458756640638238
-0.47468308571875184	0.5472255761773319
-0.47462205056250184	0.54849660027617
-0.47456101540625184	0.5497118246228326
-0.47449998025000184	0.5508534100398724
-0.47443894509375184	0.5518916610239994
-0.47437790993750184	0.5528327725787652
-0.47431687478125184	0.5537079609822195
-0.47425583962500184	0.5545223580945013
-0.47419480446875184	0.5552469241246785
-0.47413376931250184	0.5558657911755711
-0.47407273415625184	0.5564014723514654
-0.47401169900000184	0.5568775202727059
-0.47395066384375184	0.5572802296601245
-0.47388962868750184	0.5575814354649854
-0.47382859353125184	0.5577843041829169
-0.47376755837500184	0.5579174020656072
-0.47370652321875184	0.5579877158778258
-0.47364548806250184	0.557969778910047
-0.47358445290625184	0.5578477476904284
-0.47352341775000184	0.5576408144947663
-0.47346238259375184	0.5573710960983873
-0.47340134743750184	0.5570276920726395
-0.47334031228125184	0.5565854064479187
-0.47327927712500184	0.5560461443096737
-0.47321824196875184	0.5554350485831641
-0.47315720681250184	0.5547590378871765
-0.47309617165625184	0.5539962963070524
-0.47303513650000184	0.5531327889755294
-0.47297410134375184	0.5521848817373329
-0.47291306618750184	0.5511717856139857
-0.47285203103125184	0.5500844690404237
-0.47279099587500184	0.548901693162111
-0.47272996071875184	0.5476252129477368
-0.47266892556250184	0.5462761907569551
-0.47260789040625184	0.5448603181689479
-0.47254685525000184	0.5433596233690586
-0.47248582009375184	0.5417630092711139
-0.47242478493750184	0.5400841917710069
-0.47236374978125184	0.5383386387530953
-0.47230271462500184	0.5365188848800032
-0.47224167946875184	0.5346081896001706
-0.47218064431250184	0.5326084302186548
-0.47211960915625184	0.5305364277243824
-0.47205857400000184	0.5283964388127139
-0.47199753884375184	0.5261745501928792
-0.47193650368750184	0.5238626671627242
-0.47187546853125184	0.5214716147083309
-0.47181443337500184	0.519012993195578
-0.47175339821875184	0.5164811351368078
-0.47169236306250184	0.513864081748846
-0.47163132790625184	0.5111637103883261
-0.47157029275000184	0.5083921387522086
-0.47150925759375184	0.5055521871544254
-0.47144822243750184	0.5026344208005193
-0.47138718728125184	0.4996339199429577
-0.47132615212500184	0.49655821528796856
-0.47126511696875184	0.49341476243080934
-0.47120408181250184	0.4901999836415176
-0.47114304665625184	0.4869069281497679
-0.47108201150000184	0.4835372549288672
-0.47102097634375184	0.48009821310744966
-0.47095994118750184	0.47659137170625726
-0.47089890603125184	0.47301185671273943
-0.47083787087500184	0.4693576419520952
-0.47077683571875184	0.4656328739376538
-0.47071580056250184	0.46184125699918904
-0.47065476540625184	0.4579814852654811
-0.47059373025000184	0.45405110599581344
-0.47053269509375184	0.4500511803413246
-0.47047165993750184	0.4459847001629109
-0.47041062478125184	0.44185265629766224
-0.47034958962500184	0.437654102743765
