Time	Frequency
-0.5000246710000056	0.5061160715714733
-0.4999636358437556	0.5124487589715456
-0.4999026006875056	0.5186542964094736
-0.4998415655312556	0.5247406153010788
-0.4997805303750056	0.5307049093790294
-0.4997194952187556	0.5365354863457329
-0.4996584600625056	0.5422227425268319
-0.4995974249062556	0.5477673836275738
-0.4995363897500056	0.553177553774595
-0.4994753545937556	0.5584584834913173
-0.4994143194375056	0.5636057610407582
-0.4993532842812556	0.5686089857521938
-0.4992922491250056	0.5734614762259633
-0.4992312139687556	0.5781656219216089
-0.4991701788125056	0.5827285596613887
-0.4991091436562556	0.5871532173516375
-0.4990481085000056	0.5914342653880528
-0.4989870733437556	0.5955628866478926
-0.4989260381875056	0.5995349079301332
-0.4988650030312556	0.6033536768276965
-0.4988039678750056	0.6070250446657603
-0.4987429327187556	0.610550113221071
-0.4986818975625056	0.6139233538569552
-0.4986208624062556	0.6171377322377573
-0.4985598272500056	0.6201911338388646
-0.4984987920937556	0.6230873419397006
-0.4984377569375056	0.6258308854357236
-0.4983767217812556	0.6284214828088796
-0.4983156866250056	0.6308538476685716
-0.4982546514687556	0.6331227217728691
-0.4981936163125056	0.6352275974733762
-0.4981325811562556	0.6371722686027448
-0.4980715460000056	0.6389600248844763
-0.4980105108437556	0.6405897147368376
-0.4979494756875056	0.6420566675298895
-0.4978884405312556	0.6433572397725988
-0.4978274053750056	0.6444920709608425
-0.4977663702187556	0.645464743112978
-0.4977053350625056	0.646277515574724
-0.4976442999062556	0.6469287460369846
-0.4975832647500056	0.6474145567326266
-0.4975222295937556	0.6477327454473353
-0.4974611944375056	0.6478847519080623
-0.4974001592812556	0.6478737708579121
-0.4973391241250056	0.6477012247962579
-0.4972780889687556	0.6473653567003823
-0.4972170538125056	0.6468632365594276
-0.4971560186562556	0.6461938665619364
-0.4970949835000056	0.6453591203206889
-0.4970339483437556	0.6443617177804204
-0.4969729131875056	0.6432025309255839
-0.4969118780312556	0.6418800192422425
-0.4968508428750056	0.6403922079755829
-0.4967898077187556	0.6387390002149135
-0.4967287725625056	0.6369224392009278
-0.4966677374062556	0.6349448244732514
-0.4966067022500056	0.6328067712797324
-0.4965456670937556	0.6305071696229483
-0.4964846319375056	0.6280449216699707
-0.4964235967812556	0.6254205489025122
-0.4963625616250056	0.6226360662935257
-0.4963015264687556	0.6196934288967144
-0.4962404913125056	0.6165932364859287
-0.4961794561562556	0.6133349507918464
-0.4961184210000056	0.6099182710944748
-0.4960573858437556	0.606344165291149
-0.4959963506875056	0.6026145454785256
-0.4959353155312556	0.5987311103897595
-0.4958742803750056	0.5946946119099258
-0.4958132452187556	0.5905051470102807
-0.4957522100625056	0.5861630366300944
-0.4956911749062556	0.5816693920156509
-0.4956301397500056	0.5770259037919362
-0.4955691045937556	0.5722342126731893
-0.4955080694375056	0.5672955161358715
-0.4954470342812556	0.5622106531637386
-0.4953859991250056	0.5569804157146578
-0.4953249639687556	0.5516058197367804
-0.4952639288125056	0.54608828381195
-0.4952028936562556	0.5404295946433465
-0.4951418585000056	0.5346315574228526
-0.4950808233437556	0.5286955940983716
-0.4950197881875056	0.5226226678496311
-0.4949587530312556	0.5164136590010026
-0.4948977178750056	0.5100699501780456
-0.4948366827187556	0.5035936632082393
-0.4947756475625056	0.49698717923221714
-0.4947146124062556	0.4902522816347319
-0.4946535772500056	0.4833898416792877
-0.4945925420937556	0.4764005758240698
-0.4945315069375056	0.4692861283994512
-0.4944704717812556	0.46204924147739745
-0.4944094366250056	0.45469275936550185
-0.4943484014687556	0.44721845713086666
-0.4942873663125056	0.43962694648739903
-0.4942263311562556	0.4319188823898673
-0.4941652960000056	0.42409632103429956
-0.4941042608437556	0.4161627600886163
-0.4940432256875056	0.40812158069232235
-0.4939821905312556	0.3999743925461723
-0.4939211553750056	0.3917212074939876
-0.4938601202187556	0.3833625397801549
-0.4937990850625056	0.37490123604706077
-0.4937380499062556	0.36634181948488787
-0.4936770147500056	0.3576878720812573
-0.4936159795937556	0.3489403306605547
-0.4935549444375056	0.34009865104270703
-0.4934939092812556	0.33116373878237854
-0.4934328741250056	0.32213951143970637
-0.4933718389687556	0.3130312065463438
-0.4933108038125056	0.3038420921679275
-0.4932497686562556	0.2945721793364825
-0.4931887335000056	0.2852205771020341
-0.4931276983437556	0.2757890831939218
-0.4930666631875056	0.26628295391919016
-0.4930056280312556	0.25670784079147857
-0.4929445928750056	0.24706615385033118
-0.4928835577187556	0.2373568206506783
-0.4928225225625056	0.22757893034381252
-0.4927614874062556	0.2177355022049877
-0.4927004522500056	0.2078331428355512
-0.4926394170937556	0.19787766695982004
-0.4925783819375056	0.18787030639803817
-0.4925173467812556	0.1778088019665747
-0.4924563116250056	0.16769250468895402
-0.4923952764687556	0.15752600206360887
-0.4923342413125056	0.14731714201076976
-0.4922732061562556	0.1370713728515578
-0.4922121710000056	0.12678840272167455
-0.4921511358437556	0.11646501896000276
-0.4920901006875056	0.10610137815624422
-0.4920290655312556	0.09570395227381868
-0.4919680303750056	0.08528159749858152
-0.4919069952187556	0.07483868432196625
-0.4918459600625056	0.0643728397768204
-0.4917849249062556	0.053880201419017365
-0.4917238897500056	0.04336264818349512
-0.4916628545937556	0.03282895507842683
-0.4916018194375056	0.02228836735859692
-0.4915407842812556	0.011743331300576981
-0.4914797491250056	0.001189303418487853
-0.4914187139687556	-0.00937767973519877
-0.4913576788125056	-0.01995353239469925
-0.4912966436562556	-0.030527188040938298
-0.4912356085000056	-0.04108964622463306
-0.4911745733437556	-0.05164120862150853
-0.4911135381875056	-0.06218858011784339
-0.4910525030312556	-0.07273468336601265
-0.4909914678750056	-0.08327226017479276
-0.4909304327187556	-0.09378847000463164
-0.4908693975625056	-0.10427592434254618
-0.4908083624062556	-0.11473824856913031
-0.4907473272500056	-0.12518363404039068
-0.4906862920937556	-0.1356129380114893
-0.4906252569375056	-0.14601535915072947
-0.4905642217812556	-0.15637691869038617
-0.4905031866250056	-0.166693024006555
-0.4904421514687556	-0.17697125373093908
-0.4903811163125056	-0.18722053936863345
-0.4903200811562556	-0.19743817869455613
-0.4902590460000056	-0.20760931088540802
-0.4901980108437556	-0.2177200763828182
-0.4901369756875056	-0.2277703240631663
-0.4900759405312556	-0.23777161306384428
-0.4900149053750056	-0.24773200231258127
-0.4899538702187556	-0.2576439435390764
-0.4898928350625056	-0.26748901955628546
-0.4898317999062556	-0.2772551911550811
-0.4897707647500056	-0.2869478870953672
-0.4897097295937556	-0.29658208219679616
-0.4896486944375056	-0.30616318512209606
-0.4895876592812556	-0.3156776287842244
-0.4895266241250056	-0.3251043215500802
-0.4894655889687556	-0.3344352209510714
-0.4894045538125056	-0.34368237976397564
-0.4893435186562556	-0.3528628107984182
-0.4892824835000056	-0.36197695142284964
-0.4892214483437556	-0.37100456750035515
-0.4891604131875056	-0.37992370301831496
-0.4890993780312556	-0.38873270022776646
-0.4890383428750056	-0.3974506774406198
-0.4889773077187556	-0.40609467799939075
-0.4889162725625056	-0.4146578763376317
-0.4888552374062556	-0.4231133888439398
-0.4887942022500056	-0.4314408262850507
-0.4887331670937556	-0.43964706883708105
-0.4886721319375056	-0.4477576832774314
-0.4886110967812556	-0.45578697529156675
-0.4885500616250056	-0.46371898982675913
-0.4884890264687556	-0.4715213342590773
-0.4884279913125056	-0.47917819224241226
-0.4883669561562556	-0.4867066602902106
-0.4883059210000056	-0.49413726759048116
-0.4882448858437556	-0.5014785018359974
-0.4881838506875056	-0.508704001545837
-0.4881228155312556	-0.5157778799600096
-0.4880617803750056	-0.5226920670849511
-0.4880007452187556	-0.5294747880939187
-0.4879397100625056	-0.5361591650301741
-0.4878786749062556	-0.5427446905919451
-0.4878176397500056	-0.5491940149584004
-0.4877566045937556	-0.5554704936162761
-0.4876955694375056	-0.5615770128132983
-0.4876345342812556	-0.5675531345721025
-0.4875734991250056	-0.5734315045222242
-0.4875124639687556	-0.5791996121941203
-0.4874514288125056	-0.5848094889853415
-0.4873903936562556	-0.590227145372591
-0.4873293585000056	-0.5954692184983721
-0.4872683233437556	-0.6005857371060479
-0.4872072881875056	-0.6056052371459357
-0.4871462530312556	-0.6105007238716967
-0.4870852178750056	-0.6152150070326526
-0.4870241827187556	-0.6197205975020503
-0.4869631475625056	-0.6240500702552335
-0.4869021124062556	-0.6282620604215559
-0.4868410772500056	-0.6323770392378345
-0.4867800420937556	-0.6363517775447263
-0.4867190069375056	-0.6401223001231346
-0.4866579717812556	-0.6436716270293402
-0.4865969366250056	-0.6470494699635767
-0.4865359014687556	-0.6503201454023981
-0.4864748663125056	-0.6534922058825188
-0.4864138311562556	-0.6565056232231631
-0.4863527960000056	-0.6592930173467183
-0.4862917608437556	-0.6618515978415714
-0.4862307256875056	-0.6642481648451211
-0.4861696905312556	-0.6665489334082468
-0.4861086553750056	-0.6687471521858679
-0.4860476202187556	-0.6707667956696524
-0.4859865850625056	-0.672541283793173
-0.4859255499062556	-0.6740850057939378
-0.4858645147500056	-0.6754802022398517
-0.4858034795937556	-0.676790398088161
-0.4857424444375056	-0.67799113962824
-0.4856814092812556	-0.6789930501595551
-0.4856203741250056	-0.6797352418763604
-0.4855593389687556	-0.6802509266629011
-0.4854983038125056	-0.6806341769198988
-0.4854372686562556	-0.6809408717742903
-0.4853762335000056	-0.6811281206711519
-0.4853151983437556	-0.6810976798076421
-0.4852541631875056	-0.6807991985764236
-0.4851931280312556	-0.6802844604074495
-0.4851320928750056	-0.6796540977042785
-0.4850710577187556	-0.6789517936585938
-0.4850100225625056	-0.6781175572615674
-0.4849489874062556	-0.6770502417650962
-0.4848879522500056	-0.6757141146261555
-0.4848269170937556	-0.6741771049894442
-0.4847658819375056	-0.6725399689878354
-0.4847048467812556	-0.6708307592650458
-0.4846438116250056	-0.6689758131167745
-0.4845827764687556	-0.66687775494368
-0.4845217413125056	-0.6645181283220003
-0.4844607061562556	-0.6619766728866302
-0.4843996710000056	-0.6593475877679238
-0.4843386358437556	-0.6566415230668767
-0.4842776006875056	-0.6537761817942288
-0.4842165655312556	-0.6506642879389873
-0.4841555303750056	-0.6473054647047835
-0.4840944952187556	-0.6437858260445642
-0.4840334600625056	-0.6401873313113545
-0.4839724249062556	-0.6365033977917528
-0.4839113897500056	-0.6326487582462452
-0.4838503545937556	-0.6285510935307373
-0.4837893194375056	-0.6242268891437367
-0.4837282842812556	-0.61976286925854
-0.4836672491250056	-0.6152248990706728
-0.4836062139687556	-0.6105912855959011
-0.4835451788125056	-0.6057792333821437
-0.4834841436562556	-0.6007340940564888
-0.4834231085000056	-0.5954864843539418
-0.4833620733437556	-0.5901188124065052
-0.4833010381875056	-0.5846791136858005
-0.4832400030312556	-0.5791337433777367
-0.4831789678750056	-0.5734068189644422
-0.4831179327187556	-0.5674621960157789
-0.4830568975625056	-0.5613409984254367
-0.4829958624062556	-0.5551173074534193
-0.4829348272500056	-0.5488213550097368
-0.4828737920937556	-0.5424114685054869
-0.4828127569375056	-0.5358220417796703
-0.4827517217812556	-0.5290345506492171
-0.4826906866250056	-0.5220966607566753
-0.4826296514687556	-0.5150715484981749
-0.4825686163125056	-0.5079731374514946
-0.4825075811562556	-0.500755463564406
-0.4824465460000056	-0.4933650576312845
-0.4823855108437556	-0.48579898681383654
-0.4823244756875056	-0.4781076978571673
-0.4822634405312556	-0.47034205407760843
-0.4822024053750056	-0.46250221030016636
-0.4821413702187556	-0.45454163532796465
-0.4820803350625056	-0.4464198139199328
-0.4820192999062556	-0.4381465082287661
-0.4819582647500056	-0.42977159423638367
-0.4818972295937556	-0.4213333476902984
-0.4818361944375056	-0.41282106532411983
-0.4817751592812556	-0.4041905732475241
-0.4817141241250056	-0.39541414448917483
-0.4816530889687556	-0.38651112386535935
-0.4815920538125056	-0.37752802281764797
-0.4815310186562556	-0.3684910083221196
-0.4814699835000056	-0.3593816960679194
-0.4814089483437556	-0.35016071364021495
-0.4813479131875056	-0.34081235416935696
-0.4812868780312556	-0.33136254198001286
-0.4812258428750056	-0.3218523687213921
-0.4811648077187556	-0.3122968260289086
-0.4811037725625056	-0.3026726247046342
-0.4810427374062556	-0.29294674113712155
-0.4809817022500056	-0.2831141158997781
-0.4809206670937556	-0.27320449629977334
-0.4808596319375056	-0.2632524548434784
-0.4807985967812556	-0.2532635317200144
-0.4807375616250056	-0.243212197527307
-0.4806765264687556	-0.23307255655066855
-0.4806154913125056	-0.22284824864903882
-0.4805544561562556	-0.2125701798947357
-0.4804934210000056	-0.20226576388465875
-0.4804323858437556	-0.19193303166762088
-0.4803713506875056	-0.18154655631597225
-0.4803103155312556	-0.17108781446876842
-0.4802492803750056	-0.16056719602847547
-0.4801882452187556	-0.15001482042803296
-0.4801272100625056	-0.13945102358307934
-0.4800661749062556	-0.12886826486590267
-0.4800051397500056	-0.11824291437448649
-0.4799441045937556	-0.10756342115290024
-0.4798830694375056	-0.09684475359240481
-0.4798220342812556	-0.08611455412890985
-0.4797609991250056	-0.07538665925962487
-0.4796999639687556	-0.0646501017589932
-0.4796389288125056	-0.05388437218170267
-0.4795778936562556	-0.04308407999755997
-0.4795168585000056	-0.03226693699550619
-0.4794558233437556	-0.021457229740631908
-0.4793947881875056	-0.010663034177467008
-0.4793337530312556	0.00012867207949867666
-0.4792727178750056	0.010934647053162
-0.4792116827187556	0.02175484213943453
-0.4791506475625056	0.03257023430963857
-0.4790896124062556	0.0433605363532663
-0.4790285772500056	0.05412248570468724
-0.4789675420937556	0.0648696065074661
-0.4789065069375056	0.07561453978791784
-0.4788454717812556	0.0863531289966775
-0.4787844366250056	0.09706664569080671
-0.4787234014687556	0.107738984893193
-0.4786623663125056	0.11837036935316361
-0.4786013311562556	0.1289735147005078
-0.4785402960000056	0.13955699390940976
-0.4784792608437556	0.15011367863935532
-0.4784182256875056	0.16062605730815038
-0.4783571905312556	0.17108210163942333
-0.4782961553750056	0.18148465973853498
-0.4782351202187556	0.1918449320442333
-0.4781740850625056	0.20216766111087786
-0.4781130499062556	0.21244384367038585
-0.4780520147500056	0.22265805780909037
-0.4779909795937556	0.232801979987167
-0.4779299444375056	0.24287981501812436
-0.4778689092812556	0.2529005515795423
-0.4778078741250056	0.2628657403479222
-0.4777468389687556	0.2727656157127826
-0.4776858038125056	0.2825871512183473
-0.4776247686562556	0.2923250739589595
-0.4775637335000056	0.3019842576413458
-0.4775026983437556	0.31157150809902373
-0.4774416631875056	0.321085814240765
-0.4773806280312556	0.33051724562692897
-0.4773195928750056	0.3398552021972298
-0.4772585577187556	0.3490969080504459
-0.4771975225625056	0.3582473067345696
-0.4771364874062556	0.36731101885699147
-0.4770754522500056	0.3762851602630906
-0.4770144170937556	0.38516033777067604
-0.4769533819375056	0.3939283006890994
-0.4768923467812556	0.40258801777396946
-0.4768313116250056	0.41114397781292034
-0.4767702764687556	0.41959887014495545
-0.4767092413125056	0.42794859934942164
-0.4766482061562556	0.436184692108137
-0.4765871710000056	0.4443011063052603
-0.4765261358437556	0.4522980940675861
-0.4764651006875056	0.46017934278754474
-0.4764040655312556	0.4679457920960636
-0.4763430303750056	0.4755927225243961
-0.4762819952187556	0.4831129216665445
-0.4762209600625056	0.49050223078137706
-0.4761599249062556	0.4977615922918967
-0.4760988897500056	0.5048937842685116
-0.4760378545937556	0.5118985216657064
-0.4759768194375056	0.5187710035188575
-0.4759157842812556	0.5255052429536021
-0.4758547491250056	0.5320984886830261
-0.4757937139687556	0.538552047673123
-0.4757326788125056	0.5448678804944527
-0.4756716436562556	0.551044788361793
-0.4756106085000056	0.5570781517793891
-0.4755495733437556	0.5629632607898429
-0.4754885381875056	0.5686985611972857
-0.4754275030312556	0.5742854517521984
-0.4753664678750056	0.57972507774685
-0.4753054327187556	0.5850156571534209
-0.4752443975625056	0.5901530616003275
-0.4751833624062556	0.5951338052926176
-0.4751223272500056	0.599957197588927
-0.4750612920937556	0.6046245238946439
-0.4750002569375056	0.6091362937356704
-0.4749392217812556	0.613490512555714
-0.4748781866250056	0.6176836884533362
-0.4748171514687556	0.6217133276025698
-0.4747561163125056	0.6255792543067333
-0.4746950811562556	0.6292825322003776
-0.4746340460000056	0.6328232769032645
-0.4745730108437556	0.6361996389487331
-0.4745119756875056	0.6394088868400829
-0.4744509405312556	0.642449328103371
-0.4743899053750056	0.6453210503356627
-0.4743288702187556	0.6480248530586064
-0.4742678350625056	0.6505606309018398
-0.4742067999062556	0.6529268710858005
-0.4741457647500056	0.6551216338792223
-0.4740847295937556	0.6571438814396692
-0.4740236944375056	0.658993809701893
-0.4739626592812556	0.6606719818833164
-0.4739016241250056	0.6621782714622155
-0.4738405889687556	0.6635116629626191
-0.4737795538125056	0.6646709552815323
-0.4737185186562556	0.6656555519557463
-0.4736574835000056	0.6664656050045712
-0.4735964483437556	0.6671015190923238
-0.4735354131875056	0.6675633886625992
-0.4734743780312556	0.6678508492481383
-0.4734133428750056	0.6679633392471671
-0.4733523077187556	0.6679004662236603
-0.4732912725625056	0.6676622367536512
-0.4732302374062556	0.6672490566430423
-0.4731692022500056	0.666661481119151
-0.4731081670937556	0.6658998308879532
-0.4730471319375056	0.6649639650755877
-0.4729860967812556	0.6638534816635291
-0.4729250616250056	0.6625682902993102
-0.4728640264687556	0.6611090578184656
-0.4728029913125056	0.6594769736157939
-0.4727419561562556	0.6576729320813482
-0.4726809210000056	0.6556969493531822
-0.4726198858437556	0.6535485026324894
-0.4725588506875056	0.6512275726011628
-0.4724978155312556	0.6487353481152736
-0.4724367803750056	0.6460737107312934
-0.4723757452187556	0.643243889566493
-0.4723147100625056	0.6402457403110342
-0.4722536749062556	0.6370785475879602
-0.4721926397500056	0.6337426068952451
-0.4721316045937556	0.6302399176260457
-0.4720705694375056	0.6265731167783808
-0.4720095342812556	0.6227436132295762
-0.4719484991250056	0.6187509134059784
-0.4718874639687556	0.6145940713023809
-0.4718264288125056	0.6102738836332323
-0.4717653936562556	0.6057933746073878
-0.4717043585000056	0.6011558099174658
-0.4716433233437556	0.5963623083517932
-0.4715822881875056	0.5914117538098315
-0.4715212530312556	0.5863032855287097
-0.4714602178750056	0.5810387604677486
-0.4713991827187556	0.5756223575527083
-0.4713381475625056	0.5700575290356186
-0.4712771124062556	0.5643446161555313
-0.4712160772500056	0.5584818798396959
-0.4711550420937556	0.5524689661150235
-0.4710940069375056	0.5463090885191298
-0.4710329717812556	0.5400074494335722
-0.4709719366250056	0.533567374253864
-0.4709109014687556	0.5269882652766986
-0.4708498663125056	0.520267847581848
-0.4707888311562556	0.5134065354447572
-0.4707277960000056	0.5064091278303994
-0.4706667608437556	0.4992817329443643
-0.4706057256875056	0.49202705174186495
-0.4705446905312556	0.4846431879703278
-0.4704836553750056	0.477127568682123
-0.4704226202187556	0.46948193167095637
-0.4703615850625056	0.4617128635691986
-0.4703005499062556	0.45382698082572615
-0.4702395147500056	0.4458257956258066
-0.4701784795937556	0.43770600890606964
-0.4701174444375056	0.4294652180070752
-0.4700564092812556	0.42110701186617355
-0.4699953741250056	0.41263976212357545
-0.4699343389687556	0.40407001024800654
-0.4698733038125056	0.39539748643794775
-0.4698122686562556	0.3866175032035284
-0.4697512335000056	0.3777285077930191
-0.4696901983437556	0.3687365702832866
-0.4696291631875056	0.35965160811905716
-0.4695681280312556	0.35047919410922007
-0.4695070928750056	0.34121678286637075
-0.4694460577187556	0.3318587267799873
-0.4693850225625056	0.32240510245136034
-0.4693239874062556	0.3128647289414351
