Time	Frequency
-0.500019071187495	-0.5879073770239438
-0.499958036031245	-0.5918359253923099
-0.499897000874995	-0.5956198701759594
-0.499835965718745	-0.5992533803816849
-0.499774930562495	-0.6027435458518281
-0.499713895406245	-0.6061039797242401
-0.499652860249995	-0.6093429042934625
-0.499591825093745	-0.6124555175221325
-0.499530789937495	-0.6154270361656703
-0.499469754781245	-0.6182441069904141
-0.499408719624995	-0.620905282884908
-0.499347684468745	-0.6234218867801792
-0.499286649312495	-0.6258084262918929
-0.499225614156245	-0.6280702528279631
-0.499164578999995	-0.6301984853756988
-0.499103543843745	-0.6321764802732479
-0.499042508687495	-0.633992810718789
-0.498981473531245	-0.6356503051840079
-0.498920438374995	-0.6371637003268573
-0.498859403218745	-0.6385475856841989
-0.498798368062495	-0.6398042197546917
-0.498737332906245	-0.6409210974218325
-0.498676297749995	-0.6418804867342472
-0.498615262593745	-0.6426734745394641
-0.498554227437495	-0.6433071683235229
-0.498493192281245	-0.6437990437565639
-0.498432157124995	-0.6441628423461566
-0.498371121968745	-0.644397331443768
-0.498310086812495	-0.6444869850679308
-0.498249051656245	-0.6444141542374167
-0.498188016499995	-0.6441731291440472
-0.498126981343745	-0.6437748615072054
-0.498065946187495	-0.6432384269823905
-0.498004911031245	-0.6425758991797098
-0.497943875874995	-0.6417826737777903
-0.497882840718745	-0.6408410296686666
-0.497821805562495	-0.6397342405253776
-0.497760770406245	-0.6384600972813056
-0.497699735249995	-0.6370330046133023
-0.497638700093745	-0.635472844604199
-0.497577664937495	-0.6337893872113013
-0.497516629781245	-0.6319746599929514
-0.497455594624995	-0.6300094413307271
-0.497394559468745	-0.6278787860418295
-0.497333524312495	-0.6255842415108982
-0.497272489156245	-0.6231430889049593
-0.497211453999995	-0.6205751630954105
-0.497150418843745	-0.6178875185660834
-0.497089383687495	-0.6150691325681804
-0.497028348531245	-0.6121000235780942
-0.496967313374995	-0.608967573037987
-0.496906278218745	-0.6056770811173339
-0.496845243062495	-0.6022481938691385
-0.496784207906245	-0.5986999572148438
-0.496723172749995	-0.595036245759692
-0.496662137593745	-0.5912431999598117
-0.496601102437495	-0.5873008561271865
-0.496540067281245	-0.5831997206625956
-0.496479032124995	-0.5789490449863748
-0.496417996968745	-0.5745702190142106
-0.496356961812495	-0.5700805167655443
-0.496295926656245	-0.5654801092819373
-0.496234891499995	-0.5607527168489759
-0.496173856343745	-0.5558793506617977
-0.496112821187495	-0.550854207676575
-0.496051786031245	-0.5456901946473364
-0.495990750874995	-0.5404096448382211
-0.495929715718745	-0.5350274747555033
-0.495868680562495	-0.5295402052588108
-0.495807645406245	-0.5239296204934538
-0.495746610249995	-0.5181782161308431
-0.495685575093745	-0.512284218819506
-0.495624539937495	-0.5062641391145646
-0.495563504781245	-0.5001406933964785
-0.495502469624995	-0.49392566841777036
-0.495441434468745	-0.48761152323154866
-0.495380399312495	-0.48117857612954906
-0.495319364156245	-0.474611919610757
-0.495258328999995	-0.46791449824430104
-0.495197293843745	-0.46110601198234047
-0.495136258687495	-0.454208409496042
-0.495075223531245	-0.4472294640504884
-0.495014188374995	-0.4401577131577932
-0.494953153218745	-0.432972897790328
-0.494892118062495	-0.425663518762205
-0.494831082906245	-0.4182374592979147
-0.494770047749995	-0.41071714123569236
-0.494709012593745	-0.40312290082412233
-0.494647977437495	-0.3954578339599872
-0.494586942281245	-0.38770656817906324
-0.494525907124995	-0.37984904656809293
-0.494464871968745	-0.3718781028534508
-0.494403836812495	-0.3638067709421032
-0.494342801656245	-0.3556594102641507
-0.494281766499995	-0.34745359864390785
-0.494220731343745	-0.33918737127894255
-0.494159696187495	-0.3308421880556993
-0.494098661031245	-0.32239934052455244
-0.494037625874995	-0.31385665440452293
-0.493976590718745	-0.30523198472299856
-0.493915555562495	-0.2965504999578463
-0.493854520406245	-0.2878258869933975
-0.493793485249995	-0.27905071119398245
-0.493732450093745	-0.2702038494169906
-0.493671414937495	-0.2612691577448825
-0.493610379781245	-0.25225037264363487
-0.493549344624995	-0.24317000046321488
-0.493488309468745	-0.23405286672053469
-0.493427274312495	-0.22490763036439368
-0.493366239156245	-0.21572128376140065
-0.493305203999995	-0.20647119883960324
-0.493244168843745	-0.1971451351613834
-0.493183133687495	-0.18775309062938011
-0.493122098531245	-0.17832123395124552
-0.493061063374995	-0.16887250901294648
-0.493000028218745	-0.15940957054977167
-0.492938993062495	-0.14991412227997133
-0.492877957906245	-0.14036340531645392
-0.492816922749995	-0.13075058304058038
-0.492755887593745	-0.12109241180984032
-0.492694852437495	-0.111417652104619
-0.492633817281245	-0.10174544991532859
-0.492572782124995	-0.0920713887296761
-0.492511746968745	-0.0823726386441557
-0.492450711812495	-0.0726281289429403
-0.492389676656245	-0.06283763266872881
-0.492328641499995	-0.053024165588503314
-0.492267606343745	-0.043217366280592195
-0.492206571187495	-0.03343122338241208
-0.492145536031245	-0.023654222693073438
-0.492084500874995	-0.013860161294330348
-0.492023465718745	-0.004031333221721041
-0.491962430562495	0.005824823641497412
-0.491901395406245	0.015679622220986126
-0.491840360249995	0.025504533003943175
-0.491779325093745	0.03529271584108698
-0.491718289937495	0.04506311740247959
-0.491657254781245	0.05484348295362698
-0.491596219624995	0.06464587250389535
-0.491535184468745	0.07445460946337144
-0.491474149312495	0.08423679064574027
-0.491413114156245	0.09396718222649494
-0.491352078999995	0.10364715054217509
-0.491291043843745	0.11330202349439816
-0.491230008687495	0.12295888504096363
-0.491168973531245	0.13262259815781208
-0.491107938374995	0.14226960888580342
-0.491046903218745	0.15186496635054914
-0.490985868062495	0.16138894457523018
-0.490924832906245	0.17085154719265705
-0.490863797749995	0.18028291746174233
-0.490802762593745	0.18970725742052774
-0.490741727437495	0.199121219134677
-0.490680692281245	0.20849433355674674
-0.490619657124995	0.21779157607392388
-0.490558621968745	0.22700010385821418
-0.490497586812495	0.23613839567648504
-0.490436551656245	0.24524003033001782
-0.490375516499995	0.2543248388828792
-0.490314481343745	0.2633807500003178
-0.490253446187495	0.2723713216952542
-0.490192411031245	0.28126314490214405
-0.490131375874995	0.29005125281335387
-0.490070340718745	0.2987620160877543
-0.490009305562495	0.30743071849743203
-0.489948270406245	0.31607147623606324
-0.489887235249995	0.3246636969703221
-0.489826200093745	0.3331663792969848
-0.489765164937495	0.34154928550076014
-0.489704129781245	0.3498160669803015
-0.489643094624995	0.35800049061971867
-0.489582059468745	0.366138240612634
-0.489521024312495	0.374236475395395
-0.489459989156245	0.3822657946103184
-0.489398953999995	0.39018163855821825
-0.489337918843745	0.39795836800565165
-0.489276883687495	0.4056088961765223
-0.489215848531245	0.41317379291444767
-0.489154813374995	0.4206878027619928
-0.489093778218745	0.42815020539910636
-0.489032743062495	0.43552302673439824
-0.488971707906245	0.4427591879627134
-0.488910672749995	0.449838781603821
-0.488849637593745	0.4567845819385837
-0.488788602437495	0.46364362238524287
-0.488727567281245	0.47044863016175803
-0.488666532124995	0.47718987031842025
-0.488605496968745	0.48382039373523406
-0.488544461812495	0.4902914006397363
-0.488483426656245	0.4965902361946949
-0.488422391499995	0.5027505857868467
-0.488361356343745	0.5088256794668404
-0.488300321187495	0.5148448028055024
-0.488239286031245	0.5207876628770797
-0.488178250874995	0.5265979244236562
-0.488117215718745	0.5322262792721952
-0.488056180562495	0.5376693028878207
-0.487995145406245	0.5429727034415025
-0.487934110249995	0.5481951801028535
-0.487873075093745	0.5533606109062504
-0.487812039937495	0.5584365741254442
-0.487751004781245	0.5633574083700241
-0.487689969624995	0.5680749015800137
-0.487628934468745	0.5725967949428763
-0.487567899312495	0.5769816744601465
-0.487506864156245	0.5812928322473249
-0.487445828999995	0.5855466928960575
-0.487384793843745	0.5896970439193077
-0.487323758687495	0.5936690594517849
-0.487262723531245	0.597417567489652
-0.487201688374995	0.6009636346070774
-0.487140653218745	0.6043793362243267
-0.487079618062495	0.6077310701865487
-0.487018582906245	0.6110254138581825
-0.486957547749995	0.6142010547861473
-0.486896512593745	0.6171748918509
-0.486835477437495	0.6199072491978207
-0.486774442281245	0.6224345922425074
-0.486713407124995	0.6248424147984297
-0.486652371968745	0.6271979924421852
-0.486591336812495	0.6294954835856299
-0.486530301656245	0.6316577160494894
-0.486469266499995	0.6335950762625071
-0.486408231343745	0.6352762316939348
-0.486347196187495	0.6367545631978212
-0.486286161031245	0.6381278586651001
-0.486225125874995	0.6394614084494729
-0.486164090718745	0.6407347644690127
-0.486103055562495	0.641855316292723
-0.486042020406245	0.6427297283181933
-0.485980985249995	0.6433378764664949
-0.485919950093745	0.6437504995664732
-0.485858914937495	0.6440751306072354
-0.485797879781245	0.6443715713746684
-0.485736844624995	0.6446033765378998
-0.485675809468745	0.6446646338636559
-0.485614774312495	0.6444623148000929
-0.485553739156245	0.6439900061210633
-0.485492703999995	0.643334458484174
-0.485431668843745	0.6426086372387901
-0.485370633687495	0.6418631400751338
-0.485309598531245	0.6410456700158605
-0.485248563374995	0.6400411203849867
-0.485187528218745	0.6387615732760161
-0.485126493062495	0.6372157870852607
-0.485065457906245	0.6355032466006955
-0.485004422749995	0.6337369236240727
-0.484943387593745	0.6319550844577497
-0.484882352437495	0.6300913816274528
-0.484821317281245	0.6280269399724049
-0.484760282124995	0.6256836762657654
-0.484699246968745	0.6230855573794843
-0.484638211812495	0.6203399090490522
-0.484577176656245	0.617553782096831
-0.484516141499995	0.6147510279412778
-0.484455106343745	0.6118548590822762
-0.484394071187495	0.6087490745792067
-0.484333036031245	0.6053693882900248
-0.484272000874995	0.6017533064869737
-0.484210965718745	0.5980102103624934
-0.484149930562495	0.5942359388654096
-0.484088895406245	0.5904392791508672
-0.484027860249995	0.5865374584168618
-0.483966825093745	0.5824227782188993
-0.483905789937495	0.5780471753897408
-0.483844754781245	0.5734587623491265
-0.483783719624995	0.5687631557508415
-0.483722684468745	0.5640412853191586
-0.483661649312495	0.5592883050955489
-0.483600614156245	0.5544204729270349
-0.483539578999995	0.5493429554356283
-0.483478543843745	0.5440242858560472
-0.483417508687495	0.5385196418329942
-0.483356473531245	0.5329264665768275
-0.483295438374995	0.5273088104707486
-0.483234403218745	0.5216499745422875
-0.483173368062495	0.5158692277336904
-0.483112332906245	0.5098874155463081
-0.483051297749995	0.5036889696465964
-0.482990262593745	0.4973326630088801
-0.482929227437495	0.49090464025745206
-0.482868192281245	0.4844519618320184
-0.482807157124995	0.47794888523034623
-0.482746121968745	0.47132087058780464
-0.482685086812495	0.46450537195824043
-0.482624051656245	0.457500815274701
-0.482563016499995	0.45036641634066776
-0.482501981343745	0.44317511110959185
-0.482440946187495	0.4359579592586713
-0.482379911031245	0.42868332485907523
-0.482318875874995	0.4212854058362522
-0.482257840718745	0.41371784586417915
-0.482196805562495	0.4059899610728174
-0.482135770406245	0.3981584506102852
-0.482074735249995	0.39028283809183373
-0.482013700093745	0.3823806515036578
-0.481952664937495	0.3744172051878972
-0.481891629781245	0.3663363879370318
-0.481830594624995	0.3581066448855693
-0.481769559468745	0.34974572853458397
-0.481708524312495	0.3413059893168038
-0.481647489156245	0.33283362961196306
-0.481586453999995	0.32433479722148884
-0.481525418843745	0.3157743536634502
-0.481464383687495	0.30710669985041567
-0.481403348531245	0.2983131793424236
-0.481342313374995	0.2894167637714866
-0.481281278218745	0.2804637761750954
-0.481220243062495	0.27148834567633356
-0.481159207906245	0.26248814252841873
-0.481098172749995	0.25342982889690724
-0.481037137593745	0.24427833043984726
-0.480976102437495	0.2350257554778634
-0.480915067281245	0.22569762735027254
-0.480854032124995	0.21633296710150707
-0.480792996968745	0.20695499806581913
-0.480731961812495	0.1975557006368274
-0.480670926656245	0.18810551193508898
-0.480609891499995	0.1785792590743753
-0.480548856343745	0.16897727453708583
-0.480487821187495	0.15932537561074625
-0.480426786031245	0.14965494397394205
-0.480365750874995	0.1399799171722655
-0.480304715718745	0.1302887590975663
-0.480243680562495	0.12055688128856393
-0.480182645406245	0.1107685837352788
-0.480121610249995	0.10093059608028053
-0.480060575093745	0.09106718382917689
-0.479999539937495	0.08120182169192046
-0.479938504781245	0.0713405333377119
-0.479877469624995	0.061469992518716474
-0.479816434468745	0.05157118410553359
-0.479755399312495	0.0416368007351533
-0.479694364156245	0.03167818066634283
-0.479633328999995	0.02171693235858289
-0.479572293843745	0.011768924890831369
-0.479511258687495	0.0018338511432272873
-0.479450223531245	-0.008101674377156382
-0.479389188374995	-0.01805058946253609
-0.479328153218745	-0.02801287934961866
-0.479267118062495	-0.03797448308502589
-0.479206082906245	-0.04791780368853608
-0.479145047749995	-0.057834363981753185
-0.479084012593745	-0.0677293486600069
-0.479022977437495	-0.07761474393128232
-0.478961942281245	-0.08749699588026576
-0.478900907124995	-0.09736968984042657
-0.478839871968745	-0.1072173823843766
-0.478778836812495	-0.11702697798915186
-0.478717801656245	-0.12679677392853964
-0.478656766499995	-0.13653574362172508
-0.478595731343745	-0.14625385758052692
-0.478534696187495	-0.155951573995245
-0.478473661031245	-0.1656174813516185
-0.478412625874995	-0.17523613541085875
-0.478351590718745	-0.18479924938926545
-0.478290555562495	-0.19431075910585624
-0.478229520406245	-0.20378162659293664
-0.478168485249995	-0.21321866699650677
-0.478107450093745	-0.22261672696107612
-0.478046414937495	-0.23196092568142657
-0.477985379781245	-0.24123720057871462
-0.477924344624995	-0.250442300310137
-0.477863309468745	-0.25958482876070293
-0.477802274312495	-0.2686764409838608
-0.477741239156245	-0.27772035975913967
-0.477680203999995	-0.2867066406387936
-0.477619168843745	-0.29561825866080144
-0.477558133687495	-0.304443261042197
-0.477497098531245	-0.31318308576315657
-0.477436063374995	-0.32184997390165565
-0.477375028218745	-0.3304553221976569
-0.477313993062495	-0.33899853601680796
-0.477252957906245	-0.3474655926457198
-0.477191922749995	-0.3558385722276595
-0.477130887593745	-0.3641085475441695
-0.477069852437495	-0.37228140541795135
-0.477008817281245	-0.38037180425100653
-0.476947782124995	-0.38838990149968605
-0.476886746968745	-0.3963313110749949
-0.476825711812495	-0.4041786227268793
-0.476764676656245	-0.41191365457228873
-0.476703641499995	-0.41953066264826155
-0.476642606343745	-0.4270398084811785
-0.476581571187495	-0.4344578031056377
-0.476520536031245	-0.4417929536620805
-0.476459500874995	-0.4490368316089955
-0.476398465718745	-0.45616949660404355
-0.476337430562495	-0.4631739657221
-0.476276395406245	-0.47004838711301916
-0.476215360249995	-0.47680636687012984
-0.476154325093745	-0.4834650095159715
-0.476093289937495	-0.49002995376533814
-0.476032254781245	-0.49648937108859237
-0.475971219624995	-0.5028219035939003
-0.475910184468745	-0.5090123316578712
-0.475849149312495	-0.5150625397661457
-0.475788114156245	-0.5209890423713479
-0.475727078999995	-0.5268088263184415
-0.475666043843745	-0.5325246172132136
-0.475605008687495	-0.5381214158801154
-0.475543973531245	-0.5435771787891149
-0.475482938374995	-0.5488792013236905
-0.475421903218745	-0.5540332153110195
-0.475360868062495	-0.5590579090789591
-0.475299832906245	-0.5639691670498781
-0.475238797749995	-0.5687664864036783
-0.475177762593745	-0.5734322976782339
-0.475116727437495	-0.5779448407253698
-0.475055692281245	-0.582294512638485
-0.474994657124995	-0.5864906816669851
-0.474933621968745	-0.5905534738453578
-0.474872586812495	-0.5944970048322128
-0.474811551656245	-0.5983173349332122
-0.474750516499995	-0.6019947375570116
-0.474689481343745	-0.6055085610272838
-0.474628446187495	-0.6088529163317167
-0.474567411031245	-0.612040712795405
-0.474506375874995	-0.6150927675534162
-0.474445340718745	-0.6180205937052594
-0.474384305562495	-0.6208165937480881
-0.474323270406245	-0.6234594837859548
-0.474262235249995	-0.6259306332100195
-0.474201200093745	-0.6282283574501988
-0.474140164937495	-0.6303687932315111
-0.474079129781245	-0.6323726179387602
-0.474018094624995	-0.6342481446753527
-0.473957059468745	-0.6359842361462673
-0.473896024312495	-0.6375587310404729
-0.473834989156245	-0.6389557394635177
-0.473773953999995	-0.640178026708646
-0.473712918843745	-0.6412445540046964
-0.473651883687495	-0.6421750832956227
-0.473590848531245	-0.6429741174933715
-0.473529813374995	-0.643627017639094
-0.473468778218745	-0.6441114668998534
-0.473407743062495	-0.6444151867832563
-0.473346707906245	-0.644545701265521
-0.473285672749995	-0.6445242590639569
-0.473224637593745	-0.6443687605440711
-0.473163602437495	-0.6440793459351882
-0.473102567281245	-0.643638192054369
-0.473041532124995	-0.6430237722345767
-0.472980496968745	-0.6422282247531288
-0.472919461812495	-0.6412638486935471
-0.472858426656245	-0.6401534065964896
-0.472797391499995	-0.6389119665104899
-0.472736356343745	-0.6375348741668003
-0.472675321187495	-0.6360015784986417
-0.472614286031245	-0.6342923506011002
-0.472553250874995	-0.6324044946768422
-0.472492215718745	-0.630354933370684
-0.472431180562495	-0.6281670028947973
-0.472370145406245	-0.6258520011990769
-0.472309110249995	-0.6234003121851001
-0.472248075093745	-0.6207894096619871
-0.472187039937495	-0.6180024695270961
-0.472126004781245	-0.6150425487063664
-0.472064969624995	-0.6119307771198962
-0.472003934468745	-0.6086899139456966
-0.471942899312495	-0.605326430179958
-0.471881864156245	-0.6018256705478576
-0.471820828999995	-0.5981641997200836
-0.471759793843745	-0.5943294213955225
-0.471698758687495	-0.5903306082990016
-0.471637723531245	-0.586192324753646
-0.471576688374995	-0.5819353453694005
-0.471515653218745	-0.5775604327364241
-0.471454618062495	-0.5730482638902356
-0.471393582906245	-0.5683757828244824
-0.471332547749995	-0.5635358128822793
-0.471271512593745	-0.5585439716603189
-0.471210477437495	-0.5534271574411347
-0.471149442281245	-0.548202712432454
-0.471088407124995	-0.5428650344873809
-0.471027371968745	-0.5373907614860763
-0.470966336812495	-0.531758673840846
-0.470905301656245	-0.5259681961636196
-0.470844266499995	-0.5200412850737766
-0.470783231343745	-0.5140058671249027
-0.470722196187495	-0.5078741068489965
-0.470661161031245	-0.5016333799603326
-0.470600125874995	-0.49525748087441146
-0.470539090718745	-0.4887290445736722
-0.470478055562495	-0.4820551434221683
-0.470417020406245	-0.475263189699352
-0.470355985249995	-0.4683800076593011
-0.470294950093745	-0.461411055580825
-0.470233914937495	-0.45433695674023994
-0.470172879781245	-0.4471303719747802
-0.470111844624995	-0.4397796874985293
-0.470050809468745	-0.43230019902185984
-0.469989774312495	-0.4247234016329484
-0.469928739156245	-0.4170728669055307
-0.469867703999995	-0.40934625055376384
-0.469806668843745	-0.40151827099957976
-0.469745633687495	-0.3935625953658845
-0.469684598531245	-0.3854749793151055
-0.469623563374995	-0.3772786591385344
-0.469562528218745	-0.36900726837470016
-0.469501493062495	-0.36067895898809954
-0.469440457906245	-0.3522828407996259
-0.469379422749995	-0.3437890780932964
-0.469318387593745	-0.3351747418006514
-0.469257352437495	-0.32644440209290226
-0.469196317281245	-0.3176284686997905
-0.469135282124995	-0.30876034141940367
-0.469074246968745	-0.2998508037173446
-0.469013211812495	-0.2908806038671464
-0.468952176656245	-0.2818174992236521
-0.468891141499995	-0.272644150650261
-0.468830106343745	-0.2633743257285761
-0.468769071187495	-0.25404401911315005
-0.468708036031245	-0.24468424889013674
