Time	Frequency
-0.5000160391874999	6.545776889119493e-23
-0.4999550040312499	6.550564577422628e-23
-0.4998939688749999	6.554103877634957e-23
-0.4998329337187499	6.556386932430056e-23
-0.4997718985624999	6.557416525110498e-23
-0.4997108634062499	6.557196454596285e-23
-0.4996498282499999	6.555718403973943e-23
-0.4995887930937499	6.552985316351146e-23
-0.4995277579374999	6.549003212894926e-23
-0.4994667227812499	6.543764352846536e-23
-0.4994056876249999	6.537271642965039e-23
-0.4993446524687499	6.529533346488147e-23
-0.4992836173124999	6.520541841088457e-23
-0.4992225821562499	6.510298572306573e-23
-0.4991615469999999	6.498814325689346e-23
-0.4991005118437499	6.486083291021338e-23
-0.4990394766874999	6.47210516056782e-23
-0.4989784415312499	6.456892015760147e-23
-0.4989174063749999	6.44044078808978e-23
-0.4988563712187499	6.422750593919406e-23
-0.4987953360624999	6.403833902814274e-23
-0.4987343009062499	6.383689293341576e-23
-0.4986732657499999	6.362315356323757e-23
-0.4986122305937499	6.339725237495724e-23
-0.4985511954374999	6.315919527341634e-23
-0.4984901602812499	6.290896982387081e-23
-0.4984291251249999	6.264671573955401e-23
-0.4983680899687499	6.237245066220451e-23
-0.4983070548124999	6.208615268271105e-23
-0.4982460196562499	6.178796899412366e-23
-0.4981849844999999	6.147794578516933e-23
-0.4981239493437499	6.115606029593458e-23
-0.4980629141874999	6.08224524085195e-23
-0.4980018790312499	6.047719099755583e-23
-0.4979408438749999	6.012026237551975e-23
-0.4978798087187499	5.97517945442613e-23
-0.4978187735624999	5.937186317902948e-23
-0.4977577384062499	5.898047125593605e-23
-0.4976967032499999	5.857776409348655e-23
-0.4976356680937499	5.816383116641309e-23
-0.4975746329374999	5.773866635704725e-23
-0.4975135977812499	5.73024037124124e-23
-0.4974525626249999	5.685514405910847e-23
-0.4973915274687499	5.639690063694519e-23
-0.4973304923124999	5.592782184264185e-23
-0.4972694571562499	5.544801657997521e-23
-0.4972084219999999	5.49574962178264e-23
-0.4971473868437499	5.445640721345404e-23
-0.4970863516874999	5.394486633408529e-23
-0.4970253165312499	5.342289198915417e-23
-0.4969642813749999	5.28906412108107e-23
-0.4969032462187499	5.2348244845317056e-23
-0.4968422110624999	5.179572105598896e-23
-0.4967811759062499	5.123323009834746e-23
-0.4967201407499999	5.066091398851716e-23
-0.4966591055937499	5.0078778753014925e-23
-0.4965980704374999	4.948697790188444e-23
-0.4965370352812499	4.888569515254189e-23
-0.4964760001249999	4.827497001893523e-23
-0.4964149649687499	4.765493390635427e-23
-0.4963539298124999	4.7025746785629053e-23
-0.4962928946562499	4.638745723136879e-23
-0.4962318594999999	4.5740217829737536e-23
-0.4961708243437499	4.508419965462653e-23
-0.4961097891874999	4.441944788876967e-23
-0.4960487540312499	4.3746122754139875e-23
-0.4959877188749999	4.3064413164557253e-23
-0.4959266837187499	4.237435845780191e-23
-0.4958656485624999	4.1676107745924687e-23
-0.4958046134062499	4.09698668745385e-23
-0.4957435782499999	4.02556972701555e-23
-0.4956825430937499	3.95337579922463e-23
-0.4956215079374999	3.880425307523551e-23
-0.4955604727812499	3.8067220431153e-23
-0.4954994376249999	3.732280734911137e-23
-0.4954384024687499	3.6571242093554494e-23
-0.4953773673124999	3.581257897353636e-23
-0.4953163321562499	3.5046976374959534e-23
-0.4952552969999999	3.4274689082136106e-23
-0.4951942618437499	3.3495763995764866e-23
-0.4951332266874999	3.2710333359655204e-23
-0.4950721915312499	3.1918663539283393e-23
-0.4950111563749999	3.1120804643423344e-23
-0.4949501212187499	3.031687732506977e-23
-0.4948890860624999	2.950718182263662e-23
-0.4948280509062499	2.869178770476311e-23
-0.4947670157499999	2.787078717539603e-23
-0.4947059805937499	2.7044493542565834e-23
-0.4946449454374999	2.621300461289067e-23
-0.4945839102812499	2.5376388266773498e-23
-0.4945228751249999	2.4534934672695528e-23
-0.4944618399687499	2.3688745057113472e-23
-0.4944008048124999	2.283790128309842e-23
-0.4943397696562499	2.198273055560258e-23
-0.4942787344999999	2.1123347168679476e-23
-0.4942176993437499	2.0259795270984995e-23
-0.4941566641874999	1.9392404324778463e-23
-0.4940956290312499	1.8521326369721307e-23
-0.4940345938749999	1.7646595607501202e-23
-0.4939735587187499	1.6768540214931538e-23
-0.4939125235624999	1.5887327369501907e-23
-0.4938514884062499	1.5002950897053917e-23
-0.4937904532499999	1.4115724983590146e-23
-0.4937294180937499	1.3225857464661607e-23
-0.4936683829374999	1.233333754603712e-23
-0.4936073477812499	1.143847934647482e-23
-0.4935463126249999	1.0541536771867543e-23
-0.4934852774687499	9.642490611746638e-24
-0.4934242423124999	8.741618150280891e-24
-0.4933632071562499	7.839177653345205e-24
-0.4933021719999999	6.935146095247452e-24
-0.4932411368437499	6.029813549977653e-24
-0.4931801016874999	5.123476028727202e-24
-0.4931190665312499	4.2160725745600665e-24
-0.4930580313749999	3.3078587262258098e-24
-0.4929969962187499	2.399190937306704e-24
-0.4929359610624999	1.4900175486824467e-24
-0.4928749259062499	5.805443213292492e-25
-0.4928138907499999	-3.2886127298494268e-25
-0.4927528555937499	-1.238250952368457e-24
-0.4926918204374999	-2.1474266110852696e-24
-0.4926307852812499	-3.0559643546849336e-24
-0.4925697501249999	-3.963925070537061e-24
-0.4925087149687499	-4.871166018317101e-24
-0.4924476798124999	-5.77721936461738e-24
-0.4923866446562499	-6.682133136232571e-24
-0.4923256094999999	-7.585828738074068e-24
-0.4922645743437499	-8.487825006506905e-24
-0.4922035391874999	-9.388149829169814e-24
-0.4921425040312499	-1.028674476312103e-23
-0.4920814688749999	-1.1183075800348202e-23
-0.4920204337187499	-1.2077167430606671e-23
-0.4919593985624999	-1.2969050150185915e-23
-0.4918983634062499	-1.385816079446076e-23
-0.4918373282499999	-1.474447829111947e-23
-0.4917762930937499	-1.562808503239515e-23
-0.4917152579374999	-1.6508375705558756e-23
-0.4916542227812499	-1.738530492176488e-23
-0.4915931876249999	-1.8259059895059862e-23
-0.4915321524687499	-1.9128998737699538e-23
-0.4914711173124999	-1.9995007859593668e-23
-0.4914100821562499	-2.0857367134570718e-23
-0.4913490469999999	-2.171541048019201e-23
-0.4912880118437499	-2.2568960902467787e-23
-0.4912269766874999	-2.341840065821442e-23
-0.4911659415312499	-2.4263031833505274e-23
-0.4911049063749999	-2.5102591485450574e-23
-0.4910438712187499	-2.5937593711728245e-23
-0.4909828360624999	-2.67673303775846e-23
-0.4909218009062499	-2.759140257104664e-23
-0.4908607657499999	-2.841046110844074e-23
-0.4907997305937499	-2.922383840170966e-23
-0.4907386954374999	-3.0030974408118493e-23
-0.4906776602812499	-3.083263337738282e-23
-0.4906166251249999	-3.1628202242971016e-23
-0.4905555899687499	-3.241694336455055e-23
-0.4904945548124999	-3.319975801846082e-23
-0.4904335196562499	-3.3976134036719227e-23
-0.4903724844999999	-3.4745101378139935e-23
-0.4903114493437499	-3.550766597814145e-23
-0.4902504141874999	-3.626347078185724e-23
-0.4901893790312499	-3.7011281524296834e-23
-0.4901283438749999	-3.775218205338148e-23
-0.4900673087187499	-3.848606269693999e-23
-0.4900062735624999	-3.9211419422643346e-23
-0.4899452384062499	-3.9929339195200705e-23
-0.4898842032499999	-4.0640001230816174e-23
-0.4898231680937499	-4.134160903472238e-23
-0.4897621329374999	-4.2035186084125565e-23
-0.4897010977812499	-4.2721334164964893e-23
-0.4896400626249999	-4.3398017468128597e-23
-0.4895790274687499	-4.406602572718488e-23
-0.4895179923124999	-4.472640408993566e-23
-0.4894569571562499	-4.537698102694584e-23
-0.4893959219999999	-4.6018190255538985e-23
-0.4893348868437499	-4.6651539452181207e-23
-0.4892738516874999	-4.7274883779416055e-23
-0.4892128165312499	-4.7888174072671455e-23
-0.4891517813749999	-4.849330563215186e-23
-0.4890907462187499	-4.908834854576291e-23
-0.4890297110624999	-4.967268748530571e-23
-0.4889686759062499	-5.024842930001349e-23
-0.4889076407499999	-5.081404776273163e-23
-0.4888466055937499	-5.136842088201087e-23
-0.4887855704374999	-5.191368339302552e-23
-0.4887245352812499	-5.2448829575931206e-23
-0.4886635001249999	-5.297233190495356e-23
-0.4886024649687499	-5.348613346033507e-23
-0.4885414298124999	-5.398977500310409e-23
-0.4884803946562499	-5.448150804241389e-23
-0.4884193594999999	-5.496293311579692e-23
-0.4883583243437499	-5.54340745892464e-23
-0.4882972891874999	-5.589316461223444e-23
-0.4882362540312499	-5.634139894547685e-23
-0.4881752188749999	-5.677913968095978e-23
-0.4881141837187499	-5.720472931746377e-23
-0.4880531485624999	-5.76189842466482e-23
-0.4879921134062499	-5.802249176614457e-23
-0.4879310782499999	-5.841379345992734e-23
-0.4878700430937499	-5.879336879932316e-23
-0.4878090079374999	-5.916190037635162e-23
-0.4877479727812499	-5.951816075421271e-23
-0.4876869376249999	-5.986237944530905e-23
-0.4876259024687499	-6.019525432184007e-23
-0.4875648673124999	-6.051577825856253e-23
-0.4875038321562499	-6.082401490620835e-23
-0.4874427969999999	-6.112063750960295e-23
-0.4873817618437499	-6.140481679405881e-23
-0.4873207266874999	-6.167649813557567e-23
-0.4872596915312499	-6.193632449116713e-23
-0.4871986563749999	-6.218362645521688e-23
-0.4871376212187499	-6.24182580726196e-23
-0.4870765860624999	-6.264080945634611e-23
-0.4870155509062499	-6.285074772110843e-23
-0.4869545157499999	-6.304787321887803e-23
-0.4868934805937499	-6.323272973066842e-23
-0.4868324454374999	-6.340489989617436e-23
-0.4867714102812499	-6.356414495746282e-23
-0.4867103751249999	-6.371096436784041e-23
-0.4866493399687499	-6.384503822012706e-23
-0.4865883048124999	-6.396609183277856e-23
-0.4865272696562499	-6.407457942773988e-23
-0.4864662344999999	-6.417028011624539e-23
-0.4864051993437499	-6.425290026271943e-23
-0.4863441641874999	-6.432284033558765e-23
-0.4862831290312499	-6.437996889910446e-23
-0.4862220938749999	-6.44239862752875e-23
-0.4861610587187499	-6.4455227186592e-23
-0.4861000235624999	-6.447364020353037e-23
-0.4860389884062499	-6.447895005490945e-23
-0.4859779532499999	-6.447142685619688e-23
-0.4859169180937499	-6.445106507800008e-23
-0.4858558829374999	-6.441761513270037e-23
-0.4857948477812499	-6.437130059911523e-23
-0.4857338126249999	-6.43121663163485e-23
-0.4856727774687499	-6.423999707685715e-23
-0.4856117423124999	-6.415496026534801e-23
-0.4855507071562499	-6.405712694660664e-23
-0.4854896719999999	-6.394632835347926e-23
-0.4854286368437499	-6.382269534439779e-23
-0.4853676016874999	-6.36863157077076e-23
-0.4853065665312499	-6.353706426030333e-23
-0.4852455313749999	-6.337503302685653e-23
-0.4851844962187499	-6.320030665654092e-23
-0.4851234610624999	-6.301281379592444e-23
-0.4850624259062499	-6.281264054386953e-23
-0.4850013907499999	-6.259986660193312e-23
-0.4849403555937499	-6.237445793817739e-23
-0.4848793204374999	-6.213648786687095e-23
-0.4848182852812499	-6.188601186352903e-23
-0.4847572501249999	-6.162303338644712e-23
-0.4846962149687499	-6.134765257754264e-23
-0.4846351798124999	-6.105990771691742e-23
-0.4845741446562499	-6.075980601404893e-23
-0.4845131094999999	-6.044746785381435e-23
-0.4844520743437499	-6.012292720584846e-23
-0.4843910391874999	-5.978619841090195e-23
-0.4843300040312499	-5.943743239344909e-23
-0.4842689688749999	-5.907666620859617e-23
-0.4842079337187499	-5.870390788850723e-23
-0.4841468985624999	-5.831932658149458e-23
-0.4840858634062499	-5.792295676183579e-23
-0.4840248282499999	-5.751478952052358e-23
-0.4839637930937499	-5.709502220087612e-23
-0.4839027579374999	-5.666371813038371e-23
-0.4838417227812499	-5.622085668881076e-23
-0.4837806876249999	-5.576664569752621e-23
-0.4837196524687499	-5.530116580917012e-23
-0.4836586173124999	-5.482436744594939e-23
-0.4835975821562499	-5.433646223570292e-23
-0.4835365469999999	-5.383758329713138e-23
-0.4834755118437499	-5.332768036272179e-23
-0.4834144766874999	-5.280694581522386e-23
-0.4833534415312499	-5.2275543916836974e-23
-0.4832924063749999	-5.173343532959849e-23
-0.4832313712187499	-5.118079789542956e-23
-0.4831703360624999	-5.061781183193296e-23
-0.4831093009062499	-5.0044436735635473e-23
-0.4830482657499999	-4.9460841730238394e-23
-0.4829872305937499	-4.886723636510953e-23
-0.4829261954374999	-4.826358194601624e-23
-0.4828651602812499	-4.765003584844448e-23
-0.4828041251249999	-4.702684926902282e-23
-0.4827430899687499	-4.63939967826451e-23
-0.4826820548124999	-4.5751602670021195e-23
-0.4826210196562499	-4.509993563603559e-23
-0.4825599844999999	-4.443898902721612e-23
-0.4824989493437499	-4.3768857450883687e-23
-0.4824379141874999	-4.3089820504121054e-23
-0.4823768790312499	-4.240191356984483e-23
-0.4823158438749999	-4.170523338431579e-23
-0.4822548087187499	-4.100006452443372e-23
-0.4821937735624999	-4.0286450297759e-23
-0.4821327384062499	-3.9564454885393114e-23
-0.4820717032499999	-3.883436238727481e-23
-0.4820106680937499	-3.8096255628348866e-23
-0.4819496329374999	-3.7350199684959715e-23
-0.4818885977812499	-3.659648166554884e-23
-0.4818275626249999	-3.583521117514393e-23
-0.4817665274687499	-3.506644368085988e-23
-0.4817054923124999	-3.4290457273016654e-23
-0.4816444571562499	-3.3507378457643845e-23
-0.4815834219999999	-3.2717241430022924e-23
-0.4815223868437499	-3.1920309354646656e-23
-0.4814613516874999	-3.1116757483204837e-23
-0.4814003165312499	-3.0306640727599546e-23
-0.4813392813749999	-2.949020206172606e-23
-0.4812782462187499	-2.866763623234054e-23
-0.4812172110624999	-2.783901041517795e-23
-0.4811561759062499	-2.700454168122161e-23
-0.4810951407499999	-2.6164424208692884e-23
-0.4810341055937499	-2.531873806928259e-23
-0.4809730704374999	-2.446769985239782e-23
-0.4809120352812499	-2.3611512352523713e-23
-0.4808510001249999	-2.2750266035732924e-23
-0.4807899649687499	-2.1884177802188874e-23
-0.4807289298124999	-2.1013447956156337e-23
-0.4806678946562499	-2.0138159035217478e-23
-0.4806068594999999	-1.9258534861400507e-23
-0.4805458243437499	-1.837481143733975e-23
-0.4804847891874999	-1.7487077208744978e-23
-0.4804237540312499	-1.6595522072754497e-23
-0.4803627188749999	-1.5700388506489097e-23
-0.4803016837187499	-1.480179523495732e-23
-0.4802406485624999	-1.3899911312745642e-23
-0.4801796134062499	-1.299495112939211e-23
-0.4801185782499999	-1.2087058136437807e-23
-0.4800575430937499	-1.1176438030938034e-23
-0.4799965079374999	-1.0263303962250114e-23
-0.4799354727812499	-9.347771427953057e-24
-0.4798744376249999	-8.430030945183919e-24
-0.4798134024687499	-7.510309031071942e-24
-0.4797523673124999	-6.5887476384195284e-24
-0.4796913321562499	-5.6655541430034315e-24
-0.4796302969999999	-4.740943851239952e-24
-0.4795692618437499	-3.815031545303999e-24
-0.4795082266874999	-2.888023517503047e-24
-0.4794471915312499	-1.960164186552986e-24
-0.4793861563749999	-1.031572614755748e-24
-0.4793251212187499	-1.0242984025598231e-25
-0.4792640860624999	8.270178219440356e-25
-0.4792030509062499	1.756632861937898e-24
-0.4791420157499999	2.686234611862683e-24
-0.4790809805937499	3.6155914117674894e-24
-0.4790199454374999	4.544588143544703e-24
-0.4789589102812499	5.473038450342118e-24
-0.4788978751249999	6.400655693782197e-24
-0.4788368399687499	7.327291119173368e-24
-0.4787758048124999	8.252801095627299e-24
-0.4787147696562499	9.176958422010685e-24
-0.4786537344999999	1.009962579192181e-23
-0.4785926993437499	1.102063070876311e-23
-0.4785316641874999	1.1939700104782404e-23
-0.4784706290312499	1.2856680092825888e-23
-0.4784095938749999	1.3771438085361637e-23
-0.4783485587187499	1.468373322504368e-23
-0.4782875235624999	1.5593406512866812e-23
-0.4782264884062499	1.6500321642111822e-23
-0.4781654532499999	1.740423489345881e-23
-0.4781044180937499	1.8304979827763643e-23
-0.4780433829374999	1.9202408378702608e-23
-0.4779823477812499	2.0096253103387833e-23
-0.4779213126249999	2.09863491176949e-23
-0.4778602774687499	2.1872593472814937e-23
-0.4777992423124999	2.2754752224467404e-23
-0.4777382071562499	2.3632648264114704e-23
-0.4776771719999999	2.4506155530936633e-23
-0.4776161368437499	2.5375038112655686e-23
-0.4775551016874999	2.6239134006236945e-23
-0.4774940665312499	2.7098330430920635e-23
-0.4774330313749999	2.7952378954987274e-23
-0.4773719962187499	2.880109988950388e-23
-0.4773109610624999	2.964438901459834e-23
-0.4772499259062499	3.048200056006247e-23
-0.4771888907499999	3.131375905760176e-23
-0.4771278555937499	3.213960621194413e-23
-0.4770668204374999	3.2959312416634077e-23
-0.4770057852812499	3.377265082211087e-23
-0.4769447501249999	3.457954338922613e-23
-0.4768837149687499	3.537979182294338e-23
-0.4768226798124999	3.6173186967064796e-23
-0.4767616446562499	3.695965868329863e-23
-0.4767006094999999	3.7739007377642956e-23
-0.4766395743437499	3.851100543424082e-23
-0.4765785391874999	3.927560029323527e-23
-0.4765175040312499	4.003262992613201e-23
-0.4764564688749999	4.078185282384473e-23
-0.4763954337187499	4.152319053427522e-23
-0.4763343985624999	4.225648917149456e-23
-0.4762733634062499	4.298151988542306e-23
-0.4762123282499999	4.3698221440288837e-23
-0.4761512930937499	4.4406455690537925e-23
-0.4760902579374999	4.510597512622869e-23
-0.4760292227812499	4.579670700632656e-23
-0.4759681876249999	4.6478545628790813e-23
-0.4759071524687499	4.715126131183185e-23
-0.4758461173124999	4.781477056368618e-23
-0.4757850821562499	4.8468976187469566e-23
-0.4757240469999999	4.9113659489842415e-23
-0.4756630118437499	4.974872982109169e-23
-0.4756019766874999	5.0374088249134663e-23
-0.4755409415312499	5.0989522077572095e-23
-0.4754799063749999	5.159495339366864e-23
-0.4754188712187499	5.2190297666162505e-23
-0.4753578360624999	5.277533588531084e-23
-0.4752968009062499	5.334998549424139e-23
-0.4752357657499999	5.391419202454461e-23
-0.4751747305937499	5.44677635199803e-23
-0.4751136954374999	5.501060620224068e-23
-0.4750526602812499	5.554264755765268e-23
-0.4749916251249999	5.606369919799298e-23
-0.4749305899687499	5.657368741768104e-23
-0.4748695548124999	5.707255893502276e-23
-0.4748085196562499	5.756012673760612e-23
-0.4747474844999999	5.803631423444463e-23
-0.4746864493437499	5.850107401245108e-23
-0.4746254141874999	5.895421783557587e-23
-0.4745643790312499	5.939567861358494e-23
-0.4745033438749999	5.982544386020264e-23
-0.4744423087187499	6.024333735689258e-23
-0.4743812735624999	6.064927226788323e-23
-0.4743202384062499	6.104323672156891e-23
-0.4742592032499999	6.142507181049246e-23
-0.4741981680937499	6.179469394506285e-23
-0.4741371329374999	6.215209465373295e-23
-0.4740760977812499	6.249712345473438e-23
-0.4740150626249999	6.282970747377475e-23
-0.4739540274687499	6.314985718651012e-23
-0.4738929923124999	6.345742952305617e-23
-0.4738319571562499	6.375234906412659e-23
-0.4737709219999999	6.403463621933948e-23
-0.4737098868437499	6.430415508499933e-23
-0.4736488516874999	6.456082988453404e-23
-0.4735878165312499	6.480469261719223e-23
-0.4735267813749999	6.50356192039814e-23
-0.4734657462187499	6.525354211346483e-23
-0.4734047110624999	6.545850752865221e-23
-0.4733436759062499	6.565038757959617e-23
-0.4732826407499999	6.582910996428584e-23
-0.4732216055937499	6.599474887022158e-23
-0.4731605704374999	6.614718806087647e-23
-0.4730995352812499	6.628634472311478e-23
-0.4730385001249999	6.641231467932869e-23
-0.4729774649687499	6.652499534295555e-23
-0.4729164298124999	6.662428980737121e-23
-0.4728553946562499	6.671031497953496e-23
-0.4727943594999999	6.678299062115143e-23
-0.4727333243437499	6.6842202594608e-23
-0.4726722891874999	6.688807860386224e-23
-0.4726112540312499	6.692056485833022e-23
-0.4725502188749999	6.693953791439051e-23
-0.4724891837187499	6.694513536900215e-23
-0.4724281485624999	6.693732849841206e-23
-0.4723671134062499	6.691598438478414e-23
-0.4723060782499999	6.68812472364937e-23
-0.4722450430937499	6.683311264570427e-23
-0.4721840079374999	6.677143905503535e-23
-0.4721229727812499	6.669638128325557e-23
-0.4720619376249999	6.660796845548453e-23
-0.4720009024687499	6.650604264038674e-23
-0.4719398673124999	6.639075013203693e-23
-0.4718788321562499	6.626215621854003e-23
-0.4718177969999999	6.61201010500804e-23
-0.4717567618437499	6.596472823101703e-23
-0.4716957266874999	6.579614389534561e-23
-0.4716346915312499	6.561418654831134e-23
-0.4715736563749999	6.541898422687718e-23
-0.4715126212187499	6.521067366272537e-23
