Time	Frequency
-0.500041959937505	-7.449867265067502e-24
-0.499980924781255	-6.351397670773933e-24
-0.499919889625005	-5.238921637366712e-24
-0.499858854468755	-4.1267919490243606e-24
-0.499797819312505	-3.0270175576419055e-24
-0.499736784156255	-1.934291620969278e-24
-0.499675749000005	-8.3341177227476e-25
-0.499614713843755	2.8095409187693036e-25
-0.499553678687505	1.397575437861298e-24
-0.499492643531255	2.50315327416583e-24
-0.499431608375005	3.599032601552678e-24
-0.499370573218755	4.698899367867814e-24
-0.499309538062505	5.810908349329783e-24
-0.499248502906255	6.927296063498201e-24
-0.499187467750005	8.034423916852349e-24
-0.499126432593755	9.12999162618841e-24
-0.499065397437505	1.0225445465510906e-23
-0.499004362281255	1.133094015490229e-23
-0.498943327125005	1.2442333792532374e-23
-0.498882291968755	1.3546591968663358e-23
-0.498821256812505	1.463829846428057e-23
-0.498760221656255	1.572610877007916e-23
-0.498699186500005	1.682123821867808e-23
-0.498638151343755	1.7923017243359972e-23
-0.498577116187505	1.9019843418690302e-23
-0.498516081031255	2.0103912177730753e-23
-0.498455045875005	2.1180770564564197e-23
-0.498394010718755	2.22617735584203e-23
-0.498332975562505	2.3349404846857207e-23
-0.498271940406255	2.4434168478093004e-23
-0.498210905250005	2.5506671961821662e-23
-0.498149870093755	2.6569265320027784e-23
-0.498088834937505	2.763257708026812e-23
-0.498027799781255	2.870172177163503e-23
-0.497966764625005	2.976981747496963e-23
-0.497905729468755	3.082676568129378e-23
-0.497844694312505	3.187185204852337e-23
-0.497783659156255	3.2914202965848435e-23
-0.497722624000005	3.3960834014019703e-23
-0.497661588843755	3.500768543231103e-23
-0.497600553687505	3.604483781379279e-23
-0.497539518531255	3.706894902945728e-23
-0.497478483375005	3.8087089300894e-23
-0.497417448218755	3.910737766561552e-23
-0.497356413062505	4.0128546250894806e-23
-0.497295377906255	4.114160637319824e-23
-0.497234342750005	4.2141194187778e-23
-0.497173307593755	4.3132036739360136e-23
-0.497112272437505	4.412252541830784e-23
-0.497051237281255	4.511386120677573e-23
-0.496990202125005	4.609856924946971e-23
-0.496929166968755	4.706996427272394e-23
-0.496868131812505	4.8030348571098094e-23
-0.496807096656255	4.8987688084728645e-23
-0.496746061500005	4.9945265824081926e-23
-0.496685026343755	5.089751080440038e-23
-0.496623991187505	5.183706994290163e-23
-0.496562956031255	5.276391784168642e-23
-0.496501920875005	5.368500295091731e-23
-0.496440885718755	5.460514260424778e-23
-0.496379850562505	5.552085475260599e-23
-0.496318815406255	5.642479862963142e-23
-0.496257780250005	5.731494709884879e-23
-0.496196745093755	5.819682317140964e-23
-0.496135709937505	5.907617914215842e-23
-0.496074674781255	5.995158824697017e-23
-0.496013639625005	6.081627116773817e-23
-0.495952604468755	6.166661020949039e-23
-0.495891569312505	6.250644924527434e-23
-0.495830534156255	6.334188325543239e-23
-0.495769499000005	6.417336494631803e-23
-0.495708463843755	6.499514004674873e-23
-0.495647428687505	6.580251484970739e-23
-0.495586393531255	6.659758123599643e-23
-0.495525358375005	6.738623660343693e-23
-0.495464323218755	6.817050662316409e-23
-0.495403288062505	6.894596117223571e-23
-0.495342252906255	6.970731975988194e-23
-0.495281217750005	7.045497368470584e-23
-0.495220182593755	7.119419078970436e-23
-0.495159147437505	7.192820032640882e-23
-0.495098112281255	7.265405038119971e-23
-0.495037077125005	7.33663635985329e-23
-0.494976041968755	7.406402475633577e-23
-0.494915006812505	7.475132672512838e-23
-0.494853971656255	7.54322917929005e-23
-0.494792936500005	7.610548504537916e-23
-0.494731901343755	7.676584279054674e-23
-0.494670866187505	7.74110233359995e-23
-0.494609831031255	7.804414725669146e-23
-0.494548795875005	7.866959186436674e-23
-0.494487760718755	7.928733757993402e-23
-0.494426725562505	7.989300238163642e-23
-0.494365690406255	8.048335536628394e-23
-0.494304655250005	8.106022802926401e-23
-0.494243620093755	8.162794548799101e-23
-0.494182584937505	8.218769599888588e-23
-0.494121549781255	8.273602348908902e-23
-0.494060514625005	8.32692182288183e-23
-0.493999479468755	8.378788878829621e-23
-0.493938444312505	8.429594706477414e-23
-0.493877409156255	8.479547556335638e-23
-0.493816374000005	8.52840787114129e-23
-0.493755338843755	8.575794960132908e-23
-0.493694303687505	8.621660496948273e-23
-0.493633268531255	8.666329524527101e-23
-0.493572233375005	8.710070595403112e-23
-0.493511198218755	8.752749818253215e-23
-0.493450163062505	8.794003111627473e-23
-0.493389127906255	8.833694839341972e-23
-0.493328092750005	8.872074637061283e-23
-0.493267057593755	8.909442513853137e-23
-0.493206022437505	8.945760160844469e-23
-0.493144987281255	8.980701797143457e-23
-0.493083952125005	9.014067636322927e-23
-0.493022916968755	9.04602610416582e-23
-0.492961881812505	9.076882782843856e-23
-0.492900846656255	9.106682378560759e-23
-0.492839811500005	9.135153232351572e-23
-0.492778776343755	9.162055163355037e-23
-0.492717741187505	9.187477953084936e-23
-0.492656706031255	9.211712934739403e-23
-0.492595670875005	9.234872060882703e-23
-0.492534635718755	9.256744889275803e-23
-0.492473600562505	9.277069599424858e-23
-0.492412565406255	9.295863037537347e-23
-0.492351530250005	9.313387588028584e-23
-0.492290495093755	9.329806535606124e-23
-0.492229459937505	9.344975503101103e-23
-0.492168424781255	9.358630594426342e-23
-0.492107389625005	9.370722940353477e-23
-0.492046354468755	9.381472471579663e-23
-0.491985319312505	9.391079707355358e-23
-0.491924284156255	9.399468358901178e-23
-0.491863249000005	9.406385356852779e-23
-0.491802213843755	9.41172439237493e-23
-0.491741178687505	9.415656951279649e-23
-0.491680143531255	9.418407319394068e-23
-0.491619108375005	9.419964464160386e-23
-0.491558073218755	9.420099029073673e-23
-0.491497038062505	9.418658285149327e-23
-0.491436002906255	9.415758575332691e-23
-0.491374967750005	9.411632311004275e-23
-0.491313932593755	9.406330363949761e-23
-0.491252897437505	9.399660783043313e-23
-0.491191862281255	9.391437133106453e-23
-0.491130827125005	9.381715392506951e-23
-0.491069791968755	9.370719720031357e-23
-0.491008756812505	9.358557117855508e-23
-0.490947721656255	9.345085356741747e-23
-0.490886686500005	9.330098357287952e-23
-0.490825651343755	9.313589794243084e-23
-0.490764616187505	9.2957607678918e-23
-0.490703581031255	9.276765419680198e-23
-0.490642545875005	9.256518627009068e-23
-0.490581510718755	9.234808473709236e-23
-0.490520475562505	9.21156934735461e-23
-0.490459440406255	9.186967830837244e-23
-0.490398405250005	9.161193581742095e-23
-0.490337370093755	9.134223093786323e-23
-0.490276334937505	9.105855015180329e-23
-0.490215299781255	9.075969668403919e-23
-0.490154264625005	9.044684339221834e-23
-0.490093229468755	9.012209352879605e-23
-0.490032194312505	8.978587231047049e-23
-0.489971159156255	8.943644390357746e-23
-0.489910124000005	8.907216600276997e-23
-0.489849088843755	8.869363425468992e-23
-0.489788053687505	8.830299619435891e-23
-0.489727018531255	8.790129660712332e-23
-0.489665983375005	8.748721756712893e-23
-0.489604948218755	8.705880631494067e-23
-0.489543913062505	8.661601267640992e-23
-0.489482877906255	8.61608357510682e-23
-0.489421842750005	8.569487594288157e-23
-0.489360807593755	8.521737880430308e-23
-0.489299772437505	8.472626182733988e-23
-0.489238737281255	8.422083566432288e-23
-0.489177702125005	8.370278112467544e-23
-0.489116666968755	8.317412447994895e-23
-0.489055631812505	8.263474028425117e-23
-0.488994596656255	8.208257416791396e-23
-0.488933561500005	8.151635513524166e-23
-0.488872526343755	8.09373413512281e-23
-0.488811491187505	8.034783401290708e-23
-0.488750456031255	7.974832779062786e-23
-0.488689420875005	7.913694650726507e-23
-0.488628385718755	7.851193434024646e-23
-0.488567350562505	7.78740457918465e-23
-0.488506315406255	7.722573385754172e-23
-0.488445280250005	7.656811430755432e-23
-0.488384245093755	7.58996034534884e-23
-0.488323209937505	7.521804698932194e-23
-0.488262174781255	7.452364120430978e-23
-0.488201139625005	7.38188450864064e-23
-0.488140104468755	7.310533959841797e-23
-0.488079069312505	7.238195108228566e-23
-0.488018034156255	7.16462638545605e-23
-0.487956999000005	7.089788625297589e-23
-0.487895963843755	7.013914015315122e-23
-0.487834928687505	6.937221543815962e-23
-0.487773893531255	6.859642943862059e-23
-0.487712858375005	6.780919730499193e-23
-0.487651823218755	6.700954517778257e-23
-0.487590788062505	6.619958578191131e-23
-0.487529752906255	6.538194827809307e-23
-0.487468717750005	6.455647529575753e-23
-0.487407682593755	6.372052350655338e-23
-0.487346647437505	6.287254816534593e-23
-0.487285612281255	6.201432043354294e-23
-0.487224577125005	6.114881370809228e-23
-0.487163541968755	6.027646216736556e-23
-0.487102506812505	5.939470353926508e-23
-0.487041471656255	5.850147793808838e-23
-0.486980436500005	5.759814075747662e-23
-0.486919401343755	5.668791351520077e-23
-0.486858366187505	5.577181793056578e-23
-0.486797331031255	5.484742578283366e-23
-0.486736295875005	5.391216713804213e-23
-0.486675260718755	5.296692916824828e-23
-0.486614225562505	5.201514936614332e-23
-0.486553190406255	5.1058484842320185e-23
-0.486492155250005	5.009475213921102e-23
-0.486431120093755	4.91209303086854e-23
-0.486370084937505	4.813733681104364e-23
-0.486309049781255	4.7147464595801707e-23
-0.486248014625005	4.615360744793696e-23
-0.486186979468755	4.515397981644522e-23
-0.486125944312505	4.414518166748253e-23
-0.486064909156255	4.312685355956331e-23
-0.486003874000005	4.2102410835130294e-23
-0.485942838843755	4.1074809411025425e-23
-0.485881803687505	4.004283043661962e-23
-0.485820768531255	3.900279587540578e-23
-0.485759733375005	3.7953558641086897e-23
-0.485698698218755	3.689825576137143e-23
-0.485637663062505	3.584046467963004e-23
-0.485576627906255	3.4779714323618795e-23
-0.485515592750005	3.3712231521962144e-23
-0.485454557593755	3.263604580210718e-23
-0.485393522437505	3.155381366645422e-23
-0.485332487281255	3.046961225993108e-23
-0.485271452125005	2.9383842414974414e-23
-0.485210416968755	2.829286464277991e-23
-0.485149381812505	2.719387495936049e-23
-0.485088346656255	2.608876606912498e-23
-0.485027311500005	2.4981953864534502e-23
-0.484966276343755	2.3874887400456225e-23
-0.484905241187505	2.2764321340968914e-23
-0.484844206031255	2.164664814854381e-23
-0.484783170875005	2.0522764058116098e-23
-0.484722135718755	1.9397208033579783e-23
-0.484661100562505	1.8272605234738532e-23
-0.484600065406255	1.7146478308557913e-23
-0.484539030250005	1.6014552962525884e-23
-0.484477995093755	1.4876407946368445e-23
-0.484416959937505	1.373627479333066e-23
-0.484355924781255	1.2597924016274065e-23
-0.484294889625005	1.1460070810252703e-23
-0.484233854468755	1.0318123220182576e-23
-0.484172819312505	9.170153564883958e-24
-0.484111784156255	8.01962690829583e-24
-0.484050749000005	6.871378575686273e-24
-0.483989713843755	5.7257487949506586e-24
-0.483928678687505	4.578213981241371e-24
-0.483867643531255	3.425139405562313e-24
-0.483806608375005	2.268612903611175e-24
-0.483745573218755	1.1142491418890282e-24
-0.483684538062505	-3.554654989826845e-26
-0.483623502906255	-1.1845583338810601e-24
-0.483562467750005	-2.3380475108990246e-24
-0.483501432593755	-3.495916909802321e-24
-0.483440397437505	-4.652302154610294e-24
-0.483379362281255	-5.80248681282322e-24
-0.483318327125005	-6.948785088807454e-24
-0.483257291968755	-8.097840043120921e-24
-0.483196256812505	-9.252210316323775e-24
-0.483135221656255	-1.0406575209922311e-23
-0.483074186500005	-1.1553764971212484e-23
-0.483013151343755	-1.2693637176016135e-23
-0.482952116187505	-1.3833597185087664e-23
-0.482891081031255	-1.4979408565929207e-23
-0.482830045875005	-1.612735976751688e-23
-0.482769010718755	-1.726806901782415e-23
-0.482707975562505	-1.8397999484132112e-23
-0.482646940406255	-1.952434720938705e-23
-0.482585905250005	-2.0656337764933264e-23
-0.482524870093755	-2.1793112688931387e-23
-0.482463834937505	-2.2923772173435665e-23
-0.482402799781255	-2.404060546956971e-23
-0.482341764625005	-2.5149276474556724e-23
-0.482280729468755	-2.6262277906910252e-23
-0.482219694312505	-2.738284542770867e-23
-0.482158659156255	-2.8499727329169725e-23
-0.482097624000005	-2.9600591036963794e-23
-0.482036588843755	-3.0687935071182155e-23
-0.481975553687505	-3.177675393403965e-23
-0.481914518531255	-3.28755757518907e-23
-0.481853483375005	-3.3974552489898703e-23
-0.481792448218755	-3.5056824046156745e-23
-0.481731413062505	-3.611994689989953e-23
-0.481670377906255	-3.7179919358135027e-23
-0.481609342750005	-3.8251243229775594e-23
-0.481548307593755	-3.932759071050273e-23
-0.481487272437505	-4.038853439929806e-23
-0.481426237281255	-4.142518743405998e-23
-0.481365202125005	-4.245232088041113e-23
-0.481304166968755	-4.3490271952527066e-23
-0.481243131812505	-4.4538529171224016e-23
-0.481182096656255	-4.557503817334419e-23
-0.481121061500005	-4.658355947871472e-23
-0.481060026343755	-4.7574881840976e-23
-0.480998991187505	-4.8573928822601623e-23
-0.480937956031255	-4.95878875528167e-23
-0.480876920875005	-5.059592541997943e-23
-0.480815885718755	-5.157479263622044e-23
-0.480754850562505	-5.252858453842809e-23
-0.480693815406255	-5.348427106649392e-23
-0.480632780250005	-5.445752432820978e-23
-0.480571745093755	-5.54319928543167e-23
-0.480510709937505	-5.637920827466563e-23
-0.480449674781255	-5.72946402506405e-23
-0.480388639625005	-5.820390004653061e-23
-0.480327604468755	-5.913039587383287e-23
-0.480266569312505	-6.006514805823985e-23
-0.480205534156255	-6.097754766908846e-23
-0.480144499000005	-6.185397493768764e-23
-0.480083463843755	-6.271520937016389e-23
-0.480022428687505	-6.359007894805685e-23
-0.479961393531255	-6.447862775733967e-23
-0.479900358375005	-6.535178038070704e-23
-0.479839323218755	-6.618809250841854e-23
-0.479778288062505	-6.700081693498351e-23
-0.479717252906255	-6.782081045418525e-23
-0.479656217750005	-6.865714208156751e-23
-0.479595182593755	-6.948560199302886e-23
-0.479534147437505	-7.027953676117885e-23
-0.479473112281255	-7.104347457137747e-23
-0.479412077125005	-7.180681077132489e-23
-0.479351041968755	-7.258608593825785e-23
-0.479290006812505	-7.336415056516182e-23
-0.479228971656255	-7.411233010603321e-23
-0.479167936500005	-7.482674541745877e-23
-0.479106901343755	-7.553252303755975e-23
-0.479045866187505	-7.625123690235116e-23
-0.478984831031255	-7.697361175525514e-23
-0.478923795875005	-7.767189755218244e-23
-0.478862760718755	-7.833527686516911e-23
-0.478801725562505	-7.898292697993415e-23
-0.478740690406255	-7.963881009931027e-23
-0.478679655250005	-8.030113750149585e-23
-0.478618620093755	-8.094528563805669e-23
-0.478557584937505	-8.155548183851371e-23
-0.478496549781255	-8.214431367523063e-23
-0.478435514625005	-8.273578652724448e-23
-0.478374479468755	-8.333450996989987e-23
-0.478313444312505	-8.392040516504823e-23
-0.478252409156255	-8.447479218723918e-23
-0.478191374000005	-8.500384410009128e-23
-0.478130338843755	-8.552983163165755e-23
-0.478069303687505	-8.60623048230874e-23
-0.478008268531255	-8.658634028439677e-23
-0.477947233375005	-8.708215112982566e-23
-0.477886198218755	-8.755019568016757e-23
-0.477825163062505	-8.80098224183216e-23
-0.477764127906255	-8.847404322793811e-23
-0.477703092750005	-8.893316866744774e-23
-0.477642057593755	-8.93677431887082e-23
-0.477581022437505	-8.977342682868135e-23
-0.477519987281255	-9.016590815606679e-23
-0.477458952125005	-9.056028769979061e-23
-0.477397916968755	-9.095188207878026e-23
-0.477336881812505	-9.132271689868463e-23
-0.477275846656255	-9.166466056923588e-23
-0.477214811500005	-9.198935491339296e-23
-0.477153776343755	-9.231277072895069e-23
-0.477092741187505	-9.263475399761383e-23
-0.477031706031255	-9.293964066202491e-23
-0.476970670875005	-9.321651989951597e-23
-0.476909635718755	-9.347287044495652e-23
-0.476848600562505	-9.372448215304661e-23
-0.476787565406255	-9.397514025434059e-23
-0.476726530250005	-9.421211978371397e-23
-0.476665495093755	-9.442273383132085e-23
-0.476604459937505	-9.461036115966631e-23
-0.476543424781255	-9.478967217774717e-23
-0.476482389625005	-9.496769404291252e-23
-0.476421354468755	-9.513508419298043e-23
-0.476360319312505	-9.527836663101554e-23
-0.476299284156255	-9.539706293166631e-23
-0.476238249000005	-9.550391530338295e-23
-0.476177213843755	-9.560838887784455e-23
-0.476116178687505	-9.570476558295828e-23
-0.476055143531255	-9.577975020294177e-23
-0.475994108375005	-9.58294525456529e-23
-0.475933073218755	-9.586403873217996e-23
-0.475872038062505	-9.589450539256483e-23
-0.475811002906255	-9.591875749510615e-23
-0.475749967750005	-9.592458466711816e-23
-0.475688932593755	-9.590532851302797e-23
-0.475627897437505	-9.586813491642062e-23
-0.475566862281255	-9.582457981910941e-23
-0.475505827125005	-9.577595900012842e-23
-0.475444791968755	-9.571192765480828e-23
-0.475383756812505	-9.562384792684055e-23
-0.475322721656255	-9.551563332276842e-23
-0.475261686500005	-9.539849777321247e-23
-0.475200651343755	-9.527666079782073e-23
-0.475139616187505	-9.514224681169134e-23
-0.475078581031255	-9.49855366568102e-23
-0.475017545875005	-9.480725772983333e-23
-0.474956510718755	-9.461740796026781e-23
-0.474895475562505	-9.442246454495716e-23
-0.474834440406255	-9.421737491824949e-23
-0.474773405250005	-9.399225695246693e-23
-0.474712370093755	-9.374498298532277e-23
-0.474651334937505	-9.348367614660413e-23
-0.474590299781255	-9.321625829666246e-23
-0.474529264625005	-9.294054370390408e-23
-0.474468229468755	-9.264731989635773e-23
-0.474407194312505	-9.23321821567189e-23
-0.474346159156255	-9.200098575176303e-23
-0.474285124000005	-9.166223487997382e-23
-0.474224088843755	-9.131636741853576e-23
-0.474163053687505	-9.095550264680073e-23
-0.474102018531255	-9.057365244695714e-23
-0.474040983375005	-9.017425839157088e-23
-0.473979948218755	-8.976566474662309e-23
-0.473918913062505	-8.935056232350174e-23
-0.473857877906255	-8.892284171638762e-23
-0.473796842750005	-8.84755909770067e-23
-0.473735807593755	-8.800987319372017e-23
-0.473674772437505	-8.75332443565342e-23
-0.473613737281255	-8.705016024026234e-23
-0.473552702125005	-8.655655503793294e-23
-0.473491666968755	-8.604528752395321e-23
-0.473430631812505	-8.551529707242083e-23
-0.473369596656255	-8.497285813003677e-23
-0.473308561500005	-8.442358015842677e-23
-0.473247526343755	-8.38654693472436e-23
-0.473186491187505	-8.329174734094491e-23
-0.473125456031255	-8.269960914250889e-23
-0.473064420875005	-8.20937358966131e-23
-0.473003385718755	-8.148029424068422e-23
-0.472942350562505	-8.085925082407432e-23
-0.472881315406255	-8.022471471105575e-23
-0.472820280250005	-7.957263507930852e-23
-0.472759245093755	-7.890596418396004e-23
-0.472698209937505	-7.823086683878851e-23
-0.472637174781255	-7.754899324416544e-23
-0.472576139625005	-7.685564789034961e-23
-0.472515104468755	-7.614599909283625e-23
-0.472454069312505	-7.542129233429261e-23
-0.472393034156255	-7.468723894771331e-23
-0.472331999000005	-7.394683213878215e-23
-0.472270963843755	-7.319680474101076e-23
-0.472209928687505	-7.243206549145397e-23
-0.472148893531255	-7.165228458894409e-23
-0.472087858375005	-7.086230748416003e-23
-0.472026823218755	-7.006606823666379e-23
-0.471965788062505	-6.926181352969375e-23
-0.471904752906255	-6.844460623941984e-23
-0.471843717750005	-6.761277747560895e-23
-0.471782682593755	-6.677008381589155e-23
-0.471721647437505	-6.592097295383557e-23
-0.471660612281255	-6.506513352549859e-23
-0.471599577125005	-6.419819653011444e-23
-0.471538541968755	-6.331750515791356e-23
-0.471477506812505	-6.242555791509185e-23
-0.471416471656255	-6.152687761286165e-23
-0.471355436500005	-6.062243225145755e-23
-0.471294401343755	-5.970869136216598e-23
-0.471233366187505	-5.878237329435004e-23
-0.471172331031255	-5.784474035020231e-23
-0.471111295875005	-5.690003989199629e-23
-0.471050260718755	-5.595024282489226e-23
-0.470989225562505	-5.499282497709175e-23
-0.470928190406255	-5.402426790398541e-23
-0.470867155250005	-5.304468611259108e-23
-0.470806120093755	-5.205773346540782e-23
-0.470745084937505	-5.1066062385246254e-23
