Time	Frequency
-0.5000534043124958	-0.5083530524547988
-0.4999923691562458	-0.5053366366788331
-0.4999313339999958	-0.5022750564060323
-0.4998702988437458	-0.4991133022801281
-0.4998092636874958	-0.49581371610462394
-0.4997482285312458	-0.4923931015778407
-0.4996871933749958	-0.488907988253928
-0.4996261582187458	-0.4854013046355717
-0.4995651230624958	-0.4818612016741922
-0.4995040879062458	-0.4782319725737262
-0.4994430527499958	-0.4744675400746905
-0.4993820175937458	-0.47057673864307503
-0.4993209824374958	-0.4666164795896142
-0.4992599472812458	-0.4626382408921489
-0.4991989121249958	-0.45863861137889933
-0.4991378769687458	-0.4545619838551552
-0.4990768418124958	-0.4503540409193703
-0.4990158066562458	-0.4460151818443571
-0.4989547714999958	-0.44160195594156654
-0.4988937363437458	-0.43717399967796633
-0.4988327011874958	-0.43273678665838156
-0.4987716660312458	-0.42823572488304035
-0.4987106308749958	-0.42360854909494033
-0.4986495957187458	-0.4188464006473885
-0.4985885605624958	-0.41400440437469843
-0.4985275254062458	-0.4091502922529762
-0.4984664902499958	-0.40429955312387666
-0.4984054550937458	-0.3993998255262871
-0.4983444199374958	-0.3943809244527741
-0.4982833847812458	-0.38922346655626616
-0.4982223496249958	-0.38397977470040523
-0.4981613144687458	-0.37872553213024523
-0.4981002793124958	-0.373487481819549
-0.4980392441562458	-0.36821693174686143
-0.4979782089999958	-0.362836032448134
-0.4979171738437458	-0.3573136254891136
-0.4978561386874958	-0.3516976588416904
-0.4977951035312458	-0.3460714942658675
-0.4977340683749958	-0.34047451056524236
-0.4976730332187458	-0.33486340287734595
-0.4976119980624958	-0.3291530213672425
-0.4975509629062458	-0.3232989384798622
-0.4974899277499958	-0.3173425152211492
-0.4974288925937458	-0.3113739775526901
-0.4973678574374958	-0.3054471893636471
-0.4973068222812458	-0.2995272285534478
-0.4972457871249958	-0.2935225116051012
-0.4971847519687458	-0.2873728922283421
-0.4971237168124958	-0.2811099757259288
-0.4970626816562458	-0.2748302848960113
-0.4970016464999958	-0.2686046115833825
-0.4969406113437458	-0.26240950742674646
-0.4968795761874958	-0.25614798002526257
-0.4968185410312458	-0.24974198399511455
-0.4967575058749958	-0.24320944309008863
-0.4966964707187458	-0.23665110612323534
-0.4966354355624958	-0.23015715710034568
-0.4965744004062458	-0.22372077917044544
-0.4965133652499958	-0.21724214726556274
-0.4964523300937458	-0.21062233108657438
-0.4963912949374958	-0.20385972321869827
-0.4963302597812458	-0.19705616474239818
-0.4962692246249958	-0.19032390515505537
-0.4962081894687458	-0.18367927103729523
-0.4961471543124958	-0.17702435551007528
-0.4960861191562458	-0.1702374722042594
-0.4960250839999958	-0.16328987410830612
-0.4959640488437458	-0.15627801592240323
-0.4959030136874958	-0.14933735969999004
-0.4958419785312458	-0.1425155126762617
-0.4957809433749958	-0.13572415155385967
-0.4957199082187458	-0.12881869370120316
-0.4956588730624958	-0.12173481403755103
-0.4955978379062458	-0.11455419330901906
-0.4955368027499958	-0.107434181888809
-0.4954757675937458	-0.10046252864387897
-0.4954147324374958	-0.09357208641086281
-0.4953536972812458	-0.08659905424624827
-0.4952926621249958	-0.07943522751987155
-0.4952316269687458	-0.07213376131131152
-0.4951705918124958	-0.06486672143208574
-0.4951095566562458	-0.057768548494385404
-0.4950485214999958	-0.05080869949669418
-0.4949874863437458	-0.043814970545062996
-0.4949264511874958	-0.036631111173813215
-0.4948654160312458	-0.029265233743423005
-0.4948043808749958	-0.02188943332859265
-0.4947433457187458	-0.01468581410804319
-0.4946823105624958	-0.007677673195075186
-0.4946212754062458	-0.0007032013250979734
-0.4945602402499958	0.006438911754408191
-0.4944992050937458	0.013802306035400756
-0.4944381699374958	0.021237239320453006
-0.4943771347812458	0.02852215283297638
-0.4943160996249958	0.03556588924310645
-0.4942550644687458	0.042494699113844035
-0.4941940293124958	0.049540212512831784
-0.4941329941562458	0.056827272177754906
-0.4940719589999958	0.0642553871024848
-0.4940109238437458	0.07158518706059121
-0.4939498886874958	0.07865441463583006
-0.4938888535312458	0.08552710458841496
-0.4938278183749958	0.09243767581200955
-0.4937667832187458	0.09957806414490805
-0.4937057480624958	0.10692083757988069
-0.4936447129062458	0.11424075491859335
-0.4935836777499958	0.12131703698020312
-0.4935226425937458	0.12813290386712933
-0.4934616074374958	0.13489055711253206
-0.4934005722812458	0.14182754826504096
-0.4933395371249958	0.1490010118644806
-0.4932785019687458	0.15623538993094208
-0.4932174668124958	0.16328061766550755
-0.4931564316562458	0.1700367620625636
-0.4930953964999958	0.17664171956801472
-0.4930343613437458	0.18334397496585808
-0.4929733261874958	0.19027726034986878
-0.4929122910312458	0.19734118192194655
-0.4928512558749958	0.20429380976452904
-0.4927902207187458	0.2109696549439086
-0.4927291855624958	0.21742512024107266
-0.4926681504062458	0.22388245482069946
-0.4926071152499958	0.23052660772890662
-0.4925460800937458	0.2373401871679899
-0.4924850449374958	0.24412335572070396
-0.4924240097812458	0.2506760338168397
-0.4923629746249958	0.2569750610003457
-0.4923019394687458	0.263188291563343
-0.4922409043124958	0.26951811443972573
-0.4921798691562458	0.2760194644697327
-0.4921188339999958	0.28255531235092446
-0.4920577988437458	0.28892449176911955
-0.4919967636874958	0.29504192013254993
-0.4919357285312458	0.30100877251711733
-0.4918746933749958	0.3070142531387524
-0.4918136582187458	0.3131629597354717
-0.4917526230624958	0.3193845156267326
-0.4916915879062458	0.32550267847816877
-0.4916305527499958	0.3313957657907333
-0.4915695175937458	0.3371015701175653
-0.4915084824374958	0.3427757014503645
-0.4914474472812458	0.3485469473505685
-0.4913864121249958	0.3544031658543821
-0.4913253769687458	0.3602079194207426
-0.4912643418124958	0.3658268724317923
-0.4912033066562458	0.37124629903477674
-0.4911422714999958	0.37657866699986214
-0.4910812363437458	0.3819556652681788
-0.4910202011874958	0.3874092462295007
-0.4909591660312458	0.39284721835830044
-0.4908981308749958	0.3981405846279955
-0.4908370957187458	0.40323941125259066
-0.4907760605624958	0.408212593417653
-0.4907150254062458	0.4131798615942932
-0.4906539902499958	0.41820203861733457
-0.4905929550937458	0.4232292603913186
-0.4905319199374958	0.428150120390954
-0.4904708847812458	0.43289292038278127
-0.4904098496249958	0.4374865095251124
-0.4903488144687458	0.442028862903326
-0.4902877793124958	0.4465960534987085
-0.4902267441562458	0.4511753571958498
-0.4901657089999958	0.4556804806508396
-0.4901046738437458	0.4600310539145112
-0.4900436386874958	0.4642225819202102
-0.4899826035312458	0.4683256354755763
-0.4899215683749958	0.47241900146010174
-0.4898605332187458	0.4765194021771007
-0.4897994980624958	0.4805697357535005
-0.4897384629062458	0.48449268043766
-0.4896774277499958	0.4882588290173524
-0.4896163925937458	0.4919089675215052
-0.4895553574374958	0.49551383118451037
-0.4894943222812458	0.49911026338505604
-0.4894332871249958	0.5026708423885597
-0.4893722519687458	0.5061311579886598
-0.4893112168124958	0.5094472715168217
-0.4892501816562458	0.5126316556685863
-0.4891891464999958	0.5157381446631684
-0.4891281113437458	0.518812581029948
-0.4890670761874958	0.5218539412009165
-0.4890060410312458	0.5248181603049885
-0.4889450058749958	0.5276580993465871
-0.4888839707187458	0.5303630671310546
-0.4888229355624958	0.532964633598141
-0.4887619004062458	0.5355065586918847
-0.4887008652499958	0.5380069851173913
-0.4886398300937458	0.540445112224434
-0.4885787949374958	0.5427811895179669
-0.4885177597812458	0.544990302231793
-0.4884567246249958	0.5470811266000613
-0.4883956894687458	0.549085832292041
-0.4883346543124958	0.5510319285389156
-0.4882736191562458	0.5529203153819285
-0.4882125839999958	0.55472641112483
-0.4881515488437458	0.5564213190696896
-0.4880905136874958	0.5579946644868741
-0.4880294785312458	0.5594612180284321
-0.4879684433749958	0.5608475372383497
-0.4879074082187458	0.5621703974897722
-0.4878463730624958	0.5634240297362123
-0.4877853379062458	0.5645853448296861
-0.4877243027499958	0.5656322992276702
-0.4876632675937458	0.5665609556602687
-0.4876022324374958	0.567388224148368
-0.4875411972812458	0.568138293844896
-0.4874801621249958	0.5688232466037291
-0.4874191269687458	0.5694329956319967
-0.4873580918124958	0.5699428159033596
-0.4872970566562458	0.5703331027908969
-0.4872360214999958	0.5706057648883124
-0.4871749863437458	0.5707834223358556
-0.4871139511874958	0.5708911282823798
-0.4870529160312458	0.5709351380172598
-0.4869918808749958	0.5708966616300145
-0.4869308457187458	0.570746829485266
-0.4868698105624958	0.570471196197133
-0.4868087754062458	0.5700830134063823
-0.4867477402499958	0.5696129478034205
-0.4866867050937458	0.5690829273812451
-0.4866256699374958	0.5684864337573925
-0.4865646347812458	0.5677931541210236
-0.4865035996249958	0.5669750437199806
-0.4864425644687458	0.5660314670385606
-0.4863815293124958	0.5649908314650357
-0.4863204941562458	0.5638862435168996
-0.4862594589999958	0.5627261091670112
-0.4861984238437458	0.5614860409482179
-0.4861373886874958	0.5601300669457432
-0.4860763535312458	0.558642864343868
-0.4860153183749958	0.5570441812860006
-0.4859542832187458	0.5553718996727564
-0.4858932480624958	0.5536483637623685
-0.4858322129062458	0.5518602289047074
-0.4857711777499958	0.5499703394172658
-0.4857101425937458	0.5479513285087309
-0.4856491074374958	0.5458107703577324
-0.4855880722812458	0.5435848408769767
-0.4855270371249958	0.5413058335237014
-0.4854660019687458	0.538973057279358
-0.4854049668124958	0.5365537943437142
-0.4853439316562458	0.5340134669026035
-0.4852828964999958	0.5313475067503851
-0.4852218613437458	0.5285858346098757
-0.4851608261874958	0.5257657586893627
-0.4850997910312458	0.5228981098586506
-0.4850387558749958	0.5199578302527343
-0.4849777207187458	0.5169076646714019
-0.4849166855624958	0.5137329436004935
-0.4848556504062458	0.5104553303412335
-0.4847946152499958	0.5071130112565135
-0.4847335800937458	0.5037258210057074
-0.4846725449374958	0.5002775881454685
-0.4846115097812458	0.49673193193969895
-0.4845504746249958	0.4930667314440802
-0.4844894394687458	0.48929506438958165
-0.4844284043124958	0.48545311166348554
-0.4843673691562458	0.48156667451738255
-0.4843063339999958	0.47762780520316966
-0.4842452988437458	0.47360320493761515
-0.4841842636874958	0.4694662659657565
-0.4841232285312458	0.46522258204302924
-0.4840621933749958	0.46090502769693337
-0.4840011582187458	0.4565432849281935
-0.4839401230624958	0.4521366011561646
-0.4838790879062458	0.4476553139105799
-0.4838180527499958	0.44306966082772387
-0.4837570175937458	0.43837862825043833
-0.4836959824374958	0.43361144992859235
-0.4836349472812458	0.42880046197793814
-0.4835739121249958	0.4239511738482572
-0.4835128769687458	0.41903782424927155
-0.4834518418124958	0.4140286287209446
-0.4833908066562458	0.4089168058486763
-0.4833297714999958	0.4037278828059511
-0.4832687363437458	0.3984962930499982
-0.4832077011874958	0.3932333395793726
-0.4831466660312458	0.38791696750329685
-0.4830856308749958	0.3825134037946439
-0.4830245957187458	0.37701024025215696
-0.4829635605624958	0.371429305824423
-0.4829025254062458	0.36580693914110596
-0.4828414902499958	0.36016033508790074
-0.4827804550937458	0.3544718463586701
-0.4827194199374958	0.348706261862871
-0.4826583847812458	0.3428449796894647
-0.4825973496249958	0.33690481144523876
-0.4825363144687458	0.33092336652708604
-0.4824752793124958	0.3249244569392318
-0.4824142441562458	0.31889616241853286
-0.4823532089999958	0.31280265051270256
-0.4822921738437458	0.3066189408009811
-0.4822311386874958	0.30035579413769153
-0.4821701035312458	0.2940508934989279
-0.4821090683749958	0.2877342145318295
-0.4820480332187458	0.28140027392538547
-0.4819869980624958	0.27501390492745226
-0.4819259629062458	0.2685444199120221
-0.4818649277499958	0.26199588941535196
-0.4818038925937458	0.25540470406484633
-0.4817428574374958	0.24880631449658377
-0.4816818222812458	0.24220248279355072
-0.4816207871249958	0.23556031256350463
-0.4815597519687458	0.2288442655217235
-0.4814987168124958	0.22205098016639455
-0.4814376816562458	0.21521372457410193
-0.4813766464999958	0.20837202614941294
-0.4813156113437458	0.20153521138506714
-0.4812545761874958	0.19467440240328793
-0.4811935410312458	0.1877508328298395
-0.4811325058749958	0.18075390012028358
-0.4810714707187458	0.17371253151823046
-0.4810104355624958	0.16666875704213058
-0.4809494004062458	0.15963873648410293
-0.4808883652499958	0.1525984292345035
-0.4808273300937458	0.14550755902516174
-0.4807662949374958	0.1383491471105376
-0.4807052597812458	0.13114694344331185
-0.4806442246249958	0.12394392012006593
-0.4805831894687458	0.11676223430916248
-0.4805221543124958	0.10958304128851287
-0.4804611191562458	0.10236559228542691
-0.4804000839999958	0.09508737636135335
-0.4803390488437458	0.08776693474828393
-0.4802780136874958	0.08044748208649621
-0.4802169785312458	0.07315674947480295
-0.4801559433749958	0.06588133924013276
-0.4800949082187458	0.058580420155936105
-0.4800338730624958	0.05122596938866886
-0.4799728379062458	0.04383109178725818
-0.4799118027499958	0.03643901221053303
-0.4798507675937458	0.029082810041325638
-0.4797897324374958	0.02175450539547192
-0.4797286972812458	0.014413527585646506
-0.4796676621249958	0.007026698676269426
-0.4796066269687458	-0.0003985192933912116
-0.4795455918124958	-0.00781960548838337
-0.4794845566562458	-0.015198315023796783
-0.4794235214999958	-0.02253628153663628
-0.4793624863437458	-0.029872849832579977
-0.4793014511874958	-0.03724669303710449
-0.4792404160312458	-0.04465744446336308
-0.4791793808749958	-0.052064291701029906
-0.4791183457187458	-0.05942337646039545
-0.4790573105624958	-0.06672855996930101
-0.4789962754062458	-0.07401665134897172
-0.4789352402499958	-0.08133163882891324
-0.4788742050937458	-0.08868148125579153
-0.4788131699374958	-0.0960287986770539
-0.4787521347812458	-0.10332492248359913
-0.4786910996249958	-0.11055516692363762
-0.4786300644687458	-0.11775210943663628
-0.4785690293124958	-0.12496390351506671
-0.4785079941562458	-0.13220735621191865
-0.4784469589999958	-0.1394502950935742
-0.4783859238437458	-0.1466404508993114
-0.4783248886874958	-0.15375394037848392
-0.4782638535312458	-0.1608173797103601
-0.4782028183749958	-0.16788216074054968
-0.4781417832187458	-0.17497456227392036
-0.4780807480624958	-0.18206896552258287
-0.4780197129062458	-0.18911038268072347
-0.4779586777499958	-0.1960655513229143
-0.4778976425937458	-0.2029540398234198
-0.4778366074374958	-0.2098292208985267
-0.4777755722812458	-0.21672649785587803
-0.4777145371249958	-0.223627904416127
-0.4776535019687458	-0.23047733778827936
-0.4775924668124958	-0.23723274078769852
-0.4775314316562458	-0.2439058022854999
-0.4774703964999958	-0.2505506169236087
-0.4774093613437458	-0.25721116977385966
-0.4773483261874958	-0.2638775859196069
-0.4772872910312458	-0.27049359857389443
-0.4772262558749958	-0.2770089287983455
-0.4771652207187458	-0.2834268392137815
-0.4771041855624958	-0.28980097040042185
-0.4770431504062458	-0.296183501803181
-0.4769821152499958	-0.3025736303326163
-0.4769210800937458	-0.30891618626360756
-0.4768600449374958	-0.31515284552864326
-0.4767990097812458	-0.32127755368270283
-0.4767379746249958	-0.3273425483286473
-0.4766769394687458	-0.3334079212778358
-0.4766159043124958	-0.3394823460388599
-0.4765548691562458	-0.34551246262396235
-0.4764938339999958	-0.3514324483267904
-0.4764327988437458	-0.3572268458743744
-0.4763717636874958	-0.3629457549870204
-0.4763107285312458	-0.3686566263735685
-0.4762496933749958	-0.37437809710585446
-0.4761886582187458	-0.3800597258668789
-0.4761276230624958	-0.38562846709565096
-0.4760665879062458	-0.39105827496481227
-0.4760055527499958	-0.39639569782641576
-0.4759445175937458	-0.4017155007832895
-0.4758834824374958	-0.4070476365832484
-0.4758224472812458	-0.4123459960589746
-0.4757614121249958	-0.4175305817814317
-0.4757003769687458	-0.4225637661347678
-0.4756393418124958	-0.42748716344603505
-0.4755783066562458	-0.4323822892912532
-0.4755172714999958	-0.437291306448251
-0.4754562363437458	-0.4421739931806886
-0.4753952011874958	-0.44694394212095784
-0.4753341660312458	-0.45155081863834895
-0.4752731308749958	-0.45602959483568034
-0.4752120957187458	-0.4604679599064008
-0.4751510605624958	-0.46492163344017035
-0.4750900254062458	-0.46935855999644016
-0.4750289902499958	-0.47368688750969307
-0.4749679550937458	-0.47784182159574734
-0.4749069199374958	-0.48184868316368934
-0.4748458847812458	-0.4858002684586124
-0.4747848496249958	-0.4897680399075436
-0.4747238144687458	-0.49373138911063535
-0.4746627793124958	-0.49759407582114357
-0.4746017441562458	-0.501274575970111
-0.4745407089999958	-0.5047850436692619
-0.4744796738437458	-0.5082219800417923
-0.4744186386874958	-0.5116749171744073
-0.4743576035312458	-0.5151388912251678
-0.4742965683749958	-0.5185153831434985
-0.4742355332187458	-0.5217036960124123
-0.4741744980624958	-0.5246976482711821
-0.4741134629062458	-0.5275945245929216
-0.4740524277499958	-0.5305045463764144
-0.4739913925937458	-0.5334445384193234
-0.4739303574374958	-0.5363176028225143
-0.4738693222812458	-0.5390014541383384
-0.4738082871249958	-0.5414645674637854
-0.4737472519687458	-0.5437997170427159
-0.4736862168124958	-0.5461395507031988
-0.4736251816562458	-0.5485305133459182
-0.4735641464999958	-0.5508842359601525
-0.4735031113437458	-0.553056033392764
-0.4734420761874958	-0.5549806213966609
-0.4733810410312458	-0.5567376912590928
-0.4733200058749958	-0.5584818019432425
-0.4732589707187458	-0.5602978341986805
-0.4731979355624958	-0.5621166281870832
-0.4731369004062458	-0.5637736297514492
-0.4730758652499958	-0.5651608645027822
-0.4730148300937458	-0.5663318388695059
-0.4729537949374958	-0.5674577520489797
-0.4728927597812458	-0.5686701919433002
-0.4728317246249958	-0.5699345006764038
-0.4727706894687458	-0.5710749602630667
-0.4727096543124958	-0.5719344541260699
-0.4726486191562458	-0.5725234011532614
-0.4725875839999958	-0.5730169197746257
-0.4725265488437458	-0.5735967840560185
-0.4724655136874958	-0.5742807713344974
-0.4724044785312458	-0.5748992158202082
-0.4723434433749958	-0.5752463767939963
-0.4722824082187458	-0.5752713940142753
-0.4722213730624958	-0.575131606891816
-0.4721603379062458	-0.5750534482003383
-0.4720993027499958	-0.5751240378600894
-0.4720382675937458	-0.5752053596743407
-0.4719772324374958	-0.5750548772408952
-0.4719161972812458	-0.5745469779793351
-0.4718551621249958	-0.573792735155296
-0.4717941269687458	-0.5730440921820624
-0.4717330918124958	-0.5724653753031784
-0.4716720566562458	-0.5719799005344219
-0.4716110214999958	-0.5713349043547855
-0.4715499863437458	-0.570329741547366
-0.4714889511874958	-0.5690007736881233
-0.4714279160312458	-0.5675924195819564
-0.4713668808749958	-0.566337432986838
-0.4713058457187458	-0.5652447693283967
-0.4712448105624958	-0.5640890656587992
-0.4711837754062458	-0.5626134243398123
-0.4711227402499958	-0.5607623288247249
-0.4710617050937458	-0.5587329526608114
-0.4710006699374958	-0.5567977347034789
-0.4709396347812458	-0.5550588297852239
-0.4708785996249958	-0.5533567396427461
-0.4708175644687458	-0.5514152422462082
-0.4707565293124958	-0.5490906035909449
-0.4706954941562458	-0.5464996537466255
-0.4706344589999958	-0.5439125028181403
-0.4705734238437458	-0.5415090436067158
-0.4705123886874958	-0.5392198351255071
-0.4704513535312458	-0.5367928365785075
-0.4703903183749958	-0.5340222041599858
-0.4703292832187458	-0.530931164904581
-0.4702682480624958	-0.5277463708103128
-0.4702072129062458	-0.5246914278631442
-0.4701461777499958	-0.5217885217439496
-0.4700851425937458	-0.5188450142537137
-0.4700241074374958	-0.5156316122567226
-0.4699630722812458	-0.5120875045574836
-0.4699020371249958	-0.5083690330993826
-0.4698410019687458	-0.5047037913107002
-0.4697799668124958	-0.5011866243557043
-0.4697189316562458	-0.49770109945303137
-0.4696578964999958	-0.49403165405088706
-0.4695968613437458	-0.4900593454677914
