Time	Frequency
-0.5000076271875002	-0.40579314056241755
-0.49994659203125025	-0.4123857278833699
-0.49988555687500025	-0.41889249113764077
-0.49982452171875025	-0.425310544697804
-0.49976348656250025	-0.4316431923914011
-0.49970245140625025	-0.43789440297980736
-0.49964141625000025	-0.4440630022514612
-0.49958038109375025	-0.4501429834667855
-0.49951934593750025	-0.45612912367691344
-0.49945831078125025	-0.462021246672617
-0.49939727562500025	-0.4678226034047906
-0.49933624046875025	-0.47353468841168855
-0.49927520531250025	-0.47915444002116947
-0.49921417015625025	-0.4846767163489107
-0.49915313500000025	-0.4900989145612759
-0.49909209984375025	-0.4954223969834356
-0.49903106468750025	-0.5006493574392565
-0.49897002953125025	-0.5057790327684983
-0.49890899437500025	-0.5108076172305421
-0.49884795921875025	-0.5157316723773901
-0.49878692406250025	-0.5205508389877846
-0.49872588890625025	-0.5252667930405044
-0.49866485375000025	-0.5298799471769539
-0.49860381859375025	-0.5343879203537074
-0.49854278343750025	-0.5387874584043246
-0.49848174828125025	-0.5430772714375097
-0.49842071312500025	-0.5472583424051929
-0.49835967796875025	-0.5513315273180326
-0.49829864281250025	-0.5552954742345244
-0.49823760765625025	-0.5591473280126592
-0.49817657250000025	-0.5628852780340071
-0.49811553734375025	-0.566509791692689
-0.49805450218750025	-0.5700220226514405
-0.49799346703125025	-0.5734214049500824
-0.49793243187500025	-0.5767054258841261
-0.49787139671875025	-0.5798718521965568
-0.49781036156250025	-0.582920688243105
-0.49774932640625025	-0.5858534463361526
-0.49768829125000025	-0.5886705183842844
-0.49762725609375025	-0.5913698030118959
-0.49756622093750025	-0.5939483869971058
-0.49750518578125025	-0.5964054084722685
-0.49744415062500025	-0.5987426122230785
-0.49738311546875025	-0.6009617567693348
-0.49732208031250025	-0.6030618734884216
-0.49726104515625025	-0.6050396831150624
-0.49720001000000025	-0.6068928360691906
-0.49713897484375025	-0.6086222615795054
-0.49707793968750025	-0.6102307809629948
-0.49701690453125025	-0.6117194415278644
-0.49695586937500025	-0.6130857755999555
-0.49689483421875025	-0.6143261098934693
-0.49683379906250025	-0.6154394192768131
-0.49677276390625025	-0.6164283179445688
-0.49671172875000025	-0.6172959191516448
-0.49665069359375025	-0.6180420200388906
-0.49658965843750025	-0.6186629772334913
-0.49652862328125025	-0.6191555485473095
-0.49646758812500025	-0.6195204354609674
-0.49640655296875025	-0.6197614611773633
-0.49634551781250025	-0.6198811821657714
-0.49628448265625025	-0.6198778523371917
-0.49622344750000025	-0.619747258631014
-0.49616241234375025	-0.6194874426191359
-0.49610137718750025	-0.61910096562936
-0.49604034203125025	-0.6185921058334315
-0.49597930687500025	-0.6179621112529462
-0.49591827171875025	-0.6172078445343512
-0.49585723656250025	-0.6163253879608065
-0.49579620140625025	-0.61531460168136
-0.49573516625000025	-0.614179492299447
-0.49567413109375025	-0.6129239354536906
-0.49561309593750025	-0.6115475347412058
-0.49555206078125025	-0.6100462894163701
-0.49549102562500025	-0.6084173677100945
-0.49542999046875025	-0.6066626333411631
-0.49536895531250025	-0.604786934488171
-0.49530792015625025	-0.6027930415006265
-0.49524688500000025	-0.600678906783752
-0.49518584984375025	-0.5984403545862569
-0.49512481468750025	-0.5960762316207787
-0.49506377953125025	-0.59359024310068
-0.49500274437500025	-0.5909873462349723
-0.49494170921875025	-0.5882686930607782
-0.49488067406250025	-0.5854308455733495
-0.49481963890625025	-0.5824702341321805
-0.49475860375000025	-0.5793878542048198
-0.49469756859375025	-0.5761888537067165
-0.49463653343750025	-0.5728774280464289
-0.49457549828125025	-0.5694527479543652
-0.49451446312500025	-0.5659105489086622
-0.49445342796875025	-0.562248705917273
-0.49439239281250025	-0.5584705212577673
-0.49433135765625025	-0.5545818915921987
-0.49427032250000025	-0.5505854691244468
-0.49420928734375025	-0.5464784312571778
-0.49414825218750025	-0.5422564874450868
-0.49408721703125025	-0.5379197194328598
-0.49402618187500025	-0.5334735932504612
-0.49396514671875025	-0.5289237980438148
-0.49390411156250025	-0.5242707092624105
-0.49384307640625025	-0.5195098709621568
-0.49378204125000025	-0.5146380649512315
-0.49372100609375025	-0.5096581497238203
-0.49365997093750025	-0.504577091369735
-0.49359893578125025	-0.4993992040269505
-0.49353790062500025	-0.49412225502659957
-0.49347686546875025	-0.4887410658497922
-0.49341583031250025	-0.48325465424895037
-0.49335479515625025	-0.4776687527249385
-0.49329376000000025	-0.4719906459944079
-0.49323272484375025	-0.4662220416036609
-0.49317168968750025	-0.46035820175285164
-0.49311065453125025	-0.4543946052315852
-0.49304961937500025	-0.4483336425871041
-0.49298858421875025	-0.4421834995459771
-0.49292754906250025	-0.4359502321702278
-0.49286651390625025	-0.42963205406268307
-0.49280547875000025	-0.42322259191289346
-0.49274444359375025	-0.4167196328859921
-0.49268340843750025	-0.41012942065917957
-0.49262237328125025	-0.4034613112799884
-0.49256133812500025	-0.39671850256450175
-0.49250030296875025	-0.38989552913558007
-0.49243926781250025	-0.3829858625556149
-0.49237823265625025	-0.3759911511836069
-0.49231719750000025	-0.3689213650212118
-0.49225616234375025	-0.36178524131188
-0.49219512718750025	-0.35458164027055794
-0.49213409203125025	-0.34730199010156465
-0.49207305687500025	-0.3399416431498954
-0.49201202171875025	-0.3325073254070566
-0.49195098656250025	-0.32501168392651886
-0.49188995140625025	-0.317460573368376
-0.49182891625000025	-0.30984756546815223
-0.49176788109375025	-0.30216256293722915
-0.49170684593750025	-0.29440525187389
-0.49164581078125025	-0.2865878810954816
-0.49158477562500025	-0.2787234856286198
-0.49152374046875025	-0.27081251420166835
-0.49146270531250025	-0.262843423320146
-0.49140167015625025	-0.2548073676894363
-0.49134063500000025	-0.24671066575030723
-0.49127959984375025	-0.23857033582423018
-0.49121856468750025	-0.23039683225343935
-0.49115752953125025	-0.22218328622096128
-0.49109649437500025	-0.21391428791013758
-0.49103545921875025	-0.20558534029683878
-0.49097442406250025	-0.1972108790921318
-0.49091338890625025	-0.18881060678158376
-0.49085235375000025	-0.18038874824234102
-0.49079131859375025	-0.1719300873901403
-0.49073028343750025	-0.16341854736116784
-0.49066924828125025	-0.15485806541320984
-0.49060821312500025	-0.1462714228313003
-0.49054717796875025	-0.13767685421555784
-0.49048614281250025	-0.12906832960080192
-0.49042510765625025	-0.12042298121291754
-0.49036407250000025	-0.11172887873743007
-0.49030303734375025	-0.10300188825252533
-0.49024200218750025	-0.09427107444018333
-0.49018096703125025	-0.08554766998284477
-0.49011993187500025	-0.07681282253511926
-0.49005889671875025	-0.06803967565228902
-0.48999786156250025	-0.05922634719959338
-0.48993682640625025	-0.05040199403929931
-0.48987579125000025	-0.04159695155546654
-0.48981475609375025	-0.03280948800464235
-0.48975372093750025	-0.02400784191184176
-0.48969268578125025	-0.015167393624363472
-0.48963165062500025	-0.006301902108928078
-0.48957061546875025	0.0025478978131546794
-0.48950958031250025	0.011357786252013582
-0.48944854515625025	0.020147181725083594
-0.48938751000000025	0.028957343796508415
-0.48932647484375025	0.03780271435332015
-0.48926543968750025	0.046650236236460786
-0.48920440453125025	0.055452601793149536
-0.48914336937500025	0.06420015534447543
-0.48908233421875025	0.07293229681085718
-0.48902129906250025	0.08169272485756492
-0.48896026390625025	0.0904769791124602
-0.48889922875000025	0.09923253529894362
-0.48883819359375025	0.10791453074679778
-0.48877715843750025	0.11653601171156026
-0.48871612328125025	0.12515429290583868
-0.48865508812500025	0.13380545722577625
-0.48859405296875025	0.14245948169136022
-0.48853301781250025	0.15104881582049487
-0.48847198265625025	0.15954178238933142
-0.48841094750000025	0.16797897886368876
-0.48834991234375025	0.1764287714656968
-0.48828887718750025	0.18490847095599772
-0.48822784203125025	0.1933596580524448
-0.48816680687500025	0.20170884003349665
-0.48810577171875025	0.2099486172839502
-0.48804473656250025	0.21814766278223147
-0.48798370140625025	0.22637442160384427
-0.48792266625000025	0.2346171596209304
-0.48786163109375025	0.24279132109449447
-0.48780059593750025	0.2508301652823894
-0.48773956078125025	0.2587595043687828
-0.48767852562500025	0.2666708088545468
-0.48761749046875025	0.2746186829810716
-0.48755645531250025	0.2825556291283731
-0.48749542015625025	0.2903794681415886
-0.48743438500000025	0.2980444319132132
-0.48737334984375025	0.30561310466186997
-0.48731231468750025	0.31318837837247093
-0.48725127953125025	0.32079757983511153
-0.48719024437500025	0.3283574263460624
-0.48712920921875025	0.33576188401999446
-0.48706817406250025	0.34299828516052416
-0.48700713890625025	0.3501625031768676
-0.48694610375000025	0.3573533057582025
-0.48688506859375025	0.36456070298805
-0.48682403343750025	0.37167279113488483
-0.48676299828125025	0.3785961633760536
-0.48670196312500025	0.38535821339509946
-0.48664092796875025	0.3920772987442772
-0.48657989281250025	0.3988316509805606
-0.48651885765625025	0.40557084102451035
-0.48645782250000025	0.4121684071097297
-0.48639678734375025	0.41855901159494135
-0.48633575218750025	0.42480928821330477
-0.48627471703125025	0.43104369177167834
-0.48621368187500025	0.43730649310742326
-0.48615264671875025	0.4435117457387481
-0.48609161156250025	0.44953625565581573
-0.48603057640625025	0.45535315196287707
-0.48596954125000025	0.46105927374839234
-0.48590850609375025	0.4667669873058617
-0.48584747093750025	0.47248004575379804
-0.48578643578125025	0.4780895361632697
-0.48572540062500025	0.483492943174855
-0.48566436546875025	0.4887044284819224
-0.48560333031250025	0.49383597215941
-0.48554229515625025	0.49897232690495286
-0.48548126000000025	0.5040782695504935
-0.48542022484375025	0.5090385489027263
-0.48535918968750025	0.5137839950256704
-0.48529815453125025	0.5183642797968491
-0.48523711937500025	0.5228894575111361
-0.48517608421875025	0.5274075904180455
-0.48511504906250025	0.531853479039521
-0.48505401390625025	0.5361220794451015
-0.48499297875000025	0.5401828327887189
-0.48493194359375025	0.5441092590491239
-0.48487090843750025	0.54799448431156
-0.48480987328125025	0.5518484909784728
-0.48474883812500025	0.5555894860037195
-0.48468780296875025	0.559135361109465
-0.48462676781250025	0.5624920150349697
-0.48456573265625025	0.5657425900602999
-0.48450469750000025	0.568953210431312
-0.48444366234375025	0.5721010473979113
-0.48438262718750025	0.5751020667161673
-0.48432159203125025	0.5779042394334807
-0.48426055687500025	0.5805420814832857
-0.48419952171875025	0.5830947392614334
-0.48413848656250025	0.5855972844602982
-0.48407745140625025	0.5880038035616458
-0.48401641625000025	0.5902403157370182
-0.48395538109375025	0.5922860479486619
-0.48389434593750025	0.5941932430846658
-0.48383331078125025	0.5960264944654715
-0.48377227562500025	0.5977912487969692
-0.48371124046875025	0.5994299992001687
-0.48365020531250025	0.6008873955386792
-0.48358917015625025	0.6021701819130931
-0.48352813500000025	0.6033367454353266
-0.48346709984375025	0.6044307531209067
-0.48340606468750025	0.605433775824487
-0.48334502953125025	0.6062878395252432
-0.48328399437500025	0.606960264181567
-0.48322295921875025	0.6074780849416234
-0.48316192406250025	0.6078957013927628
-0.48310088890625025	0.6082340181535767
-0.48303985375000025	0.6084588949601477
-0.48297881859375025	0.6085207876154524
-0.48291778343750025	0.6084095615601764
-0.48285674828125025	0.6081638246958117
-0.48279571312500025	0.6078265227357954
-0.48273467796875025	0.60739774869321
-0.48267364281250025	0.6068365612320687
-0.48261260765625025	0.606107677381684
-0.48255157250000025	0.6052199509381468
-0.48249053734375025	0.604214868385251
-0.48242950218750025	0.6031198481027517
-0.48236846703125025	0.6019190232789694
-0.48230743187500025	0.6005727478758577
-0.48224639671875025	0.5990623313488082
-0.48218536156250025	0.5974098760679428
-0.48212432640625025	0.5956525509540013
-0.48206329125000025	0.5938014896292533
-0.48200225609375025	0.5918310839721018
-0.48194122093750025	0.5897091249648108
-0.48188018578125025	0.5874329027992885
-0.48181915062500025	0.5850313354468188
-0.48175811546875025	0.5825322807405553
-0.48169708031250025	0.5799324514376255
-0.48163604515625025	0.577202893678089
-0.48157501000000025	0.5743225297349838
-0.48151397484375025	0.5713016548704613
-0.48145293968750025	0.5681699072794127
-0.48139190453125025	0.56494345837156
-0.48133086937500025	0.561608443396732
-0.48126983421875025	0.5581381897688333
-0.48120879906250025	0.5545238601157656
-0.48114776390625025	0.5507842507521822
-0.48108672875000025	0.5469447914933295
-0.48102569359375025	0.5430100563785515
-0.48096465843750025	0.5389603447842399
-0.48090362328125025	0.5347752182408412
-0.48084258812500025	0.5304570195213241
-0.48078155296875025	0.5260283941986482
-0.48072051781250025	0.5215075078767726
-0.48065948265625025	0.5168891543660349
-0.48059844750000025	0.5121523406092053
-0.48053741234375025	0.5072849994711401
-0.48047637718750025	0.5022980444149201
-0.48041534203125025	0.49721365871479317
-0.48035430687500025	0.49204158988958624
-0.48029327171875025	0.48677001752971033
-0.48023223656250025	0.4813805125178802
-0.48017120140625025	0.4758697031929293
-0.48011016625000025	0.47025360469737015
-0.48004913109375025	0.46455053670020086
-0.47998809593750025	0.4587622272037578
-0.47992706078125025	0.45287389657890215
-0.47986602562500025	0.44687238256128076
-0.47980499046875025	0.44076172344532377
-0.47974395531250025	0.43455936546022844
-0.47968292015625025	0.428277953727166
-0.47962188500000025	0.4219131500047555
-0.47956084984375025	0.4154505331687376
-0.47949981468750025	0.4088832156568434
-0.47943877953125025	0.4022204429798149
-0.47937774437500025	0.395478233661476
-0.47931670921875025	0.38866313504494454
-0.47925567406250025	0.38176708401256765
-0.47919463890625025	0.37477841864906336
-0.47913360375000025	0.3676963071342723
-0.47907256859375025	0.36053266371877785
-0.47901153343750025	0.3533000547022517
-0.47895049828125025	0.3459996049364217
-0.47888946312500025	0.3386220862332489
-0.47882842796875025	0.331160187792128
-0.47876739281250025	0.323618016582151
-0.47870635765625025	0.3160076511134269
-0.47864532250000025	0.3083372187612045
-0.47858428734375025	0.3006040426486499
-0.47852325218750025	0.2927999871044705
-0.47846221703125025	0.2849223493873609
-0.47840118187500025	0.2769781762102105
-0.47834014671875025	0.26897779005818456
-0.47827911156250025	0.26092517898893064
-0.47821807640625025	0.2528158573172029
-0.47815704125000025	0.24464412703004237
-0.47809600609375025	0.23641123501058153
-0.47803497093750025	0.228125362389087
-0.47797393578125025	0.21979406697792706
-0.47791290062500025	0.21141803895863906
-0.47785186546875025	0.2029927792061966
-0.47779083031250025	0.19451575270505767
-0.47772979515625025	0.18599091041026677
-0.47766876000000025	0.17742581963486886
-0.47760772484375025	0.16882504288320568
-0.47754668968750025	0.16018739297604676
-0.47748565453125025	0.15150974851180177
-0.47742461937500025	0.14279257801415332
-0.47736358421875025	0.13404100233168814
-0.47730254906250025	0.12526073127170634
-0.47724151390625025	0.11645379611446126
-0.47718047875000025	0.10761872888610119
-0.47711944359375025	0.09875457625895212
-0.47705840843750025	0.08986397667565868
-0.47699737328125025	0.08095195951310348
-0.47693633812500025	0.07202215545237271
-0.47687530296875025	0.06307492246587192
-0.47681426781250025	0.05410940027082593
-0.47675323265625025	0.045126765229815645
-0.47669219750000025	0.03613081843163323
-0.47663116234375025	0.02712550023548311
-0.47657012718750025	0.01811246005686368
-0.47650909203125025	0.00909156142184949
-0.47644805687500025	6.351416453317115e-05
-0.47638702171875025	-0.008968748462338597
-0.47632598656250025	-0.0180014793557059
-0.47626495140625025	-0.027032391735536034
-0.47620391625000025	-0.036061059881089874
-0.47614288109375025	-0.04508702830003661
-0.47608184593750025	-0.05410796129788926
-0.47602081078125025	-0.06312017900698036
-0.47595977562500025	-0.07212097325605082
-0.47589874046875025	-0.08110972703047019
-0.47583770531250025	-0.09008631898947064
-0.47577667015625025	-0.09904882178395634
-0.47571563500000025	-0.10799341494725835
-0.47565459984375025	-0.11691666692667682
-0.47559356468750025	-0.12581749984986462
-0.47553252953125025	-0.13469643848733773
-0.47547149437500025	-0.1435527946955349
-0.47541045921875025	-0.1523830566577427
-0.47534942406250025	-0.16118262520882026
-0.47528838890625025	-0.16994901688787245
-0.47522735375000025	-0.17868271419548964
-0.47516631859375025	-0.1873845278653323
-0.47510528343750025	-0.19605244626631319
-0.47504424828125025	-0.20468167464661907
-0.47498321312500025	-0.2132679689717399
-0.47492217796875025	-0.2218105152735891
-0.47486114281250025	-0.23031097319309057
-0.47480010765625025	-0.23876959325585417
-0.47473907250000025	-0.24718274846895932
-0.47467803734375025	-0.2555448152390258
-0.47461700218750025	-0.2638524549228344
-0.47455596703125025	-0.272106468005931
-0.47449493187500025	-0.2803090137016646
-0.47443389671875025	-0.28845921334187635
-0.47437286156250025	-0.2965520568820225
-0.47431182640625025	-0.30458197905172485
-0.47425079125000025	-0.3125472086052261
-0.47418975609375025	-0.32044990784235566
-0.47412872093750025	-0.3282918244870018
-0.47406768578125025	-0.3360703924307688
-0.47400665062500025	-0.3437797231559349
-0.47394561546875025	-0.3514153412132742
-0.47388458031250025	-0.35897736058285334
-0.47382354515625025	-0.3664685515158911
-0.47376251000000025	-0.3738894072524328
-0.47370147484375025	-0.381235753545473
-0.47364043968750025	-0.38850163399721105
-0.47357940453125025	-0.39568422251417373
-0.47351836937500025	-0.40278524956982636
-0.47345733421875025	-0.4098073590108676
-0.47339629906250025	-0.4167494221335219
-0.47333526390625025	-0.42360603621069176
-0.47327422875000025	-0.4303718619984414
-0.47321319359375025	-0.4370459777504228
-0.47315215843750025	-0.44363131231666514
-0.47309112328125025	-0.4501297491763325
-0.47303008812500025	-0.4565383976673499
-0.47296905296875025	-0.4628512383357085
-0.47290801781250025	-0.4690643178060028
-0.47284698265625025	-0.4751786823977357
-0.47278594750000025	-0.48119773358939616
-0.47272491234375025	-0.4871218991782523
-0.47266387718750025	-0.4929465929800752
-0.47260284203125025	-0.498665878398956
-0.47254180687500025	-0.5042777879660153
-0.47248077171875025	-0.509785216396248
-0.47241973656250025	-0.5151912745706183
-0.47235870140625025	-0.5204943354857919
-0.47229766625000025	-0.5256884634266323
-0.47223663109375025	-0.5307688207486357
-0.47217559593750025	-0.5357359044467994
-0.47211456078125025	-0.5405937934555215
-0.47205352562500025	-0.5453443245870598
-0.47199249046875025	-0.5499836997676906
-0.47193145531250025	-0.5545054834423504
-0.47187042015625025	-0.5589067662747093
-0.47180938500000025	-0.5631904660075195
-0.47174834984375025	-0.5673609968099256
-0.47168731468750025	-0.57141813826967
-0.47162627953125025	-0.575356104114123
-0.47156524437500025	-0.5791689975608155
-0.47150420921875025	-0.5828565863281486
-0.47144317406250025	-0.5864237713823177
-0.47138213890625025	-0.5898741084375011
-0.47132110375000025	-0.5932046759658872
-0.47126006859375025	-0.5964083479004458
-0.47119903343750025	-0.5994810892263038
-0.47113799828125025	-0.6024259330628741
-0.47107696312500025	-0.605248885612675
-0.47101592796875025	-0.6079512128800892
-0.47095489281250025	-0.6105269892266336
-0.47089385765625025	-0.6129690360890466
-0.47083282250000025	-0.6152766122519456
-0.47077178734375025	-0.6174558855589479
-0.47071075218750025	-0.6195123673056583
-0.47064971703125025	-0.6214438219099679
-0.47058868187500025	-0.6232419430343191
-0.47052764671875025	-0.6249012611943437
-0.47046661156250025	-0.6264252115848953
-0.47040557640625025	-0.6278220893773332
-0.47034454125000025	-0.6290951145219096
-0.47028350609375025	-0.6302379582769033
-0.47022247093750025	-0.6312412707666119
