Time	Frequency
-0.5000228866875034	0.51110268394256
-0.4999618515312534	0.5096047956108084
-0.4999008163750034	0.5080320992589821
-0.4998397812187534	0.5063731801614496
-0.4997787460625034	0.5046446087805236
-0.4997177109062534	0.5028535022495664
-0.4996566757500034	0.5009811337997709
-0.4995956405937534	0.49902686557263665
-0.4995346054375034	0.4970104344043079
-0.4994735702812534	0.4949265985362302
-0.4994125351250034	0.4927580387212718
-0.4993514999687534	0.49051637752215144
-0.4992904648125034	0.4882154390877329
-0.4992294296562534	0.48583984999311614
-0.4991683945000034	0.48338202214657133
-0.4991073593437534	0.480860174295409
-0.4990463241875034	0.478276303115081
-0.4989852890312534	0.4756131076724932
-0.4989242538750034	0.47287526253309725
-0.4988632187187534	0.4700783258849891
-0.4988021835625034	0.46721353446951247
-0.4987411484062534	0.4642701717517729
-0.4986801132500034	0.46126084187061506
-0.4986190780937534	0.4581922143390878
-0.4985580429375034	0.455051533959297
-0.4984970077812534	0.4518377891517719
-0.4984359726250034	0.44856365559701905
-0.4983749374687534	0.4452269895704397
-0.4983139023125034	0.4418183968909391
-0.4982528671562534	0.4383437221159928
-0.4981918320000034	0.43481018992863163
-0.4981307968437534	0.431211615498946
-0.4980697616875034	0.4275448962021208
-0.4980087265312534	0.423817130521023
-0.4979476913750034	0.42002983654627174
-0.4978866562187534	0.41617806732713514
-0.4978256210625034	0.41226308703639103
-0.4977645859062534	0.4082893394609021
-0.4977035507500034	0.4042559450819092
-0.4976425155937534	0.40016107258003103
-0.4975814804375034	0.3960065852869072
-0.4975204452812534	0.39179444200959007
-0.4974594101250034	0.38752454087771765
-0.4973983749687534	0.38319645795398943
-0.4973373398125034	0.3788108198884314
-0.4972763046562534	0.37436949664942537
-0.4972152695000034	0.36987355584005543
-0.4971542343437534	0.36532179718129154
-0.4970931991875034	0.3607144531253614
-0.4970321640312534	0.3560546968022397
-0.4969711288750034	0.35134298550965154
-0.4969100937187534	0.3465769805400958
-0.4968490585625034	0.3417586192819978
-0.4967880234062534	0.33689162284692165
-0.4967269882500034	0.33197417202393625
-0.4966659530937534	0.3270044236990285
-0.4966049179375034	0.3219866681369387
-0.4965438827812534	0.3169230744042298
-0.4964828476250034	0.3118100913323143
-0.4964218124687534	0.30664850383375425
-0.4963607773125034	0.30144346116353754
-0.4962997421562534	0.29619407808121
-0.4962387070000034	0.29089720296744437
-0.4961776718437534	0.28555650618462985
-0.4961166366875034	0.28017556868272053
-0.4960556015312534	0.2747514225637104
-0.4959945663750034	0.2692834095766144
-0.4959335312187534	0.26377627263592424
-0.4958724960625034	0.25823073088986126
-0.4958114609062534	0.2526439481274798
-0.4957504257500034	0.24701816417089742
-0.4956893905937534	0.24135710012752626
-0.4956283554375034	0.23565916941221046
-0.4955673202812534	0.22992319242555664
-0.4955062851250034	0.22415276500131426
-0.4954452499687534	0.21834962822787332
-0.4953842148125034	0.21251191425181462
-0.4953231796562534	0.20664061109667956
-0.4952621445000034	0.20073894463893394
-0.4952011093437534	0.19480684861569814
-0.4951400741875034	0.18884323064221173
-0.4950790390312534	0.18285019034841954
-0.4950180038750034	0.1768299995307983
-0.4949569687187534	0.17078224137391435
-0.4948959335625034	0.16470689720382942
-0.4948348984062534	0.1586060768030228
-0.4947738632500034	0.15248116623947092
-0.4947128280937534	0.14633185179029623
-0.4946517929375034	0.14015875617242055
-0.4945907577812534	0.13396397973516
-0.4945297226250034	0.12774856411004032
-0.4944686874687534	0.121512181059557
-0.4944076523125034	0.11525566432559825
-0.4943466171562534	0.10898109239294503
-0.4942855820000034	0.10268915679995629
-0.4942245468437534	0.09637957395290243
-0.4941635116875034	0.09005385483631892
-0.4941024765312534	0.08371409144809087
-0.4940414413750034	0.0773602479236441
-0.4939804062187534	0.07099232439385118
-0.4939193710625034	0.06461257314467031
-0.4938583359062534	0.05822242130052178
-0.4937973007500034	0.05182121673708829
-0.4937362655937534	0.04540993159640743
-0.4936752304375034	0.03899105170084771
-0.4936141952812534	0.03256476038212435
-0.4935531601250034	0.026130681470648797
-0.4934921249687534	0.01969114262177191
-0.4934310898125034	0.013247919376076674
-0.4933700546562534	0.006800222167858224
-0.4933090195000034	0.00034880285482133096
-0.4932479843437534	-0.006103758138028039
-0.4931869491875034	-0.012557082356974595
-0.4931259140312534	-0.019011453826291005
-0.4930648788750034	-0.025464721343569714
-0.4930038437187534	-0.03191536614827525
-0.4929428085625034	-0.038364034308378196
-0.4928817734062534	-0.044809661516315796
-0.4928207382500034	-0.05124975680005342
-0.4927597030937534	-0.05768409632362476
-0.4926986679375034	-0.06411280909060453
-0.4926376327812534	-0.07053380121038574
-0.4925765976250034	-0.0769457947745623
-0.4925155624687534	-0.08334916554628335
-0.4924545273125034	-0.08974257717887826
-0.4923934921562534	-0.09612406426274074
-0.4923324570000034	-0.10249369686833805
-0.4922714218437534	-0.10885094194061644
-0.4922103866875034	-0.1151936160779395
-0.4921493515312534	-0.12152119575575092
-0.4920883163750034	-0.1278338316517543
-0.4920272812187534	-0.13412945586119926
-0.4919662460625034	-0.14040661021400458
-0.4919052109062534	-0.1466659219142322
-0.4918441757500034	-0.15290615470321633
-0.4917831405937534	-0.15912488351088858
-0.4917221054375034	-0.16532244643706034
-0.4916610702812534	-0.17149892717042473
-0.4916000351250034	-0.1776514660751405
-0.4915389999687534	-0.18377911358206067
-0.4914779648125034	-0.18988319830801118
-0.4914169296562534	-0.19596175009917072
-0.4913558945000034	-0.20201194603615544
-0.4912948593437534	-0.2080349323399842
-0.4912338241875034	-0.2140308323318599
-0.4911727890312534	-0.21999610552311213
-0.4911117538750034	-0.22593013008369037
-0.4910507187187534	-0.23183474950797162
-0.4909896835625034	-0.23770753805823777
-0.4909286484062534	-0.2435455512198804
-0.4908676132500034	-0.2493505402730483
-0.4908065780937534	-0.25512247081143224
-0.4907455429375034	-0.2608573498854662
-0.4906845077812534	-0.26655508081327206
-0.4906234726250034	-0.27221775946328036
-0.4905624374687534	-0.2778423308088786
-0.4905014023125034	-0.28342593813526323
-0.4904403671562534	-0.28897091751424553
-0.4903793320000034	-0.29447697478065504
-0.4903182968437534	-0.2999398796145012
-0.4902572616875034	-0.30536006200247107
-0.4901962265312534	-0.31073963167915203
-0.4901351913750034	-0.3160749648401827
-0.4900741562187534	-0.32136354790766336
-0.4900131210625034	-0.3266083368202192
-0.4899520859062534	-0.33180857286051535
-0.4898910507500034	-0.3369597165743991
-0.4898300155937534	-0.34206281065712885
-0.4897689804375034	-0.34712003371631933
-0.4897079452812534	-0.3521273552253735
-0.4896469101250034	-0.3570826475775291
-0.4895858749687534	-0.36198916714990975
-0.4895248398125034	-0.3668455286538243
-0.4894638046562534	-0.3716471820388084
-0.4894027695000034	-0.37639599811307745
-0.4893417343437534	-0.38109395998378814
-0.4892806991875034	-0.385736471822548
-0.4892196640312534	-0.3903220594832706
-0.4891586288750034	-0.394854294854895
-0.4890975937187534	-0.39933105404938396
-0.4890365585625034	-0.4037480479395519
-0.4889755234062534	-0.4081079544350523
-0.4889144882500034	-0.4124121621613808
-0.4888534530937534	-0.4166556064236725
-0.4887924179375034	-0.42083780732577497
-0.4887313827812534	-0.4249625439984845
-0.4886703476250034	-0.4290267439030961
-0.4886093124687534	-0.43302650880862653
-0.4885482773125034	-0.4369654332788683
-0.4884872421562534	-0.4408441694130408
-0.4884262070000034	-0.4446571859817938
-0.4883651718437534	-0.4484051133178339
-0.4883041366875034	-0.4520918111793185
-0.4882431015312534	-0.4557131856658959
-0.4881820663750034	-0.45926592043152753
-0.4881210312187534	-0.46275459240345257
-0.4880599960625034	-0.466178987821054
-0.4879989609062534	-0.46953314911132965
-0.4879379257500034	-0.47281898227954844
-0.4878768905937534	-0.47604030448771495
-0.4878158554375034	-0.47919184150338723
-0.4877548202812534	-0.4822710874758462
-0.4876937851250034	-0.4852836190135762
-0.4876327499687534	-0.48822799834879277
-0.4875717148125034	-0.49109796169879316
-0.4875106796562534	-0.4938970372572108
-0.4874496445000034	-0.49662881746404386
-0.4873886093437534	-0.4992866859331483
-0.4873275741875034	-0.5018692112151245
-0.4872665390312534	-0.5043830034291723
-0.4872055038750034	-0.5068251329633534
-0.4871444687187534	-0.5091891029983134
-0.4870834335625034	-0.5114802795468432
-0.4870223984062534	-0.5137018676153868
-0.4869613632500034	-0.5158457770752926
-0.4869003280937534	-0.5179117741953436
-0.4868392929375034	-0.5199074778687628
-0.4867782577812534	-0.5218285286388478
-0.4867172226250034	-0.5236684400101871
-0.4866561874687534	-0.5254342085988896
-0.4865951523125034	-0.5271283276913196
-0.4865341171562534	-0.528741531927829
-0.4864730820000034	-0.5302750887124448
-0.4864120468437534	-0.5317373338502938
-0.4863510116875034	-0.5331222543104178
-0.4862899765312534	-0.5344236074868269
-0.4862289413750034	-0.5356500947094508
-0.4861679062187534	-0.5368032876224931
-0.4861068710625034	-0.5378729018736932
-0.4860458359062534	-0.538861910937146
-0.4859848007500034	-0.5397789695570705
-0.4859237655937534	-0.54061631403158
-0.4858627304375034	-0.5413684998935523
-0.4858016952812534	-0.5420458159679636
-0.4857406601250034	-0.5426483910402774
-0.4856796249687534	-0.5431652883511509
-0.4856185898125034	-0.5436015455300812
-0.4855575546562534	-0.5439656135659315
-0.4854965195000034	-0.5442478514741941
-0.4854354843437534	-0.5444442100371106
-0.4853744491875034	-0.5445664622419623
-0.4853134140312534	-0.5446127138296678
-0.4852523788750034	-0.5445717035103977
-0.4851913437187534	-0.544450969681754
-0.4851303085625034	-0.5442582257523786
-0.4850692734062534	-0.5439817709354421
-0.4850082382500034	-0.5436196204997689
-0.4849472030937534	-0.5431849144036777
-0.4848861679375034	-0.5426730481533353
-0.4848251327812534	-0.542072855691301
-0.4847640976250034	-0.5413949539372431
-0.4847030624687534	-0.5406456565242178
-0.4846420273125034	-0.5398108938399633
-0.4845809921562534	-0.5388915252105517
-0.4845199570000034	-0.5379019743372639
-0.4844589218437534	-0.536834200011162
-0.4843978866875034	-0.5356776155788134
-0.4843368515312534	-0.5344464451819685
-0.4842758163750034	-0.533144817766737
-0.4842147812187534	-0.5317560496464486
-0.4841537460625034	-0.530284784977349
-0.4840927109062534	-0.5287466602028005
-0.4840316757500034	-0.5271292770852031
-0.4839706405937534	-0.5254230056886519
-0.4839096054375034	-0.5236463821038089
-0.4838485702812534	-0.5218007277572733
-0.4837875351250034	-0.5198663718476679
-0.4837264999687534	-0.517852462355475
-0.4836654648125034	-0.5157758722171055
-0.4836044296562534	-0.5136191766732198
-0.4835433945000034	-0.5113739620786764
-0.4834823593437534	-0.5090636025700918
-0.4834213241875034	-0.5066861337919593
-0.4833602890312534	-0.5042185676005463
-0.4832992538750034	-0.501675213575638
-0.4832382187187534	-0.4990742572450709
-0.4831771835625034	-0.49639248505883843
-0.4831161484062534	-0.493622939358322
-0.4830551132500034	-0.4907945344847668
-0.4829940780937534	-0.4879014578472602
-0.4829330429375034	-0.4849169172108393
-0.4828720077812534	-0.4818610854996542
-0.4828109726250034	-0.4787535966681219
-0.4827499374687534	-0.4755648112601776
-0.4826889023125034	-0.47228941030114807
-0.4826278671562534	-0.4689622770543662
-0.4825668320000034	-0.4655734099194114
-0.4825057968437534	-0.4620920728479233
-0.4824447616875034	-0.4585447062017515
-0.4823837265312534	-0.4549522926884609
-0.4823226913750034	-0.45127831904753457
-0.4822616562187534	-0.4475193093388916
-0.4822006210625034	-0.44371649315291045
-0.4821395859062534	-0.43985528857321676
-0.4820785507500034	-0.4359007217762751
-0.4820175155937534	-0.4318860869209343
-0.4819564804375034	-0.42783381796675124
-0.4818954452812534	-0.42369988335020864
-0.4818344101250034	-0.41948297611303853
-0.4817733749687534	-0.4152313318332497
-0.4817123398125034	-0.41092504515768796
-0.4816513046562534	-0.4065243236078344
-0.4815902695000034	-0.4020703786951377
-0.4815292343437534	-0.39758738015106365
-0.4814681991875034	-0.39302215603534013
-0.4814071640312534	-0.3883755298581397
-0.4813461288750034	-0.38370493824040036
-0.4812850937187534	-0.378984785435447
-0.4812240585625034	-0.37416779465575245
-0.4811630234062534	-0.36930422110588446
-0.4811019882500034	-0.36442312783571695
-0.4810409530937534	-0.3594601951046483
-0.4809799179375034	-0.3544149702193614
-0.4809188827812534	-0.34935721580238394
-0.4808578476250034	-0.344258792413009
-0.4807968124687534	-0.33906014287467784
-0.4807357773125034	-0.3338180950107678
-0.4806747421562534	-0.32857320362167547
-0.4806137070000034	-0.32325108421147086
-0.4805526718437534	-0.31784182076977036
-0.4804916366875034	-0.31242852888677447
-0.4804306015312534	-0.30698988730276733
-0.4803695663750034	-0.3014505561724216
-0.4803085312187534	-0.29586405452660897
-0.4802474960625034	-0.29028856658702723
-0.4801864609062534	-0.28464919409776124
-0.4801254257500034	-0.27891757399153094
-0.4800643905937534	-0.27318175791538946
-0.4800033554375034	-0.267439000963023
-0.4799423202812534	-0.2616045307714634
-0.4798812851250034	-0.2557144081213998
-0.4798202499687534	-0.24984105404115703
-0.4797592148125034	-0.24392484338934034
-0.4796981796562534	-0.23791873201237954
-0.4796371445000034	-0.23189932562888807
-0.4795761093437534	-0.22588657567197648
-0.4795150741875034	-0.21980204040615164
-0.4794540390312534	-0.213656466753663
-0.4793930038750034	-0.20752246141759423
-0.4793319687187534	-0.20136658791037373
-0.4792709335625034	-0.19513437665623268
-0.4792098984062534	-0.1888778497727926
-0.4791488632500034	-0.18263196071137047
-0.4790878280937534	-0.17633890465899787
-0.4790267929375034	-0.16998791492290896
-0.4789657577812534	-0.16363748673167963
-0.4789047226250034	-0.15728036414540839
-0.4788436874687534	-0.15086799456502245
-0.4787826523125034	-0.14442440187348823
-0.4787216171562534	-0.13798758309813364
-0.4786605820000034	-0.1315266090663485
-0.4785995468437534	-0.12501932304998678
-0.4785385116875034	-0.11850146263825197
-0.4784774765312534	-0.11198423239332002
-0.4784164413750034	-0.1054356354368573
-0.4783554062187534	-0.0988564538933095
-0.4782943710625034	-0.09227581724007579
-0.4782333359062534	-0.08568825194120497
-0.4781723007500034	-0.0790723507934172
-0.4781112655937534	-0.07243892580544302
-0.4780502304375034	-0.06580610332044427
-0.4779891952812534	-0.05916397112519389
-0.4779281601250034	-0.0525002462159015
-0.4778671249687534	-0.04582679050690007
-0.4778060898125034	-0.03915549977159434
-0.4777450546562534	-0.03247643080566789
-0.4776840195000034	-0.025780840300789136
-0.4776229843437534	-0.019081386188725964
-0.4775619491875034	-0.012387906486665271
-0.4775009140312534	-0.005688127454848159
-0.4774398788750034	0.0010242543310032164
-0.4773788437187534	0.0077327480200022804
-0.4773178085625034	0.014431836016067729
-0.4772567734062534	0.021138201650052924
-0.4771957382500034	0.02785124992355868
-0.4771347030937534	0.03455111611516127
-0.4770736679375034	0.04124166285413632
-0.4770126327812534	0.047940209210643715
-0.4769515976250034	0.05463521649007901
-0.4768905624687534	0.06131008857388603
-0.4768295273125034	0.06797949281110119
-0.4767684921562534	0.07465323526692604
-0.4767074570000034	0.08131104570187915
-0.4766464218437534	0.08794743365377147
-0.4765853866875034	0.09458209337159937
-0.4765243515312534	0.10121163666452498
-0.4764633163750034	0.1078155342928841
-0.4764022812187534	0.11440171501719146
-0.4763412460625034	0.12098524661178404
-0.4762802109062534	0.12755112512892813
-0.4762191757500034	0.13408759212335342
-0.4761581405937534	0.1406106441029663
-0.4760971054375034	0.14712387311289526
-0.4760360702812534	0.15360880684185516
-0.4759750351250034	0.16006604667329435
-0.4759139999687534	0.1665104266717964
-0.4758529648125034	0.17293430252144848
-0.4757919296562534	0.17932430672994878
-0.4757308945000034	0.18568957111867213
-0.4756698593437534	0.19203715556423812
-0.4756088241875034	0.19835456032112858
-0.4755477890312534	0.20463740459993082
-0.4754867538750034	0.21089594529167782
-0.4754257187187534	0.21712870051370264
-0.4753646835625034	0.2233252876908837
-0.4753036484062534	0.22948812367579574
-0.4752426132500034	0.23562317525888216
-0.4751815780937534	0.241724819366959
-0.4751205429375034	0.24778798559357282
-0.4750595077812534	0.2538165404042458
-0.4749984726250034	0.25981140202016634
-0.4749374374687534	0.26576762598512965
-0.4748764023125034	0.27168392618190174
-0.4748153671562534	0.27756230456804365
-0.4747543320000034	0.28340176704609094
-0.4746932968437534	0.28919965838514633
-0.4746322616875034	0.2949550136631155
-0.4745712265312534	0.3006680390685205
-0.4745101913750034	0.30633856484009614
-0.4744491562187534	0.3119648127330704
-0.4743881210625034	0.3175446241116386
-0.4743270859062534	0.3230784817000166
-0.4742660507500034	0.32856709045782634
-0.4742050155937534	0.33400741103381343
-0.4741439804375034	0.3393973772594969
-0.4740829452812534	0.34473940204630943
-0.4740219101250034	0.35003311935968257
-0.4739608749687534	0.35527379493097205
-0.4738998398125034	0.3604614081885178
-0.4738388046562534	0.3655991660952208
-0.4737777695000034	0.3706840191378886
-0.4737167343437534	0.37571178813414896
-0.4736556991875034	0.3806853653059803
-0.4735946640312534	0.38560626880748206
-0.4735336288750034	0.39046921667805107
-0.4734725937187534	0.3952727312806072
-0.4734115585625034	0.40002083211308925
-0.4733505234062534	0.4047118887362323
-0.4732894882500034	0.40934087046468043
-0.4732284530937534	0.4139093921462912
-0.4731674179375034	0.4184200336246603
-0.4731063827812534	0.42286874262809543
-0.4730453476250034	0.4272529353354379
-0.4729843124687534	0.43157579493208553
-0.4729232773125034	0.43583710157860284
-0.4728622421562534	0.44003247072212587
-0.4728012070000034	0.4441621410455143
-0.4727401718437534	0.4482286139085132
-0.4726791366875034	0.45222941913382675
-0.4726181015312534	0.4561616912116738
-0.4725570663750034	0.4600271672344918
-0.4724960312187534	0.46382648866771736
-0.4724349960625034	0.46755662763168987
-0.4723739609062534	0.4712166719761494
-0.4723129257500034	0.47480828543615655
-0.4722518905937534	0.47833061907666863
-0.4721908554375034	0.48178130539654085
-0.4721298202812534	0.48516046748278996
-0.4720687851250034	0.4884689467497337
-0.4720077499687534	0.4917053712256015
-0.4719467148125034	0.49486821333531383
-0.4718856796562534	0.49795789988472333
-0.4718246445000034	0.5009747528498347
-0.4717636093437534	0.5039173664724689
-0.4717025741875034	0.5067846234046681
-0.4716415390312534	0.5095770823214355
-0.4715805038750034	0.512294837369005
-0.4715194687187534	0.5149363078579209
-0.4714584335625034	0.5175007295704702
-0.4713973984062534	0.5199890174358427
-0.4713363632500034	0.5224008197113531
-0.4712753280937534	0.5247343134438603
-0.4712142929375034	0.5269894824741786
-0.4711532577812534	0.5291673718068922
-0.4710922226250034	0.5312668187159448
-0.4710311874687534	0.5332863179659773
-0.4709701523125034	0.5352268104513128
-0.4709091171562534	0.5370887130742448
-0.4708480820000034	0.5388701374259741
-0.4707870468437534	0.5405706855138946
-0.4707260116875034	0.5421917460704957
-0.4706649765312534	0.5437324660114385
-0.4706039413750034	0.545191143426453
-0.4705429062187534	0.5465687226923728
-0.4704818710625034	0.5478659221589253
-0.4704208359062534	0.5490809693696103
-0.4703598007500034	0.5502134120928163
-0.4702987655937534	0.5512646662956341
-0.4702377304375034	0.552234036930553
-0.4701766952812534	0.5531200339759708
-0.4701156601250034	0.5539236388338915
-0.4700546249687534	0.5546454632200672
-0.4699935898125034	0.5552839302649276
-0.4699325546562534	0.5558388734925918
-0.4698715195000034	0.5563115511496229
-0.4698104843437534	0.556701245647767
-0.4697494491875034	0.557006953841525
-0.4696884140312534	0.5572296844522845
-0.4696273788750034	0.5573696150689582
