Time	Frequency
-0.5000267014062558	0.04834435768187396
-0.4999656662500058	0.04192899705361818
-0.4999046310937558	0.035497916848372016
-0.4998435959375058	0.028960234377007475
-0.4997825607812558	0.022394884581501878
-0.4997215256250058	0.015915685697398447
-0.4996604904687558	0.009479971565595125
-0.4995994553125058	0.002965870195303302
-0.4995384201562558	-0.003618533062788845
-0.4994773850000058	-0.010150857437351097
-0.4994163498437558	-0.016602326428534698
-0.4993553146875058	-0.02308155055769146
-0.4992942795312558	-0.02964548390102574
-0.4992332443750058	-0.036203875173430516
-0.4991722092187558	-0.042674981256553675
-0.4991111740625058	-0.04912109171782018
-0.4990501389062558	-0.055636341854043335
-0.4989891037500058	-0.062185452919705404
-0.4989280685937558	-0.06866696840192661
-0.4988670334375058	-0.07508514510833228
-0.4988059982812558	-0.08153640676317112
-0.4987449631250058	-0.08804124196359323
-0.4986839279687558	-0.0945115598182117
-0.4986228928125058	-0.1009025973862673
-0.4985618576562558	-0.10728489238961188
-0.4985008225000058	-0.11371825637811774
-0.4984397873437558	-0.12014955367243757
-0.4983787521875058	-0.12650608447657727
-0.4983177170312558	-0.13281786089154687
-0.4982566818750058	-0.13916065941242164
-0.4981956467187558	-0.14552416102480606
-0.4981346115625058	-0.15183152948819825
-0.4980735764062558	-0.15807066006822354
-0.4980125412500058	-0.1643102734141414
-0.4979515060937558	-0.17057868083967387
-0.4978904709375058	-0.17681607308003566
-0.4978294357812558	-0.18297770717656595
-0.4977684006250058	-0.1891072698952841
-0.4977073654687558	-0.19525796019690406
-0.4976463303125058	-0.20140088869835382
-0.4975852951562558	-0.2074756543969314
-0.4975242600000058	-0.21349176383354224
-0.4974632248437558	-0.21950798448336492
-0.4974021896875058	-0.22552985499179962
-0.4973411545312558	-0.2315014062924875
-0.4972801193750058	-0.23740046292154685
-0.4972190842187558	-0.24327253225206852
-0.4971580490625058	-0.24914976080835138
-0.4970970139062558	-0.25499664406091077
-0.4970359787500058	-0.2607715869126673
-0.4969749435937558	-0.26649495605083046
-0.4969139084375058	-0.2722098816465307
-0.4968528732812558	-0.27790772352590776
-0.4967918381250058	-0.2835444165021563
-0.4967308029687558	-0.2891145066511466
-0.4966697678125058	-0.2946560288594449
-0.4966087326562558	-0.3001830086189439
-0.4965476975000058	-0.3056627643789159
-0.4964866623437558	-0.31107230819828074
-0.4964256271875058	-0.31643426768031974
-0.4963645920312558	-0.3217742588876726
-0.4963035568750058	-0.3270767798557895
-0.4962425217187558	-0.33231311188077234
-0.4961814865625058	-0.33748882874032965
-0.4961204514062558	-0.34263017095120335
-0.4960594162500058	-0.3477371476306494
-0.4959983810937558	-0.3527845285202697
-0.4959373459375058	-0.3577651069957583
-0.4958763107812558	-0.36269897587157035
-0.4958152756250058	-0.3675959724286997
-0.4957542404687558	-0.3724386627574646
-0.4956932053125058	-0.37721297662170616
-0.4956321701562558	-0.3819306578175805
-0.4955711350000058	-0.38660600662232986
-0.4955100998437558	-0.39122988256715624
-0.4954490646875058	-0.3957856352060881
-0.4953880295312558	-0.4002771229337315
-0.4953269943750058	-0.4047198399545199
-0.4952659592187558	-0.40911226822597996
-0.4952049240625058	-0.41343804457704697
-0.4951438889062558	-0.41769385224215627
-0.4950828537500058	-0.4218935376645544
-0.4950218185937558	-0.4260422964492984
-0.4949607834375058	-0.4301268359657261
-0.4948997482812558	-0.4341379343055991
-0.4948387131250058	-0.438085163166379
-0.4947776779687558	-0.4419786028703087
-0.4947166428125058	-0.44581039106143694
-0.4946556076562558	-0.4495679469581453
-0.4945945725000058	-0.45325483607297756
-0.4945335373437558	-0.4568830371217211
-0.4944725021875058	-0.460450981561766
-0.4944114670312558	-0.46394575047374503
-0.4943504318750058	-0.4673648065980895
-0.4942893967187558	-0.47071907211229946
-0.4942283615625058	-0.4740127103734472
-0.4941673264062558	-0.4772353040564485
-0.4941062912500058	-0.48037944937527044
-0.4940452560937558	-0.48345251337005934
-0.4939842209375058	-0.48646253740786666
-0.4939231857812558	-0.4894035619182359
-0.4938621506250058	-0.49226561455528345
-0.4938011154687558	-0.49505123032291765
-0.4937400803125058	-0.49776986542298607
-0.4936790451562558	-0.5004205626761955
-0.4936180100000058	-0.5029931484240555
-0.4935569748437558	-0.5054854172357229
-0.4934959396875058	-0.5079061366576935
-0.4934349045312558	-0.5102589365122518
-0.4933738693750058	-0.5125353613084898
-0.4933128342187558	-0.5147289919538699
-0.4932517990625058	-0.516845955854757
-0.4931907639062558	-0.5188936503793978
-0.4931297287500058	-0.5208673063155875
-0.4930686935937558	-0.5227577127844164
-0.4930076584375058	-0.524566651327445
-0.4929466232812558	-0.5263032677134722
-0.4928855881250058	-0.527967751477525
-0.4928245529687558	-0.5295504982722787
-0.4927635178125058	-0.5310481286726931
-0.4927024826562558	-0.532468854170612
-0.4926414475000058	-0.5338180158278591
-0.4925804123437558	-0.5350885682649722
-0.4925193771875058	-0.5362727336923664
-0.4924583420312558	-0.5373748476435993
-0.4923973068750058	-0.5384035756325455
-0.4923362717187558	-0.5393569154521207
-0.4922752365625058	-0.5402253945091933
-0.4922142014062558	-0.5410078044974506
-0.4921531662500058	-0.5417128534914786
-0.4920921310937558	-0.5423441907713461
-0.4920310959375058	-0.5428941389334357
-0.4919700607812558	-0.543356497701128
-0.4919090256250058	-0.5437367159149771
-0.4918479904687558	-0.5440424390403271
-0.4917869553125058	-0.5442705544521552
-0.4917259201562558	-0.5444124795367783
-0.4916648850000058	-0.5444685110173549
-0.4916038498437558	-0.5444470509726644
-0.4915428146875058	-0.5443503244043278
-0.4914817795312558	-0.5441707747396263
-0.4914207443750058	-0.5439039110384107
-0.4913597092187558	-0.5435557302021399
-0.4912986740625058	-0.5431324571898034
-0.4912376389062558	-0.5426301889793248
-0.4911766037500058	-0.5420417411518339
-0.4911155685937558	-0.5413688161131258
-0.4910545334375058	-0.5406189952321924
-0.4909934982812558	-0.5397930079215231
-0.4909324631250058	-0.5388838727601987
-0.4908714279687558	-0.5378889908625957
-0.4908103928125058	-0.5368145666622473
-0.4907493576562558	-0.5356651653024521
-0.4906883225000058	-0.5344362877944047
-0.4906272873437558	-0.5331223570834581
-0.4905662521875058	-0.5317263926317015
-0.4905052170312558	-0.5302550719518202
-0.4904441818750058	-0.5287077230302436
-0.4903831467187558	-0.5270779255928858
-0.4903221115625058	-0.5253648266998431
-0.4902610764062558	-0.5235748155774169
-0.4902000412500058	-0.521710911451578
-0.4901390060937558	-0.5197681398907262
-0.4900779709375058	-0.5177425891407819
-0.4900169357812558	-0.515638490742346
-0.4899559006250058	-0.5134613677941536
-0.4898948654687558	-0.5112091418647983
-0.4898338303125058	-0.5088762899302887
-0.4897727951562558	-0.5064637408359131
-0.4897117600000058	-0.5039776963411488
-0.4896507248437558	-0.5014196165789804
-0.4895896896875058	-0.4987844479708058
-0.4895286545312558	-0.4960698976932373
-0.4894676193750058	-0.4932808658071032
-0.4894065842187558	-0.4904216942035965
-0.4893455490625058	-0.4874895413426
-0.4892845139062558	-0.4844800063983213
-0.4892234787500058	-0.48139528741525517
-0.4891624435937558	-0.47824101879516734
-0.4891014084375058	-0.4750174085718632
-0.4890403732812558	-0.47171983175813853
-0.4889793381250058	-0.46834752533029106
-0.4889183029687558	-0.464905474026184
-0.4888572678125058	-0.4613966473783119
-0.4887962326562558	-0.4578179874938876
-0.4887351975000058	-0.45416667913596487
-0.4886741623437558	-0.4504456907571947
-0.4886131271875058	-0.44665931853791013
-0.4885520920312558	-0.44280671854852593
-0.4884910568750058	-0.43888447340898623
-0.4884300217187558	-0.43489351692578304
-0.4883689865625058	-0.43083837708267203
-0.4883079514062558	-0.42672026017775544
-0.4882469162500058	-0.42253611622657844
-0.4881858810937558	-0.4182850764597515
-0.4881248459375058	-0.4139709523333333
-0.4880638107812558	-0.4095966291314177
-0.4880027756250058	-0.4051601851878202
-0.4879417404687558	-0.400659407550287
-0.4878807053125058	-0.3960967047752498
-0.4878196701562558	-0.3914758319851671
-0.4877586350000058	-0.38679640087081774
-0.4876975998437558	-0.3820558920056624
-0.4876365646875058	-0.3772553972370576
-0.4875755295312558	-0.37239889483434035
-0.4875144943750058	-0.36748744273072054
-0.4874534592187558	-0.36251859909369016
-0.4873924240625058	-0.3574920594055848
-0.4873313889062558	-0.3524114180293511
-0.4872703537500058	-0.3472789513348385
-0.4872093185937558	-0.34209288132525834
-0.4871482834375058	-0.3368520331983951
-0.4870872482812558	-0.33155940041080134
-0.4870262131250058	-0.3262181356331657
-0.4869651779687558	-0.32082719794400294
-0.4869041428125058	-0.3153845540091635
-0.4868431076562558	-0.30989226941883435
-0.4867820725000058	-0.3043543205028287
-0.4867210373437558	-0.29877090133273093
-0.4866600021875058	-0.2931394174563402
-0.4865989670312558	-0.2874606143542166
-0.4865379318750058	-0.28173890580099
-0.4864768967187558	-0.27597595919294376
-0.4864158615625058	-0.2701689787554662
-0.4863548264062558	-0.26431717559392903
-0.4862937912500058	-0.25842492834389263
-0.4862327560937558	-0.25249571017840533
-0.4861717209375058	-0.24652737926677196
-0.4861106857812558	-0.24051727527615477
-0.4860496506250058	-0.2344684971888043
-0.4859886154687558	-0.22838623185744283
-0.4859275803125058	-0.22227015581138374
-0.4858665451562558	-0.21611643590611537
-0.4858055100000058	-0.20992618304970237
-0.4857444748437558	-0.20370526823211263
-0.4856834396875058	-0.19745551419846663
-0.4856224045312558	-0.1911728343199417
-0.4855613693750058	-0.18485593065363354
-0.4855003342187558	-0.1785104767564108
-0.4854392990625058	-0.17214099206220373
-0.4853782639062558	-0.16574432887147886
-0.4853172287500058	-0.15931673757282888
-0.4852561935937558	-0.15286241793934782
-0.4851951584375058	-0.1463880349173539
-0.4851341232812558	-0.13989248381121933
-0.4850730881250058	-0.13337023756241462
-0.4850120529687558	-0.1268228517536876
-0.4849510178125058	-0.12025823661581489
-0.4848899826562558	-0.11367840691509633
-0.4848289475000058	-0.10707730516916474
-0.4847679123437558	-0.1004531847675436
-0.4847068771875058	-0.09381378485045017
-0.4846458420312558	-0.08716452849261097
-0.4845848068750058	-0.0805003973083888
-0.4845237717187558	-0.07381638538075254
-0.4844627365625058	-0.06711840989852674
-0.4844017014062558	-0.06041493098666209
-0.4843406662500058	-0.05370350379532275
-0.4842796310937558	-0.04697639322443661
-0.4842185959375058	-0.04023609942014103
-0.4841575607812558	-0.03349315246956393
-0.4840965256250058	-0.026749366633942416
-0.4840354904687558	-0.019996139516491058
-0.4839744553125058	-0.013231377579225706
-0.4839134201562558	-0.0064653166784575805
-0.4838523850000058	0.00029569592246000005
-0.4837913498437558	0.007059025892994608
-0.4837303146875058	0.013831037119480806
-0.4836692795312558	0.020603617269153076
-0.4836082443750058	0.027366565752420895
-0.4835472092187558	0.034124267112979806
-0.4834861740625058	0.04088646062002434
-0.4834251389062558	0.04764889636047768
-0.4833641037500058	0.054398635713472275
-0.4833030685937558	0.06113536670817016
-0.4832420334375058	0.06787065494347069
-0.4831809982812558	0.0746055201761125
-0.4831199631250058	0.08132617018524387
-0.4830589279687558	0.08802653758730968
-0.4829978928125058	0.09471784399885888
-0.4829368576562558	0.10140719321294384
-0.4828758225000058	0.10808270709635284
-0.4828147873437558	0.11473242435512482
-0.4827537521875058	0.12136418486263784
-0.4826927170312558	0.12799046631796535
-0.4826316818750058	0.1346040581485716
-0.4825706467187558	0.1411884022500903
-0.4825096115625058	0.14774545618134755
-0.4824485764062558	0.1542911887410252
-0.4823875412500058	0.1608253747137955
-0.4823265060937558	0.1673294510756339
-0.4822654709375058	0.17379766921924863
-0.4822044357812558	0.1802464161639032
-0.4821434006250058	0.18668359697338013
-0.4820823654687558	0.19309192397042982
-0.4820213303125058	0.19945739923580516
-0.4819602951562558	0.2057932834373007
-0.4818992600000058	0.21211554889340684
-0.4818382248437558	0.21841215719620577
-0.4817771896875058	0.2246618410180813
-0.4817161545312558	0.23087066340817272
-0.4816551193750058	0.2370606618795384
-0.4815940842187558	0.24322871198962348
-0.4815330490625058	0.24934895731075007
-0.4814720139062558	0.2554169502436365
-0.4814109787500058	0.2614574369965899
-0.4813499435937558	0.2674792983634994
-0.4812889084375058	0.27345675245092854
-0.4812278732812558	0.27937274250063276
-0.4811668381250058	0.2852489272130641
-0.4811058029687558	0.2911067164359587
-0.4810447678125058	0.2969264321740904
-0.4809837326562558	0.30267914929214557
-0.4809226975000058	0.3083774664978618
-0.4808616623437558	0.31405344128515905
-0.4808006271875058	0.3196994418348198
-0.4807395920312558	0.3252778500049915
-0.4806785568750058	0.33078639827725603
-0.4806175217187558	0.3362632170039846
-0.4805564865625058	0.3417182920304209
-0.4804954514062558	0.34711173715160093
-0.4804344162500058	0.35242172121916343
-0.4803733810937558	0.3576840418867729
-0.4803123459375058	0.3629292578467189
-0.4802513107812558	0.36812513329362767
-0.4801902756250058	0.37322962238834784
-0.4801292404687558	0.3782653421066536
-0.4800682053125058	0.3832814090659375
-0.4800071701562558	0.38826441623530594
-0.4799461350000058	0.39315702823503795
-0.4798850998437558	0.3979578016192846
-0.4798240646875058	0.4027264065433486
-0.4797630295312558	0.4074782384669693
-0.4797019943750058	0.4121520031867074
-0.4796409592187558	0.41671395769448255
-0.4795799240625058	0.42121949274844284
-0.4795188889062558	0.4257180586301915
-0.4794578537500058	0.4301624989670027
-0.4793968185937558	0.43448619192830995
-0.4793357834375058	0.438720182864013
-0.4792747482812558	0.4429426010714098
-0.4792137131250058	0.447140368413834
-0.4791526779687558	0.45122554688249394
-0.4790916428125058	0.4551867771554317
-0.4790306076562558	0.45911325642191536
-0.4789695725000058	0.463040724445805
-0.4789085373437558	0.46688353545401445
-0.4788475021875058	0.4705786947259262
-0.4787864670312558	0.47419791269377604
-0.4787254318750058	0.47782704939565207
-0.4786643967187558	0.48141391318212
-0.4786033615625058	0.4848521079100785
-0.4785423264062558	0.488164921134306
-0.4784812912500058	0.4914697892185569
-0.4784202560937558	0.4947754399624322
-0.4783592209375058	0.4979606882445386
-0.4782981857812558	0.5009801114435785
-0.4782371506250058	0.5039457466020867
-0.4781761154687558	0.5069369358420917
-0.4781150803125058	0.5098601333410693
-0.4780540451562558	0.5126047679645768
-0.4779930100000058	0.515233648190117
-0.4779319748437558	0.5178783314533167
-0.4778709396875058	0.5205128565892834
-0.4778099045312558	0.5229943564259797
-0.4777488693750058	0.5253059999251269
-0.4776878342187558	0.5275871874182181
-0.4776267990625058	0.5298959111902245
-0.4775657639062558	0.5321081357294248
-0.4775047287500058	0.5341278677463704
-0.4774436935937558	0.5360502499693429
-0.4773826584375058	0.5379989700347677
-0.4773216232812558	0.5399155222734098
-0.4772605881250058	0.541659267028669
-0.4771995529687558	0.5432459052059841
-0.4771385178125058	0.5448182375037872
-0.4770774826562558	0.5464024222789827
-0.4770164475000058	0.5478657639492114
-0.4769554123437558	0.549143460071842
-0.4768943771875058	0.5503454937764258
-0.4768333420312558	0.5515663524343384
-0.4767723068750058	0.5527263986687044
-0.4767112717187558	0.5537110654116837
-0.4766502365625058	0.5545640572743862
-0.4765892014062558	0.5554077558396584
-0.4765281662500058	0.5562345461860887
-0.4764671310937558	0.5569247385023478
-0.4764060959375058	0.5574519385386139
-0.4763450607812558	0.5579229530275719
-0.4762840256250058	0.5583922527843453
-0.4762229904687558	0.558772818043591
-0.4761619553125058	0.5589888931044033
-0.4761009201562558	0.5591026095805329
-0.4760398850000058	0.5592026863435651
-0.4759788498437558	0.559253773432859
-0.4759178146875058	0.5591620130980235
-0.4758567795312558	0.5589360317000905
-0.4757957443750058	0.5586673575008183
-0.4757347092187558	0.5583719118882406
-0.4756736740625058	0.5579667618654477
-0.4756126389062558	0.5574150164289571
-0.4755516037500058	0.5567861623742382
-0.4754905685937558	0.556133768487116
-0.4754295334375058	0.5554056644894917
-0.4753684982812558	0.5545369795475916
-0.4753074631250058	0.5535605912547429
-0.4752464279687558	0.5525475439893061
-0.4751853928125058	0.5514855442761787
-0.4751243576562558	0.5503034544707844
-0.4750633225000058	0.5489941089042798
-0.4750022873437558	0.5476239661975778
-0.4749412521875058	0.5462182736089432
-0.4748802170312558	0.54472065486878
-0.4748191818750058	0.5430918084938758
-0.4747581467187558	0.5413750878496421
-0.4746971115625058	0.539620319362586
-0.4746360764062558	0.5378004175274063
-0.4745750412500058	0.5358609266135917
-0.4745140060937558	0.5338127934161094
-0.4744529709375058	0.5317110730698441
-0.4743919357812558	0.5295613696991622
-0.4743309006250058	0.5273139192470594
-0.4742698654687558	0.5249499983720302
-0.4742088303125058	0.5225114717135266
-0.4741477951562558	0.5200280207429724
-0.4740867600000058	0.5174695009264327
-0.4740257248437558	0.5148006557649762
-0.4739646896875058	0.5120402891576961
-0.4739036545312558	0.509226670670005
-0.4738426193750058	0.5063535449756168
-0.4737815842187558	0.5033848534356539
-0.4737205490625058	0.5003174612652642
-0.4736595139062558	0.49718411176682564
-0.4735984787500058	0.49399681723098715
-0.4735374435937558	0.49072970690292383
-0.4734764084375058	0.4873662371604658
-0.4734153732812558	0.48392654904778865
-0.4733543381250058	0.48043125298198114
-0.4732933029687558	0.4768677631261944
-0.4732322678125058	0.47321532473113237
-0.4731712326562558	0.46948155959730475
-0.4731101975000058	0.4656879585947524
-0.4730491623437558	0.4618332186193165
-0.4729881271875058	0.45789840699878687
-0.4729270920312558	0.4538817596261643
-0.4728660568750058	0.44980142856252464
-0.4728050217187558	0.4456638043112084
-0.4727439865625058	0.44145418195471936
-0.4726829514062558	0.4371644861391497
-0.4726219162500058	0.4328080255002407
-0.4725608810937558	0.4283963985672357
-0.4724998459375058	0.42392050998382813
-0.4724388107812558	0.4193684657010354
-0.4723777756250058	0.4147476430218044
-0.4723167404687558	0.41007242475800343
-0.4722557053125058	0.4053401094953109
-0.4721946701562558	0.40053727628051666
-0.4721336350000058	0.39566462881050907
-0.4720725998437558	0.3907365688158889
-0.4720115646875058	0.3857570733200415
-0.4719505295312558	0.38071447108587386
-0.4718894943750058	0.3756034543704429
-0.4718284592187558	0.37043528889305993
-0.4717674240625058	0.3652190416396633
-0.4717063889062558	0.3599473202485056
-0.4716453537500058	0.3546109618746512
-0.4715843185937558	0.3492163207331369
-0.4715232834375058	0.3437752762994963
-0.4714622482812558	0.33828607365621904
-0.4714012131250058	0.33273827637329856
-0.4713401779687558	0.32713242914414215
-0.4712791428125058	0.32148002550176913
-0.4712181076562558	0.31578464794883815
-0.4711570725000058	0.31003752631699044
-0.4710960373437558	0.3042346064897226
-0.4710350021875058	0.2983849302733095
-0.4709739670312558	0.2924961023693599
-0.4709129318750058	0.2865626762967408
-0.4708518967187558	0.280577555698967
-0.4707908615625058	0.27454602334831857
-0.4707298264062558	0.2684779584096097
-0.4706687912500058	0.26237214618011684
-0.4706077560937558	0.2562199970111451
-0.4705467209375058	0.25002208085707756
-0.4704856857812558	0.24378877103047805
-0.4704246506250058	0.2375238575411079
-0.4703636154687558	0.23121956579186845
-0.4703025803125058	0.22487168157821974
-0.4702415451562558	0.21848855435095998
-0.4701805100000058	0.21207841796686686
-0.4701194748437558	0.20563689752287692
-0.4700584396875058	0.19915612464165408
-0.4699974045312558	0.1926398586002092
-0.4699363693750058	0.18609877680486817
-0.4698753342187558	0.17953395645817952
-0.4698142990625058	0.17293672607176597
-0.4697532639062558	0.16630512264805203
-0.4696922287500058	0.15964890741152504
-0.4696311935937558	0.15297470044966005
-0.4695701584375058	0.1462765747600259
