Time	Frequency
-0.5000267006874992	-5.560320987862203e-23
-0.4999656655312492	-5.473557851295445e-23
-0.4999046303749992	-5.38632078610956e-23
-0.4998435952187492	-5.298079496414342e-23
-0.4997825600624992	-5.208657426922079e-23
-0.4997215249062492	-5.1185179425290606e-23
-0.4996604897499992	-5.0279790316275317e-23
-0.4995994545937492	-4.936717413574257e-23
-0.4995384194374992	-4.844360148657923e-23
-0.4994773842812492	-4.7511274848184356e-23
-0.4994163491249992	-4.657461684197212e-23
-0.4993553139687492	-4.5633029752239115e-23
-0.4992942788124992	-4.4682298577715034e-23
-0.4992332436562492	-4.3722001012536035e-23
-0.4991722084999992	-4.2756348044828114e-23
-0.4991111733437492	-4.1787202456156003e-23
-0.4990501381874992	-4.0811197808208264e-23
-0.4989891030312492	-3.982576729033401e-23
-0.4989280678749992	-3.8833746321082537e-23
-0.4988670327187492	-3.783871291020063e-23
-0.4988059975624992	-3.6839082651536054e-23
-0.4987449624062492	-3.583110591666481e-23
-0.4986839272499992	-3.481559624895502e-23
-0.4986228920937492	-3.3796759939527057e-23
-0.4985618569374992	-3.277514077969577e-23
-0.4985008217812492	-3.174694002223318e-23
-0.4984397866249992	-3.0710906586490747e-23
-0.4983787514687492	-2.967076018351262e-23
-0.4983177163124992	-2.8628925636122294e-23
-0.4982566811562492	-2.7582574105383846e-23
-0.4981956459999992	-2.6528882407239415e-23
-0.4981346108437492	-2.547023330738894e-23
-0.4980735756874992	-2.441023742006183e-23
-0.4980125405312492	-2.3347652848536854e-23
-0.4979515053749992	-2.22789040681943e-23
-0.4978904702187492	-2.1204653508330338e-23
-0.4978294350624992	-2.0128828808158685e-23
-0.4977683999062492	-1.9051950661873242e-23
-0.4977073647499992	-1.7970576079151963e-23
-0.4976463295937492	-1.688369270012154e-23
-0.4975852944374992	-1.5794687811543168e-23
-0.4975242592812492	-1.470556908238872e-23
-0.4974632241249992	-1.3613782617056515e-23
-0.4974021889687492	-1.251710044895611e-23
-0.4973411538124992	-1.1417751554146873e-23
-0.4972801186562492	-1.0318640687208503e-23
-0.4972190834999992	-9.2185762385031e-24
-0.4971580483437492	-8.114814258697543e-24
-0.4970970131874992	-7.008142474014197e-24
-0.4970359780312492	-5.901593406879258e-24
-0.4969749428749992	-4.79536224663375e-24
-0.4969139077187492	-3.6869071686552224e-24
-0.4968528725624992	-2.575758458677136e-24
-0.4967918374062492	-1.4644734538327311e-24
-0.4967308022499992	-3.543387342027629e-25
-0.4966697670937492	7.564517965788773e-25
-0.4966087319374992	1.8692096186470025e-24
-0.4965476967812492	2.982295578081978e-24
-0.4964866616249992	4.093873516025543e-24
-0.4964256264687492	5.2047584008442e-24
-0.4963645913124992	6.316549768548219e-24
-0.4963035561562492	7.428619562838068e-24
-0.4962425209999992	8.539086268083732e-24
-0.4961814858437492	9.647770416448834e-24
-0.4961204506874992	1.0756050556301944e-23
-0.4960594155312492	1.1864176695207866e-23
-0.4959983803749992	1.2970723004170349e-23
-0.4959373452187492	1.407483621394641e-23
-0.4958763100624992	1.517729662601324e-23
-0.4958152749062492	1.6278814403919308e-23
-0.4957542397499992	1.737863718045074e-23
-0.4956932045937492	1.8475653742943464e-23
-0.4956321694374992	1.9569943776656493e-23
-0.4955711342812492	2.0662288392184363e-23
-0.4955100991249992	2.175262886264859e-23
-0.4954490639687492	2.2839975010192645e-23
-0.4953880288124992	2.3923775181934474e-23
-0.4953269936562492	2.5004500126266872e-23
-0.4952659584999992	2.6082585889340653e-23
-0.4952049233437492	2.7157482144560115e-23
-0.4951438881874992	2.8228306613896715e-23
-0.4950828530312492	2.929504175286615e-23
-0.4950218178749992	3.035832778584586e-23
-0.4949607827187492	3.141814119030483e-23
-0.4948997475624992	3.247353514932098e-23
-0.4948387124062492	3.352395869017319e-23
-0.4947776772499992	3.4569972647229174e-23
-0.4947166420937492	3.561205417024224e-23
-0.4946556069374992	3.664947132555949e-23
-0.4945945717812492	3.768124873143382e-23
-0.4945335366249992	3.8707629800539905e-23
-0.4944725014687492	3.9729430622448885e-23
-0.4944114663124992	4.074632629339253e-23
-0.4943504311562492	4.175711056722341e-23
-0.4942893959999992	4.2761557885038546e-23
-0.4942283608437492	4.376059138304041e-23
-0.4941673256874992	4.475438893650509e-23
-0.4941062905312492	4.574177936874215e-23
-0.4940452553749992	4.6722066658607375e-23
-0.4939842202187492	4.7696044554851867e-23
-0.4939231850624992	4.8664324878792877e-23
-0.4938621499062492	4.962595983036165e-23
-0.4938011147499992	5.0579879922254294e-23
-0.4937400795937492	5.152657048193392e-23
-0.4936790444374992	5.246693541345463e-23
-0.4936180092812492	5.340039746664784e-23
-0.4935569741249992	5.432570408287242e-23
-0.4934959389687492	5.52429722931116e-23
-0.4934349038124992	5.615321774688557e-23
-0.4933738686562492	5.705623775471832e-23
-0.4933128334999992	5.795073980942875e-23
-0.4932517983437492	5.883646458437078e-23
-0.4931907631874992	5.971440178823088e-23
-0.4931297280312492	6.058472847858688e-23
-0.4930686928749992	6.144627389707868e-23
-0.4930076577187492	6.229845390964337e-23
-0.4929466225624992	6.314207667438761e-23
-0.4928855874062492	6.397758451763278e-23
-0.4928245522499992	6.480403730858805e-23
-0.4927635170937492	6.562066518474468e-23
-0.4927024819374992	6.642803269274097e-23
-0.4926414467812492	6.722670671274082e-23
-0.4925804116249992	6.801600071943618e-23
-0.4925193764687492	6.879508929488943e-23
-0.4924583413124992	6.956431607945896e-23
-0.4923973061562492	7.032427442470983e-23
-0.4923362709999992	7.107447938842067e-23
-0.4922752358437492	7.181412422117284e-23
-0.4922142006874992	7.254339997769862e-23
-0.4921531655312492	7.326286780946166e-23
-0.4920921303749992	7.397216394867438e-23
-0.4920310952187492	7.467052922155956e-23
-0.4919700600624992	7.535808389053005e-23
-0.4919090249062492	7.603537337883425e-23
-0.4918479897499992	7.67020932704209e-23
-0.4917869545937492	7.735748541717549e-23
-0.4917259194374992	7.800163030988753e-23
-0.4916648842812492	7.863509619236052e-23
-0.4916038491249992	7.925762095854147e-23
-0.4915428139687492	7.986842011628015e-23
-0.4914817788124992	8.046754346217242e-23
-0.4914207436562492	8.105562206812058e-23
-0.4913597084999992	8.163245474454192e-23
-0.4912986733437492	8.219719471253258e-23
-0.4912376381874992	8.274983404783737e-23
-0.4911766030312492	8.329109261566244e-23
-0.4911155678749992	8.382085645988681e-23
-0.4910545327187492	8.43381902537427e-23
-0.4909934975624992	8.484297908523124e-23
-0.4909324624062492	8.533604611494238e-23
-0.4908714272499992	8.581742684452555e-23
-0.4908103920937492	8.628609409189366e-23
-0.4907493569374992	8.674176625163707e-23
-0.4906883217812492	8.718536601330764e-23
-0.4906272866249992	8.761714761668999e-23
-0.4905662514687492	8.803603126703353e-23
-0.4905052163124992	8.844150549189824e-23
-0.4904441811562492	8.883451723403477e-23
-0.4903831459999992	8.92155806832015e-23
-0.4903221108437492	8.958364482598017e-23
-0.4902610756874992	8.993793550687284e-23
-0.4902000405312492	9.02793440607127e-23
-0.4901390053749992	9.060867114184455e-23
-0.4900779702187492	9.092498030186246e-23
-0.4900169350624992	9.122723107809135e-23
-0.4899558999062492	9.151617587675693e-23
-0.4898948647499992	9.179288463248587e-23
-0.4898338295937492	9.205661184073861e-23
-0.4897727944374992	9.230608112498991e-23
-0.4897117592812492	9.254182959077599e-23
-0.4896507241249992	9.276514912487157e-23
-0.4895896889687492	9.297556397041835e-23
-0.4895286538124992	9.317163024495752e-23
-0.4894676186562492	9.335359824111411e-23
-0.4894065834999992	9.352289566589027e-23
-0.4893455483437492	9.367936913361963e-23
-0.4892845131874992	9.382150827643311e-23
-0.4892234780312492	9.394925411796076e-23
-0.4891624428749992	9.406406503017691e-23
-0.4891014077187492	9.416610020816812e-23
-0.4890403725624992	9.425387577271382e-23
-0.4889793374062492	9.432705663321419e-23
-0.4889183022499992	9.4387060327492e-23
-0.4888572670937492	9.443431497370013e-23
-0.4887962319374992	9.446741401815309e-23
-0.4887351967812492	9.448578891052818e-23
-0.4886741616249992	9.449078015870303e-23
-0.4886131264687492	9.448304868628277e-23
-0.4885520913124992	9.44612934887237e-23
-0.4884910561562492	9.442474663917058e-23
-0.4884300209999992	9.437465183728087e-23
-0.4883689858437492	9.43118671727702e-23
-0.4883079506874992	9.423520545619446e-23
-0.4882469155312492	9.414373805012759e-23
-0.4881858803749992	9.403862276562413e-23
-0.4881248452187492	9.392087830162176e-23
-0.4880638100624992	9.378939336150667e-23
-0.4880027749062492	9.364309176403997e-23
-0.4879417397499992	9.348309551442059e-23
-0.4878807045937492	9.331061027983021e-23
-0.4878196694374992	9.312456852846119e-23
-0.4877586342812492	9.292369561910958e-23
-0.4876975991249992	9.27090829385405e-23
-0.4876365639687492	9.2482173984966e-23
-0.4875755288124992	9.224195392926966e-23
-0.4875144936562492	9.198690064344033e-23
-0.4874534584999992	9.171806001739603e-23
-0.4873924233437492	9.143717225458405e-23
-0.4873313881874992	9.114329715270007e-23
-0.4872703530312492	9.083458833980495e-23
-0.4872093178749992	9.051200318584424e-23
-0.4871482827187492	9.017766975245825e-23
-0.4870872475624992	8.983080687584609e-23
-0.4870262124062492	8.94691560511809e-23
-0.4869651772499992	8.909346204987363e-23
-0.4869041420937492	8.870631152758468e-23
-0.4868431069374992	8.830723375548596e-23
-0.4867820717812492	8.789351552298232e-23
-0.4867210366249992	8.74655170424493e-23
-0.4866600014687492	8.702628322521866e-23
-0.4865989663124992	8.657582662481946e-23
-0.4865379311562492	8.6111004723156e-23
-0.4864768959999992	8.563161401589345e-23
-0.4864158608437492	8.514111780403322e-23
-0.4863548256874992	8.464021947607873e-23
-0.4862937905312492	8.412543461861755e-23
-0.4862327553749992	8.359578596982886e-23
-0.4861717202187492	8.30550233802355e-23
-0.4861106850624992	8.250472887066115e-23
-0.4860496499062492	8.194121710546163e-23
-0.4859886147499992	8.136254866702817e-23
-0.4859275795937492	8.077258294817712e-23
-0.4858665444374992	8.01739651626006e-23
-0.4858055092812492	7.956306214517197e-23
-0.4857444741249992	7.89368282785123e-23
-0.4856834389687492	7.829893009860259e-23
-0.4856224038124992	7.765317922862215e-23
-0.4855613686562492	7.699630670379313e-23
-0.4855003334999992	7.632406938130087e-23
-0.4854392983437492	7.563959683474068e-23
-0.4853782631874992	7.494791922833609e-23
-0.4853172280312492	7.424651705382977e-23
-0.4852561928749992	7.352998919106747e-23
-0.4851951577187492	7.280054455515289e-23
-0.4851341225624992	7.20643138628501e-23
-0.4850730874062492	7.131990745359653e-23
-0.4850120522499992	7.056093231626775e-23
-0.4849510170937492	6.978827588922882e-23
-0.4848899819374992	6.900893969570264e-23
-0.4848289467812492	6.822305134404714e-23
-0.4847679116249992	6.742352911061172e-23
-0.4847068764687492	6.660960212482715e-23
-0.4846458413124992	6.578877292480286e-23
-0.4845848061562492	6.496295833110036e-23
-0.4845237709999992	6.412480202131613e-23
-0.4844627358437492	6.327166503476667e-23
-0.4844017006874992	6.241111125938384e-23
-0.4843406655312492	6.15470102960062e-23
-0.4842796303749992	6.067220446229162e-23
-0.4842185952187492	5.978207408228184e-23
-0.4841575600624992	5.88837361854818e-23
-0.4840965249062492	5.798305575358835e-23
-0.4840354897499992	5.707359214621878e-23
-0.4839744545937492	5.614877067538898e-23
-0.4839134194374992	5.521475140430281e-23
-0.4838523842812492	5.427930243173098e-23
-0.4837913491249992	5.333719023442806e-23
-0.4837303139687492	5.238003474294929e-23
-0.4836692788124992	5.141255559467633e-23
-0.4836082436562492	5.044421749926438e-23
-0.4835472084999992	4.947147312781791e-23
-0.4834861733437492	4.848440856128674e-23
-0.4834251381874992	4.748587273312599e-23
-0.4833641030312492	4.6486719101115226e-23
-0.4833030678749992	4.548544174480268e-23
-0.4832420327187492	4.447088595900704e-23
-0.4831809975624992	4.344370395747773e-23
-0.4831199624062492	4.2415863355157704e-23
-0.4830589272499992	4.13882614202532e-23
-0.4829978920937492	4.034879306644269e-23
-0.4829368569374992	3.929547575216964e-23
-0.4828758217812492	3.8241031289430994e-23
-0.4828147866249992	3.718924814609983e-23
-0.4827537514687492	3.6127522399006786e-23
-0.4826927163124992	3.5050749969133306e-23
-0.4826316811562492	3.3971892944168294e-23
-0.4825706459999992	3.289813432829501e-23
-0.4825096108437492	3.1816965755647856e-23
-0.4824485756874992	3.071960052012529e-23
-0.4823875405312492	2.961845922223542e-23
-0.4823265053749992	2.852467706810657e-23
-0.4822654702187492	2.7426856491566204e-23
-0.4822044350624992	2.631205462977774e-23
-0.4821433999062492	2.519092212660905e-23
-0.4820823647499992	2.4078915412634235e-23
-0.4820213295937492	2.2967231453463437e-23
-0.4819602944374992	2.183858402242629e-23
-0.4818992592812492	2.0700066267820774e-23
-0.4818382241249992	1.957127744964406e-23
-0.4817771889687492	1.8448011914731083e-23
-0.4817161538124992	1.7309303798281208e-23
-0.4816551186562492	1.6156609222008848e-23
-0.4815940834999992	1.501249947193632e-23
-0.4815330483437492	1.3879427641010176e-23
-0.4814720131874992	1.2734483661892304e-23
-0.4814109780312492	1.1571578262570425e-23
-0.4813499428749992	1.0413864256752185e-23
-0.4812889077187492	9.271966144393382e-24
-0.4812278725624992	8.12402899208826e-24
-0.4811668374062492	6.955526564946557e-24
-0.4811058022499992	5.786757775190847e-24
-0.4810447670937492	4.6366482602663556e-24
-0.4809837319374992	3.488097120161011e-24
-0.4809226967812492	2.318911119447476e-24
-0.4808616616249992	1.1427692156502212e-24
-0.4808006264687492	-1.4914460742127085e-26
-0.4807395913124992	-1.1629767229617715e-24
-0.4806785561562492	-2.3284280213830088e-24
-0.4806175209999992	-3.50709437768837e-24
-0.4805564858437492	-4.6707580132101506e-24
-0.4804954506874992	-5.8179985995260935e-24
-0.4804344155312492	-6.976420812232685e-24
-0.4803733803749992	-8.152336727998255e-24
-0.4803123452187492	-9.319221298233289e-24
-0.4802513100624992	-1.0465499447729112e-23
-0.4801902749062492	-1.1614858553075784e-23
-0.4801292397499992	-1.2782863447401e-23
-0.4800682045937492	-1.394888273187518e-23
-0.4800071694374992	-1.5093465917729468e-23
-0.4799461342812492	-1.6232811845049494e-23
-0.4798850991249992	-1.7388654185767912e-23
-0.4798240639687492	-1.8549021698852075e-23
-0.4797630288124992	-1.9690230414691784e-23
-0.4797019936562492	-2.0819107307385386e-23
-0.4796409584999992	-2.1959566305567726e-23
-0.4795799233437492	-2.310924180003136e-23
-0.4795188881874992	-2.424431515642569e-23
-0.4794578530312492	-2.5362236330026135e-23
-0.4793968178749992	-2.648513432754362e-23
-0.4793357827187492	-2.761939970361022e-23
-0.4792747475624992	-2.874473888786704e-23
-0.4792137124062492	-2.9850822814336806e-23
-0.4791526772499992	-3.095477220279901e-23
-0.4790916420937492	-3.20694939677181e-23
-0.4790306069374992	-3.318088628383097e-23
-0.4789695717812492	-3.427358544923192e-23
-0.4789085366249992	-3.5357678551833485e-23
-0.4788475014687492	-3.644949203627984e-23
-0.4787864663124992	-3.754245270893964e-23
-0.4787254311562492	-3.8619478400722554e-23
-0.4786643959999992	-3.968302178948881e-23
-0.4786033608437492	-4.0749445006392875e-23
-0.4785423256874992	-4.1819550324727364e-23
-0.4784812905312492	-4.287782900354228e-23
-0.4784202553749992	-4.3919983558011466e-23
-0.4783592202187492	-4.4959361343445534e-23
-0.4782981850624992	-4.600257384655727e-23
-0.4782371499062492	-4.7038330133090595e-23
-0.4781761147499992	-4.80577410219201e-23
-0.4781150795937492	-4.906908431601231e-23
-0.4780540444374992	-5.008219660780682e-23
-0.4779930092812492	-5.109136076362078e-23
-0.4779319741249992	-5.2085923987876666e-23
-0.4778709389687492	-5.30684644523231e-23
-0.4778099038124992	-5.404913881036044e-23
-0.4777488686562492	-5.502770074608272e-23
-0.4776878334999992	-5.599451582638981e-23
-0.4776267983437492	-5.694726128717284e-23
-0.4775657631874992	-5.789396874385745e-23
-0.4775047280312492	-5.883850336905002e-23
-0.4774436928749992	-5.977423159864188e-23
-0.4773826577187492	-6.069569470814387e-23
-0.4773216225624992	-6.160732890481796e-23
-0.4772605874062492	-6.251505954114013e-23
-0.4771995522499992	-6.341616816812098e-23
-0.4771385170937492	-6.430427520731383e-23
-0.4770774819374992	-6.517991943588669e-23
-0.4770164467812492	-6.604889632702724e-23
-0.4769554116249992	-6.691210878486608e-23
-0.4768943764687492	-6.7764223528298e-23
-0.4768333413124992	-6.860265937156764e-23
-0.4767723061562492	-6.943145327048491e-23
-0.4767112709999992	-7.025399452664085e-23
-0.4766502358437492	-7.106724389027334e-23
-0.4765892006874992	-7.18668856811498e-23
-0.4765281655312492	-7.265435597960185e-23
-0.4764671303749992	-7.343402203110683e-23
-0.4764060952187492	-7.420557589628702e-23
-0.4763450600624992	-7.496448483312473e-23
-0.4762840249062492	-7.570953465702344e-23
-0.4762229897499992	-7.64446263207745e-23
-0.4761619545937492	-7.717188329782788e-23
-0.4761009194374992	-7.78878685915323e-23
-0.4760398842812492	-7.858932652416964e-23
-0.4759788491249992	-7.927857356552978e-23
-0.4759178139687492	-7.995928903023813e-23
-0.4758567788124992	-8.062997465222465e-23
-0.4757957436562492	-8.128638441485781e-23
-0.4757347084999992	-8.192872164520705e-23
-0.4756736733437492	-8.256109924130537e-23
-0.4756126381874992	-8.318419518978639e-23
-0.4755516030312492	-8.379392651552398e-23
-0.4754905678749992	-8.438844466597518e-23
-0.4754295327187492	-8.497117883198377e-23
-0.4753684975624992	-8.554462197802233e-23
-0.4753074624062492	-8.610581672389662e-23
-0.4752464272499992	-8.665144267978129e-23
-0.4751853920937492	-8.718348719269794e-23
-0.4751243569374992	-8.770554516350373e-23
-0.4750633217812492	-8.821635803624815e-23
-0.4750022866249992	-8.871196249859724e-23
-0.4749412514687492	-8.91925368437638e-23
-0.4748802163124992	-8.966185527196202e-23
-0.4748191811562492	-9.012047241599407e-23
-0.4747581459999992	-9.056472461990234e-23
-0.4746971108437492	-9.099312365919906e-23
-0.4746360756874992	-9.140874776084321e-23
-0.4745750405312492	-9.181360190064623e-23
-0.4745140053749992	-9.220506828808052e-23
-0.4744529702187492	-9.258053675584194e-23
-0.4743919350624992	-9.294181791260672e-23
-0.4743308999062492	-9.329169365188366e-23
-0.4742698647499992	-9.36289664547158e-23
-0.4742088295937492	-9.395064539414873e-23
-0.4741477944374992	-9.425710152262712e-23
-0.4740867592812492	-9.455113858804614e-23
-0.4740257241249992	-9.483294791164464e-23
-0.4739646889687492	-9.509987095252865e-23
-0.4739036538124992	-9.535105763193252e-23
-0.4738426186562492	-9.558871067592728e-23
-0.4737815834999992	-9.581404085597028e-23
-0.4737205483437492	-9.602522574038879e-23
-0.4736595131874992	-9.622067717049369e-23
-0.4735984780312492	-9.640164277507157e-23
-0.4735374428749992	-9.656981279647442e-23
-0.4734764077187492	-9.672440432518174e-23
-0.4734153725624992	-9.686364643845282e-23
-0.4733543374062492	-9.698776287721041e-23
-0.4732933022499992	-9.709835792384836e-23
-0.4732322670937492	-9.719559861709648e-23
-0.4731712319374992	-9.727806361116074e-23
-0.4731101967812492	-9.734520368531931e-23
-0.4730491616249992	-9.739810792871581e-23
-0.4729881264687492	-9.743754289475047e-23
-0.4729270913124992	-9.746274418530985e-23
-0.4728660561562492	-9.74727885443232e-23
-0.4728050209999992	-9.746806240437438e-23
-0.4727439858437492	-9.744951305351197e-23
-0.4726829506874992	-9.741710139595837e-23
-0.4726219155312492	-9.736994464897453e-23
-0.4725608803749992	-9.730776935398838e-23
-0.4724998452187492	-9.723131160744701e-23
-0.4724388100624992	-9.714111044846744e-23
-0.4723777749062492	-9.703666315232448e-23
-0.4723167397499992	-9.691726886303051e-23
-0.4722557045937492	-9.678319621096471e-23
-0.4721946694374992	-9.663527655460369e-23
-0.4721336342812492	-9.647354757174775e-23
-0.4720725991249992	-9.629718827807752e-23
-0.4720115639687492	-9.610592861682988e-23
-0.4719505288124992	-9.590058652194542e-23
-0.4718894936562492	-9.56817332400299e-23
-0.4718284584999992	-9.54487179523566e-23
-0.4717674233437492	-9.52008151163047e-23
-0.4717063881874992	-9.493857666015673e-23
-0.4716453530312492	-9.466296385038592e-23
-0.4715843178749992	-9.437369733628944e-23
-0.4715232827187492	-9.406977406796506e-23
-0.4714622475624992	-9.3751322861027e-23
