Time	Frequency
-0.5000475957500043	-0.25010645236035656
-0.49998656059375435	-0.25566402394722665
-0.49992552543750435	-0.2612397321311532
-0.49986449028125435	-0.26680346348466855
-0.49980345512500435	-0.2722981541410559
-0.49974241996875435	-0.27770577740873026
-0.49968138481250435	-0.28306586928052263
-0.49962034965625435	-0.28842685295703474
-0.49955931450000435	-0.2937887896499487
-0.49949827934375435	-0.2991040258036337
-0.49943724418750435	-0.3043330058870262
-0.49937620903125435	-0.30948888835677085
-0.49931517387500435	-0.3146197627219808
-0.49925413871875435	-0.31975102652757414
-0.49919310356250435	-0.3248558119957594
-0.49913206840625435	-0.329886808035872
-0.49907103325000435	-0.33483076964749137
-0.49900999809375435	-0.33972194829521374
-0.49894896293750435	-0.34460018220337585
-0.49888792778125435	-0.3494638037675857
-0.49882689262500435	-0.3542719390740774
-0.49876585746875435	-0.35899208155939144
-0.49870482231250435	-0.3636366571368625
-0.49864378715625435	-0.3682466090415936
-0.49858275200000435	-0.3728424569084047
-0.49852171684375435	-0.37740032635106224
-0.49846068168750435	-0.38187993816909427
-0.49839964653125435	-0.38627077702353757
-0.49833861137500435	-0.39060267872316196
-0.49827757621875435	-0.39490960429832894
-0.49821654106250435	-0.3991896213508529
-0.49815550590625435	-0.40340731381900535
-0.49809447075000435	-0.4075347071978882
-0.49803343559375435	-0.411582565879182
-0.49797240043750435	-0.4155863116995922
-0.49791136528125435	-0.41956395794114953
-0.49785033012500435	-0.42349516629355116
-0.49778929496875435	-0.4273449416307889
-0.49772825981250435	-0.43110352587645445
-0.49766722465625435	-0.4347962289304272
-0.49760618950000435	-0.4384527664488223
-0.49754515434375435	-0.4420724303176678
-0.49748411918750435	-0.4456251515760282
-0.49742308403125435	-0.4490861845992059
-0.49736204887500435	-0.4524636581739152
-0.49730101371875435	-0.45578767256572594
-0.49723997856250435	-0.45907461925556814
-0.49717894340625435	-0.46230831156334257
-0.49711790825000435	-0.46545896075653403
-0.49705687309375435	-0.468517059483815
-0.49699583793750435	-0.4715029865143921
-0.49693480278125435	-0.47444221658104657
-0.49687376762500435	-0.47733559021574024
-0.49681273246875435	-0.4801587133885055
-0.49675169731250435	-0.4828901452016202
-0.49669066215625435	-0.4855352143613711
-0.49662962700000435	-0.48811848230430077
-0.49656859184375435	-0.4906546045277244
-0.49650755668750435	-0.49313160762733377
-0.49644652153125435	-0.49552512124520637
-0.49638548637500435	-0.4978261104060283
-0.49632445121875435	-0.5000500596963199
-0.49626341606250435	-0.5022179764126568
-0.49620238090625435	-0.5043319242316915
-0.49614134575000435	-0.5063730833407142
-0.49608031059375435	-0.5083236294045799
-0.49601927543750435	-0.5101865747777053
-0.49595824028125435	-0.5119811052479197
-0.49589720512500435	-0.5137197582729599
-0.49583616996875435	-0.5153941476721748
-0.49577513481250435	-0.516985087375756
-0.49571409965625435	-0.518484555978138
-0.49565306450000435	-0.5199040195709389
-0.49559202934375435	-0.5212602485583142
-0.49553099418750435	-0.5225557617921877
-0.49546995903125435	-0.5237763780298754
-0.49540892387500435	-0.5249078534340914
-0.49534788871875435	-0.5259518147612975
-0.49528685356250435	-0.5269229536856243
-0.49522581840625435	-0.5278315415379866
-0.49516478325000435	-0.5286717791674496
-0.49510374809375435	-0.5294289427286082
-0.49504271293750435	-0.5300963515493251
-0.49498167778125435	-0.5306824292591606
-0.49492064262500435	-0.5312002950769293
-0.49485960746875435	-0.5316525231969826
-0.49479857231250435	-0.5320285972116091
-0.49473753715625435	-0.5323173474053581
-0.49467650200000435	-0.5325195544582255
-0.49461546684375435	-0.5326464248062293
-0.49455443168750435	-0.5327063451539688
-0.49449339653125435	-0.5326954720886987
-0.49443236137500435	-0.5326026095945698
-0.49437132621875435	-0.5324221802579991
-0.49431029106250435	-0.5321602605865374
-0.49424925590625435	-0.5318271840414476
-0.49418822075000435	-0.5314256816331803
-0.49412718559375435	-0.5309481580606012
-0.49406615043750435	-0.5303857575041593
-0.49400511528125435	-0.5297384549858093
-0.49394408012500435	-0.5290147583425991
-0.49388304496875435	-0.5282218366883187
-0.49382200981250435	-0.5273576119014701
-0.49376097465625435	-0.5264135868974856
-0.49369993950000435	-0.5253847424241517
-0.49363890434375435	-0.5242751201234059
-0.49357786918750435	-0.5230930713481018
-0.49351683403125435	-0.5218419340629916
-0.49345579887500435	-0.5205166871988898
-0.49339476371875435	-0.51911002033394
-0.49333372856250435	-0.5176207015512838
-0.49327269340625435	-0.516054909305602
-0.49321165825000435	-0.5144193561410575
-0.49315062309375435	-0.5127140925926392
-0.49308958793750435	-0.5109328978602146
-0.49302855278125435	-0.5090705548829196
-0.49296751762500435	-0.5071288017437049
-0.49290648246875435	-0.5051144994526597
-0.49284544731250435	-0.5030322721039802
-0.49278441215625435	-0.5008797992278881
-0.49272337700000435	-0.49865080258813976
-0.49266234184375435	-0.49634228312495066
-0.49260130668750435	-0.4939580551719314
-0.49254027153125435	-0.49150483648295595
-0.49247923637500435	-0.48898525571160484
-0.49241820121875435	-0.4863953671535418
-0.49235716606250435	-0.4837293333024584
-0.49229613090625435	-0.4809861853300069
-0.49223509575000435	-0.4781713108825322
-0.49217406059375435	-0.47529101882808905
-0.49211302543750435	-0.47234603838902695
-0.49205199028125435	-0.46933103669689236
-0.49199095512500435	-0.4662408222973459
-0.49192991996875435	-0.4630765777150062
-0.49186888481250435	-0.45984521109822674
-0.49180784965625435	-0.4565523273581833
-0.49174681450000435	-0.45319640570048386
-0.49168577934375435	-0.44977071897728543
-0.49162474418750435	-0.4462712173144769
-0.49156370903125435	-0.4427017833993939
-0.49150267387500435	-0.4390707377097346
-0.49144163871875435	-0.43538212205568044
-0.49138060356250435	-0.43163144995314606
-0.49131956840625435	-0.4278110067075266
-0.49125853325000435	-0.4239191381019339
-0.49119749809375435	-0.41996308975479635
-0.49113646293750435	-0.415951758963588
-0.49107542778125435	-0.4118861274504844
-0.49101439262500435	-0.40775833125007677
-0.49095335746875435	-0.40356098353120334
-0.49089232231250435	-0.3992964717222941
-0.49083128715625435	-0.3949753619342076
-0.49077025200000435	-0.39060520599392906
-0.49070921684375435	-0.38618232072052283
-0.49064818168750435	-0.3816962348579569
-0.49058714653125435	-0.3771422581613381
-0.49052611137500435	-0.3725279929038499
-0.49046507621875435	-0.3678658502582103
-0.49040404106250435	-0.3631595126447415
-0.49034300590625435	-0.3583999355692281
-0.49028197075000435	-0.35357612552001627
-0.49022093559375435	-0.348688739138115
-0.49015990043750435	-0.3437506699007897
-0.49009886528125435	-0.33877328256676165
-0.49003783012500435	-0.33375376193840983
-0.48997679496875435	-0.3286786047145459
-0.48991575981250435	-0.3235399199185264
-0.48985472465625435	-0.31834583678383205
-0.48979368950000435	-0.3131124786046016
-0.48973265434375435	-0.3078461763048852
-0.48967161918750435	-0.3025364653466568
-0.48961058403125435	-0.29716858518100414
-0.48954954887500435	-0.2917415865532555
-0.48948851371875435	-0.28627093791165725
-0.48942747856250435	-0.2807718667083776
-0.48936644340625435	-0.2752422877765841
-0.48930540825000435	-0.2696655177025585
-0.48924437309375435	-0.2640303416161724
-0.48918333793750435	-0.258345372461824
-0.48912230278125435	-0.25263057928380944
-0.48906126762500435	-0.2468951358324402
-0.48900023246875435	-0.24112716804895004
-0.48893919731250435	-0.23530794668403884
-0.48887816215625435	-0.2294347321459822
-0.48881712700000435	-0.2235255827773405
-0.48875609184375435	-0.21759973889273201
-0.48869505668750435	-0.21165592766286223
-0.48863402153125435	-0.20567417395858348
-0.48857298637500435	-0.19963977705332253
-0.48851195121875435	-0.19356189276430574
-0.48845091606250435	-0.187464559922289
-0.48838988090625435	-0.18135979972885852
-0.48832884575000435	-0.17523401728258323
-0.48826781059375435	-0.1690642916314896
-0.48820677543750435	-0.1628462326081928
-0.48814574028125435	-0.15660080240332452
-0.48808470512500435	-0.1503514145940095
-0.48802366996875435	-0.144097395451159
-0.48796263481250435	-0.1378150283789005
-0.48790159965625435	-0.1314859445888077
-0.48784056450000435	-0.12512017557307445
-0.48777952934375435	-0.11874628270097325
-0.48771849418750435	-0.11237915518238274
-0.48765745903125435	-0.10600301115485303
-0.48759642387500435	-0.09959025691916674
-0.48753538871875435	-0.09313492138327145
-0.48747435356250435	-0.0866615266755001
-0.48741331840625435	-0.08019812667683435
-0.48735228325000435	-0.07374426069671368
-0.48729124809375435	-0.06727163944354327
-0.48723021293750435	-0.06075788872491333
-0.48716917778125435	-0.05421444311476412
-0.48710814262500435	-0.04767525131619274
-0.48704710746875435	-0.04115833667294234
-0.48698607231250435	-0.034644943478015965
-0.48692503715625435	-0.02810169375140698
-0.48686400200000435	-0.021520891942297383
-0.48680296684375435	-0.014931691412886042
-0.48674193168750435	-0.008367879538593907
-0.48668089653125435	-0.0018290106777516957
-0.48661986137500435	0.004719144955545907
-0.48655882621875435	0.011303938161658698
-0.48649779106250435	0.017911929840586042
-0.48643675590625435	0.02450228710746
-0.48637572075000435	0.03105321548414318
-0.48631468559375435	0.03758741007271408
-0.48625365043750435	0.044145504192983374
-0.48619261528125435	0.05073723852025477
-0.48613158012500435	0.05732766337815617
-0.48607054496875435	0.0638760171513812
-0.48600950981250435	0.07038284013906503
-0.48594847465625435	0.0768895784613143
-0.48588743950000435	0.08342957753133175
-0.48582640434375435	0.08998708334380151
-0.48576536918750435	0.0965131892722928
-0.48570433403125435	0.1029816563480728
-0.48564329887500435	0.10941964838636993
-0.48558226371875435	0.11587611477320088
-0.48552122856250435	0.12236333116013662
-0.48546019340625435	0.12884001550500673
-0.48539915825000435	0.13525737587944434
-0.48533812309375435	0.1416155710219845
-0.48527708793750435	0.14796398662879554
-0.48521605278125435	0.15434320163970452
-0.48515501762500435	0.16073555358342176
-0.48509398246875435	0.1670831010066134
-0.48503294731250435	0.1733537902394584
-0.48497191215625435	0.17957904434059385
-0.48491087700000435	0.18581752529542386
-0.48484984184375435	0.1920856277068327
-0.48478880668750435	0.1983357249935969
-0.48472777153125435	0.20450930394287956
-0.48466673637500435	0.21060454380104612
-0.48460570121875435	0.2166790972734795
-0.48454466606250435	0.22278290590987532
-0.48448363090625435	0.2288980800544547
-0.48442259575000435	0.23495683655601177
-0.48436156059375435	0.2409187011168455
-0.48430052543750435	0.24681786101357323
-0.48423949028125435	0.25272416771522704
-0.48417845512500435	0.25866115598487066
-0.48411741996875435	0.2645760242057415
-0.48405638481250435	0.2703982510130787
-0.48399534965625435	0.2761206970926935
-0.48393431450000435	0.28180884606737633
-0.48387327934375435	0.28752533229738814
-0.48381224418750435	0.2932555842333053
-0.48375120903125435	0.29892150471664897
-0.48369017387500435	0.3044697929028152
-0.48362913871875435	0.30993399399953364
-0.48356810356250435	0.3153970889475209
-0.48350706840625435	0.32089527035395704
-0.48344603325000435	0.3263732747792882
-0.48338499809375435	0.3317448999198902
-0.48332396293750435	0.33699152900870627
-0.48326292778125435	0.3421851427226224
-0.48320189262500435	0.347406572964458
-0.48314085746875435	0.3526507660469061
-0.48307982231250435	0.35782884741884113
-0.48301878715625435	0.3628677086609187
-0.48295775200000435	0.3677946490268115
-0.48289671684375435	0.37270830035537067
-0.48283568168750435	0.37766566967992016
-0.48277464653125435	0.3826135361358261
-0.48271361137500435	0.3874454483792446
-0.48265257621875435	0.39212258749293105
-0.48259154106250435	0.39672045688596097
-0.48253050590625435	0.401344568472744
-0.48246947075000435	0.40600827150384894
-0.48240843559375435	0.41061310873247425
-0.48234740043750435	0.41505815646501193
-0.48228636528125435	0.41935614319517345
-0.48222533012500435	0.4236219799113814
-0.48216429496875435	0.4279425047325045
-0.48210325981250435	0.432274174184626
-0.48204222465625435	0.4364881811759669
-0.48198118950000435	0.4405158446972037
-0.48192015434375435	0.44442935020976054
-0.48185911918750435	0.44836221587926794
-0.48179808403125435	0.4523562458753449
-0.48173704887500435	0.4563096564492508
-0.48167601371875435	0.4600895352405074
-0.48161497856250435	0.4636836275026
-0.48155394340625435	0.46721723212464733
-0.48149290825000435	0.4708118736950618
-0.48143187309375435	0.4744445656184422
-0.48137083793750435	0.4779700532705084
-0.48130980278125435	0.4812844682743983
-0.48124876762500435	0.48444511279712227
-0.48118773246875435	0.4876073382733062
-0.48112669731250435	0.4908473673656397
-0.48106566215625435	0.4940728369104239
-0.48100462700000435	0.4971255366695071
-0.48094359184375435	0.499961315201227
-0.48088255668750435	0.5027015540611529
-0.48082152153125435	0.5054954072067442
-0.48076048637500435	0.5083488216657563
-0.48069945121875435	0.5111162370622624
-0.48063841606250435	0.5136657326082134
-0.48057738090625435	0.5160293237309865
-0.48051634575000435	0.5183661565305109
-0.48045531059375435	0.5207803500842672
-0.48039427543750435	0.5232019366462295
-0.48033324028125435	0.5254670041298741
-0.48027220512500435	0.5275046954241533
-0.48021116996875435	0.5294167288841098
-0.48015013481250435	0.531359387622934
-0.48008909965625435	0.533364616606697
-0.48002806450000435	0.5353051201266084
-0.47996702934375435	0.5370413488627944
-0.47990599418750435	0.5385800086570446
-0.47984495903125435	0.5400632248863739
-0.47978392387500435	0.5416038638952915
-0.47972288871875435	0.543157729293464
-0.47966185356250435	0.5445773732102553
-0.47960081840625435	0.5457819662980572
-0.47953978325000435	0.5468469353417833
-0.47947874809375435	0.5479134979233168
-0.47941771293750435	0.5490261188584955
-0.47935667778125435	0.55008495771654
-0.47929564262500435	0.5509638335471436
-0.47923460746875435	0.5516541732588728
-0.47917357231250435	0.5522703458991551
-0.47911253715625435	0.5529151127568993
-0.47905150200000435	0.5535632266455196
-0.47899046684375435	0.5540949525436799
-0.47892943168750435	0.5544357512574918
-0.47886839653125435	0.5546390618377616
-0.47880736137500435	0.5548201660820883
-0.47874632621875435	0.5550223946544728
-0.47868529106250435	0.5551708153253821
-0.47862425590625435	0.5551625679786917
-0.47856322075000435	0.5549851903285942
-0.47850218559375435	0.5547268337929119
-0.47844115043750435	0.5544713124388616
-0.47838011528125435	0.5542026949699022
-0.47831908012500435	0.5538279564367268
-0.47825804496875435	0.5532866878190859
-0.47819700981250435	0.5526186921989348
-0.47813597465625435	0.5519140360212833
-0.47807493950000435	0.5512078548294604
-0.47801390434375435	0.5504427080087128
-0.47795286918750435	0.5495385910218977
-0.47789183403125435	0.5484856961184936
-0.47783079887500435	0.54735266419185
-0.47776976371875435	0.5462045494367314
-0.47770872856250435	0.5450284775349128
-0.47764769340625435	0.5437519889663123
-0.47758665825000435	0.5423290482513065
-0.47752562309375435	0.5407920177512774
-0.47746458793750435	0.5392113027676719
-0.47740355278125435	0.537612966440816
-0.47734251762500435	0.5359508282725357
-0.47728148246875435	0.5341628814264608
-0.47722044731250435	0.5322436436500941
-0.47715941215625435	0.5302484962707731
-0.47709837700000435	0.5282277007597248
-0.47703734184375435	0.5261688962315384
-0.47697630668750435	0.5240140912278343
-0.47691527153125435	0.5217287093735237
-0.47685423637500435	0.5193410132697294
-0.47679320121875435	0.5169074887992472
-0.47673216606250435	0.5144468967467366
-0.47667113090625435	0.511920296778713
-0.47661009575000435	0.5092784866778618
-0.47654906059375435	0.5065197086114385
-0.47648802543750435	0.5036905580116872
-0.47642699028125435	0.5008309124115907
-0.47636595512500435	0.49792841762385315
-0.47630491996875435	0.4949348855547018
-0.47624388481250435	0.4918236723945986
-0.47618284965625435	0.4886203732662948
-0.47612181450000435	0.4853721306051421
-0.47606077934375435	0.48209293737259085
-0.47599974418750435	0.4787489350396858
-0.47593870903125435	0.4752995083005917
-0.47587767387500435	0.4717450395742108
-0.47581663871875435	0.46812592466336445
-0.47575560356250435	0.46447533712486233
-0.47569456840625435	0.46078164225117035
-0.47563353325000435	0.4570036406967655
-0.47557249809375435	0.45311956115804464
-0.47551146293750435	0.44915232243655684
-0.47545042778125435	0.44514256474088365
-0.47538939262500435	0.44110195201522173
-0.47532835746875435	0.437001117565553
-0.47526732231250435	0.4328052182723608
-0.47520628715625435	0.4285148852813903
-0.47514525200000435	0.42416531063681157
-0.47508421684375435	0.41978560509697227
-0.47502318168750435	0.41536620116335343
-0.47496214653125435	0.41087158622126657
-0.47490111137500435	0.40628249779923425
-0.47484007621875435	0.4016183175550837
-0.47477904106250435	0.39691455490964267
-0.47471800590625435	0.3921824862064396
-0.47465697075000435	0.3873976963301306
-0.47459593559375435	0.38252983572985017
-0.47453490043750435	0.377578310169438
-0.47447386528125435	0.3725728850798506
-0.47441283012500435	0.3675395837058301
-0.47435179496875435	0.3624719214604881
-0.47429075981250435	0.3573401799172987
-0.47422972465625435	0.3521269006024666
-0.47416868950000435	0.34684720935724006
-0.47410765434375435	0.34153131762737365
-0.47404661918750435	0.336190468968665
-0.47398558403125435	0.33080570072239257
-0.47392454887500435	0.32535140373360766
-0.47386351371875435	0.3198256176588605
-0.47380247856250435	0.3142523077057541
-0.47374144340625435	0.3086540531863141
-0.47368040825000435	0.3030273927469629
-0.47361937309375435	0.2973487463852762
-0.47355833793750435	0.2916029016474498
-0.47349730278125435	0.28580081096140636
-0.47343626762500435	0.2799669783309856
-0.47337523246875435	0.2741120586971179
-0.47331419731250435	0.2682223908656593
-0.47325316215625435	0.2622775445605121
-0.47319212700000435	0.2562747687495078
-0.47313109184375435	0.25023235751097994
-0.47307005668750435	0.24416899356602795
-0.47300902153125435	0.23808352577301647
-0.47294798637500435	0.23195813557232955
-0.47288695121875435	0.22578030253344625
-0.47282591606250435	0.21955781878609326
-0.47276488090625435	0.21331006092614463
-0.47270384575000435	0.20704647749563493
-0.47264281059375435	0.20075739358668107
-0.47258177543750435	0.1944269823676431
-0.47252074028125435	0.1880525482872631
-0.47245970512500435	0.18164802021180676
-0.47239866996875435	0.17522845692517958
-0.47233763481250435	0.16879394170706336
-0.47227659965625435	0.16233122436684114
-0.47221556450000435	0.15583049172029134
-0.47215452934375435	0.14929746218990964
-0.47209349418750435	0.14274725564514001
-0.47203245903125435	0.13618790240056794
-0.47197142387500435	0.12961267535877835
-0.47191038871875435	0.12300948913353406
-0.47184935356250435	0.11637596321832258
-0.47178831840625435	0.10972279261895163
-0.47172728325000435	0.1030621175401624
-0.47166624809375435	0.09639483608659757
-0.47160521293750435	0.08971125021591157
-0.47154417778125435	0.08300363191752337
-0.47148314262500435	0.07627600927314138
-0.47142210746875435	0.06954023787819048
-0.47136107231250435	0.06280335566268232
-0.47130003715625435	0.056060946786790786
-0.47123900200000435	0.049303774163073855
-0.47117796684375435	0.04252956726817998
-0.47111693168750435	0.03574642889241028
-0.47105589653125435	0.028964386838774447
-0.47099486137500435	0.02218513834274674
-0.47093382621875435	0.01540163283244031
-0.47087279106250435	0.008607490754391645
-0.47081175590625435	0.0018052365097844083
-0.47075072075000435	-0.00499572637243783
-0.47068968559375435	-0.011788693054446006
-0.47062865043750435	-0.01857589337244898
-0.47056761528125435	-0.025364563876260904
-0.47050658012500435	-0.03215758962462896
-0.47044554496875435	-0.03894933248113145
-0.47038450981250435	-0.045731051012224806
-0.47032347465625435	-0.05249955760048652
-0.47026243950000435	-0.05925946727182134
