Time	Frequency
-0.5000267014999906	-0.5737057574892924
-0.4999656663437406	-0.5783080182480088
-0.4999046311874906	-0.5827549650158336
-0.4998435960312406	-0.5870468956328467
-0.4997825608749906	-0.5911893887996428
-0.4997215257187406	-0.5951827610584423
-0.4996604905624906	-0.5990200158446236
-0.4995994554062406	-0.6026962832410655
-0.4995384202499906	-0.6062147758968517
-0.4994773850937406	-0.6095800387238626
-0.4994163499374906	-0.6127893111623469
-0.4993553147812406	-0.61583557485747
-0.4992942796249906	-0.6187172910656128
-0.4992332444687406	-0.6214394008434835
-0.4991722093124906	-0.6240042051760121
-0.4991111741562406	-0.626406690638715
-0.4990501389999906	-0.6286414881420516
-0.4989891038437406	-0.6307102173693471
-0.4989280686874906	-0.6326177644229576
-0.4988670335312406	-0.6343636901459216
-0.4988059983749906	-0.635942315950803
-0.4987449632187406	-0.6373510089058735
-0.4986839280624906	-0.6385934468880258
-0.4986228929062406	-0.6396730128012564
-0.4985618577499906	-0.640586992417839
-0.4985008225937406	-0.6413305374518737
-0.4984397874374906	-0.6419038512306677
-0.4983787522812406	-0.6423113159091827
-0.4983177171249906	-0.6425542318104688
-0.4982566819687406	-0.6426287136462926
-0.4981956468124906	-0.6425318149660094
-0.4981346116562406	-0.6422659855879637
-0.4980735764999906	-0.6418349534691068
-0.4980125413437406	-0.641237882881514
-0.4979515061874906	-0.6404710846681747
-0.4978904710312406	-0.6395341631598884
-0.4978294358749906	-0.6384306453177591
-0.4977684007187406	-0.6371624705475563
-0.4977073655624906	-0.6357274566977771
-0.4976463304062406	-0.6341235204375717
-0.4975852952499906	-0.6323524659043361
-0.4975242600937406	-0.6304173961635722
-0.4974632249374906	-0.6283183848272016
-0.4974021897812406	-0.6260533949063986
-0.4973411546249906	-0.6236225403377915
-0.4972801194687406	-0.6210285981850904
-0.4972190843124906	-0.6182731995277095
-0.4971580491562406	-0.6153552592243297
-0.4970970139999906	-0.6122741363425934
-0.4970359788437406	-0.6090319442008386
-0.4969749436874906	-0.6056310910242425
-0.4969139085312406	-0.602071429491394
-0.4968528733749906	-0.5983520434125752
-0.4967918382187406	-0.594474486827027
-0.4967308030624906	-0.5904417101908255
-0.4966697679062406	-0.5862545322839496
-0.4966087327499906	-0.5819118542194216
-0.4965476975937406	-0.5774144091328248
-0.4964866624374906	-0.5727655432306262
-0.4964256272812406	-0.5679674409081917
-0.4963645921249906	-0.5630192177205482
-0.4963035569687406	-0.5579203570642847
-0.4962425218124906	-0.5526738945179684
-0.4961814866562406	-0.5472837313440458
-0.4961204514999906	-0.5417501281758357
-0.4960594163437406	-0.5360711772738204
-0.4959983811874906	-0.5302483667465839
-0.4959373460312406	-0.5242868697516246
-0.4958763108749906	-0.5181895787892689
-0.4958152757187406	-0.5119545939383272
-0.4957542405624906	-0.5055806668328806
-0.4956932054062406	-0.4990719810028707
-0.4956321702499906	-0.49243419045017517
-0.4955711350937406	-0.48566781363551875
-0.4955100999374906	-0.4787698535947906
-0.4954490647812406	-0.47174145649677907
-0.4953880296249906	-0.464589229557965
-0.4953269944687406	-0.45731754390574103
-0.4952659593124906	-0.44992416350766584
-0.4952049241562406	-0.44240674352230186
-0.4951438889999906	-0.4347698224664172
-0.4950828538437406	-0.42702076479183554
-0.4950218186874906	-0.4191609839197468
-0.4949607835312406	-0.41118669734075375
-0.4948997483749906	-0.40309835964132545
-0.4948387132187406	-0.3949034640495462
-0.4947776780624906	-0.38660767906345483
-0.4947166429062406	-0.3782087480105947
-0.4946556077499906	-0.3697035884791874
-0.4945945725937406	-0.36109706296464505
-0.4945335374374906	-0.35239780526140957
-0.4944725022812406	-0.34360767051254176
-0.4944114671249906	-0.33472201276587155
-0.4943504319687406	-0.3257408204428205
-0.4942893968124906	-0.3166728090774807
-0.4942283616562406	-0.3075253516273849
-0.4941673264999906	-0.2982962481280193
-0.4941062913437406	-0.2889808709619136
-0.4940452561874906	-0.2795835225278901
-0.4939842210312406	-0.270114496743243
-0.4939231858749906	-0.26057710727637073
-0.4938621507187406	-0.2509660333993428
-0.4938011155624906	-0.24128017725859968
-0.4937400804062406	-0.23152874987559602
-0.4936790452499906	-0.22172034365471593
-0.4936180100937406	-0.21185287598858935
-0.4935569749374906	-0.20192093639547773
-0.4934959397812406	-0.19192888225808283
-0.4934349046249906	-0.1818882705024667
-0.4933738694687406	-0.1718032300006122
-0.4933128343124906	-0.16166763388774086
-0.4932517991562406	-0.15147927140339806
-0.4931907639999906	-0.14124793022582968
-0.4931297288437406	-0.13098383681159112
-0.4930686936874906	-0.12068525573676132
-0.4930076585312406	-0.11034560591540082
-0.4929466233749906	-0.0999686518801511
-0.4928855882187406	-0.08956692330872701
-0.4928245530624906	-0.07914554451807153
-0.4927635179062406	-0.06869795976895636
-0.4927024827499906	-0.058221110189028105
-0.4926414475937406	-0.04772522825585991
-0.4925804124374906	-0.03722168777395367
-0.4925193772812406	-0.026708575477425063
-0.4924583421249906	-0.016178004442367458
-0.4923973069687406	-0.005633658809751077
-0.4923362718124906	0.004910502123157953
-0.4922752366562406	0.015448638082097775
-0.4922142014999906	0.02598808657163577
-0.4921531663437406	0.03653280769498807
-0.4920921311874906	0.047072456155999906
-0.4920310960312406	0.057594773974483086
-0.4919700608749906	0.06810119697326167
-0.4919090257187406	0.07860017453126429
-0.4918479905624906	0.08908867355358648
-0.4917869554062406	0.09955232534037438
-0.4917259202499906	0.10998462762732299
-0.4916648850937406	0.12039342833954848
-0.4916038499374906	0.1307834301038908
-0.4915428147812406	0.14114375552910335
-0.4914817796249906	0.1514614061880634
-0.4914207444687406	0.16173843098941992
-0.4913597093124906	0.1719843339310839
-0.4912986741562406	0.18219582801541762
-0.4912376389999906	0.1923574493629377
-0.4911766038437406	0.2024625948641719
-0.4911155686874906	0.2125202127324519
-0.4910545335312406	0.22253571294325092
-0.4909934983749906	0.2324975401442222
-0.4909324632187406	0.24239176645826216
-0.4908714280624906	0.2522209136840138
-0.4908103929062406	0.26199582556775336
-0.4907493577499906	0.27171336264134616
-0.4906883225937406	0.28135681337812146
-0.4906272874374906	0.2909191987604753
-0.4905662522812406	0.3004110761683108
-0.4905052171249906	0.3098392974946532
-0.4904441819687406	0.3191913676942957
-0.4903831468124906	0.3284515208697208
-0.4903221116562406	0.3376226727941986
-0.4902610764999906	0.3467178952477112
-0.4902000413437406	0.3557347802770194
-0.4901390061874906	0.3646550819582751
-0.4900779710312406	0.37347089319737276
-0.4900169358749906	0.38219423621176984
-0.4899559007187406	0.3908335871511045
-0.4898948655624906	0.39937569284151797
-0.4898338304062406	0.4078032298592733
-0.4897727952499906	0.41611991215754635
-0.4897117600937406	0.4243412542598673
-0.4896507249374906	0.43246520855499426
-0.4895896897812406	0.4404712483092051
-0.4895286546249906	0.4483505098253271
-0.4894676194687406	0.45611748167969085
-0.4894065843124906	0.4637829828371847
-0.4893455491562406	0.4713324839669839
-0.4892845139999906	0.4787462949549469
-0.4892234788437406	0.48602905244934586
-0.4891624436874906	0.4931993541825721
-0.4891014085312406	0.5002557213980917
-0.4890403733749906	0.5071751881558489
-0.4889793382187406	0.5139478865248429
-0.4889183030624906	0.5205908315752873
-0.4888572679062406	0.5271171394056298
-0.4887962327499906	0.5335109915557591
-0.4887351975937406	0.539750548064053
-0.4886741624374906	0.5458415990686764
-0.4886131272812406	0.5518057813455436
-0.4885520921249906	0.5576419163083207
-0.4884910569687406	0.5633245371041631
-0.4884300218124906	0.5688432117303746
-0.4883689866562406	0.5742179023953612
-0.4883079514999906	0.5794638097693824
-0.4882469163437406	0.584563253756857
-0.4881858811874906	0.5894920422796028
-0.4881248460312406	0.5942576254587448
-0.4880638108749906	0.5988853391121499
-0.4880027757187406	0.6033742428356953
-0.4879417405624906	0.6076956723599439
-0.4878807054062406	0.6118383792988628
-0.4878196702499906	0.615826071113429
-0.4877586350937406	0.619676858737714
-0.4876975999374906	0.6233706943312805
-0.4876365647812406	0.6268798596007141
-0.4875755296249906	0.6302135645140048
-0.4875144944687406	0.6334022515170958
-0.4874534593124906	0.636445743390776
-0.4873924241562406	0.6393108643106714
-0.4873313889999906	0.6419843121780667
-0.4872703538437406	0.6444943328922791
-0.4872093186874906	0.6468638094008815
-0.4871482835312406	0.6490705709574416
-0.4870872483749906	0.6510815100847438
-0.4870262132187406	0.652906423162095
-0.4869651780624906	0.6545824783487847
-0.4869041429062406	0.6561124043805542
-0.4868431077499906	0.6574575535243503
-0.4867820725937406	0.658599705080414
-0.4867210374374906	0.6595716493134184
-0.4866600022812406	0.6604043678685592
-0.4865989671249906	0.6610749527477575
-0.4865379319687406	0.661541685528994
-0.4864768968124906	0.6618119262216974
-0.4864158616562406	0.6619318586539347
-0.4863548264999906	0.6619116539583823
-0.4862937913437406	0.6617068760856277
-0.4862327561874906	0.6612892387355344
-0.4861717210312406	0.6606939212603522
-0.4861106858749906	0.6599645370070543
-0.4860496507187406	0.6590819579388865
-0.4859886155624906	0.6579932379821365
-0.4859275804062406	0.6566972261354159
-0.4858665452499906	0.6552489194777514
-0.4858055100937406	0.6536723561991267
-0.4857444749374906	0.6519207971639823
-0.4856834397812406	0.6499507377080748
-0.4856224046249906	0.6477932511841008
-0.4855613694687406	0.6455067373598021
-0.4855003343124906	0.6430841207630539
-0.4854392991562406	0.6404633729619036
-0.4853782639999906	0.63762696069822
-0.4853172288437406	0.6346319982050672
-0.4852561936874906	0.6315211685712887
-0.4851951585312406	0.6282552997995525
-0.4851341233749906	0.6247760796269475
-0.4850730882187406	0.6211001831622959
-0.4850120530624906	0.6172946313868953
-0.4849510179062406	0.6133718789605181
-0.4848899827499906	0.6092714573626821
-0.4848289475937406	0.6049573958151451
-0.4847679124374906	0.6004765712920607
-0.4847068772812406	0.5958858218230046
-0.4846458421249906	0.5911640577412672
-0.4845848069687406	0.5862482203976546
-0.4845237718124906	0.5811348228815779
-0.4844627366562406	0.5758862282837222
-0.4844017014999906	0.5705335538917409
-0.4843406663437406	0.5650308155817634
-0.4842796311874906	0.5593309841667056
-0.4842185960312406	0.5534616222527768
-0.4841575608749906	0.5474818101180652
-0.4840965257187406	0.5413913905697104
-0.4840354905624906	0.5351357180150659
-0.4839744554062406	0.5286950580503743
-0.4839134202499906	0.5221162094595694
-0.4838523850937406	0.5154395096477349
-0.4837913499374906	0.508639199317807
-0.4837303147812406	0.5016691320366753
-0.4836692796249906	0.49453794426761866
-0.4836082444687406	0.4872957247775337
-0.4835472093124906	0.47995721025019245
-0.4834861741562406	0.4724836778348518
-0.4834251389999906	0.4648485180027496
-0.4833641038437406	0.45708056763198485
-0.4833030686874906	0.44921955713822925
-0.4832420335312406	0.4412574434248853
-0.4831809983749906	0.43315667853094686
-0.4831199632187406	0.4249127996909748
-0.4830589280624906	0.416562526452997
-0.4829978929062406	0.4081280460505618
-0.4829368577499906	0.3995870670325135
-0.4828758225937406	0.3909131326660868
-0.4828147874374906	0.3821198534105606
-0.4827537522812406	0.3732410115484795
-0.4826927171249906	0.3642809961211538
-0.4826316819687406	0.35521341217448105
-0.4825706468124906	0.3460271030034079
-0.4825096116562406	0.33674591056610426
-0.4824485764999906	0.327393602801352
-0.4823875413437406	0.3179613007146884
-0.4823265061874906	0.30842673568513945
-0.4822654710312406	0.29879247819241533
-0.4822044358749906	0.2890839769803259
-0.4821434007187406	0.2793132469531783
-0.4820823655624906	0.26946563743727076
-0.4820213304062406	0.25952788645805963
-0.4819602952499906	0.24951188554052095
-0.4818992600937406	0.23943876696607855
-0.4818382249374906	0.22931038380405855
-0.4817771897812406	0.21911185570237587
-0.4817161546249906	0.20883889755438198
-0.4816551194687406	0.19850726798359788
-0.4815940843124906	0.1881318104192946
-0.4815330491562406	0.1777086822896235
-0.4814720139999906	0.16722652812550962
-0.4814109788437406	0.15668761898179934
-0.4813499436874906	0.14610742783448966
-0.4812889085312406	0.13549511791232752
-0.4812278733749906	0.1248447732478216
-0.4811668382187406	0.1141492071312228
-0.4811058030624906	0.103414429293309
-0.4810447679062406	0.09265385255196695
-0.4809837327499906	0.08187247432466396
-0.4809226975937406	0.07106451618761497
-0.4808616624374906	0.060226466387495896
-0.4808006272812406	0.04936570442708031
-0.4807395921249906	0.03849331210848868
-0.4806785569687406	0.02761238902909768
-0.4806175218124906	0.016718128832054733
-0.4805564866562406	0.005809099028665634
-0.4804954514999906	-0.005106563559950879
-0.4804344163437406	-0.01601905027941908
-0.4803733811874906	-0.02692706669868268
-0.4803123460312406	-0.03783552701670604
-0.4802513108749906	-0.04874436267032459
-0.4801902757187406	-0.059644451422043644
-0.4801292405624906	-0.07052662908368929
-0.4800682054062406	-0.08139091004321151
-0.4800071702499906	-0.09224228825826651
-0.4799461350937406	-0.10307906910661072
-0.4798850999374906	-0.11389101941851984
-0.4798240647812406	-0.12467044369882874
-0.4797630296249906	-0.1354196552909815
-0.4797019944687406	-0.14614324712820131
-0.4796409593124906	-0.15683678576804097
-0.4795799241562406	-0.16748916973229125
-0.4795188889999906	-0.17809519514675004
-0.4794578538437406	-0.18865927390469522
-0.4793968186874906	-0.19918446022636502
-0.4793357835312406	-0.2096634624775163
-0.4792747483749906	-0.22008552015840332
-0.4792137132187406	-0.23044868517669095
-0.4791526780624906	-0.24075859153180004
-0.4790916429062406	-0.2510155383647339
-0.4790306077499906	-0.26120986568100074
-0.4789695725937406	-0.2713328731492828
-0.4789085374374906	-0.28138611159378896
-0.4788475022812406	-0.29137454887709385
-0.4787864671249906	-0.30129470022769833
-0.4787254319687406	-0.31113610941076136
-0.4786643968124906	-0.3208934959911899
-0.4786033616562406	-0.33057078672280393
-0.4785423264999906	-0.3401709102936369
-0.4784812913437406	-0.3496873066299678
-0.4784202561874906	-0.35911038255664735
-0.4783592210312406	-0.3684386275801893
-0.4782981858749906	-0.37767695445069766
-0.4782371507187406	-0.38682505327336425
-0.4781761155624906	-0.39587405791652697
-0.4781150804062406	-0.4048165691365826
-0.4780540452499906	-0.4136542778078336
-0.4779930100937406	-0.42239153494287945
-0.4779319749374906	-0.4310250605211876
-0.4778709397812406	-0.43954563130921065
-0.4778099046249906	-0.44794893471595965
-0.4777488694687406	-0.4562386381122977
-0.4776878343124906	-0.4644169762574906
-0.4776267991562406	-0.4724777715792277
-0.4775657639999906	-0.4804128526734315
-0.4775047288437406	-0.48822155422703833
-0.4774436936874906	-0.49590826743132305
-0.4773826585312406	-0.5034721420880935
-0.4773216233749906	-0.5109053045881006
-0.4772605882187406	-0.5182022325840226
-0.4771995530624906	-0.5253652654553083
-0.4771385179062406	-0.5323976590275472
-0.4770774827499906	-0.5392954751463503
-0.4770164475937406	-0.5460509955375658
-0.4769554124374906	-0.5526619293841173
-0.4768943772812406	-0.5591319181162145
-0.4768333421249906	-0.5654618603246332
-0.4767723069687406	-0.5716459392066447
-0.4767112718124906	-0.5776783524294319
-0.4766502366562406	-0.58355974293624
-0.4765892014999906	-0.5892933784447671
-0.4765281663437406	-0.5948775211518099
-0.4764671311874906	-0.6003058984085783
-0.4764060960312406	-0.6055751827371836
-0.4763450608749906	-0.6106877264730034
-0.4762840257187406	-0.6156455345425279
-0.4762229905624906	-0.6204450968770671
-0.4761619554062406	-0.6250810380702122
-0.4761009202499906	-0.62955252841368
-0.4760398850937406	-0.6338622972161898
-0.4759788499374906	-0.6380101828166111
-0.4759178147812406	-0.6419917232591034
-0.4758567796249906	-0.6458037104352051
-0.4757957444687406	-0.6494474291866412
-0.4757347093124906	-0.6529246346850043
-0.4756736741562406	-0.6562332011830465
-0.4756126389999906	-0.6593692891442581
-0.4755516038437406	-0.6623320542134333
-0.4754905686874906	-0.6651233037667718
-0.4754295335312406	-0.6677430874738124
-0.4753684983749906	-0.670188567062123
-0.4753074632187406	-0.6724577044424387
-0.4752464280624906	-0.6745513901829664
-0.4751853929062406	-0.6764706431136851
-0.4751243577499906	-0.6782138995701644
-0.4750633225937406	-0.679778938348353
-0.4750022874374906	-0.681165892361327
-0.4749412522812406	-0.6823760994274094
-0.4748802171249906	-0.6834089237026363
-0.4748191819687406	-0.6842622188642125
-0.4747581468124906	-0.6849356467668619
-0.4746971116562406	-0.6854309177771134
-0.4746360764999906	-0.6857483611871525
-0.4745750413437406	-0.6858858474552061
-0.4745140061874906	-0.6858421988762482
-0.4744529710312406	-0.6856192853309189
-0.4743919358749906	-0.6852189262336978
-0.4743309007187406	-0.684639654247706
-0.4742698655624906	-0.6838790559234095
-0.4742088304062406	-0.6829381240582546
-0.4741477952499906	-0.681820188131837
-0.4740867600937406	-0.6805256908683014
-0.4740257249374906	-0.6790514977911354
-0.4739646897812406	-0.6773964408328845
-0.4739036546249906	-0.6755641118099963
-0.4738426194687406	-0.6735578508475929
-0.4737815843124906	-0.6713758253432975
-0.4737205491562406	-0.6690145572197301
-0.4736595139999906	-0.666475553677635
-0.4735984788437406	-0.6637640631995612
-0.4735374436874906	-0.6608815338618568
-0.4734764085312406	-0.6578240561330942
-0.4734153733749906	-0.6545898060374646
-0.4733543382187406	-0.651183557930601
-0.4732933030624906	-0.6476104671202111
-0.4732322679062406	-0.6438689159602559
-0.4731712327499906	-0.6399543301026954
-0.4731101975937406	-0.6358681466933728
-0.4730491624374906	-0.6316173634656415
-0.4729881272812406	-0.6272049873820346
-0.4729270921249906	-0.6226267365036035
-0.4728660569687406	-0.6178797517262051
-0.4728050218124906	-0.6129693009161752
-0.4727439866562406	-0.6079022341439589
-0.4726829514999906	-0.6026776556808333
-0.4726219163437406	-0.597290272870669
-0.4725608811874906	-0.5917413402678486
-0.4724998460312406	-0.5860392113112445
-0.4724388108749906	-0.5801882097994399
-0.4723777757187406	-0.5741838848605131
-0.4723167405624906	-0.5680225205806085
-0.4722557054062406	-0.561709710759735
-0.4721946702499906	-0.5552540396003687
-0.4721336350937406	-0.5486557229482893
-0.4720725999374906	-0.5419087483427723
-0.4720115647812406	-0.535013528339393
-0.4719505296249906	-0.5279793929410388
-0.4718894944687406	-0.5208123096571812
-0.4718284593124906	-0.5135078349988662
-0.4717674241562406	-0.5060612758391964
-0.4717063889999906	-0.4984786560558247
-0.4716453538437406	-0.49077033093832534
-0.4715843186874906	-0.48293729751022846
-0.4715232835312406	-0.4749726176570643
-0.4714622483749906	-0.46687607024759087
-0.4714012132187406	-0.458658087928905
-0.4713401780624906	-0.4503261589393003
-0.4712791429062406	-0.44187588822964435
-0.4712181077499906	-0.4333016698677825
-0.4711570725937406	-0.4246096925401995
-0.4710960374374906	-0.41581179367913657
-0.4710350022812406	-0.40690984890670157
-0.4709739671249906	-0.397896234685322
-0.4709129319687406	-0.38877001185205795
-0.4708518968124906	-0.3795424611522817
-0.4707908616562406	-0.37022263855527876
-0.4707298264999906	-0.36080643479310887
-0.4706687913437406	-0.3512872114328933
-0.4706077561874906	-0.3416709050287716
-0.4705467210312406	-0.3319706531249793
-0.4704856858749906	-0.32218916437726214
-0.4704246507187406	-0.31231804662391627
-0.4703636155624906	-0.30235593627454244
-0.4703025804062406	-0.2923153737843607
-0.4702415452499906	-0.28220662714508543
-0.4701805100937406	-0.2720251638676786
-0.4701194749374906	-0.26176343317608847
-0.4700584397812406	-0.25142765960010605
-0.4699974046249906	-0.24103213951583718
-0.4699363694687406	-0.23058019885962566
-0.4698753343124906	-0.22006306474134943
-0.4698142991562406	-0.2094788641062898
-0.4697532639999906	-0.19884056720944515
-0.4696922288437406	-0.18815928482919067
-0.4696311936874906	-0.1774303052581746
-0.4695701585312406	-0.16664544158513195
-0.4695091233749906	-0.15581142994337593
