Time	Frequency
-0.500028310468764	-0.22250440597284704
-0.49996727531251395	-0.2319948643061798
-0.49990624015626395	-0.2414306305799663
-0.49984520500001395	-0.2508144955012601
-0.49978416984376395	-0.2601443755843931
-0.49972313468751395	-0.26941315384502373
-0.49966209953126395	-0.27861646097682713
-0.49960106437501395	-0.28775577119069734
-0.49954002921876395	-0.2968322072292504
-0.49947899406251395	-0.305841330029964
-0.49941795890626395	-0.31477686831226054
-0.49935692375001395	-0.3236370094475872
-0.49929588859376395	-0.3324235677117468
-0.49923485343751395	-0.3411357214045552
-0.49917381828126395	-0.34976806636303776
-0.49911278312501395	-0.35831579285225373
-0.49905174796876395	-0.36677869704222776
-0.49899071281251395	-0.3751579103876989
-0.49892967765626395	-0.38345088971073177
-0.49886864250001395	-0.39165240676830543
-0.49880760734376395	-0.39975958426515484
-0.49874657218751395	-0.407773054991982
-0.49868553703126395	-0.41569264507986964
-0.49862450187501395	-0.42351461928894896
-0.49856346671876395	-0.4312346755647483
-0.49850243156251395	-0.43885157311719825
-0.49844139640626395	-0.44636581443031936
-0.49838036125001395	-0.453775808651681
-0.49831932609376395	-0.4610775469248746
-0.49825829093751395	-0.46826808498462774
-0.49819725578126395	-0.47534719825475275
-0.49813622062501395	-0.4823147506244892
-0.49807518546876395	-0.4891682083614269
-0.49801415031251395	-0.4959041217650952
-0.49795311515626395	-0.502520858156945
-0.49789208000001395	-0.5090182757945978
-0.49783104484376395	-0.5153952612060706
-0.49777000968751395	-0.5216491026627705
-0.49770897453126395	-0.5277773420292388
-0.49764793937501395	-0.53377903127988
-0.49758690421876395	-0.5396536179723749
-0.49752586906251395	-0.5453994262078757
-0.49746483390626395	-0.5510140878652573
-0.49740379875001395	-0.5564960563853156
-0.49734276359376395	-0.5618447346977021
-0.49728172843751395	-0.5670591369664696
-0.49722069328126395	-0.572137342267622
-0.49715965812501395	-0.577077541157001
-0.49709862296876395	-0.5818788293814348
-0.49703758781251395	-0.5865404716743567
-0.49697655265626395	-0.5910610492002797
-0.49691551750001395	-0.5954389720875554
-0.49685448234376395	-0.5996733089921342
-0.49679344718751395	-0.6037634226754276
-0.49673241203126395	-0.6077081358941654
-0.49667137687501395	-0.6115059479206811
-0.49661034171876395	-0.6151559144031421
-0.49654930656251395	-0.6186576264672792
-0.49648827140626395	-0.6220102574207935
-0.49642723625001395	-0.6252123149053451
-0.49636620109376395	-0.6282626484396224
-0.49630516593751395	-0.6311610437924119
-0.49624413078126395	-0.6339072662365454
-0.49618309562501395	-0.6365000972886834
-0.49612206046876395	-0.6389381144465903
-0.49606102531251395	-0.6412210052293869
-0.49599999015626395	-0.6433490922502535
-0.49593895500001395	-0.6453217155336042
-0.49587791984376395	-0.6471372633797748
-0.49581688468751395	-0.6487949778728284
-0.49575584953126395	-0.6502954864665599
-0.49569481437501395	-0.6516390131277561
-0.49563377921876395	-0.652824225395952
-0.49557274406251395	-0.6538497479583396
-0.49551170890626395	-0.6547159112713049
-0.49545067375001395	-0.6554237715947113
-0.49538963859376395	-0.6559728976116783
-0.49532860343751395	-0.6563616060613459
-0.49526756828126395	-0.6565894079077608
-0.49520653312501395	-0.6566576576931095
-0.49514549796876395	-0.6565671963674886
-0.49508446281251395	-0.6563167896832487
-0.49502342765626395	-0.6559050262786779
-0.49496239250001395	-0.6553326746191578
-0.49490135734376395	-0.654601589428617
-0.49484032218751395	-0.6537118014871209
-0.49477928703126395	-0.6526615495484418
-0.49471825187501395	-0.6514503895226743
-0.49465721671876395	-0.6500803640826046
-0.49459618156251395	-0.6485531552008673
-0.49453514640626395	-0.6468677246552488
-0.49447411125001395	-0.6450224115686812
-0.49441307609376395	-0.6430182790790888
-0.49435204093751395	-0.6408581689805563
-0.49429100578126395	-0.6385427684959718
-0.49422997062501395	-0.636070149292404
-0.49416893546876395	-0.6334397315876168
-0.49410790031251395	-0.6306542110449428
-0.49404686515626395	-0.6277161500856525
-0.49398583000001395	-0.6246247287858212
-0.49392479484376395	-0.6213780755479877
-0.49386375968751395	-0.6179775367844201
-0.49380272453126395	-0.6144268795148894
-0.49374168937501395	-0.6107274725511854
-0.49368065421876395	-0.6068772281288298
-0.49361961906251395	-0.6028753073692568
-0.49355858390626395	-0.5987250760867229
-0.49349754875001395	-0.5944302412504685
-0.49343651359376395	-0.589990246613356
-0.49337547843751395	-0.5854026310876667
-0.49331444328126395	-0.5806688308955271
-0.49325340812501395	-0.5757938769786138
-0.49319237296876395	-0.5707800834316692
-0.49313133781251395	-0.5656249332889536
-0.49307030265626395	-0.5603269362008921
-0.49300926750001395	-0.5548901620129395
-0.49294823234376395	-0.5493198540823675
-0.49288719718751395	-0.5436159141722101
-0.49282616203126395	-0.5377749874663195
-0.49276512687501395	-0.5317981102202342
-0.49270409171876395	-0.5256914742896491
-0.49264305656251395	-0.519458783335929
-0.49258202140626395	-0.5130974413063419
-0.49252098625001395	-0.5066050143037935
-0.49245995109376395	-0.49998581265316405
-0.49239891593751395	-0.49324664778885435
-0.49233788078126395	-0.4863882756157682
-0.49227684562501395	-0.47940655330941107
-0.49221581046876395	-0.4723018026794154
-0.49215477531251395	-0.4650812939364391
-0.49209374015626395	-0.4577504039498502
-0.49203270500001395	-0.4503064551542681
-0.49197166984376395	-0.4427456391348375
-0.49191063468751395	-0.4350722245599758
-0.49184959953126395	-0.42729482502633814
-0.49178856437501395	-0.4194154027226892
-0.49172752921876395	-0.41142891964549944
-0.49166649406251395	-0.403334529015743
-0.49160545890626395	-0.3951403314705836
-0.49154442375001395	-0.38685359952997117
-0.49148338859376395	-0.37847195030290237
-0.49142235343751395	-0.369990155117909
-0.49136131828126395	-0.3614120357852922
-0.49130028312501395	-0.3527480174692818
-0.49123924796876395	-0.3440017152334673
-0.49117821281251395	-0.33516710136973643
-0.49111717765626395	-0.32624142745614765
-0.49105614250001395	-0.31723338059275313
-0.49099510734376395	-0.30815285788482144
-0.49093407218751395	-0.2989983838188235
-0.49087303703126395	-0.289762711362334
-0.49081200187501395	-0.2804481683053986
-0.49075096671876395	-0.27106692737593097
-0.49068993156251395	-0.26162512261240206
-0.49062889640626395	-0.2521162883103724
-0.49056786125001395	-0.24253526733103817
-0.49050682609376395	-0.2328905431587788
-0.49044579093751395	-0.22319467041820448
-0.49038475578126395	-0.21344764806565583
-0.49032372062501395	-0.20364027595430123
-0.49026268546876395	-0.19377282316364705
-0.49020165031251395	-0.18385900743249337
-0.49014061515626395	-0.17390806724892305
-0.49007958000001395	-0.16391331552537564
-0.49001854484376395	-0.15386628655507031
-0.48995750968751395	-0.14377454491172803
-0.48989647453126395	-0.1336540843256797
-0.48983543937501395	-0.12350759834991558
-0.48977440421876395	-0.11332362874335901
-0.48971336906251395	-0.10309874963473803
-0.48965233390626395	-0.09284749520800668
-0.48959129875001395	-0.08258340978296141
-0.48953026359376395	-0.0723009699438536
-0.48946922843751395	-0.06198800225891854
-0.48940819328126395	-0.05164951459576447
-0.48934715812501395	-0.04130445760531136
-0.48928612296876395	-0.03095957713386271
-0.48922508781251395	-0.02060190300182009
-0.48916405265626395	-0.010222975914455274
-0.48910301750001395	0.00016303004948285755
-0.48904198234376395	0.010537027567136694
-0.48898094718751395	0.02090161772023832
-0.48891991203126395	0.031273823733874155
-0.48885887687501395	0.04165398084313857
-0.48879784171876395	0.0520201327059035
-0.48873680656251395	0.062358423306843914
-0.48867577140626395	0.07268198638088952
-0.48861473625001395	0.08300691062737182
-0.48855370109376395	0.09332191532663643
-0.48849266593751395	0.10360087896343582
-0.48843163078126395	0.11384046837651388
-0.48837059562501395	0.12406298086900763
-0.48830956046876395	0.13427750518127948
-0.48824852531251395	0.14445999735774637
-0.48818749015626395	0.15458612747433925
-0.48812645500001395	0.16466696726189173
-0.48806541984376395	0.17472926566659652
-0.48800438468751395	0.18476867793150592
-0.48794334953126395	0.19475063751777189
-0.48788231437501395	0.20466073033809884
-0.48782127921876395	0.21452564792958623
-0.48776024406251395	0.2243684141752285
-0.48769920890626395	0.2341664587455734
-0.48763817375001395	0.24388131704678526
-0.48757713859376395	0.2535164057605207
-0.48751610343751395	0.26311033426368186
-0.48745506828126395	0.2726723035648914
-0.48739403312501395	0.28216120124805794
-0.48733299796876395	0.2915454023244917
-0.48727196281251395	0.30085110045248176
-0.48721092765626395	0.31011970651921217
-0.48714989250001395	0.31933785660172587
-0.48708885734376395	0.3284519967839165
-0.48702782218751395	0.33744894967692074
-0.48696678703126395	0.34637593251201454
-0.48690575187501395	0.35526409701786854
-0.48684471671876395	0.3640736378683171
-0.48678368156251395	0.3727504742319165
-0.48672264640626395	0.381309070452275
-0.48666161125001395	0.389809166917591
-0.48660057609376395	0.3982587247207702
-0.48653954093751395	0.406595538642244
-0.48647850578126395	0.4147802851196137
-0.48641747062501395	0.422856695489156
-0.48635643546876395	0.43088159520822333
-0.48629540031251395	0.4388318719283008
-0.48623436515626395	0.4466356939033295
-0.48617333000001395	0.4542817695000178
-0.48611229484376395	0.4618353634577182
-0.48605125968751395	0.4693339010271435
-0.48599022453126395	0.47672485396026176
-0.48592918937501395	0.48394424498970456
-0.48586815421876395	0.4910137474429776
-0.48580711906251395	0.49800415576935747
-0.48574608390626395	0.504922147843567
-0.48568504875001395	0.5116975374177857
-0.48562401359376395	0.5182903767306677
-0.48556297843751395	0.5247498710063879
-0.48550194328126395	0.5311340304472725
-0.48544090812501395	0.5374172351931639
-0.48537987296876395	0.5435293877109044
-0.48531883781251395	0.5494628289689784
-0.48525780265626395	0.5552798122174317
-0.48519676750001395	0.561012057146715
-0.48513573234376395	0.5666108843645431
-0.48507469718751395	0.5720229418657646
-0.48501366203126395	0.577270123146154
-0.48495262687501395	0.5824104928130219
-0.48489159171876395	0.5874454626780359
-0.48483055656251395	0.5923184594473037
-0.48476952140626395	0.5970027469926108
-0.48470848625001395	0.60153888906915
-0.48464745109376395	0.6059669120587418
-0.48458641593751395	0.6102631740335505
-0.48452538078126395	0.6143787182982088
-0.48446434562501395	0.6183143017563474
-0.48440331046876395	0.6221145266252147
-0.48434227531251395	0.6257949714511194
-0.48428124015626395	0.6293186253882139
-0.48422020500001395	0.6326548209743108
-0.48415916984376395	0.6358246415482659
-0.48409813468751395	0.6388636962714338
-0.48403709953126395	0.6417649513986506
-0.48397606437501395	0.6444911455137534
-0.48391502921876395	0.6470332397047999
-0.48385399406251395	0.6494215624775564
-0.48379295890626395	0.6516752573893795
-0.48373192375001395	0.6537722460214866
-0.48367088859376395	0.6556851616391683
-0.48360985343751395	0.6574234391620974
-0.48354881828126395	0.65901566123482
-0.48348778312501395	0.6604631096293289
-0.48342674796876395	0.6617386272997434
-0.48336571281251395	0.6628300831387286
-0.48330467765626395	0.663758048642177
-0.48324364250001395	0.6645413699176814
-0.48318260734376395	0.6651672768211991
-0.48312157218751395	0.6656126271777267
-0.48306053703126395	0.665880430172636
-0.48299950187501395	0.6659936800805856
-0.48293846671876395	0.6659581988458239
-0.48287743156251395	0.6657541849200062
-0.48281639640626395	0.6653684265168844
-0.48275536125001395	0.6648147733627358
-0.48269432609376395	0.6641112694055245
-0.48263329093751395	0.663251843141602
-0.48257225578126395	0.6622171906359166
-0.48251122062501395	0.6610059305667585
-0.48245018546876395	0.6596362843226234
-0.48238915031251395	0.6581170457397639
-0.48232811515626395	0.6564347474716447
-0.48226708000001395	0.6545763725830105
-0.48220604484376395	0.6525503389424423
-0.48214500968751395	0.6503729407893936
-0.48208397453126395	0.648043164457993
-0.48202293937501395	0.6455459368059113
-0.48196190421876395	0.6428773556455037
-0.48190086906251395	0.6400512294387725
-0.48183983390626395	0.6370775005661722
-0.48177879875001395	0.6339478314874715
-0.48171776359376395	0.6306507693995207
-0.48165672843751395	0.6271912137113704
-0.48159569328126395	0.6235832093202365
-0.48153465812501395	0.6198285874962327
-0.48147362296876395	0.6159158802373633
-0.48141258781251395	0.6118405088305803
-0.48135155265626395	0.6076134037379356
-0.48129051750001395	0.6032446759138054
-0.48122948234376395	0.5987291403926086
-0.48116844718751395	0.5940566888680363
-0.48110741203126395	0.589230298051991
-0.48104637687501395	0.5842628499686175
-0.48098534171876395	0.5791582703636555
-0.48092430656251395	0.5739073401463697
-0.48086327140626395	0.5685046351317807
-0.48080223625001395	0.5629592004103727
-0.48074120109376395	0.5572820634774557
-0.48068016593751395	0.5514708514390977
-0.48061913078126395	0.5455159499913028
-0.48055809562501395	0.5394181055467513
-0.48049706046876395	0.5331894267684675
-0.48043602531251395	0.5268364273051215
-0.48037499015626395	0.5203522277803033
-0.48031395500001395	0.5137301184648161
-0.48025291984376395	0.506976681974703
-0.48019188468751395	0.5001037733727468
-0.48013084953126395	0.49311241840584097
-0.48006981437501395	0.4859941125023609
-0.48000877921876395	0.4787470495706794
-0.47994774406251395	0.47138151194055533
-0.47988670890626395	0.46390629807839556
-0.47982567375001395	0.4563179324155753
-0.47976463859376395	0.4486094452931324
-0.47970360343751395	0.4407843016344755
-0.47964256828126395	0.43285352753250134
-0.47958153312501395	0.42482122083170454
-0.47952049796876395	0.41668148916370473
-0.47945946281251395	0.4084311353875376
-0.47939842765626395	0.4000777622509814
-0.47933739250001395	0.3916308194966449
-0.47927635734376395	0.3830901081144182
-0.47921532218751395	0.37444973266720893
-0.47915428703126395	0.3657107302136258
-0.47909325187501395	0.3568823802999563
-0.47903221671876395	0.34797072474700025
-0.47897118156251395	0.3389727702623435
-0.47891014640626395	0.3298851434050647
-0.47884911125001395	0.3207129953337784
-0.47878807609376395	0.31146517626603987
-0.47872704093751395	0.30214376975769736
-0.47866600578126395	0.2927446115455631
-0.47860497062501395	0.28326768773674915
-0.47854393546876395	0.27372076577077487
-0.47848290031251395	0.26411068263169174
-0.47842186515626395	0.254436394655658
-0.47836083000001395	0.24469470807344146
-0.47829979484376395	0.23488920583692727
-0.47823875968751395	0.2250281435108116
-0.47817772453126395	0.2151150916025958
-0.47811668937501395	0.2051474077973412
-0.47805565421876395	0.19512453745090294
-0.47799461906251395	0.18505270645883945
-0.47793358390626395	0.17493889408761887
-0.47787254875001395	0.1647838512426487
-0.47781151359376395	0.1545851022367288
-0.47775047843751395	0.1443449532073539
-0.47768944328126395	0.13407072213640314
-0.47762840812501395	0.12376713850788966
-0.47756737296876395	0.11343317506515203
-0.47750633781251395	0.103067947779758
-0.47744530265626395	0.09267607049348224
-0.47738426750001395	0.08226429132989899
-0.47732323234376395	0.07183499630620344
-0.47726219718751395	0.06138673046823686
-0.47720116203126395	0.05092063905825094
-0.47714012687501395	0.040442610436208906
-0.47707909171876395	0.02995807837540183
-0.47701805656251395	0.019467854387501052
-0.47695702140626395	0.008971239379026568
-0.47689598625001395	-0.0015287655652402347
-0.47683495109376395	-0.012026246758895364
-0.47677391593751395	-0.02251762392159837
-0.47671288078126395	-0.03300297349773839
-0.47665184562501395	-0.04348160514751613
-0.47659081046876395	-0.05394910300360342
-0.47652977531251395	-0.06440024878313264
-0.47646874015626395	-0.0748329367101015
-0.47640770500001395	-0.08524708045582784
-0.47634666984376395	-0.09564053804592962
-0.47628563468751395	-0.10600857483112239
-0.47622459953126395	-0.1163474139387543
-0.47616356437501395	-0.1266559302775095
-0.47610252921876395	-0.13693307305984076
-0.47604149406251395	-0.14717547092494251
-0.47598045890626395	-0.1573788082903021
-0.47591942375001395	-0.16754047998507693
-0.47585838859376395	-0.1776594104524739
-0.47579735343751395	-0.187733623044361
-0.47573631828126395	-0.19775953294813
-0.47567528312501395	-0.20773376892035333
-0.47561424796876395	-0.21765434139639683
-0.47555321281251395	-0.227519574504217
-0.47549217765626395	-0.2373267630416515
-0.47543114250001395	-0.2470725495561124
-0.47537010734376395	-0.25675430750267186
-0.47530907218751395	-0.26637036547443516
-0.47524803703126395	-0.2759187705532169
-0.47518700187501395	-0.28539658736116064
-0.47512596671876395	-0.2948007965565707
-0.47506493156251395	-0.30412920017942213
-0.47500389640626395	-0.3133798516312326
-0.47494286125001395	-0.3225502377782655
-0.47488182609376395	-0.33163770008997795
-0.47482079093751395	-0.34064014624895783
-0.47475975578126395	-0.34955569107816314
-0.47469872062501395	-0.3583818711269054
-0.47463768546876395	-0.36711587175154375
-0.47457665031251395	-0.37575548089218697
-0.47451561515626395	-0.3842990953843772
-0.47445458000001395	-0.3927446735246149
-0.47439354484376395	-0.4010894453133824
-0.47433250968751395	-0.4093309541505362
-0.47427147453126395	-0.4174676857019711
-0.47421043937501395	-0.42549808906791264
-0.47414940421876395	-0.43341955151379086
-0.47408836906251395	-0.4412292537687482
-0.47402733390626395	-0.4489256114592257
-0.47396629875001395	-0.4565076940488241
-0.47390526359376395	-0.4639734309029706
-0.47384422843751395	-0.47131970939942525
-0.47378319328126395	-0.4785443451046126
-0.47372215812501395	-0.4856466178521504
-0.47366112296876395	-0.49262538670947104
-0.47360008781251395	-0.4994778951758076
-0.47353905265626395	-0.5062013056582488
-0.47347801750001395	-0.5127944977915866
-0.47341698234376395	-0.5192571348211159
-0.47335594718751395	-0.5255874009396962
-0.47329491203126395	-0.53178215878769
-0.47323387687501395	-0.5378394457525763
-0.47317284171876395	-0.543759187223464
-0.47311180656251395	-0.5495407817056776
-0.47305077140626395	-0.5551814904325663
-0.47298973625001395	-0.5606783815217347
-0.47292870109376395	-0.5660307227715627
-0.47286766593751395	-0.5712389053979473
-0.47280663078126395	-0.5763015514000153
-0.47274559562501395	-0.5812154585612819
-0.47268456046876395	-0.5859786278909351
-0.47262352531251395	-0.5905915423344316
-0.47256249015626395	-0.5950544451595956
-0.47250145500001395	-0.5993648978052147
-0.47244041984376395	-0.6035197307449414
-0.47237938468751395	-0.6075184315438337
-0.47231834953126395	-0.6113623318858872
-0.47225731437501395	-0.6150506805558734
-0.47219627921876395	-0.6185801127108576
-0.47213524406251395	-0.621948576293077
-0.47207420890626395	-0.6251572649959387
-0.47201317375001395	-0.628207233841439
-0.47195213859376395	-0.6310961564085484
-0.47189110343751395	-0.6338206687833501
-0.47183006828126395	-0.6363806507709718
-0.47176903312501395	-0.6387784022369216
-0.47170799796876395	-0.6410138091915716
-0.47164696281251395	-0.6430833051501375
-0.47158592765626395	-0.6449846086483584
-0.47152489250001395	-0.6467196963443288
-0.47146385734376395	-0.648290881496279
-0.47140282218751395	-0.6496961263150339
-0.47134178703126395	-0.6509314501865705
-0.47128075187501395	-0.6519968426036508
-0.47121971671876395	-0.652895944037746
-0.47115868156251395	-0.6536296508568792
-0.47109764640626395	-0.6541939993176719
-0.47103661125001395	-0.6545860942319338
-0.47097557609376395	-0.6548086619097768
-0.47091454093751395	-0.6548656057493044
-0.47085350578126395	-0.6547554457350531
-0.47079247062501395	-0.6544734030137058
-0.47073143546876395	-0.6540191293112331
-0.47067040031251395	-0.6533975539689731
-0.47060936515626395	-0.6526111135271873
-0.47054833000001395	-0.6516558012186742
-0.47048729484376395	-0.6505277524991744
-0.47042625968751395	-0.6492299870606909
-0.47036522453126395	-0.6477681286584612
-0.47030418937501395	-0.6461416818564557
-0.47024315421876395	-0.6443451418048033
