Time	Frequency
-0.5000343301562538	-0.4709617411710638
-0.49997329500000376	-0.474601326587131
-0.49991225984375376	-0.4782046136986474
-0.49985122468750376	-0.48172843195276155
-0.49979018953125376	-0.4851305512120588
-0.49972915437500376	-0.4883914204166995
-0.49966811921875376	-0.49152523513088936
-0.49960708406250376	-0.4945739990174824
-0.49954604890625376	-0.4975866852449174
-0.49948501375000376	-0.500593585571274
-0.49942397859375376	-0.5035890645879627
-0.49936294343750376	-0.5065322589545508
-0.49930190828125376	-0.5093664418210526
-0.49924087312500376	-0.5120479674679944
-0.49917983796875376	-0.5145700256807721
-0.49911880281250376	-0.5169682100446767
-0.49905776765625376	-0.5193037567521521
-0.49899673250000376	-0.5216320485163921
-0.49893569734375376	-0.5239723510490342
-0.49887466218750376	-0.5262951007818173
-0.49881362703125376	-0.5285347319878018
-0.49875259187500376	-0.5306227264679612
-0.49869155671875376	-0.5325242177733489
-0.49863052156250376	-0.5342585572576841
-0.49856948640625376	-0.5358917788963762
-0.49850845125000376	-0.5375033770292187
-0.49844741609375376	-0.5391438731715953
-0.49838638093750376	-0.5408056499310568
-0.49832534578125376	-0.5424236792630146
-0.49826431062500376	-0.5439074832566195
-0.49820327546875376	-0.5451887348929553
-0.49814224031250376	-0.5462594732314967
-0.49808120515625376	-0.5471795534957983
-0.49802017000000376	-0.5480475615425385
-0.49795913484375376	-0.5489490979347041
-0.49789809968750376	-0.5499094153236299
-0.49783706453125376	-0.5508764583693907
-0.49777602937500376	-0.5517451923371639
-0.49771499421875376	-0.5524121004224021
-0.49765395906250376	-0.5528316032645137
-0.49759292390625376	-0.5530436726676822
-0.49753188875000376	-0.5531561251860777
-0.49747085359375376	-0.5532890296456192
-0.49740981843750376	-0.5535097775331689
-0.49734878328125376	-0.5537938707885397
-0.49728774812500376	-0.5540340580875964
-0.49722671296875376	-0.5540950521808031
-0.49716567781250376	-0.5538860140183437
-0.49710464265625376	-0.553411990239825
-0.49704360750000376	-0.552775249250964
-0.49698257234375376	-0.5521236426545559
-0.49692153718750376	-0.5515719854026525
-0.49686050203125376	-0.5511382499719014
-0.49679946687500376	-0.5507299753648558
-0.49673843171875376	-0.5501902978524175
-0.49667739656250376	-0.5493808588638086
-0.49661636140625376	-0.5482578012079798
-0.49655532625000376	-0.5468991349268721
-0.49649429109375376	-0.5454667990472569
-0.49643325593750376	-0.5441217337355645
-0.49637222078125376	-0.5429365014778598
-0.49631118562500376	-0.5418529792475815
-0.49625015046875376	-0.5407097263345226
-0.49618911531250376	-0.5393264118046297
-0.49612808015625376	-0.5376011528374571
-0.49606704500000376	-0.5355682098612538
-0.49600600984375376	-0.5333835154442542
-0.49594497468750376	-0.5312437946334693
-0.49588393953125376	-0.5292813015576583
-0.49582290437500376	-0.5274906873053671
-0.49576186921875376	-0.525728563733044
-0.49570083406250376	-0.5237878308424797
-0.49563979890625376	-0.5215082638440257
-0.49557876375000376	-0.5188642556486446
-0.49551772859375376	-0.5159816838911909
-0.49545669343750376	-0.5130732996820356
-0.49539565828125376	-0.5103259396840175
-0.49533462312500376	-0.5077995578839315
-0.49527358796875376	-0.5053928735474085
-0.49521255281250376	-0.5028954299570652
-0.49515151765625376	-0.5000993940918854
-0.49509048250000376	-0.4969116376741882
-0.49502944734375376	-0.49340561003355754
-0.49496841218750376	-0.489784223790394
-0.49490737703125376	-0.4862726121016231
-0.49484634187500376	-0.4829977098279622
-0.49478530671875376	-0.479919462668968
-0.49472427156250376	-0.47685119359873523
-0.49466323640625376	-0.4735588417562362
-0.49460220125000376	-0.4698863434815093
-0.49454116609375376	-0.465839918597131
-0.49448013093750376	-0.4615857148364059
-0.49441909578125376	-0.45736181030476714
-0.49435806062500376	-0.4533514516653981
-0.49429702546875376	-0.44958530818527465
-0.49423599031250376	-0.4459253053217088
-0.49417495515625376	-0.4421387905779458
-0.49411392000000376	-0.43802319226768516
-0.49405288484375376	-0.43351438193698627
-0.49399184968750376	-0.42872078522386214
-0.49393081453125376	-0.42386516028088655
-0.49386977937500376	-0.41916559419204363
-0.49380874421875376	-0.41471967202802473
-0.49374770906250376	-0.41045365771083997
-0.49368667390625376	-0.40616346448619817
-0.49362563875000376	-0.40162488705832783
-0.49356460359375376	-0.3967135840889833
-0.49350356843750376	-0.3914706543415396
-0.49344253328125376	-0.3860793681824873
-0.49338149812500376	-0.38076636061304564
-0.49332046296875376	-0.37568081384027135
-0.49325942781250376	-0.370816436497685
-0.49319839265625376	-0.36601738621202073
-0.49313735750000376	-0.3610638100694022
-0.49307632234375376	-0.35579027594451096
-0.49301528718750376	-0.3501734707038498
-0.49295425203125376	-0.3443427716849393
-0.49289321687500376	-0.33850916456444297
-0.49283218171875376	-0.33285182321143497
-0.49277114656250376	-0.3274237114016765
-0.49271011140625376	-0.32212617718565895
-0.49264907625000376	-0.316764865206895
-0.49258804109375376	-0.3111557080674152
-0.49252700593750376	-0.30522335306265197
-0.49246597078125376	-0.2990395152775042
-0.49240493562500376	-0.2927820732486741
-0.49234390046875376	-0.2866384739886062
-0.49228286531250376	-0.28070608647737705
-0.49222183015625376	-0.2749426643295285
-0.49216079500000376	-0.26919242156504664
-0.49209975984375376	-0.26327226344080357
-0.49203872468750376	-0.25707073584205026
-0.49197768953125376	-0.25060650046207905
-0.49191665437500376	-0.24401593056179127
-0.49185561921875376	-0.23747796151438202
-0.49179458406250376	-0.2311178577044352
-0.49173354890625376	-0.2249419567487325
-0.49167251375000376	-0.21883757384162125
-0.49161147859375376	-0.21263660490913167
-0.49155044343750376	-0.20620738375922246
-0.49148940828125376	-0.19952498835695937
-0.49142837312500376	-0.1926827730024357
-0.49136733796875376	-0.1858401781066132
-0.49130630281250376	-0.17913617816429264
-0.49124526765625376	-0.17261560806750373
-0.49118423250000376	-0.16620771530769793
-0.49112319734375376	-0.15976735664377892
-0.49106216218750376	-0.1531552461110535
-0.49100112703125376	-0.1463132268271562
-0.49094009187500376	-0.13929436727337646
-0.49087905671875376	-0.13223270048549246
-0.49081802156250376	-0.1252699613905218
-0.49075698640625376	-0.11847957925045202
-0.49069595125000376	-0.11182905720331598
-0.49063491609375376	-0.10520023878965248
-0.49057388093750376	-0.09845527761014194
-0.49051284578125376	-0.09151195420933024
-0.49045181062500376	-0.08438758573971478
-0.49039077546875376	-0.07718833081405328
-0.49032974031250376	-0.07005077576052673
-0.49026870515625376	-0.06306829455580804
-0.49020767000000376	-0.05624210484256706
-0.49014663484375376	-0.04948286198473211
-0.49008559968750376	-0.042661014018290824
-0.49002456453125376	-0.03567802422828286
-0.48996352937500376	-0.028519655103845194
-0.48990249421875376	-0.021262775626581094
-0.48984145906250376	-0.014032949914857379
-0.48978042390625376	-0.0069365529179503125
-0.48971938875000376	-4.265459576649812e-06
-0.48965835359375376	0.0068237570917851825
-0.48959731843750376	0.01366358097973279
-0.48953628328125376	0.020623414906965072
-0.48947524812500376	0.027744793508269142
-0.48941421296875376	0.03498049458547841
-0.48935317781250376	0.042220619131102824
-0.48929214265625376	0.04935215685102068
-0.48923110750000376	0.056319345113069075
-0.48917007234375376	0.06315231210496787
-0.48910903718750376	0.06994915273941102
-0.48904800203125376	0.07682169938494181
-0.48898696687500376	0.08383451353463503
-0.48892593171875376	0.09097006263565946
-0.48886489656250376	0.0981385449590066
-0.48880386140625376	0.10522643560091363
-0.48874282625000376	0.11215725034118745
-0.48868179109375376	0.11893172422422289
-0.48862075593750376	0.12562592897671607
-0.48855972078125376	0.1323489209059148
-0.48849868562500376	0.13918324402772247
-0.48843765046875376	0.14614035096371725
-0.48837661531250376	0.15315458232803453
-0.48831558015625376	0.16011854722708352
-0.48825454500000376	0.16694056865694018
-0.48819350984375376	0.17359310521370086
-0.48813247468750376	0.18012628885618429
-0.48807143953125376	0.18663976906907756
-0.48801040437500376	0.19322837104544505
-0.48794936921875376	0.19993084280757617
-0.48788833406250376	0.20670902799137314
-0.48782729890625376	0.2134683618505443
-0.48776626375000376	0.22010839207732158
-0.48770522859375376	0.22657596257075607
-0.48764419343750376	0.23289254958855768
-0.48758315828125376	0.23914151277327134
-0.48752212312500376	0.2454225510037746
-0.48746108796875376	0.2517979228685952
-0.48740005281250376	0.25825913785304294
-0.48733901765625376	0.2647315650418392
-0.48727798250000376	0.2711140987188578
-0.48721694734375376	0.2773326342106722
-0.48715591218750376	0.28337876700257547
-0.48709487703125376	0.28931310080792866
-0.48703384187500376	0.29523184292731447
-0.48697280671875376	0.3012148748341812
-0.48691177156250376	0.3072830167854
-0.48685073640625376	0.31338707449745706
-0.48678970125000376	0.3194341330242359
-0.48672866609375376	0.325336755051623
-0.48666763093750376	0.3310587176022782
-0.48660659578125376	0.33663307662005215
-0.48654556062500376	0.3421433948006615
-0.48648452546875376	0.3476785146212978
-0.48642349031250376	0.35328505886198114
-0.48636245515625376	0.3589427896471099
-0.48630142000000376	0.3645756136796929
-0.48624038484375376	0.37009202626619137
-0.48617934968750376	0.3754331902173977
-0.48611831453125376	0.3806030818418254
-0.48605727937500376	0.3856650828849594
-0.48599624421875376	0.39070729772406343
-0.48593520906250376	0.39579531149823544
-0.48587417390625376	0.4009374641453922
-0.48581313875000376	0.40608077197648734
-0.48575210359375376	0.411139334518761
-0.48569106843750376	0.416039770504685
-0.48563003328125376	0.4207592772880568
-0.48556899812500376	0.4253363726352679
-0.48550796296875376	0.42984924354963877
-0.48544692781250376	0.43437358502807577
-0.48538589265625376	0.43894233210690614
-0.48532485750000376	0.4435285214785074
-0.48526382234375376	0.44806007500695144
-0.48520278718750376	0.4524582064119045
-0.48514175203125376	0.456678742292744
-0.48508071687500376	0.4607344582623948
-0.48501968171875376	0.4646869739445035
-0.48495864656250376	0.46861302761506907
-0.48489761140625376	0.4725633697173172
-0.48483657625000376	0.4765361038096151
-0.48477554109375376	0.480478256249912
-0.48471450593750376	0.48431424649223215
-0.48465347078125376	0.487985869167578
-0.48459243562500376	0.49148248769314773
-0.48453140046875376	0.4948455452824771
-0.48447036531250376	0.4981454218694564
-0.48440933015625376	0.5014433695500857
-0.48434829500000376	0.5047589330093968
-0.48428725984375376	0.5080600397381528
-0.48422622468750376	0.511280601731277
-0.48416518953125376	0.5143558001888167
-0.48410415437500376	0.5172561190569817
-0.48404311921875376	0.5200021589156334
-0.48398208406250376	0.522652631732089
-0.48392104890625376	0.5252723109174804
-0.48386001375000376	0.5278972948090652
-0.48379897859375376	0.5305160584505942
-0.48373794343750376	0.5330761114072095
-0.48367690828125376	0.5355123332282119
-0.48361587312500376	0.5377815678531307
-0.48355483796875376	0.5398850022753644
-0.48349380281250376	0.5418666563585328
-0.48343276765625376	0.5437891320281617
-0.48337173250000376	0.5456998155238771
-0.48331069734375376	0.5476056691625861
-0.48324966218750376	0.5494699299593352
-0.48318862703125376	0.551232159430093
-0.48312759187500376	0.5528406424317107
-0.48306655671875376	0.5542796748375665
-0.48300552156250376	0.5555772668747364
-0.48294448640625376	0.5567894645534747
-0.48288345125000376	0.5579699471589852
-0.48282241609375376	0.5591412889644262
-0.48276138093750376	0.5602832152670245
-0.48270034578125376	0.561343900670257
-0.48263931062500376	0.5622679528704727
-0.48257827546875376	0.5630259189224158
-0.48251724031250376	0.5636295627181009
-0.48245620515625376	0.5641249516651441
-0.48239517000000376	0.5645673437914234
-0.48233413484375376	0.5649915288600603
-0.48227309968750376	0.5653934911335611
-0.48221206453125376	0.5657330096649787
-0.48215102937500376	0.5659555349141562
-0.48208999421875376	0.5660214340194593
-0.48202895906250376	0.5659269170070438
-0.48196792390625376	0.5657055744370744
-0.48190688875000376	0.5654099561998991
-0.48184585359375376	0.5650833008809846
-0.48178481843750376	0.5647366246207097
-0.48172378328125376	0.564343288027914
-0.48166274812500376	0.5638536915411293
-0.48160171296875376	0.5632220235899935
-0.48154067781250376	0.5624306697595098
-0.48147964265625376	0.5614992777259502
-0.48141860750000376	0.5604738291465045
-0.48135757234375376	0.5594018445823962
-0.48129653718750376	0.558307135153964
-0.48123550203125376	0.557177537241856
-0.48117446687500376	0.555971984290081
-0.48111343171875376	0.5546428645841097
-0.48105239656250376	0.5531615128779387
-0.48099136140625376	0.5515332537630461
-0.48093032625000376	0.5497941827552244
-0.48086929109375376	0.5479916417920954
-0.48080825593750376	0.5461590299897131
-0.48074722078125376	0.5442984659603068
-0.48068618562500376	0.5423803326503159
-0.48062515046875376	0.540359610137378
-0.48056411531250376	0.5382000831107452
-0.48050308015625376	0.5358935220437746
-0.48044204500000376	0.5334637849184091
-0.48038100984375376	0.5309538753085008
-0.48031997468750376	0.5284030788689574
-0.48025893953125376	0.5258264718420469
-0.48019790437500376	0.5232075832722066
-0.48013686921875376	0.5205078361908609
-0.48007583406250376	0.5176874486234008
-0.48001479890625376	0.5147265616691212
-0.47995376375000376	0.5116355201071353
-0.47989272859375376	0.5084491362592085
-0.47983169343750376	0.5052082846456766
-0.47977065828125376	0.501938718394551
-0.47970962312500376	0.49863819091269895
-0.47964858796875376	0.49527839914971644
-0.47958755281250376	0.49182040544185135
-0.47952651765625376	0.4882352441833767
-0.47946548250000376	0.484518988400751
-0.47940444734375376	0.48069468771120843
-0.47934341218750376	0.4768004044602642
-0.47928237703125376	0.4728696561603763
-0.47922134187500376	0.4689145088055462
-0.47916030671875376	0.4649200379120357
-0.47909927156250376	0.4608526729775384
-0.47903823640625376	0.4566778561836916
-0.47897720125000376	0.45237799068188234
-0.47891616609375376	0.4479616007455185
-0.47885513093750376	0.4434591259267565
-0.47879409578125376	0.43890765023073613
-0.47873306062500376	0.43433243869238014
-0.47867202546875376	0.42973454668529165
-0.47861099031250376	0.4250906242082806
-0.47854995515625376	0.42036506205872226
-0.47848892000000376	0.41552835911460523
-0.47842788484375376	0.4105723881470355
-0.47836684968750376	0.4055150279387103
-0.47830581453125376	0.4003918968619669
-0.47824477937500376	0.39523906021643
-0.47818374421875376	0.3900751431651127
-0.47812270906250376	0.3848918747621245
-0.47806167390625376	0.37965808843286636
-0.47800063875000376	0.37433548668038596
-0.47793960359375376	0.36889839125587975
-0.47787856843750376	0.36334755581496625
-0.47781753328125376	0.3577110142494095
-0.47775649812500376	0.3520311461817465
-0.47769546296875376	0.3463439703649291
-0.47763442781250376	0.3406609112099378
-0.47757339265625376	0.3349624052037279
-0.47751235750000376	0.3292071132747209
-0.47745132234375376	0.3233527075851108
-0.47739028718750376	0.31737813057520886
-0.47732925203125376	0.31129611661505874
-0.47726821687500376	0.3051489048707931
-0.47720718171875376	0.2989881671808723
-0.47714614656250376	0.29284885572629843
-0.47708511140625376	0.2867304998879125
-0.47702407625000376	0.28059601638240755
-0.47696304109375376	0.2743896425539985
-0.47690200593750376	0.2680659122779946
-0.47684097078125376	0.26161499649371117
-0.47677993562500376	0.2550705320092701
-0.47671890046875376	0.24849471141542037
-0.47665786531250376	0.24194730304719198
-0.47659683015625376	0.2354541724850057
-0.47653579500000376	0.2289920220389405
-0.47647475984375376	0.22249846146416666
-0.47641372468750376	0.21590370491023486
-0.47635268953125376	0.20916829463339867
-0.47629165437500376	0.20230681981842236
-0.47623061921875376	0.19538384545357307
-0.47616958406250376	0.18848246068963803
-0.47610854890625376	0.18166094266723562
-0.47604751375000376	0.1749204410513749
-0.47598647859375376	0.16820166528130245
-0.47592544343750376	0.16141407962479043
-0.47586440828125376	0.15448390447071206
-0.47580337312500376	0.1473957992233331
-0.47574233796875376	0.14020502519496073
-0.47568130281250376	0.1330119136535681
-0.47562026765625376	0.12591036304583342
-0.47555923250000376	0.11893694143894847
-0.47549819734375376	0.11204858292093359
-0.47543716218750376	0.10514249038373169
-0.47537612703125376	0.09810948084769625
-0.47531509187500376	0.09089371483141169
-0.47525405671875376	0.08352662615633155
-0.47519302156250376	0.07611488946600588
-0.47513198640625376	0.06878663276810702
-0.47507095125000376	0.06162329872022508
-0.47500991609375376	0.05461355774331489
-0.47494888093750376	0.047655582572457646
-0.47488784578125376	0.04060894885189523
-0.47482681062500376	0.033370045247148455
-0.47476577546875376	0.025930819399751
-0.47470474031250376	0.018388152044701834
-0.47464370515625376	0.010896446684092608
-0.47458267000000376	0.003586611126966016
-0.47452163484375376	-0.0035056800252772553
-0.47446059968750376	-0.010462737897102444
-0.47439956453125376	-0.017444266782628334
-0.47433852937500376	-0.024603005704175927
-0.47427749421875376	-0.03200077440678388
-0.47421645906250376	-0.03957065686328162
-0.47415542390625376	-0.04714770118261784
-0.47409438875000376	-0.054554126062601856
-0.47403335359375376	-0.061694817837515584
-0.47397231843750376	-0.06861147162472928
-0.47391128328125376	-0.07546419441014944
-0.47385024812500376	-0.08244798960497764
-0.47378921296875376	-0.0896875116802565
-0.47372817781250376	-0.09716657150057981
-0.47366714265625376	-0.10473174117362943
-0.47360610750000376	-0.11217056324624276
-0.47354507234375376	-0.11932422287799875
-0.47348403718750376	-0.12617444323436877
-0.47342300203125376	-0.13285672700565132
-0.47336196687500376	-0.13959068289006676
-0.47330093171875376	-0.14656283930853242
-0.47323989656250376	-0.15382436659850712
-0.47317886140625376	-0.16125968048516498
-0.47311782625000376	-0.16864439713420204
-0.47305679109375376	-0.17576318414732645
-0.47299575593750376	-0.18252531228316757
-0.47293472078125376	-0.18901548630494844
-0.47287368562500376	-0.1954510196013067
-0.47281265046875376	-0.20206664176593692
-0.47275161531250376	-0.20898795279354254
-0.47269058015625376	-0.2161616274669588
-0.47262954500000376	-0.22338084833142502
-0.47256850984375376	-0.23039363106831262
-0.47250747468750376	-0.23703682474076648
-0.47244643953125376	-0.2433240613730343
-0.47238540437500376	-0.24943972817882745
-0.47232436921875376	-0.2556411313992732
-0.47226333406250376	-0.2621207467388545
-0.47220229890625376	-0.26890224564399334
-0.47214126375000376	-0.2758262448570331
-0.47208022859375376	-0.28263404851370444
-0.47201919343750376	-0.28910494082702126
-0.47195815828125376	-0.2951735303274555
-0.47189712312500376	-0.30096429012031883
-0.47183608796875376	-0.30672470701561444
-0.47177505281250376	-0.3126927519531033
-0.47171401765625376	-0.31896960853880935
-0.47165298250000376	-0.32546560521177886
-0.47159194734375376	-0.33194802085823877
-0.47153091218750376	-0.3381650445068593
-0.47146987703125376	-0.3439794109573569
-0.47140884187500376	-0.34944016838574027
-0.47134780671875376	-0.35475467378270226
-0.47128677156250376	-0.36017650519984085
-0.47122573640625376	-0.3658696792972194
-0.47116470125000376	-0.37182186323253846
-0.47110366609375376	-0.3778524353379865
-0.47104263093750376	-0.3837100239809307
-0.47098159578125376	-0.3892064520450966
-0.47092056062500376	-0.39431528628297685
-0.47085952546875376	-0.3991830709341977
-0.47079849031250376	-0.4040484387602331
-0.47073745515625376	-0.4091134106070074
-0.47067642000000376	-0.41443620789268837
-0.47061538484375376	-0.41990235506731577
-0.47055434968750376	-0.4252881887884654
-0.47049331453125376	-0.4303813471044947
-0.47043227937500376	-0.43509291863530725
-0.47037124421875376	-0.43950171691975437
-0.47031020906250376	-0.44380851859184234
