Time	Frequency
-0.5000305160625089	0.14988269119370518
-0.4999694809062589	0.16006035779732292
-0.4999084457500089	0.17020075439202406
-0.4998474105937589	0.18030118358462432
-0.4997863754375089	0.19035719311509625
-0.4997253402812589	0.20036389841844462
-0.4996643051250089	0.21031831438978998
-0.4996032699687589	0.22022036740088483
-0.4995422348125089	0.23007111128262525
-0.4994811996562589	0.23986943815064346
-0.4994201645000089	0.24961024033607024
-0.4993591293437589	0.25928594996063575
-0.4992980941875089	0.2688907120547666
-0.4992370590312589	0.2784237567794538
-0.4991760238750089	0.2878885243375528
-0.4991149887187589	0.2972877074729468
-0.4990539535625089	0.306618453788399
-0.4989929184062589	0.3158721619520559
-0.4989318832500089	0.3250393371802347
-0.4988708480937589	0.3341157622428266
-0.4988098129375089	0.3431046835234295
-0.4987487777812589	0.35201243367190427
-0.4986877426250089	0.3608409035726231
-0.4986267074687589	0.36958348923116774
-0.4985656723125089	0.37822824576543534
-0.4985046371562589	0.3867659385959755
-0.4984436020000089	0.39519628059311074
-0.4983825668437589	0.4035267628389031
-0.4983215316875089	0.4117645995054337
-0.4982604965312589	0.41990844889260637
-0.4981994613750089	0.42794722902430304
-0.4981384262187589	0.4358673961059093
-0.4980773910625089	0.4436627456164918
-0.4980163559062589	0.45133837495984114
-0.4979553207500089	0.45890499628048836
-0.4978942855937589	0.466367996240132
-0.4978332504375089	0.47372067041214283
-0.4977722152812589	0.4809478629689471
-0.4977111801250089	0.48803712565337254
-0.4976501449687589	0.4949878945717318
-0.4975891098125089	0.5018107881988642
-0.4975280746562589	0.5085172570005283
-0.4974670395000089	0.5151080701915927
-0.4974060043437589	0.5215706812214007
-0.4973449691875089	0.5278881771011646
-0.4972839340312589	0.5340523112960208
-0.4972228988750089	0.5400694199483617
-0.4971618637187589	0.5459539388983076
-0.4971008285625089	0.5517147153554245
-0.4970397934062589	0.5573457497668752
-0.4969787582500089	0.5628295671453688
-0.4969177230937589	0.5681507240247163
-0.4968566879375089	0.57330803661853
-0.4967956527812589	0.578314760145838
-0.4967346176250089	0.5831862055695615
-0.4966735824687589	0.587925296641434
-0.4966125473125089	0.5925185511143302
-0.4965515121562589	0.5969462559376655
-0.4964904770000089	0.6011983978699443
-0.4964294418437589	0.6052825708785694
-0.4963684066875089	0.6092167274415276
-0.4963073715312589	0.6130128005393803
-0.4962463363750089	0.6166652808986874
-0.4961853012187589	0.6201547241272067
-0.4961242660625089	0.6234634416229365
-0.4960632309062589	0.6265900254735558
-0.4960021957500089	0.629550080515767
-0.4959411605937589	0.6323622783534384
-0.4958801254375089	0.635031511284164
-0.4958190902812589	0.6375436507130747
-0.4957580551250089	0.6398767406612672
-0.4956970199687589	0.6420192934006311
-0.4956359848125089	0.643979916161106
-0.4955749496562589	0.6457797111640265
-0.4955139145000089	0.6474336873834501
-0.4954528793437589	0.64893709565768
-0.4953918441875089	0.650268698152495
-0.4953308090312589	0.651408517610312
-0.4952697738750089	0.6523549112645712
-0.4952087387187589	0.6531260598958848
-0.4951477035625089	0.653744250526309
-0.4950866684062589	0.6542162961181412
-0.4950256332500089	0.6545270793842918
-0.4949645980937589	0.6546521338520794
-0.4949035629375089	0.6545786790634964
-0.4948425277812589	0.654316917216675
-0.4947814926250089	0.653891530570925
-0.4947204574687589	0.6533204031986195
-0.4946594223125089	0.6525989011065545
-0.4945983871562589	0.6517035735841358
-0.4945373520000089	0.6506124174593841
-0.4944763168437589	0.6493242729477285
-0.4944152816875089	0.6478603898543429
-0.4943542465312589	0.6462465096445523
-0.4942932113750089	0.6444907353434514
-0.4942321762187589	0.6425764223659238
-0.4941711410625089	0.6404766293905675
-0.4941101059062589	0.6381778828072411
-0.4940490707500089	0.6356925941883895
-0.4939880355937589	0.6330490931651741
-0.4939270004375089	0.630267638941113
-0.4938659652812589	0.6273431480953978
-0.4938049301250089	0.6242498231854208
-0.4937438949687589	0.620963976544228
-0.4936828598125089	0.6174854070590525
-0.4936218246562589	0.613838652170346
-0.4935607895000089	0.6100527008194864
-0.4934997543437589	0.6061364936625682
-0.4934387191875089	0.6020715507448811
-0.4933776840312589	0.5978285338841861
-0.4933166488750089	0.5933936669845818
-0.4932556137187589	0.5887819638966294
-0.4931945785625089	0.5840254375031515
-0.4931335434062589	0.579146289231252
-0.4930725082500089	0.5741383607497846
-0.4930114730937589	0.5689732130516482
-0.4929504379375089	0.5636258488593866
-0.4928894027812589	0.5580977976131997
-0.4928283676250089	0.5524173223918977
-0.4927673324687589	0.5466162419287637
-0.4927062973125089	0.5407032968863136
-0.4926452621562589	0.5346574014222606
-0.4925842270000089	0.528447054449973
-0.4925231918437589	0.5220592279263806
-0.4924621566875089	0.5155124651765924
-0.4924011215312589	0.5088424190376045
-0.4923400863750089	0.502072167583862
-0.4922790512187589	0.49519326545577086
-0.4922180160625089	0.4881743281409391
-0.4921569809062589	0.4809899196652549
-0.4920959457500089	0.47364455897720437
-0.4920349105937589	0.4661706508877794
-0.4919738754375089	0.4586018750467492
-0.4919128402812589	0.45094517912266313
-0.4918518051250089	0.4431760746860391
-0.4917907699687589	0.43526168350337907
-0.4917297348125089	0.4271914491084388
-0.4916686996562589	0.4189884654583956
-0.4916076645000089	0.4106912330021633
-0.4915466293437589	0.40232166210137066
-0.4914855941875089	0.39386746199041317
-0.4914245590312589	0.3852945272274793
-0.4913635238750089	0.3765787012784916
-0.4913024887187589	0.3677292297584315
-0.4912414535625089	0.35878301195852424
-0.4911804184062589	0.349774241356869
-0.4911193832500089	0.3407060876619022
-0.4910583480937589	0.33154957566753795
-0.4909973129375089	0.3222709674042951
-0.4909362777812589	0.3128637651817453
-0.4908752426250089	0.30335694167538935
-0.4908142074687589	0.29379176748829955
-0.4907531723125089	0.2841875057652382
-0.4906921371562589	0.27452627152441683
-0.4906311020000089	0.26477061524312934
-0.4905700668437589	0.25489862589812085
-0.4905090316875089	0.24492586958113455
-0.4904479965312589	0.2348945373147068
-0.4903869613750089	0.22483869370650617
-0.4903259262187589	0.21475612083201623
-0.4902648910625089	0.204611951817189
-0.4902038559062589	0.19437138559419934
-0.4901428207500089	0.1840329376005096
-0.4900817855937589	0.17363274184583577
-0.4900207504375089	0.1632155934751721
-0.4899597152812589	0.15279775727700684
-0.4898986801250089	0.14235440662024204
-0.4898376449687589	0.1318432777331469
-0.4897766098125089	0.1212441258922891
-0.4897155746562589	0.11057948146216746
-0.4896545395000089	0.09989814291683262
-0.4895935043437589	0.08923506132568844
-0.4895324691875089	0.07858238462349833
-0.4894714340312589	0.06789771550755545
-0.4894103988750089	0.05714341579726165
-0.4893493637187589	0.0463227690169961
-0.4892883285625089	0.03548060473645595
-0.4892272934062589	0.024667025626298408
-0.4891662582500089	0.0138956191801574
-0.4891052230937589	0.003132894516818674
-0.4890441879375089	-0.007670839256040334
-0.4889831527812589	-0.018535274496659124
-0.4889221176250089	-0.029429332464657454
-0.4888610824687589	-0.040294841443635085
-0.4888000473125089	-0.05109464529489131
-0.4887390121562589	-0.06184347050860572
-0.4886779770000089	-0.0725940228517746
-0.4886169418437589	-0.08338916245856892
-0.4885559066875089	-0.094221225486944
-0.4884948715312589	-0.10503465014662715
-0.4884338363750089	-0.11577095456429574
-0.4883728012187589	-0.12641773872937392
-0.4883117660625089	-0.1370186438897638
-0.4882507309062589	-0.14763417301703055
-0.4881896957500089	-0.15828644171839662
-0.4881286605937589	-0.16893612187340037
-0.4880676254375089	-0.17951265949338674
-0.4880065902812589	-0.18997279726747554
-0.4879455551250089	-0.20033700176845526
-0.4878845199687589	-0.210671041220558
-0.4878234848125089	-0.22102725383946376
-0.4877624496562589	-0.23139595842114957
-0.4877014145000089	-0.24170970589858676
-0.4876403793437589	-0.25189808367017585
-0.4875793441875089	-0.26194675541593304
-0.4875183090312589	-0.27190933185229865
-0.4874572738750089	-0.2818602890957746
-0.4873962387187589	-0.2918283262267934
-0.4873352035625089	-0.3017677508182733
-0.4872741684062589	-0.3115938363491762
-0.4872131332500089	-0.32125314492751034
-0.4871520980937589	-0.33076861878148217
-0.4870910629375089	-0.3402194884205864
-0.4870300277812589	-0.3496717196442535
-0.4869689926250089	-0.35911825311022644
-0.4869079574687589	-0.3684812301640333
-0.4868469223125089	-0.3776755735586649
-0.4867858871562589	-0.3866801604299419
-0.4867248520000089	-0.3955553832359174
-0.4866638168437589	-0.40439080887169015
-0.4866027816875089	-0.41322652232145973
-0.4865417465312589	-0.4220155104946392
-0.4864807113750089	-0.43066047718101236
-0.4864196762187589	-0.4390946929197259
-0.4863586410625089	-0.4473378032830703
-0.4862976059062589	-0.45547827089615484
-0.4862365707500089	-0.4635966584757378
-0.4861755355937589	-0.4716947016169987
-0.4861145004375089	-0.4796909925896301
-0.4860534652812589	-0.48748784023989294
-0.4859924301250089	-0.49505283754937607
-0.4859313949687589	-0.5024453898722304
-0.4858703598125089	-0.5097649343243688
-0.4858093246562589	-0.5170645624787078
-0.4857482895000089	-0.5243038370207043
-0.4856872543437589	-0.5313813311688469
-0.4856262191875089	-0.5382191919823005
-0.4855651840312589	-0.5448276849052571
-0.4855041488750089	-0.5512948753111864
-0.4854431137187589	-0.5577102925910493
-0.4853820785625089	-0.5640875149153034
-0.4853210434062589	-0.5703514651846666
-0.4852600082500089	-0.5764010235910627
-0.4851989730937589	-0.5821933955771511
-0.4851379379375089	-0.5877784626393691
-0.4850769027812589	-0.5932544445066262
-0.4850158676250089	-0.5986831521117448
-0.4849548324687589	-0.604036930419765
-0.4848937973125089	-0.6092218925758527
-0.4848327621562589	-0.6141568545296251
-0.4847717270000089	-0.6188404019246178
-0.4847106918437589	-0.6233496524489046
-0.4846496566875089	-0.627772900550432
-0.4845886215312589	-0.6321340344117841
-0.4845275863750089	-0.6363726122364699
-0.4844665512187589	-0.6403954018070191
-0.4844055160625089	-0.6441545179498559
-0.4843444809062589	-0.6476857716298446
-0.4842834457500089	-0.6510758155590328
-0.4842224105937589	-0.6543873217960728
-0.4841613754375089	-0.6576061295510336
-0.4841003402812589	-0.6606543049657421
-0.4840393051250089	-0.6634564707669967
-0.4839782699687589	-0.6660022936990567
-0.4839172348125089	-0.6683527420961523
-0.4838561996562589	-0.6705863394143404
-0.4837951645000089	-0.6727322046130567
-0.4837341293437589	-0.674746530262106
-0.4836730941875089	-0.6765510055528487
-0.4836120590312589	-0.6780990672109659
-0.4835510238750089	-0.6794135172678979
-0.4834899887187589	-0.6805648478985403
-0.4834289535625089	-0.6816103270997578
-0.4833679184062589	-0.6825461463647976
-0.4833068832500089	-0.6833123138092715
-0.4832458480937589	-0.6838445055056648
-0.4831848129375089	-0.6841279025678255
-0.4831237777812589	-0.6842078199363086
-0.4830627426250089	-0.6841496257036319
-0.4830017074687589	-0.68398323571084
-0.4829406723125089	-0.6836792448418353
-0.4828796371562589	-0.683175610446981
-0.4828186020000089	-0.6824307794633351
-0.4827575668437589	-0.6814578413628908
-0.4826965316875089	-0.6803117604995009
-0.4826354965312589	-0.6790420472582274
-0.4825744613750089	-0.6776517354932146
-0.4825134262187589	-0.6760967807557067
-0.4824523910625089	-0.6743249266994389
-0.4823913559062589	-0.672320046517391
-0.4823303207500089	-0.6701146366242977
-0.4822692855937589	-0.6677612013645203
-0.4822082504375089	-0.6652880087118617
-0.4821472152812589	-0.6626768654575858
-0.4820861801250089	-0.6598806879497638
-0.4820251449687589	-0.6568645642408432
-0.4819641098125089	-0.6536350099665613
-0.4819030746562589	-0.6502334607395492
-0.4818420395000089	-0.6467009198661539
-0.4817810043437589	-0.6430444945614568
-0.4817199691875089	-0.6392336402023266
-0.4816589340312589	-0.6352279675075981
-0.4815978988750089	-0.631012115865775
-0.4815368637187589	-0.6266083299223955
-0.4814758285625089	-0.6220572417222184
-0.4814147934062589	-0.6173842434345989
-0.4813537582500089	-0.6125799958736308
-0.4812927230937589	-0.6076106877945863
-0.4812316879375089	-0.6024482649478313
-0.4811706527812589	-0.5970945471747947
-0.4811096176250089	-0.5915794196682836
-0.4810485824687589	-0.5859358382450452
-0.4809875473125089	-0.5801735486297677
-0.4809265121562589	-0.5742733845025554
-0.4808654770000089	-0.5682058202173755
-0.4808044418437589	-0.5619571945981303
-0.4807434066875089	-0.5555414735018418
-0.4806823715312589	-0.548988593920922
-0.4806213363750089	-0.5423203086502774
-0.4805603012187589	-0.5355340920616039
-0.4804992660625089	-0.5286079764894533
-0.4804382309062589	-0.5215211966464769
-0.4803771957500089	-0.5142727150898357
-0.4803161605937589	-0.5068824782362202
-0.4802551254375089	-0.4993752556986726
-0.4801940902812589	-0.49176152615874374
-0.4801330551250089	-0.484031477858922
-0.4800720199687589	-0.47616599280848465
-0.4800109848125089	-0.46815450284776855
-0.4799499496562589	-0.4600048283865726
-0.4798889145000089	-0.45173730708770515
-0.4798278793437589	-0.44336896784702046
-0.4797668441875089	-0.43490155913599854
-0.4797058090312589	-0.4263230999235718
-0.4796447738750089	-0.41762061145877155
-0.4795837387187589	-0.40879251362600755
-0.4795227035625089	-0.399850687708448
-0.4794616684062589	-0.3908116487072269
-0.4794006332500089	-0.38168479211424783
-0.4793395980937589	-0.3724673897251776
-0.4792785629375089	-0.36314985252472304
-0.4792175277812589	-0.35372602125513214
-0.4791564926250089	-0.3441996835921746
-0.4790954574687589	-0.3345824814854655
-0.4790344223125089	-0.3248858102934567
-0.4789733871562589	-0.31511381181355086
-0.4789123520000089	-0.305262940217525
-0.4788513168437589	-0.2953278190471157
-0.4787902816875089	-0.28530786682338927
-0.4787292465312589	-0.27520907083426477
-0.4786682113750089	-0.2650402484056896
-0.4786071762187589	-0.2548078197551365
-0.4785461410625089	-0.2445134574119166
-0.4784851059062589	-0.23415585044336987
-0.4784240707500089	-0.22373444591977368
-0.4783630355937589	-0.21325171807569138
-0.4783020004375089	-0.20271238099236935
-0.4782409652812589	-0.192121198301688
-0.4781799301250089	-0.1814817274631621
-0.4781188949687589	-0.17079654466147026
-0.4780578598125089	-0.1600680758631869
-0.4779968246562589	-0.1492989340128774
-0.4779357895000089	-0.13849141474295887
-0.4778747543437589	-0.1276471274627911
-0.4778137191875089	-0.11676791385630053
-0.4777526840312589	-0.10585731706194661
-0.4776916488750089	-0.09492072220846916
-0.4776306137187589	-0.08396359560904348
-0.4775695785625089	-0.07298905645634007
-0.4775085434062589	-0.06199699715240204
-0.4774475082500089	-0.05098613948508638
-0.4773864730937589	-0.039957698827941965
-0.4773254379375089	-0.02891740035613249
-0.4772644027812589	-0.01787370297659027
-0.4772033676250089	-0.006833304471680745
-0.4771423324687589	0.004202504271561123
-0.4770812973125089	0.01523721878217752
-0.4770202621562589	0.026274017663668433
-0.4769592270000089	0.037310170850703706
-0.4768981918437589	0.04833608760921179
-0.4768371566875089	0.059340546656398006
-0.4767761215312589	0.070317966071208
-0.4767150863750089	0.08127112464893675
-0.4766540512187589	0.09220666737212774
-0.4765930160625089	0.10312710344871778
-0.4765319809062589	0.11402592716466707
-0.4764709457500089	0.12489016022311271
-0.4764099105937589	0.1357086891409021
-0.4763488754375089	0.14647955488265252
-0.4762878402812589	0.15720965613295995
-0.4762268051250089	0.16790667407575066
-0.4761657699687589	0.17856991399849662
-0.4761047348125089	0.18918796900312893
-0.4760436996562589	0.1997456186315011
-0.4759826645000089	0.2102344400580354
-0.4759216293437589	0.22065800616898812
-0.4758605941875089	0.23102688430021776
-0.4757995590312589	0.24134730620972647
-0.4757385238750089	0.251613084059951
-0.4756774887187589	0.2618080576139839
-0.4756164535625089	0.2719174032660123
-0.4755554184062589	0.2819382262457516
-0.4754943832500089	0.29188016858583055
-0.4754333480937589	0.3017551352963279
-0.4753723129375089	0.3115646942519874
-0.4753112777812589	0.32129607303130064
-0.4752502426250089	0.33093047853917407
-0.4751892074687589	0.3404569003125216
-0.4751281723125089	0.3498796957230165
-0.4750671371562589	0.35921309105033195
-0.4750061020000089	0.3684668542079799
-0.4749450668437589	0.3776354904548781
-0.4748840316875089	0.38670049594645833
-0.4748229965312589	0.3956439181142351
-0.4747619613750089	0.4044617619671855
-0.4747009262187589	0.41316571521715145
-0.4746398910625089	0.421771398389775
-0.4745788559062589	0.4302828349754386
-0.4745178207500089	0.43868655648529964
-0.4744567855937589	0.4469609435547136
-0.4743957504375089	0.4550929532646709
-0.4743347152812589	0.4630876736047489
-0.4742736801250089	0.4709623346447789
-0.4742126449687589	0.4787297332340843
-0.4741516098125089	0.4863852144017774
-0.4740905746562589	0.4939085104115618
-0.4740295395000089	0.5012791481213932
-0.4739685043437589	0.5084924195285534
-0.4739074691875089	0.5155620826125785
-0.4738464340312589	0.5225071319609712
-0.4737853988750089	0.5293337594323061
-0.4737243637187589	0.5360280605502876
-0.4736633285625089	0.5425660753501651
-0.4736022934062589	0.5489328358617989
-0.4735412582500089	0.5551340282958992
-0.4734802230937589	0.5611899367227556
-0.4734191879375089	0.5671166089056369
-0.4733581527812589	0.5729103900312749
-0.4732971176250089	0.5785492996705924
-0.4732360824687589	0.5840103902371391
-0.4731750473125089	0.589288365371357
-0.4731140121562589	0.5943992966783248
-0.4730529770000089	0.5993658205002363
-0.4729919418437589	0.6041962696625119
-0.4729309066875089	0.6088758666461325
-0.4728698715312589	0.613378000413331
-0.4728088363750089	0.6176861481347836
-0.4727478012187589	0.6218074236656564
-0.4726867660625089	0.625765751715762
-0.4726257309062589	0.6295803039704481
-0.4725646957500089	0.6332477334346117
-0.4725036605937589	0.6367437667300525
-0.4724426254375089	0.6400431262409126
-0.4723815902812589	0.6431407237832953
-0.4723205551250089	0.6460556666295091
-0.4722595199687589	0.6488142635857759
-0.4721984848125089	0.651426458565768
-0.4721374496562589	0.6538761565501293
-0.4720764145000089	0.656134182210138
-0.4720153793437589	0.6581829631644094
-0.4719543441875089	0.6600315325300803
-0.4718933090312589	0.6617075617918741
-0.4718322738750089	0.6632330204630422
-0.4717712387187589	0.6646044537550667
-0.4717102035625089	0.6657951919955126
-0.4716491684062589	0.66677793851112
-0.4715881332500089	0.6675483226521913
-0.4715270980937589	0.668128839796703
-0.4714660629375089	0.668549405409523
-0.4714050277812589	0.6688211318333108
-0.4713439926250089	0.6689261709512853
-0.4712829574687589	0.6688328003976347
-0.4712219223125089	0.6685229459169003
-0.4711608871562589	0.6680082164215275
-0.4710998520000089	0.6673202167959871
-0.4710388168437589	0.6664832198642743
-0.4709777816875089	0.6654928993490105
-0.4709167465312589	0.6643198879055189
-0.4708557113750089	0.6629353914745106
-0.4707946762187589	0.6613367072283873
-0.4707336410625089	0.6595502710291972
-0.4706726059062589	0.6576092017964857
-0.4706115707500089	0.6555246804533829
-0.4705505355937589	0.6532762697540453
-0.4704895004375089	0.6508299504647471
-0.4704284652812589	0.6481683711828087
-0.4703674301250089	0.6453068688607246
-0.4703063949687589	0.6422809749314048
-0.4702453598125089	0.639116047000668
-0.4701843246562589	0.6358055193130988
-0.4701232895000089	0.6323170158815395
-0.4700622543437589	0.6286213299717079
-0.4700012191875089	0.6247190204438989
-0.4699401840312589	0.6206411081629628
-0.4698791488750089	0.6164229523489487
-0.4698181137187589	0.6120740482629187
-0.4697570785625089	0.6075703296893322
-0.4696960434062589	0.6028760672279809
-0.4696350082500089	0.5979763909990674
-0.4695739730937589	0.5928917320888148
-0.4695129379375089	0.5876612424252395
-0.4694519027812589	0.5823096381634151
-0.4693908676250089	0.5768264430286619
-0.4693298324687589	0.5711760168465716
