Time	Frequency
-0.5000038124374981	-0.1477296401203534
-0.49994277728124814	-0.15484055597352778
-0.49988174212499814	-0.16204454911539534
-0.49982070696874814	-0.16932630163215975
-0.49975967181249814	-0.17662488818518304
-0.49969863665624814	-0.18385953095087681
-0.49963760149999814	-0.19096453598777904
-0.49957656634374814	-0.19791819185644327
-0.49951553118749814	-0.20475263799528926
-0.49945449603124814	-0.21153993175350863
-0.49939346087499814	-0.21836014840567788
-0.49933242571874814	-0.22526541079715007
-0.49927139056249814	-0.2322558216590883
-0.49921035540624814	-0.23927816853052883
-0.49914932024999814	-0.2462481959348066
-0.49908828509374814	-0.2530868821364479
-0.49902724993749814	-0.25975496010121724
-0.49896621478124814	-0.26627044423374147
-0.49890517962499814	-0.27270103428895226
-0.49884414446874814	-0.2791343422975371
-0.49878310931249814	-0.28563887587410697
-0.49872207415624814	-0.2922329148639961
-0.49866103899999814	-0.29887521870080597
-0.49860000384374814	-0.3054819969382395
-0.49853896868749814	-0.31196294797232904
-0.49847793353124814	-0.31826063638151225
-0.49841689837499814	-0.32437574458580404
-0.49835586321874814	-0.33036695810619854
-0.49829482806249814	-0.33632534324334645
-0.49823379290624814	-0.3423341189148548
-0.49817275774999814	-0.3484314079052102
-0.49811172259374814	-0.35459244267764556
-0.49805068743749814	-0.36073919058631265
-0.49798965228124814	-0.36677356471441047
-0.49792861712499814	-0.37262000045203675
-0.49786758196874814	-0.3782586765894211
-0.49780654681249814	-0.38373450800717873
-0.49774551165624814	-0.38913764811119084
-0.49768447649999814	-0.39456385028705104
-0.49762344134374814	-0.40007196944603246
-0.49756240618749814	-0.4056571871708147
-0.49750137103124814	-0.4112518830134377
-0.49744033587499814	-0.416754232835759
-0.49737930071874814	-0.42207230726126477
-0.49731826556249814	-0.4271642756274883
-0.49725723040624814	-0.4320569631652558
-0.49719619524999814	-0.4368344477139626
-0.49713516009374814	-0.441601328367367
-0.49707412493749814	-0.4464365373080069
-0.49701308978124814	-0.4513579727310069
-0.49695205462499814	-0.4563135806244975
-0.49689101946874814	-0.4612030509681814
-0.49682998431249814	-0.4659209985894248
-0.49676894915624814	-0.47040291290592945
-0.49670791399999814	-0.4746536260798728
-0.49664687884374814	-0.4787455790509021
-0.49658584368749814	-0.4827873797786788
-0.49652480853124814	-0.48687618688523504
-0.49646377337499814	-0.4910546233053868
-0.49640273821874814	-0.4952911294852818
-0.49634170306249814	-0.4994926599757131
-0.49628066790624814	-0.5035445273133184
-0.49621963274999814	-0.5073602020407548
-0.49615859759374814	-0.5109193112055773
-0.49609756243749814	-0.5142770077577887
-0.49603652728124814	-0.5175403104809796
-0.49597549212499814	-0.5208214405370575
-0.49591445696874814	-0.5241883748175586
-0.49585342181249814	-0.527634311285718
-0.49579238665624814	-0.5310796143827862
-0.49573135149999814	-0.5344056680583185
-0.49567031634374814	-0.537506138131275
-0.49560928118749814	-0.540333410612064
-0.49554824603124814	-0.5429198345437625
-0.49548721087499814	-0.5453642257275313
-0.49542617571874814	-0.5477891792634656
-0.49536514056249814	-0.5502874915050749
-0.49530410540624814	-0.5528809807636287
-0.49524307024999814	-0.5555099166814367
-0.49518203509374814	-0.5580580394023642
-0.49512099993749814	-0.5604025801658375
-0.49505996478124814	-0.5624676708010293
-0.49499892962499814	-0.5642578401561275
-0.49493789446874814	-0.5658567754083585
-0.49487685931249814	-0.56739153409246
-0.49481582415624814	-0.5689774297715116
-0.49475478899999814	-0.5706674097070675
-0.49469375384374814	-0.5724280577908104
-0.49463271868749814	-0.5741530033294326
-0.49457168353124814	-0.575708341805053
-0.49451064837499814	-0.5769906173295729
-0.49444961321874814	-0.5779721966811707
-0.49438857806249814	-0.5787141149550504
-0.49432754290624814	-0.5793404392940903
-0.49426650774999814	-0.5799848820279682
-0.49420547259374814	-0.580732583104231
-0.49414443743749814	-0.5815823371033133
-0.49408340228124814	-0.5824459707220719
-0.49402236712499814	-0.5831856084790316
-0.49396133196874814	-0.5836730370481074
-0.49390029681249814	-0.5838455846966818
-0.49383926165624814	-0.5837341795993364
-0.49377822649999814	-0.5834510444360465
-0.49371719134374814	-0.5831418708334776
-0.49365615618749814	-0.5829228459138599
-0.49359512103124814	-0.582829745866398
-0.49353408587499814	-0.5828013673836961
-0.49347305071874814	-0.582704898305203
-0.49341201556249814	-0.5823927230814058
-0.49335098040624814	-0.5817663882959143
-0.49328994524999814	-0.580820024368095
-0.49322891009374814	-0.5796441131296464
-0.49316787493749814	-0.5783874899639192
-0.49310683978124814	-0.5771935367095351
-0.49304580462499814	-0.5761379131912504
-0.49298476946874814	-0.5751948944041259
-0.49292373431249814	-0.5742473063536195
-0.49286269915624814	-0.5731362803598453
-0.49280166399999814	-0.5717297176356098
-0.49274062884374814	-0.5699799990203382
-0.49267959368749814	-0.5679457971132116
-0.49261855853124814	-0.5657681025018767
-0.49255752337499814	-0.5636102670603446
-0.49249648821874814	-0.5615875973718006
-0.49243545306249814	-0.5597169126634338
-0.49237441790624814	-0.5579081782831942
-0.49231338274999814	-0.5560023475609257
-0.49225234759374814	-0.5538395604750345
-0.49219131243749814	-0.5513284840545023
-0.49213027728124814	-0.5484867958925547
-0.49206924212499814	-0.5454349801042759
-0.49200820696874814	-0.5423455821438795
-0.49194717181249814	-0.5393693851497863
-0.49188613665624814	-0.5365701518806014
-0.49182510149999814	-0.5338962445676528
-0.49176406634374814	-0.5312018854537506
-0.49170303118749814	-0.5283093633990671
-0.49164199603124814	-0.5250856417927209
-0.49158096087499814	-0.521500491388512
-0.49151992571874814	-0.5176408940106993
-0.49145889056249814	-0.5136749538912596
-0.49139785540624814	-0.5097803639667494
-0.49133682024999814	-0.5060680523175198
-0.49127578509374814	-0.5025339322642822
-0.49121474993749814	-0.49905980170217623
-0.49115371478124814	-0.49546351965351076
-0.49109267962499814	-0.49157727837519416
-0.49103164446874814	-0.4873203999384182
-0.49097060931249814	-0.4827351852156179
-0.49090957415624814	-0.4779699782128329
-0.49084853899999814	-0.47321634414192837
-0.49078750384374814	-0.46862717592794845
-0.49072646868749814	-0.4642508745234689
-0.49066543353124814	-0.46001008443295444
-0.49060439837499814	-0.4557344491567319
-0.49054336321874814	-0.4512336520486044
-0.49048232806249814	-0.446379554500723
-0.49042129290624814	-0.4411620181502211
-0.49036025774999814	-0.4356942542198928
-0.49029922259374814	-0.43016520950294973
-0.49023818743749814	-0.42475908188280087
-0.49017715228124814	-0.41957639591566875
-0.49011611712499814	-0.4145907822636926
-0.49005508196874814	-0.40966021884607784
-0.48999404681249814	-0.40458801902229974
-0.48993301165624814	-0.39920755894422794
-0.48987197649999814	-0.39345433303531324
-0.48981094134374814	-0.3873942390686513
-0.48974990618749814	-0.3811959262152843
-0.48968887103124814	-0.3750590594860266
-0.48962783587499814	-0.36912915741697355
-0.48956680071874814	-0.3634354468137698
-0.48950576556249814	-0.357878590175313
-0.48944473040624814	-0.35227374584717325
-0.48938369524999814	-0.34643034377368565
-0.48932266009374814	-0.34023421363077744
-0.48926162493749814	-0.3336968551840667
-0.48920058978124814	-0.32695076036836174
-0.48913955462499814	-0.3201928937646423
-0.48907851946874814	-0.31360067688824267
-0.48901748431249814	-0.3072564973392825
-0.48895644915624814	-0.30111310364090127
-0.48889541399999814	-0.2950147251642287
-0.48883437884374814	-0.28876467176532034
-0.48877334368749814	-0.2822101898713325
-0.48871230853124814	-0.27530812278116984
-0.48865127337499814	-0.2681432822221285
-0.48859023821874814	-0.26089190912233184
-0.48852920306249814	-0.25374625913079124
-0.48846816790624814	-0.24683279842595857
-0.48840713274999814	-0.2401590516543542
-0.48834609759374814	-0.23361173790546894
-0.48828506243749814	-0.22700659168811968
-0.48822402728124814	-0.22016814459356907
-0.48816299212499814	-0.21300515507898476
-0.48810195696874814	-0.2055494226638459
-0.48804092181249814	-0.1979416481683801
-0.48797988665624814	-0.1903708240313787
-0.48791885149999814	-0.18299350930949004
-0.48785781634374814	-0.17586777210371932
-0.48779678118749814	-0.1689299259596212
-0.48773574603124814	-0.16202356209453908
-0.48767471087499814	-0.15496790630018548
-0.48761367571874814	-0.14763581162297829
-0.48755264056249814	-0.1400079387271246
-0.48749160540624814	-0.13218030765994085
-0.48743057024999814	-0.1243225119068672
-0.48736953509374814	-0.11660490985728136
-0.48730849993749814	-0.10912634235073859
-0.48724746478124814	-0.10187337628352768
-0.48718642962499814	-0.09472806112017752
-0.48712539446874814	-0.08752030471940048
-0.48706435931249814	-0.08010185907981235
-0.48700332415624814	-0.07240986244888613
-0.48694228899999814	-0.0644929885007406
-0.48688125384374814	-0.05648956116077738
-0.48682021868749814	-0.04856760923009431
-0.48675918353124814	-0.04085316143270998
-0.48669814837499814	-0.033377692637427854
-0.48663711321874814	-0.026066774980906593
-0.48657607806249814	-0.01877411653869387
-0.48651504290624814	-0.011345827766674263
-0.48645400774999814	-0.0036868585716818315
-0.48639297259374814	0.004198902910424244
-0.48633193743749814	0.012211420016857669
-0.48627090228124814	0.020198292948762565
-0.48620986712499814	0.028020244732980464
-0.48614883196874814	0.03560992773562706
-0.48608779681249814	0.04299893778347669
-0.48602676165624814	0.05030189034489771
-0.48596572649999814	0.057665173597159
-0.48590469134374814	0.06520315614772548
-0.48584365618749814	0.07294938872947357
-0.48578262103124814	0.08084331953824539
-0.48572158587499814	0.0887574901990698
-0.48566055071874814	0.09655275787588707
-0.48559951556249814	0.1041374666696768
-0.48553848040624814	0.1115052551116422
-0.48547744524999814	0.11873558046043016
-0.48541641009374814	0.12595731020398415
-0.48535537493749814	0.1332918179572105
-0.48529433978124814	0.1408005921981682
-0.48523330462499814	0.1484597126274039
-0.48517226946874814	0.1561714152262901
-0.48511123431249814	0.16380703444887196
-0.48505019915624814	0.17126228168569532
-0.48498916399999814	0.17850079170898875
-0.48492812884374814	0.18556760805014766
-0.48486709368749814	0.1925675895916158
-0.48480605853124814	0.19961861666537709
-0.48474502337499814	0.2068001261348298
-0.48468398821874814	0.21411931432660977
-0.48462295306249814	0.22150920304043276
-0.48456191790624814	0.22885855509042144
-0.48450088274999814	0.23606009709946507
-0.48443984759374814	0.24305605607271646
-0.48437881243749814	0.24986136889848556
-0.48431777728124814	0.2565549726745459
-0.48425674212499814	0.2632437960848789
-0.48419570696874814	0.27001561385038236
-0.48413467181249814	0.27690119451426526
-0.48407363665624814	0.28386182658690867
-0.48401260149999814	0.29080714622186343
-0.48395156634374814	0.2976349353173527
-0.48389053118749814	0.30427504143527884
-0.48382949603124814	0.3107182794975478
-0.48376846087499814	0.31701835229609554
-0.48370742571874814	0.3232666600294828
-0.48364639056249814	0.32955143545712
-0.48358535540624814	0.33591916236614405
-0.48352432024999814	0.34235493728806893
-0.48346328509374814	0.34878996124452477
-0.48340224993749814	0.3551322881634344
-0.48334121478124814	0.3613068642885638
-0.48328017962499814	0.36728721501285133
-0.48321914446874814	0.37310516356363604
-0.48315810931249814	0.37883497746163264
-0.48309707415624814	0.38455959701309606
-0.48303603899999814	0.39033395965823586
-0.48297500384374814	0.3961613469487883
-0.48291396868749814	0.4019928144243501
-0.48285293353124814	0.4077494168817148
-0.48279189837499814	0.4133569832981876
-0.48273086321874814	0.41877796382238835
-0.48266982806249814	0.42402648660061953
-0.48260879290624814	0.42916045710330974
-0.48254775774999814	0.4342546972636706
-0.48248672259374814	0.43936733080665596
-0.48242568743749814	0.44451431502211003
-0.48236465228124814	0.4496630473612219
-0.48230361712499814	0.45474742333785517
-0.48224258196874814	0.4596973545642619
-0.48218154681249814	0.4644694161603553
-0.48212051165624814	0.4690650120441718
-0.48205947649999814	0.473528357025716
-0.48199844134374814	0.4779255987951721
-0.48193740618749814	0.4823146665538661
-0.48187637103124814	0.4867194181510412
-0.48181533587499814	0.49111942259027996
-0.48175430071874814	0.49545957175852307
-0.48169326556249814	0.4996749495259841
-0.48163223040624814	0.5037196228284383
-0.48157119524999814	0.5075864564569998
-0.48151016009374814	0.5113093176928969
-0.48144912493749814	0.5149469416484377
-0.48138808978124814	0.5185559107027967
-0.48132705462499814	0.5221650112945377
-0.48126601946874814	0.5257624163461059
-0.48120498431249814	0.5293012410990409
-0.48114394915624814	0.5327207782190395
-0.48108291399999814	0.5359737408723966
-0.48102187884374814	0.5390471984138597
-0.48096084368749814	0.5419678106994691
-0.48089980853124814	0.5447891748190004
-0.48083877337499814	0.5475671812872268
-0.48077773821874814	0.5503345051337406
-0.48071670306249814	0.553085659877387
-0.48065566790624814	0.5557793682879497
-0.48059463274999814	0.5583571755318477
-0.48053359759374814	0.5607698106350627
-0.48047256243749814	0.5629993417815752
-0.48041152728124814	0.5650671393019026
-0.48035049212499814	0.5670240529961159
-0.48028945696874814	0.5689271993406976
-0.48022842181249814	0.5708138405069711
-0.48016738665624814	0.5726841967973226
-0.48010635149999814	0.5745009801199491
-0.48004531634374814	0.5762059282457331
-0.47998428118749814	0.5777459760759145
-0.47992324603124814	0.5790972813648745
-0.47986221087499814	0.5802762141241771
-0.47980117571874814	0.5813322191841895
-0.47974014056249814	0.582325605172252
-0.47967910540624814	0.5833001766784967
-0.47961807024999814	0.5842630565725638
-0.47955703509374814	0.5851809080267908
-0.47949599993749814	0.5859944342875841
-0.47943496478124814	0.586644805655052
-0.47937392962499814	0.5871002337118933
-0.47931289446874814	0.5873707028447619
-0.47925185931249814	0.5875040420443077
-0.47919082415624814	0.5875648526494517
-0.47912978899999814	0.5876055708119159
-0.47906875384374814	0.5876425977327346
-0.47900771868749814	0.5876483045622262
-0.47894668353124814	0.5875627296849403
-0.47888564837499814	0.5873200092282443
-0.47882461321874814	0.5868779143265662
-0.47876357806249814	0.5862372898228051
-0.47870254290624814	0.5854424695139088
-0.47864150774999814	0.5845621393544099
-0.47858047259374814	0.5836589566211773
-0.47851943743749814	0.5827614056725662
-0.47845840228124814	0.581850503307081
-0.47839736712499814	0.5808675266856219
-0.47833633196874814	0.5797396695398155
-0.47827529681249814	0.5784124327598891
-0.47821426165624814	0.5768743753443943
-0.47815322649999814	0.575163075774351
-0.47809219134374814	0.5733493355977144
-0.47803115618749814	0.5715062928834997
-0.47797012103124814	0.5696769498904087
-0.47790908587499814	0.5678545748243835
-0.47784805071874814	0.5659849751739532
-0.47778701556249814	0.5639899914888216
-0.47772598040624814	0.5618020443080358
-0.47766494524999814	0.5593945122761536
-0.47760391009374814	0.5567943985532285
-0.47754287493749814	0.554071423171693
-0.47748183978124814	0.5513079745936615
-0.47742080462499814	0.5485628835829903
-0.47735976946874814	0.5458450570207986
-0.47729873431249814	0.5431089310629338
-0.47723769915624814	0.5402740572569834
-0.47717666399999814	0.537260439978005
-0.47711562884374814	0.5340242326623876
-0.47705459368749814	0.5305779856357844
-0.47699355853124814	0.5269862026266924
-0.47693252337499814	0.5233377933355661
-0.47687148821874814	0.519707306520993
-0.47681045306249814	0.5161219765575993
-0.47674941790624814	0.5125492266846986
-0.47668838274999814	0.5089104378113101
-0.47662734759374814	0.5051153396243305
-0.47656631243749814	0.5011021260568506
-0.47650527728124814	0.49686553875529044
-0.47644424212499814	0.4924602644253408
-0.47638320696874814	0.4879778711210677
-0.47632217181249814	0.48350716357797063
-0.47626113665624814	0.4790951945825115
-0.47620010149999814	0.47472622206171405
-0.47613906634374814	0.47032820974784745
-0.47607803118749814	0.4658042454660279
-0.47601699603124814	0.46107533210200596
-0.47595596087499814	0.4561158885079495
-0.47589492571874814	0.45096607510806724
-0.47583389056249814	0.44571522205144004
-0.47577285540624814	0.44046346164683425
-0.47571182024999814	0.435278120810526
-0.47565078509374814	0.43016396111949207
-0.47558974993749814	0.4250606771854574
-0.47552871478124814	0.41986909361999347
-0.47546767962499814	0.4144947729547502
-0.47540664446874814	0.4088900867639957
-0.47534560931249814	0.40307628129115314
-0.47528457415624814	0.39713543234755766
-0.47522353899999814	0.3911753483288409
-0.47516250384374814	0.38528271906790673
-0.47510146868749814	0.3794851481812123
-0.47504043353124814	0.37373881825929567
-0.47497939837499814	0.36794741930465
-0.47491836321874814	0.3620043822886204
-0.47485732806249814	0.3558401089442491
-0.47479629290624814	0.34945346924532644
-0.47473525774999814	0.34291360076507416
-0.47467422259374814	0.3363308196424183
-0.47461318743749814	0.3298089834964574
-0.47455215228124814	0.3234001735850216
-0.47449111712499814	0.3170817128816322
-0.47443008196874814	0.3107657813958689
-0.47436904681249814	0.30433778127095346
-0.47430801165624814	0.29770693521834907
-0.47424697649999814	0.29084695916010656
-0.47418594134374814	0.283808827798198
-0.47412490618749814	0.2766997462656359
-0.47406387103124814	0.2696372057260772
-0.47400283587499814	0.2626980759847601
-0.47394180071874814	0.25588499866201286
-0.47388076556249814	0.24912488363267102
-0.47381973040624814	0.24230055784660026
-0.47375869524999814	0.2353022303051308
-0.47369766009374814	0.22807636675728088
-0.47363662493749814	0.22065034308773168
-0.47357558978124814	0.21312184254552247
-0.47351455462499814	0.20561739826949033
-0.47345351946874814	0.1982378873987568
-0.47339248431249814	0.19101456533274075
-0.47333144915624814	0.18389506605606407
-0.47327041399999814	0.17676596871647512
-0.47320937884374814	0.1695023670145909
-0.47314834368749814	0.16202297070930224
-0.47308730853124814	0.15432676002731974
-0.47302627337499814	0.1464949333915511
-0.47296523821874814	0.13865690066587666
-0.47290420306249814	0.13093485943700767
-0.47284316790624814	0.12339087824539106
-0.47278213274999814	0.11599958759884428
-0.47272109759374814	0.10865880687732747
-0.47266006243749814	0.10123389933244054
-0.47259902728124814	0.09361674147701284
-0.47253799212499814	0.08577378253817063
-0.47247695696874814	0.07776225386811128
-0.47241592181249814	0.06970700686451678
-0.47235488665624814	0.061747438948230295
-0.47229385149999814	0.05397735158293166
-0.47223281634374814	0.04640405591547378
-0.47217178118749814	0.03894475132201632
-0.47211074603124814	0.03146205086077034
-0.47204971087499814	0.02382370564638631
-0.47198867571874814	0.01596090399727011
-0.47192764056249814	0.007899718453829986
-0.47186660540624814	-0.00024835035232572615
-0.47180557024999814	-0.008333229640689622
-0.47174453509374814	-0.01623059165233654
-0.47168349993749814	-0.0238957069716299
-0.47162246478124814	-0.03138334471373181
-0.47156142962499814	-0.038824712569190074
-0.47150039446874814	-0.04637077897437093
-0.47143935931249814	-0.05412620948236784
-0.47137832415624814	-0.06210266330876125
-0.47131728899999814	-0.0702119131686936
-0.47125625384374814	-0.07830217376272536
-0.47119521868749814	-0.086222541900267
-0.47113418353124814	-0.09388803259451095
-0.47107314837499814	-0.10131686169843881
-0.47101211321874814	-0.10862335205128636
-0.47095107806249814	-0.1159690490456888
-0.47089004290624814	-0.12349268684655698
-0.47082900774999814	-0.1312490120581214
-0.47076797259374814	-0.13918321666682995
-0.47070693743749814	-0.14715261471088878
-0.47064590228124814	-0.15498673094669402
-0.47058486712499814	-0.16256030211104472
-0.47052383196874814	-0.1698476596604523
-0.47046279681249814	-0.17693459290808258
-0.47040176165624814	-0.18398213727811427
-0.47034072649999814	-0.19115731983533907
-0.47027969134374814	-0.19856025665954236
