Time	Frequency
-0.5000352880937555	0.21292596149756346
-0.4999742529375055	0.22268177788258647
-0.4999132177812555	0.23238743838206657
-0.4998521826250055	0.24204612613109644
-0.4997911474687555	0.25165177514407566
-0.4997301123125055	0.2611933336046965
-0.4996690771562555	0.2706641573270638
-0.4996080420000055	0.2800662204081996
-0.4995470068437555	0.2894049583343372
-0.4994859716875055	0.29868072567748155
-0.4994249365312555	0.3078861331604806
-0.4993639013750055	0.31701178195057617
-0.4993028662187555	0.32605383079584804
-0.4992418310625055	0.3350152740121959
-0.4991807959062555	0.3438999015854791
-0.4991197607500055	0.35270572922816745
-0.4990587255937555	0.3614249309790941
-0.4989976904375055	0.37005003486935456
-0.4989366552812555	0.3785794710486381
-0.4988756201250055	0.38701656190332967
-0.4988145849687555	0.39536335937400935
-0.4987535498125055	0.40361620391391856
-0.4986925146562555	0.4117676416786874
-0.4986314795000055	0.419812264289725
-0.4985704443437555	0.4277500344193156
-0.4985094091875055	0.4355837725588332
-0.4984483740312555	0.4433138497958282
-0.4983873388750055	0.45093579212947954
-0.4983263037187555	0.45844312196659176
-0.4982652685625055	0.46583220494237443
-0.4982042334062555	0.47310384395931165
-0.4981431982500055	0.48026009720188495
-0.4980821630937555	0.48730004829967916
-0.4980211279375055	0.4942190529235327
-0.4979600927812555	0.5010119274352665
-0.4978990576250055	0.5076764492608111
-0.4978380224687555	0.5142135717077063
-0.4977769873125055	0.5206244133728871
-0.4977159521562555	0.526907337663653
-0.4976549170000055	0.5330580718526391
-0.4975938818437555	0.5390725353804757
-0.4975328466875055	0.5449493424286161
-0.4974718115312555	0.5506894333951127
-0.4974107763750055	0.5562933841583917
-0.4973497412187555	0.5617593063511975
-0.4972887060625055	0.5670834071470346
-0.4972276709062555	0.5722624476707896
-0.4971666357500055	0.5772955435852731
-0.4971056005937555	0.5821835532307953
-0.4970445654375055	0.5869267964597228
-0.4969835302812555	0.5915234830646385
-0.4969224951250055	0.5959703266424747
-0.4968614599687555	0.6002645786472995
-0.4968004248125055	0.6044054971562456
-0.4967393896562555	0.6083939112459481
-0.4966783545000055	0.6122303025408112
-0.4966173193437555	0.6159132426571426
-0.4965562841875055	0.6194397484243778
-0.4964952490312555	0.6228072488503267
-0.4964342138750055	0.6260152233179003
-0.4963731787187555	0.6290648662361175
-0.4963121435625055	0.6319570475265056
-0.4962511084062555	0.6346905275205025
-0.4961900732500055	0.6372622669858709
-0.4961290380937555	0.63966967870012
-0.4960680029375055	0.6419126200610795
-0.4960069677812555	0.6439929927858822
-0.4959459326250055	0.6459121654157232
-0.4958848974687555	0.6476688123743228
-0.4958238623125055	0.6492595520440543
-0.4957628271562555	0.6506819155989069
-0.4957017920000055	0.6519365880510134
-0.4956407568437555	0.6530264082604448
-0.4955797216875055	0.6539529750524921
-0.4955186865312555	0.6547144100372073
-0.4954576513750055	0.6553068374077563
-0.4953966162187555	0.6557282362995042
-0.4953355810625055	0.6559805677064076
-0.4952745459062555	0.6560676688917557
-0.4952135107500055	0.6559909591828005
-0.4951524755937555	0.6557476128861145
-0.4950914404375055	0.6553334009519416
-0.4950304052812555	0.654747301819128
-0.4949693701250055	0.6539928421857397
-0.4949083349687555	0.6530745045000029
-0.4948472998125055	0.6519929290827604
-0.4947862646562555	0.6507441891801905
-0.4947252295000055	0.649324176026435
-0.4946641943437555	0.6477334584333847
-0.4946031591875055	0.6459771977553652
-0.4945421240312555	0.6440599714643466
-0.4944810888750055	0.6419810564983846
-0.4944200537187555	0.6397354788892649
-0.4943590185625055	0.6373199121076902
-0.4942979834062555	0.6347370200330607
-0.4942369482500055	0.6319933282221135
-0.4941759130937555	0.629092746894247
-0.4941148779375055	0.626032809903881
-0.4940538427812555	0.622807959343332
-0.4939928076250055	0.6194164659554031
-0.4939317724687555	0.6158633505788728
-0.4938707373125055	0.6121558923078017
-0.4938097021562555	0.6082964999113075
-0.4937486670000055	0.6042808546824089
-0.4936876318437555	0.60010356090152
-0.4936265966875055	0.5957652009305799
-0.4935655615312555	0.5912729968232662
-0.4935045263750055	0.5866341316310908
-0.4934434912187555	0.5818489204825995
-0.4933824560625055	0.5769115000796045
-0.4933214209062555	0.5718175245326231
-0.4932603857500055	0.5665704350814927
-0.4931993505937555	0.561179212335178
-0.4931383154375055	0.5556498880004298
-0.4930772802812555	0.5499801827152734
-0.4930162451250055	0.544163366942828
-0.4929552099687555	0.5381972404318124
-0.4928941748125055	0.5320883239464412
-0.4928331396562555	0.5258464716036264
-0.4927721045000055	0.5194756390286726
-0.4927110693437555	0.5129709893924111
-0.4926500341875055	0.5063257894095341
-0.4925889990312555	0.4995407162781316
-0.4925279638750055	0.49262519008277156
-0.4924669287187555	0.4855889501034325
-0.4924058935625055	0.47843306580615025
-0.4923448584062555	0.47115044561589825
-0.4922838232500055	0.46373553142433777
-0.4922227880937555	0.456192616501295
-0.4921617529375055	0.44853340820397314
-0.4921007177812555	0.44076623138687837
-0.4920396826250055	0.4328887449186697
-0.4919786474687555	0.4248924086863172
-0.4919176123125055	0.4167740589243278
-0.4918565771562555	0.4085418977945167
-0.4917955420000055	0.4002089721473881
-0.4917345068437555	0.3917810094684877
-0.4916734716875055	0.38325209422968076
-0.4916124365312555	0.37461328427616614
-0.4915514013750055	0.3658649317329806
-0.4914903662187555	0.35701903454462247
-0.4914293310625055	0.34808864444558996
-0.4913682959062555	0.33907578960567086
-0.4913072607500055	0.3299713786754921
-0.4912462255937555	0.3207675274533042
-0.4911851904375055	0.31146893500009193
-0.4911241552812555	0.30209066157487774
-0.4910631201250055	0.29264435950706064
-0.4910020849687555	0.2831278104508406
-0.4909410498125055	0.2735295222482808
-0.4908800146562555	0.26384384417286094
-0.4908189795000055	0.2540801572908487
-0.4907579443437555	0.24425577357105577
-0.4906969091875055	0.23437980895254543
-0.4906358740312555	0.2244454665868154
-0.4905748388750055	0.21443967862394905
-0.4905138037187555	0.2043602063137674
-0.4904527685625055	0.1942214638271581
-0.4903917334062555	0.18404205054775022
-0.4903306982500055	0.1738270683952905
-0.4902696630937555	0.16356469767769877
-0.4902086279375055	0.1532414769374283
-0.4901475927812555	0.142860116526704
-0.4900865576250055	0.13244020086208314
-0.4900255224687555	0.12200016666557832
-0.4899644873125055	0.1115396372177013
-0.4899034521562555	0.10104184912268517
-0.4898424170000055	0.09049448066565569
-0.4897813818437555	0.07990660616718945
-0.4897203466875055	0.06930270385173154
-0.4896593115312555	0.058699144811708556
-0.4895982763750055	0.04808848103333197
-0.4895372412187555	0.03744953745231773
-0.4894762060625055	0.026773389262582065
-0.4894151709062555	0.016077063663927443
-0.4893541357500055	0.005389005687968933
-0.4892931005937555	-0.005279039261083742
-0.4892320654375055	-0.015943067816068093
-0.4891710302812555	-0.026627454160632228
-0.4891099951250055	-0.03733508266845129
-0.4890489599687555	-0.04803979311867426
-0.4889879248125055	-0.05871092487781983
-0.4889268896562555	-0.06934436599480967
-0.4888658545000055	-0.07996566473232397
-0.4888048193437555	-0.09060005007347934
-0.4887437841875055	-0.10124104203842806
-0.4886827490312555	-0.11185277824002735
-0.4886217138750055	-0.12240541792074942
-0.4885606787187555	-0.13290589566945823
-0.4884996435625055	-0.14338930151750973
-0.4884386084062555	-0.15387817985158106
-0.4883775732500055	-0.16435348663916122
-0.4883165380937555	-0.17477044229918964
-0.4882555029375055	-0.1851041514902343
-0.4881944677812555	-0.1953756894947633
-0.4881334326250055	-0.20562818422378037
-0.4880723974687555	-0.21587677716943685
-0.4880113623125055	-0.2260871492692754
-0.4879503271562555	-0.2362081748983846
-0.4878892920000055	-0.2462251371693595
-0.4878282568437555	-0.25617527644351085
-0.4877672216875055	-0.2661062532775567
-0.4877061865312555	-0.27602068514173683
-0.4876451513750055	-0.2858678956002452
-0.4875841162187555	-0.29559467308920756
-0.4875230810625055	-0.30520152780760934
-0.4874620459062555	-0.31474206763543777
-0.4874010107500055	-0.3242633477695175
-0.4873399755937555	-0.3337505320793103
-0.4872789404375055	-0.3431375684260819
-0.4872179052812555	-0.35237526682677706
-0.4871568701250055	-0.36148392136970237
-0.4870958349687555	-0.3705313540917378
-0.4870347998125055	-0.3795574158376487
-0.4869737646562555	-0.3885262154533684
-0.4869127295000055	-0.3973599451548562
-0.4868516943437555	-0.4060203084376751
-0.4867906591875055	-0.4145497256727238
-0.4867296240312555	-0.42302526544269015
-0.4866685888750055	-0.4314727493292585
-0.4866075537187555	-0.43983421124164807
-0.4865465185625055	-0.44802627957130897
-0.4864854834062555	-0.4560282778967201
-0.4864244482500055	-0.46390434499830246
-0.4863634130937555	-0.4717334156049665
-0.4863023779375055	-0.4795212335318624
-0.4862413427812555	-0.4871901913889501
-0.4861803076250055	-0.49465981593199065
-0.4861192724687555	-0.5019319580437513
-0.4860582373125055	-0.5090880034067972
-0.4859972021562555	-0.5161997043390493
-0.4859361670000055	-0.5232493591766463
-0.4858751318437555	-0.5301461356937397
-0.4858140966875055	-0.5368216886633398
-0.4857530615312555	-0.5433020192864738
-0.4856920263750055	-0.5496777406698721
-0.4856309912187555	-0.5560046800794948
-0.4855699560625055	-0.5622421443412309
-0.4855089209062555	-0.5682953282274312
-0.4854478857500055	-0.5741156783225164
-0.4853868505937555	-0.5797507904577041
-0.4853258154375055	-0.5852906467111714
-0.4852647802812555	-0.5907691290344915
-0.4852037451250055	-0.5961271414258492
-0.4851427099687555	-0.6012759273912252
-0.4850816748125055	-0.6061909368862995
-0.4850206396562555	-0.6109351100359731
-0.4849596045000055	-0.6155881874487729
-0.4848985693437555	-0.6201599041903951
-0.4848375341875055	-0.6245803156378609
-0.4847764990312555	-0.6287754459782571
-0.4847154638750055	-0.6327449221906618
-0.4846544287187555	-0.6365586558314003
-0.4845933935625055	-0.6402787895364663
-0.4845323584062555	-0.643892783111466
-0.4844713232500055	-0.6473286079018012
-0.4844102880937555	-0.6505327455451183
-0.4843492529375055	-0.653525384485213
-0.4842882177812555	-0.656374861038724
-0.4842271826250055	-0.6591219170153844
-0.4841661474687555	-0.6617367211953455
-0.4841051123125055	-0.6641531064284555
-0.4840440771562555	-0.6663400293629924
-0.4839830420000055	-0.6683322733324222
-0.4839220068437555	-0.6701895051829647
-0.4838609716875055	-0.6719307925891694
-0.4837999365312555	-0.6735157284758944
-0.4837389013750055	-0.6748900801504867
-0.4836778662187555	-0.6760439710530325
-0.4836168310625055	-0.6770197297207132
-0.4835557959062555	-0.6778635349353959
-0.4834947607500055	-0.6785754657268059
-0.4834337255937555	-0.6791115471190571
-0.4833726904375055	-0.6794329671731082
-0.4833116552812555	-0.6795472655082266
-0.4832506201250055	-0.6794976657772888
-0.4831895849687555	-0.6793146635855359
-0.4831285498125055	-0.6789838723166634
-0.4830675146562555	-0.6784638855159287
-0.4830064795000055	-0.6777323460747868
-0.4829454443437555	-0.6768091479529784
-0.4828844091875055	-0.6757329290527637
-0.4828233740312555	-0.6745185923377693
-0.4827623388750055	-0.6731426852433038
-0.4827013037187555	-0.6715710346434993
-0.4826402685625055	-0.6697966351620767
-0.4825792334062555	-0.6678462802823159
-0.4825181982500055	-0.6657502894745175
-0.4824571630937555	-0.6635099219893381
-0.4823961279375055	-0.661097945844435
-0.4823350927812555	-0.6584902022037852
-0.4822740576250055	-0.6556923957534775
-0.4822130224687555	-0.6527331780795166
-0.4821519873125055	-0.6496326202999861
-0.4820909521562555	-0.6463815093972762
-0.4820299170000055	-0.6429535277411887
-0.4819688818437555	-0.639335626864462
-0.4819078466875055	-0.6355426823813408
-0.4818468115312555	-0.631601062526603
-0.4817857763750055	-0.6275203273825878
-0.4817247412187555	-0.623284481767506
-0.4816637060625055	-0.6188715964398634
-0.4816026709062555	-0.6142792370793976
-0.4815416357500055	-0.6095276328133682
-0.4814806005937555	-0.6046379518174829
-0.4814195654375055	-0.5996103734823068
-0.4813585302812555	-0.5944259405874817
-0.4812974951250055	-0.5890693742435201
-0.4812364599687555	-0.5835472007011906
-0.4811754248125055	-0.5778814298528734
-0.4811143896562555	-0.5720864338478528
-0.4810533545000055	-0.566154923201467
-0.4809923193437555	-0.5600681772619847
-0.4809312841875055	-0.5538185761069541
-0.4808702490312555	-0.5474193615585057
-0.4808092138750055	-0.540891341168605
-0.4807481787187555	-0.5342417062603093
-0.4806871435625055	-0.5274582999919334
-0.4806261084062555	-0.5205252364260902
-0.4805650732500055	-0.5134422678519263
-0.4805040380937555	-0.5062266132927699
-0.4804430029375055	-0.49889570497019975
-0.4803819677812555	-0.491450170929854
-0.4803209326250055	-0.48387557812557747
-0.4802598974687555	-0.4761605842055489
-0.4801988623125055	-0.46831134276433456
-0.4801378271562555	-0.4603465572388943
-0.4800767920000055	-0.4522790439640773
-0.4800157568437555	-0.4441041767508421
-0.4799547216875055	-0.43580757826475186
-0.4798936865312555	-0.4273832245404551
-0.4798326513750055	-0.41884207801039075
-0.4797716162187555	-0.41020213900080965
-0.4797105810625055	-0.4014711533796232
-0.4796495459062555	-0.39264089963696747
-0.4795885107500055	-0.3836989139010231
-0.4795274755937555	-0.3746445063447932
-0.4794664404375055	-0.3654917167586829
-0.4794054052812555	-0.35625633467165563
-0.4793443701250055	-0.3469413406621327
-0.4792833349687555	-0.33753656800284365
-0.4792222998125055	-0.3280326233302725
-0.4791612646562555	-0.31843363296447885
-0.4791002295000055	-0.308755054874276
-0.4790391943437555	-0.29900934422771397
-0.4789781591875055	-0.2891953237682709
-0.4789171240312555	-0.279302600070101
-0.4788560888750055	-0.2693257560664648
-0.4787950537187555	-0.25927273369870624
-0.4787340185625055	-0.24915864006752372
-0.4786729834062555	-0.2389921409355637
-0.4786119482500055	-0.22876924397743423
-0.4785509130937555	-0.2184808291574768
-0.4784898779375055	-0.2081253795473633
-0.4784288427812555	-0.19771315107594392
-0.4783678076250055	-0.1872576389874237
-0.4783067724687555	-0.17676389923023242
-0.4782457373125055	-0.16622637957590924
-0.4781847021562555	-0.15563825273353213
-0.4781236670000055	-0.1450017437495718
-0.4780626318437555	-0.1343283121764041
-0.4780015966875055	-0.12362894109911376
-0.4779405615312555	-0.11290535846839632
-0.4778795263750055	-0.1021515411983747
-0.4778184912187555	-0.09136348245669082
-0.4777574560625055	-0.08054638556407168
-0.4776964209062555	-0.06971163080326925
-0.4776353857500055	-0.05886730442634526
-0.4775743505937555	-0.048012794248746396
-0.4775133154375055	-0.037142941092127374
-0.4774522802812555	-0.02625678980417991
-0.4773912451250055	-0.015361395477778986
-0.4773302099687555	-0.004466893659342426
-0.4772691748125055	0.006421436056996706
-0.4772081396562555	0.01730549899449273
-0.4771471045000055	0.028188948280961697
-0.4770860693437555	0.039070160894927805
-0.4770250341875055	0.049941179685830187
-0.4769639990312555	0.06079350201214727
-0.4769029638750055	0.07162418110381587
-0.4768419287187555	0.082435662006669
-0.4767808935625055	0.09322988503947253
-0.4767198584062555	0.10400327686226223
-0.4766588232500055	0.1147478587387933
-0.4765977880937555	0.12545691468924158
-0.4765367529375055	0.13612901385524118
-0.4764757177812555	0.14676624856902992
-0.4764146826250055	0.15736887748667747
-0.4763536474687555	0.16793225352184174
-0.4762926123125055	0.1784490960201734
-0.4762315771562555	0.18891439444952876
-0.4761705420000055	0.19932765345590642
-0.4761095068437555	0.20969024915840487
-0.4760484716875055	0.22000098367864573
-0.4759874365312555	0.2302546556185827
-0.4759264013750055	0.24044492900857936
-0.4758653662187555	0.25056817546116283
-0.4758043310625055	0.2606242538029674
-0.4757432959062555	0.270613694773842
-0.4756822607500055	0.2805344301293941
-0.4756212255937555	0.29038140110201877
-0.4755601904375055	0.30014924387975445
-0.4754991552812555	0.3098351427508415
-0.4754381201250055	0.3194389482094173
-0.4753770849687555	0.3289605772328417
-0.4753160498125055	0.3383975032679006
-0.4752550146562555	0.34774490488454685
-0.4751939795000055	0.35699815063131485
-0.4751329443437555	0.36615496856944046
-0.4750719091875055	0.3752151554199212
-0.4750108740312555	0.3841782693826044
-0.4749498388750055	0.39304170901429325
-0.4748888037187555	0.4018010333126471
-0.4748277685625055	0.410452088825431
-0.4747667334062555	0.41899281287943735
-0.4747056982500055	0.42742300107164827
-0.4746446630937555	0.4357422864315785
-0.4745836279375055	0.4439482743996628
-0.4745225927812555	0.4520366949903154
-0.4744615576250055	0.4600034791488114
-0.4744005224687555	0.46784670921841304
-0.4743394873125055	0.47556649367204873
-0.4742784521562555	0.48316281925487253
-0.4742174170000055	0.4906334380512182
-0.4741563818437555	0.49797398758739664
-0.4740953466875055	0.5051803704646745
-0.4740343115312555	0.5122510266825944
-0.4739732763750055	0.5191867196692372
-0.4739122412187555	0.5259878687772965
-0.4738512060625055	0.5326520780281199
-0.4737901709062555	0.5391745768768115
-0.4737291357500055	0.5455513175550655
-0.4736681005937555	0.5517815424248772
-0.4736070654375055	0.5578669771228162
-0.4735460302812555	0.5638082808403548
-0.4734849951250055	0.5696024602433837
-0.4734239599687555	0.5752441658399549
-0.4733629248125055	0.5807297256026032
-0.4733018896562555	0.5860596611083453
-0.4732408545000055	0.5912367590796315
-0.4731798193437555	0.5962615271786165
-0.4731187841875055	0.6011299612688256
-0.4730577490312555	0.6058362435286408
-0.4729967138750055	0.610377629616245
-0.4729356787187555	0.6147562396048359
-0.4728746435625055	0.618975606376528
-0.4728136084062555	0.6230355131056825
-0.4727525732500055	0.6269307743473904
-0.4726915380937555	0.63065555652944
-0.4726305029375055	0.6342086969690433
-0.4725694677812555	0.6375940910335413
-0.4725084326250055	0.6408154775537057
-0.4724473974687555	0.643871224296351
-0.4723863623125055	0.6467549553709642
-0.4723253271562555	0.649461552172474
-0.4722642920000055	0.6519920281959815
-0.4722032568437555	0.6543517986419185
-0.4721422216875055	0.6565440252464834
-0.4720811865312555	0.6585652799874403
-0.4720201513750055	0.6604084671222026
-0.4719591162187555	0.6620699979613739
-0.4718980810625055	0.6635533433559647
-0.4718370459062555	0.66486486756471
-0.4717760107500055	0.6660063354093592
-0.4717149755937555	0.6669723707191524
-0.4716539404375055	0.667755880109308
-0.4715929052812555	0.6683556192579907
-0.4715318701250055	0.6687774981473265
-0.4714708349687555	0.6690279716029247
-0.4714097998125055	0.6691066733282481
-0.4713487646562555	0.6690065253070726
-0.4712877295000055	0.6687214216811226
-0.4712266943437555	0.668253092935762
-0.4711656591875055	0.6676094347559979
-0.4711046240312555	0.6667959380676087
-0.4710435888750055	0.6658096291639326
-0.4709825537187555	0.6646423740944429
-0.4709215185625055	0.663290111110018
-0.4708604834062555	0.6617578392726403
-0.4707994482500055	0.6600546460171237
-0.4707384130937555	0.6581840570940785
-0.4706773779375055	0.6561403991462273
-0.4706163427812555	0.6539154266831769
-0.4705553076250055	0.6515080698114231
-0.4704942724687555	0.6489264618403429
-0.4704332373125055	0.6461797570580685
-0.4703722021562555	0.6432686218885098
-0.4703111670000055	0.6401850200523934
-0.4702501318437555	0.6369218071195241
-0.4701890966875055	0.6334816725410438
-0.4701280615312555	0.6298753719115242
-0.4700670263750055	0.6261109028022089
-0.4700059912187555	0.6221854858399667
-0.4699449560625055	0.6180894176952014
-0.4698839209062555	0.6138178686242722
-0.4698228857500055	0.6093776630855066
-0.4697618505937555	0.6047812455267793
-0.4697008154375055	0.6000341890973974
-0.4696397802812555	0.5951300648308766
-0.4695787451250055	0.5900586410172055
-0.4695177099687555	0.5848186439512858
-0.4694566748125055	0.5794209421825296
-0.4693956396562555	0.5738783097839616
-0.4693346045000055	0.5681927945618724
