Time	Frequency
-0.5000509486874876	4.330360777951562e-23
-0.49998991353123756	4.282797895761447e-23
-0.49992887837498756	4.234256047681955e-23
-0.49986784321873756	4.1847576225181376e-23
-0.49980680806248756	4.134326452300843e-23
-0.49974577290623756	4.0829677010244856e-23
-0.49968473774998756	4.0306766233297104e-23
-0.49962370259373756	3.977462485717929e-23
-0.49956266743748756	3.92335061805947e-23
-0.49950163228123756	3.868360990440056e-23
-0.49944059712498756	3.8124964162126486e-23
-0.49937956196873756	3.755756385092186e-23
-0.49931852681248756	3.698155240864455e-23
-0.49925749165623756	3.639718847915704e-23
-0.49919645649998756	3.580464881257876e-23
-0.49913542134373756	3.520395984677583e-23
-0.49907438618748756	3.4595156071201874e-23
-0.49901335103123756	3.3978413332079765e-23
-0.49895231587498756	3.3353967471417024e-23
-0.49889128071873756	3.2721961446835776e-23
-0.49883024556248756	3.2082441060493614e-23
-0.49876921040623756	3.1435493764599164e-23
-0.49870817524998756	3.078132316665133e-23
-0.49864714009373756	3.0120151318779446e-23
-0.49858610493748756	2.9452102279435844e-23
-0.49852506978123756	2.877723887594112e-23
-0.49846403462498756	2.8095689061425314e-23
-0.49840299946873756	2.74076698451515e-23
-0.49834196431248756	2.671337675373118e-23
-0.49828092915623756	2.601291211447016e-23
-0.49821989399998756	2.53063622288533e-23
-0.49815885884373756	2.4593899859405537e-23
-0.49809782368748756	2.3875744986512933e-23
-0.49803678853123756	2.315205441136113e-23
-0.49797575337498756	2.242293089900155e-23
-0.49791471821873756	2.168852594909277e-23
-0.49785368306248756	2.0949057440331375e-23
-0.49779264790623756	2.02047115416902e-23
-0.49773161274998756	1.9455590826954057e-23
-0.49767057759373756	1.870180751770311e-23
-0.49760954243748756	1.794357689915745e-23
-0.49754850728123756	1.7181148117014247e-23
-0.49748747212498756	1.6414667512686997e-23
-0.49742643696873756	1.564419672932059e-23
-0.49736540181248756	1.4869877808143915e-23
-0.49730436665623756	1.4091982682490756e-23
-0.49724333149998756	1.331075246260911e-23
-0.49718229634373756	1.2526279241565726e-23
-0.49712126118748756	1.1738630943135773e-23
-0.49706022603123756	1.0948029662846756e-23
-0.49699919087498756	1.0154781795105541e-23
-0.49693815571873756	9.359056782209232e-24
-0.49687712056248756	8.560883280583657e-24
-0.49681608540623756	7.760380675954995e-24
-0.49675505024998756	6.957855811758338e-24
-0.49669401509373756	6.15360562781894e-24
-0.49663297993748756	5.3477243510346175e-24
-0.49657194478123756	4.540220013876439e-24
-0.49651090962498756	3.731280596591395e-24
-0.49644987446873756	2.921275098875524e-24
-0.49638883931248756	2.110459054651482e-24
-0.49632780415623756	1.2988377904055843e-24
-0.49626676899998756	4.864289404171784e-25
-0.49620573384373756	-3.2647310369357365e-25
-0.49614469868748756	-1.139465482059752e-24
-0.49608366353123756	-1.952389986355137e-24
-0.49602262837498756	-2.765310588537378e-24
-0.49596159321873756	-3.578135883938001e-24
-0.49590055806248756	-4.3904719435949666e-24
-0.49583952290623756	-5.2019557384377586e-24
-0.49577848774998756	-6.012556397010089e-24
-0.49571745259373756	-6.822344233035047e-24
-0.49565641743748756	-7.631081423632496e-24
-0.49559538228123756	-8.438303116886926e-24
-0.49553434712498756	-9.243768491936685e-24
-0.49547331196873756	-1.0047564701110296e-23
-0.49541227681248756	-1.0849700132932192e-23
-0.49535124165623756	-1.1649812712144388e-23
-0.49529020649998756	-1.2447447597529552e-23
-0.49522917134373756	-1.3242495149339845e-23
-0.49516813618748756	-1.403510035979643e-23
-0.49510710103123756	-1.482514886302417e-23
-0.49504606587498756	-1.5612144255047926e-23
-0.49498503071873756	-1.63957172188023e-23
-0.49492399556248756	-1.7175961089850594e-23
-0.49486296040623756	-1.7953019162635704e-23
-0.49480192524998756	-1.8726564734095346e-23
-0.49474089009373756	-1.9496023920526134e-23
-0.49467985493748756	-2.0261214306756588e-23
-0.49461881978123756	-2.102237928153561e-23
-0.49455778462498756	-2.1779536966245973e-23
-0.49449674946873756	-2.2532174156843056e-23
-0.49443571431248756	-2.327978693686408e-23
-0.49437467915623756	-2.4022418153326297e-23
-0.49431364399998756	-2.4760331297128422e-23
-0.49425260884373756	-2.5493319732713438e-23
-0.49419157368748756	-2.6220751194653797e-23
-0.49413053853123756	-2.6942312833670587e-23
-0.49406950337498756	-2.765828035927438e-23
-0.49400846821873756	-2.8368836149302146e-23
-0.49394743306248756	-2.9073499651513596e-23
-0.49388639790623756	-2.9771620856863735e-23
-0.49382536274998756	-3.0463180465817883e-23
-0.49376432759373756	-3.114859794463631e-23
-0.49370329243748756	-3.1827819852186676e-23
-0.49364225728123756	-3.2500132857252784e-23
-0.49358122212498756	-3.316503326288669e-23
-0.49352018696873756	-3.382280135983462e-23
-0.49345915181248756	-3.4473838950952897e-23
-0.49339811665623756	-3.511778360540037e-23
-0.49333708149998756	-3.575382620962907e-23
-0.49327604634373756	-3.638177305368166e-23
-0.49321501118748756	-3.700216319118853e-23
-0.49315397603123756	-3.761520127738972e-23
-0.49309294087498756	-3.8220176685047415e-23
-0.49303190571873756	-3.8816341635148334e-23
-0.49297087056248756	-3.9403900027385877e-23
-0.49290983540623756	-3.9983504695254284e-23
-0.49284880024998756	-4.055500680987553e-23
-0.49278776509373756	-4.1117450692011963e-23
-0.49272672993748756	-4.167037573019187e-23
-0.49266569478123756	-4.221437582185051e-23
-0.49260465962498756	-4.274998167023211e-23
-0.49254362446873756	-4.327659885861765e-23
-0.49248258931248756	-4.379322260094963e-23
-0.49242155415623756	-4.4299852620953e-23
-0.49236051899998756	-4.479734430291514e-23
-0.49229948384373756	-4.528587179711071e-23
-0.49223844868748756	-4.576443744709085e-23
-0.49217741353123756	-4.6232259303482274e-23
-0.49211637837498756	-4.668986745488965e-23
-0.49205534321873756	-4.7138130061539095e-23
-0.49199430806248756	-4.757669496155184e-23
-0.49193327290623756	-4.800433909655523e-23
-0.49187223774998756	-4.8420745290247033e-23
-0.49181120259373756	-4.8826892080169347e-23
-0.49175016743748756	-4.9223368793679624e-23
-0.49168913228123756	-4.960925913251278e-23
-0.49162809712498756	-4.998341854651952e-23
-0.49156706196873756	-5.034617312549776e-23
-0.49150602681248756	-5.069871059571975e-23
-0.49144499165623756	-5.1041056732241064e-23
-0.49138395649998756	-5.1371853421713714e-23
-0.49132292134373756	-5.1690367501264724e-23
-0.49126188618748756	-5.1997574269918277e-23
-0.49120085103123756	-5.229453365373706e-23
-0.49113981587498756	-5.258056960118099e-23
-0.49107878071873756	-5.2854180164068045e-23
-0.49101774556248756	-5.311532250528177e-23
-0.49095671040623756	-5.336543580407817e-23
-0.49089567524998756	-5.360507102182376e-23
-0.49083464009373756	-5.383286840555754e-23
-0.49077360493748756	-5.40475906831468e-23
-0.49071256978123756	-5.42500395312145e-23
-0.49065153462498756	-5.44417550762879e-23
-0.49059049946873756	-5.462248038846388e-23
-0.49052946431248756	-5.479043513770654e-23
-0.49046842915623756	-5.494506232882871e-23
-0.49040739399998756	-5.508790807261021e-23
-0.49034635884373756	-5.522013927963634e-23
-0.49028532368748756	-5.534058515791046e-23
-0.49022428853123756	-5.544749180399543e-23
-0.49016325337498756	-5.554128861154255e-23
-0.49010221821873756	-5.562392691447019e-23
-0.49004118306248756	-5.56957354033106e-23
-0.48998014790623756	-5.575479427292002e-23
-0.48991911274998756	-5.579993403694728e-23
-0.48985807759373756	-5.583262944333717e-23
-0.48979704243748756	-5.585468097635063e-23
-0.48973600728123756	-5.58652913223295e-23
-0.48967497212498756	-5.58622510391603e-23
-0.48961393696873756	-5.584546143733384e-23
-0.48955290181248756	-5.581716862861578e-23
-0.48949186665623756	-5.577840388200935e-23
-0.48943083149998756	-5.572726434881486e-23
-0.48936979634373756	-5.566189927658844e-23
-0.48930876118748756	-5.558353605260282e-23
-0.48924772603123756	-5.549462751181675e-23
-0.48918669087498756	-5.539493080863311e-23
-0.48912565571873756	-5.528181219090332e-23
-0.48906462056248756	-5.515446570302812e-23
-0.48900358540623756	-5.501534710179191e-23
-0.48894255024998756	-5.486636103956481e-23
-0.48888151509373756	-5.470577228098419e-23
-0.48882047993748756	-5.453090568828148e-23
-0.48875944478123756	-5.434251292545684e-23
-0.48869840962498756	-5.414377629145117e-23
-0.48863737446873756	-5.393530694972704e-23
-0.48857633931248756	-5.371408288874784e-23
-0.48851530415623756	-5.347825715264872e-23
-0.48845426899998756	-5.323030385858507e-23
-0.48839323384373756	-5.297329687990401e-23
-0.48833219868748756	-5.2706025741140244e-23
-0.48827116353123756	-5.24248201533671e-23
-0.48821012837498756	-5.212946698838658e-23
-0.48814909321873756	-5.182384668843109e-23
-0.48808805806248756	-5.1509974253730167e-23
-0.48802702290623756	-5.118473010747288e-23
-0.48796598774998756	-5.0844722501462445e-23
-0.48790495259373756	-5.049187164524606e-23
-0.48784391743748756	-5.01307305181486e-23
-0.48778288228123756	-4.9761406482756126e-23
-0.48772184712498756	-4.9379252668037693e-23
-0.48766081196873756	-4.8982200523321186e-23
-0.48759977681248756	-4.857436378809319e-23
-0.48753874165623756	-4.8159927008131755e-23
-0.48747770649998756	-4.773659367171928e-23
-0.48741667134373756	-4.729905176017511e-23
-0.48735563618748756	-4.6847437274128025e-23
-0.48729460103123756	-4.638755333238556e-23
-0.48723356587498756	-4.5922083911090146e-23
-0.48717253071873756	-4.544632881762853e-23
-0.48711149556248756	-4.4955450517305885e-23
-0.48705046040623756	-4.4452285974157156e-23
-0.48698942524998756	-4.394338451438736e-23
-0.48692839009373756	-4.342901823219949e-23
-0.48686735493748756	-4.29026655265449e-23
-0.48680631978123756	-4.236115643599631e-23
-0.48674528462498756	-4.1809952787188356e-23
-0.48668424946873756	-4.1255107468438134e-23
-0.48662321431248756	-4.069402066314205e-23
-0.48656217915623756	-4.011939749781171e-23
-0.48650114399998756	-3.95306380279952e-23
-0.48644010884373756	-3.8935139113384714e-23
-0.48637907368748756	-3.83372377212066e-23
-0.48631803853123756	-3.77316566650351e-23
-0.48625700337498756	-3.7111676910842666e-23
-0.48619596821873756	-3.647966118604776e-23
-0.48613493306248756	-3.584373712089352e-23
-0.48607389790623756	-3.520559553595579e-23
-0.48601286274998756	-3.4558077581668946e-23
-0.48595182759373756	-3.3896296700383577e-23
-0.48589079243748756	-3.322530228097398e-23
-0.48582975728123756	-3.255258497303334e-23
-0.48576872212498756	-3.187691037698742e-23
-0.48570768696873756	-3.1190502426947145e-23
-0.48564665181248756	-3.0491125986561564e-23
-0.48558561665623756	-2.978560724913114e-23
-0.48552458149998756	-2.90795950271752e-23
-0.48546354634373756	-2.836930793286699e-23
-0.48540251118748756	-2.7647693691417214e-23
-0.48534147603123756	-2.6915362296184674e-23
-0.48528044087498756	-2.61796812660957e-23
-0.48521940571873756	-2.54437348180881e-23
-0.48515837056248756	-2.4702081156132367e-23
-0.48509733540623756	-2.3949465352691785e-23
-0.48503630024998756	-2.3188942254890223e-23
-0.48497526509373756	-2.242723117694253e-23
-0.48491422993748756	-2.166475181755185e-23
-0.48485319478123756	-2.089549676279072e-23
-0.48479215962498756	-2.011655105750761e-23
-0.48473112446873756	-1.9332590358313034e-23
-0.48467008931248756	-1.8548810438964378e-23
-0.48460905415623756	-1.7763386682093955e-23
-0.48454801899998756	-1.6970792870722752e-23
-0.48448698384373756	-1.6170507483720243e-23
-0.48442594868748756	-1.5367812878619934e-23
-0.48436491353123756	-1.4565868477783514e-23
-0.48430387837498756	-1.376135199127443e-23
-0.48424284321873756	-1.295002348906773e-23
-0.48418180806248756	-1.2133389204447655e-23
-0.48412077290623756	-1.1316435632617879e-23
-0.48405973774998756	-1.0500268303226293e-23
-0.48399870259373756	-9.68091815240409e-24
-0.48393766743748756	-8.855795083735152e-24
-0.48387663228123756	-8.02776016368808e-24
-0.48381559712498756	-7.200855581950303e-24
-0.48375456196873756	-6.374496637441901e-24
-0.48369352681248756	-5.544867470826156e-24
-0.48363249165623756	-4.71105301388945e-24
-0.48357145649998756	-3.8765197334788754e-24
-0.48351042134373756	-3.0440000542385093e-24
-0.48344938618748756	-2.2117429140928353e-24
-0.48338835103123756	-1.3766237975293646e-24
-0.48332731587498756	-5.391337331834228e-25
-0.48326628071873756	2.972577470627317e-25
-0.48320524556248756	1.1311275626571673e-24
-0.48314421040623756	1.9648213900006275e-24
-0.48308317524998756	2.8004961047044612e-24
-0.48302214009373756	3.636662579218908e-24
-0.48296110493748756	4.470315031934522e-24
-0.48290006978123756	5.301171199831449e-24
-0.48283903462498756	6.131646293839536e-24
-0.48277799946873756	6.962871290749054e-24
-0.48271696431248756	7.792849330630886e-24
-0.48265592915623756	8.619300257182028e-24
-0.48259489399998756	9.442730862037241e-24
-0.48253385884373756	1.0265243583217463e-23
-0.48247282368748756	1.1087100153278376e-23
-0.48241178853123756	1.1906196304890631e-23
-0.48235075337498756	1.2721015543968336e-23
-0.48228971821873756	1.3532520196190436e-23
-0.48222868306248756	1.4342313012656543e-23
-0.48216764790623756	1.515000938383816e-23
-0.48210661274998756	1.595367467380499e-23
-0.48204557759373756	1.675246101725583e-23
-0.48198454243748756	1.7547477864735344e-23
-0.48192350728123756	1.8339789231867116e-23
-0.48186247212498756	1.9128645046103794e-23
-0.48180143696873756	1.991245295461486e-23
-0.48174040181248756	2.0690862245421304e-23
-0.48167936665623756	2.1464895088477052e-23
-0.48161833149998756	2.2235122958353387e-23
-0.48155729634373756	2.3000653830808856e-23
-0.48149626118748756	2.3760284123435357e-23
-0.48143522603123756	2.451398324886152e-23
-0.48137419087498756	2.526257942662349e-23
-0.48131315571873756	2.6006267416218965e-23
-0.48125212056248756	2.6744163551984933e-23
-0.48119108540623756	2.747541985872785e-23
-0.48113005024998756	2.820016554548406e-23
-0.48106901509373756	2.891898902752009e-23
-0.48100797993748756	2.963185110838811e-23
-0.48094694478123756	3.033799102174243e-23
-0.48088590962498756	3.1036830984627345e-23
-0.48082487446873756	3.172852573709949e-23
-0.48076383931248756	3.2413448553553805e-23
-0.48070280415623756	3.309143451235007e-23
-0.48064176899998756	3.3761849671543544e-23
-0.48058073384373756	3.442430105103133e-23
-0.48051969868748756	3.507894137765412e-23
-0.48045866353123756	3.5726000667536994e-23
-0.48039762837498756	3.636526441313574e-23
-0.48033659321873756	3.699620912777728e-23
-0.48027555806248756	3.7618544069901277e-23
-0.48021452290623756	3.8232384854179044e-23
-0.48015348774998756	3.883786576172913e-23
-0.48009245259373756	3.94347702853355e-23
-0.48003141743748756	4.002266947096076e-23
-0.47997038228123756	4.060133548727829e-23
-0.47990934712498756	4.117085228483875e-23
-0.47984831196873756	4.173129660734545e-23
-0.47978727681248756	4.228245559857705e-23
-0.47972624165623756	4.2823962024776753e-23
-0.47966520649998756	4.335563480565955e-23
-0.47960417134373756	4.387754916023253e-23
-0.47954313618748756	4.438975003856431e-23
-0.47948210103123756	4.4892021558735696e-23
-0.47942106587498756	4.538403557862801e-23
-0.47936003071873756	4.586565746581501e-23
-0.47929899556248756	4.6336972778290555e-23
-0.47923796040623756	4.6797999789563724e-23
-0.47917692524998756	4.7248505027990244e-23
-0.47911589009373756	4.7688193810965497e-23
-0.47905485493748756	4.8116991413728526e-23
-0.47899381978123756	4.8534997441381673e-23
-0.47893278462498756	4.894219024142097e-23
-0.47887174946873756	4.933832046822931e-23
-0.47881071431248756	4.972314368376236e-23
-0.47874967915623756	5.0096647473399396e-23
-0.47868864399998756	5.045893747801836e-23
-0.47862760884373756	5.0809949708568304e-23
-0.47856657368748756	5.1149420218172956e-23
-0.47850553853123756	5.147715839358406e-23
-0.47844450337498756	5.179321171050247e-23
-0.47838346821873756	5.2097677723566007e-23
-0.47832243306248756	5.2390449297275475e-23
-0.47826139790623756	5.267127090416618e-23
-0.47820036274998756	5.294001655835691e-23
-0.47813932759373756	5.319677560196999e-23
-0.47807829243748756	5.344162464748518e-23
-0.47801725728123756	5.367442907553499e-23
-0.47795622212498756	5.389496349937876e-23
-0.47789518696873756	5.410316464839927e-23
-0.47783415181248756	5.429914232698276e-23
-0.47777311665623756	5.448293788350563e-23
-0.47771208149998756	5.465439415682864e-23
-0.47765104634373756	5.481332869076387e-23
-0.47759001118748756	5.495974422671646e-23
-0.47752897603123756	5.509376260392134e-23
-0.47746794087498756	5.521538924613632e-23
-0.47740690571873756	5.53244616453927e-23
-0.47734587056248756	5.542085016619011e-23
-0.47728483540623756	5.55046060734004e-23
-0.47722380024998756	5.557584337140921e-23
-0.47716276509373756	5.563454003500377e-23
-0.47710172993748756	5.56805518962301e-23
-0.47704069478123756	5.571380571630937e-23
-0.47697965962498756	5.573437967970683e-23
-0.47691862446873756	5.574236515473686e-23
-0.47685758931248756	5.573772561855655e-23
-0.47679655415623756	5.572035366316998e-23
-0.47673551899998756	5.569022980123655e-23
-0.47667448384373756	5.564744704446816e-23
-0.47661344868748756	5.559207342516752e-23
-0.47655241353123756	5.552406481937096e-23
-0.47649137837498756	5.544335422923344e-23
-0.47643034321873756	5.534997220064783e-23
-0.47636930806248756	5.524401699690302e-23
-0.47630827290623756	5.512553053391188e-23
-0.47624723774998756	5.499447251448538e-23
-0.47618620259373756	5.485082750382823e-23
-0.47612516743748756	5.469467126924158e-23
-0.47606413228123756	5.452609092213337e-23
-0.47600309712498756	5.434509615373806e-23
-0.47594206196873756	5.415166896884052e-23
-0.47588102681248756	5.394586299150137e-23
-0.47581999165623756	5.372778173275967e-23
-0.47575895649998756	5.349747263574798e-23
-0.47569792134373756	5.325492047670985e-23
-0.47563688618748756	5.300015837378885e-23
-0.47557585103123756	5.2733311716359204e-23
-0.47551481587498756	5.245448915890633e-23
-0.47545378071873756	5.2163690564842937e-23
-0.47539274556248756	5.186089628266724e-23
-0.47533171040623756	5.1546207997399285e-23
-0.47527067524998756	5.121980448344858e-23
-0.47520964009373756	5.0881766183028545e-23
-0.47514860493748756	5.0532053004808615e-23
-0.47508756978123756	5.017068788334051e-23
-0.47502653462498756	4.979785441206051e-23
-0.47496549946873756	4.9413736654111783e-23
-0.47490446431248756	4.901834857720308e-23
-0.47484342915623756	4.861163643145893e-23
-0.47478239399998756	4.8193703556899686e-23
-0.47472135884373756	4.776479835382885e-23
-0.47466032368748756	4.73250734854982e-23
-0.47459928853123756	4.687448851825173e-23
-0.47453825337498756	4.641302046829525e-23
-0.47447721821873756	4.594086909852696e-23
-0.47441618306248756	4.5458322245206367e-23
-0.47435514790623756	4.496546796216077e-23
-0.47429411274998756	4.4462209368221665e-23
-0.47423307759373756	4.394858405609764e-23
-0.47417204243748756	4.3424896645645823e-23
-0.47411100728123756	4.289143355909273e-23
-0.47404997212498756	4.234818742552603e-23
-0.47398893696873756	4.179504122048075e-23
-0.47392790181248756	4.12321456956024e-23
-0.47386686665623756	4.065988905636331e-23
-0.47380583149998756	4.0078487124277294e-23
-0.47374479634373756	3.948783903175951e-23
-0.47368376118748756	3.8887893602749685e-23
-0.47362272603123756	3.827895238824356e-23
-0.47356169087498756	3.7661414144527105e-23
-0.47350065571873756	3.70353553714481e-23
-0.47343962056248756	3.640061735485646e-23
-0.47337858540623756	3.575727695640595e-23
-0.47331755024998756	3.510576174567151e-23
-0.47325651509373756	3.4446410807281284e-23
-0.47319547993748756	3.377916400951704e-23
-0.47313444478123756	3.3103885988231627e-23
-0.47307340962498756	3.242083086424336e-23
-0.47301237446873756	3.1730501321409535e-23
-0.47295133931248756	3.1033092276410144e-23
-0.47289030415623756	3.032840448126828e-23
-0.47282926899998756	2.961640633542515e-23
-0.47276823384373756	2.889755491488367e-23
-0.47270719868748756	2.817233477056162e-23
-0.47264616353123756	2.744073980426379e-23
-0.47258512837498756	2.670253484905327e-23
-0.47252409321873756	2.5957894834451272e-23
-0.47246305806248756	2.5207410055029365e-23
-0.47240202290623756	2.4451428563630523e-23
-0.47234098774998756	2.3689761061475066e-23
-0.47227995259373756	2.292224093475419e-23
