Time	Frequency
-0.5000078323125052	0.02735420343916535
-0.49994679715625523	0.020773869171983483
-0.49988576200000523	0.014257914959953885
-0.49982472684375523	0.00779341298759796
-0.49976369168750523	0.0012694668103356624
-0.49970265653125523	-0.0053236295853084465
-0.49964162137500523	-0.01187665946749935
-0.49958058621875523	-0.01835466688242302
-0.49951955106250523	-0.024855488359144803
-0.49945851590625523	-0.03143246236353534
-0.49939748075000523	-0.03800000091173595
-0.49933644559375523	-0.04448658944124694
-0.49927541043750523	-0.05095810009563735
-0.49921437528125523	-0.057495410819215644
-0.49915334012500523	-0.06405063144913278
-0.49909230496875523	-0.07053503138199368
-0.49903126981250523	-0.07697420993051178
-0.49897023465625523	-0.08345575847258029
-0.49890919950000523	-0.0899715212596965
-0.49884816434375523	-0.09643574956944533
-0.49878712918750523	-0.10283747280078755
-0.49872609403125523	-0.10925310777662225
-0.49866505887500523	-0.11570598335728004
-0.49860402371875523	-0.12212771479908935
-0.49854298856250523	-0.1284820321139031
-0.49848195340625523	-0.13482393165739553
-0.49842091825000523	-0.14119539482754068
-0.49835988309375523	-0.14755145700707745
-0.49829884793750523	-0.15384373597486226
-0.49823781278125523	-0.16010369097074126
-0.49817677762500523	-0.16637978469074888
-0.49811574246875523	-0.17264964235284058
-0.49805470731250523	-0.17886313532003695
-0.49799367215625523	-0.18503078005697063
-0.49793263700000523	-0.1911987557797586
-0.49787160184375523	-0.19736333338025305
-0.49781056668750523	-0.20347993291730204
-0.49774953153125523	-0.20954329625117638
-0.49768849637500523	-0.21559194494503492
-0.49762746121875523	-0.22163510777322534
-0.49756642606250523	-0.22763719737462676
-0.49750539090625523	-0.23358265200803813
-0.49744435575000523	-0.23950013332928236
-0.49738332059375523	-0.24540659807142842
-0.49732228543750523	-0.2512767070753403
-0.49726125028125523	-0.25708972303050587
-0.49720021512500523	-0.2628644027965689
-0.49713917996875523	-0.2686208290351938
-0.49707814481250523	-0.2743430146890552
-0.49701710965625523	-0.2800088357887933
-0.49695607450000523	-0.28562842017028944
-0.49689503934375523	-0.2912217296211719
-0.49683400418750523	-0.2967804744740405
-0.49677296903125523	-0.30228401865103177
-0.49671193387500523	-0.3077362394239428
-0.49665089871875523	-0.3131549808276461
-0.49658986356250523	-0.31853677970786176
-0.49652882840625523	-0.32386313330385674
-0.49646779325000523	-0.32913417975148024
-0.49640675809375523	-0.3343659288862632
-0.49634572293750523	-0.3395581055790841
-0.49628468778125523	-0.3446938456262926
-0.49622365262500523	-0.34977048176654624
-0.49616261746875523	-0.35480277475709643
-0.49610158231250523	-0.35979328956921913
-0.49604054715625523	-0.3647261842007096
-0.49597951200000523	-0.3695957631772433
-0.49591847684375523	-0.37441584810760165
-0.49585744168750523	-0.37919247478615975
-0.49579640653125523	-0.38391116702173306
-0.49573537137500523	-0.3885625377439933
-0.49567433621875523	-0.39315840667899654
-0.49561330106250523	-0.39770849327458
-0.49555226590625523	-0.4022011776678618
-0.49549123075000523	-0.40662387569261843
-0.49543019559375523	-0.4109849005799704
-0.49536916043750523	-0.4152965770687601
-0.49530812528125523	-0.4195513645284167
-0.49524709012500523	-0.4237349191561994
-0.49518605496875523	-0.4278512826314005
-0.49512501981250523	-0.4319137916675314
-0.49506398465625523	-0.43591929449616457
-0.49500294950000523	-0.4398532954990223
-0.49494191434375523	-0.4437157266536241
-0.49488087918750523	-0.44751953233577735
-0.49481984403125523	-0.45126542744323517
-0.49475880887500523	-0.4549398595042164
-0.49469777371875523	-0.45853926974300685
-0.49463673856250523	-0.46207531896443615
-0.49457570340625523	-0.4655519370548528
-0.49451466825000523	-0.46895718587506546
-0.49445363309375523	-0.472284669479141
-0.49439259793750523	-0.47554435148024954
-0.49433156278125523	-0.4787429258899128
-0.49427052762500523	-0.48187050274378007
-0.49420949246875523	-0.48491816307342395
-0.49414845731250523	-0.48789356676689666
-0.49408742215625523	-0.4908057642003148
-0.49402638700000523	-0.4936475563305117
-0.49396535184375523	-0.4964080539379158
-0.49390431668750523	-0.4990920227750668
-0.49384328153125523	-0.5017102001096447
-0.49378224637500523	-0.5042586011035015
-0.49372121121875523	-0.5067251319291397
-0.49366017606250523	-0.5091112644821038
-0.49359914090625523	-0.5114286504641672
-0.49353810575000523	-0.513676899319107
-0.49347707059375523	-0.5158435736981067
-0.49341603543750523	-0.5179264233541617
-0.49335500028125523	-0.5199368739635146
-0.49329396512500523	-0.5218783671250795
-0.49323292996875523	-0.523739428447158
-0.49317189481250523	-0.5255141983039918
-0.49311085965625523	-0.5272126579930444
-0.49304982450000523	-0.5288417742770803
-0.49298878934375523	-0.5303922374030962
-0.49292775418750523	-0.5318550759273108
-0.49286671903125523	-0.5332375879211694
-0.49280568387500523	-0.5345494441904431
-0.49274464871875523	-0.5357845317260143
-0.49268361356250523	-0.5369317990171195
-0.49262257840625523	-0.5379951367801805
-0.49256154325000523	-0.5389858837426248
-0.49250050809375523	-0.5399017876067148
-0.49243947293750523	-0.5407308461255093
-0.49237843778125523	-0.5414728410322537
-0.49231740262500523	-0.5421393388407258
-0.49225636746875523	-0.5427324125297498
-0.49219533231250523	-0.5432408209072503
-0.49213429715625523	-0.5436602572141669
-0.49207326200000523	-0.5440007426144005
-0.49201222684375523	-0.5442681698365243
-0.49195119168750523	-0.5444537825828637
-0.49189015653125523	-0.5445501486315797
-0.49182912137500523	-0.5445642169885824
-0.49176808621875523	-0.5445043377047213
-0.49170705106250523	-0.5443653443203557
-0.49164601590625523	-0.5441382648038547
-0.49158498075000523	-0.5438263817381295
-0.49152394559375523	-0.5434388504272903
-0.49146291043750523	-0.542974239561822
-0.49140187528125523	-0.5424237188033456
-0.49134084012500523	-0.5417871726977601
-0.49127980496875523	-0.5410728994535704
-0.49121876981250523	-0.540282502478393
-0.49115773465625523	-0.5394087537110053
-0.49109669950000523	-0.5384492168299638
-0.49103566434375523	-0.5374102882984048
-0.49097462918750523	-0.5362953269719689
-0.49091359403125523	-0.5350992472587957
-0.49085255887500523	-0.5338185647101562
-0.49079152371875523	-0.5324576997327163
-0.49073048856250523	-0.531020642413674
-0.49066945340625523	-0.5295041345886565
-0.49060841825000523	-0.5279045461944716
-0.49054738309375523	-0.5262248980895452
-0.49048634793750523	-0.5244691902414287
-0.49042531278125523	-0.5226353990506409
-0.49036427762500523	-0.5207201460811322
-0.49030324246875523	-0.518725514945555
-0.49024220731250523	-0.516655168434501
-0.49018117215625523	-0.5145078425787198
-0.49012013700000523	-0.5122806804005983
-0.49005910184375523	-0.5099754096137801
-0.48999806668750523	-0.5075953648498591
-0.48993703153125523	-0.5051395054842076
-0.48987599637500523	-0.5026051476057386
-0.48981496121875523	-0.49999396994006473
-0.48975392606250523	-0.4973095197670851
-0.48969289090625523	-0.49455097085389504
-0.48963185575000523	-0.4917153063574155
-0.48957082059375523	-0.48880395106921
-0.48950978543750523	-0.48582097529035123
-0.48944875028125523	-0.48276597187208126
-0.48938771512500523	-0.4796354352568863
-0.48932667996875523	-0.476430439532342
-0.48926564481250523	-0.4731557516312089
-0.48920460965625523	-0.46981155672605507
-0.48914357450000523	-0.4663935756327377
-0.48908253934375523	-0.4629019105405317
-0.48902150418750523	-0.45934211509395045
-0.48896046903125523	-0.4557159589548058
-0.48889943387500523	-0.4520189110354873
-0.48883839871875523	-0.44824947859725556
-0.48877736356250523	-0.4444131627077761
-0.48871632840625523	-0.44051322936619447
-0.48865529325000523	-0.4365453708025689
-0.48859425809375523	-0.43250667012771943
-0.48853322293750523	-0.42840231770094567
-0.48847218778125523	-0.4242372038815931
-0.48841115262500523	-0.4200078889235374
-0.48835011746875523	-0.41570999608502307
-0.48828908231250523	-0.41134738429304263
-0.48822804715625523	-0.4069261389375872
-0.48816701200000523	-0.40244450079068345
-0.48810597684375523	-0.3978974137630063
-0.48804494168750523	-0.39328727394450447
-0.48798390653125523	-0.388620769076065
-0.48792287137500523	-0.3838975767828986
-0.48786183621875523	-0.37911206745049386
-0.48780080106250523	-0.3742650477854036
-0.48773976590625523	-0.3693636430053056
-0.48767873075000523	-0.3644092748846632
-0.48761769559375523	-0.35939623988597497
-0.48755666043750523	-0.354323805117743
-0.48749562528125523	-0.3491991338045695
-0.48743459012500523	-0.3440253789718523
-0.48737355496875523	-0.3387970951302067
-0.48731251981250523	-0.33351165804269545
-0.48725148465625523	-0.32817564718975356
-0.48719044950000523	-0.3227941645624716
-0.48712941434375523	-0.31736271212997824
-0.48706837918750523	-0.31187688933696084
-0.48700734403125523	-0.3063421333349223
-0.48694630887500523	-0.300765238255622
-0.48688527371875523	-0.2951431472277191
-0.48682423856250523	-0.2894701220475549
-0.48676320340625523	-0.28375016873856285
-0.48670216825000523	-0.2779911972221288
-0.48664113309375523	-0.27219167977403885
-0.48658009793750523	-0.2663449724205375
-0.48651906278125523	-0.26045332552332456
-0.48645802762500523	-0.25452541746411855
-0.48639699246875523	-0.24856185596218877
-0.48633595731250523	-0.2425555995645567
-0.48627492215625523	-0.236506741717862
-0.48621388700000523	-0.23042410522098092
-0.48615285184375523	-0.22431042896283235
-0.48609181668750523	-0.21815878039880715
-0.48603078153125523	-0.21196712430446066
-0.48596974637500523	-0.20574395810099688
-0.48590871121875523	-0.1994942838523516
-0.48584767606250523	-0.19321189539150316
-0.48578664090625523	-0.18689258967011455
-0.48572560575000523	-0.18054397212788892
-0.48566457059375523	-0.17417322066564325
-0.48560353543750523	-0.1677751995503878
-0.48554250028125523	-0.16134360829305905
-0.48548146512500523	-0.1548847644667846
-0.48542042996875523	-0.148407711241716
-0.48535939481250523	-0.14190880218540294
-0.48529835965625523	-0.13538008643665356
-0.48523732450000523	-0.12882625569170225
-0.48517628934375523	-0.12225816723288603
-0.48511525418750523	-0.11567440382779709
-0.48505421903125523	-0.10906534143608322
-0.48499318387500523	-0.10243281588764079
-0.48493214871875523	-0.09578881247911705
-0.48487111356250523	-0.0891350540140883
-0.48481007840625523	-0.0824613590858309
-0.48474904325000523	-0.07576632622268314
-0.48468800809375523	-0.06906214084205312
-0.48462697293750523	-0.06235396908528276
-0.48456593778125523	-0.05563184841406037
-0.48450490262500523	-0.048890843006864096
-0.48444386746875523	-0.04214247133930601
-0.48438283231250523	-0.0353955632959941
-0.48432179715625523	-0.028641542129334344
-0.48426076200000523	-0.021871920639507433
-0.48419972684375523	-0.01509604741738747
-0.48413869168750523	-0.008325794427127936
-0.48407765653125523	-0.0015552162814516186
-0.48401662137500523	0.005226808511531419
-0.48395558621875523	0.012013878537009304
-0.48389455106250523	0.018791530578010727
-0.48383351590625523	0.025562110966642307
-0.48377248075000523	0.03233901760743447
-0.48371144559375523	0.0391201561272013
-0.48365041043750523	0.04588958352504073
-0.48358937528125523	0.052645026832333686
-0.48352834012500523	0.05940053035693065
-0.48346730496875523	0.06615860972100437
-0.48340626981250523	0.07290326473637503
-0.48334523465625523	0.07962755208375018
-0.48328419950000523	0.08634499110953345
-0.48322316434375523	0.09306295202583974
-0.48316212918750523	0.09976679011285314
-0.48310109403125523	0.10644472778593866
-0.48304005887500523	0.11310808474231589
-0.48297902371875523	0.11976886110367577
-0.48291798856250523	0.12641531050863053
-0.48285695340625523	0.1330311266708444
-0.48279591825000523	0.13962387595169384
-0.48273488309375523	0.14620994805782056
-0.48267384793750523	0.15278255168088992
-0.48261281278125523	0.15932182690855667
-0.48255177762500523	0.16582960465134441
-0.48249074246875523	0.1723247391963639
-0.48242970731250523	0.17880654134655646
-0.48236867215625523	0.18525350112399006
-0.48230763700000523	0.19166082837943388
-0.48224660184375523	0.19804823381253459
-0.48218556668750523	0.20442220784867274
-0.48212453153125523	0.21076144116333825
-0.48206349637500523	0.21705375976449123
-0.48200246121875523	0.22331753860839607
-0.48194142606250523	0.2295668215776336
-0.48188039090625523	0.23578317253442227
-0.48181935575000523	0.24194709582094956
-0.48175832059375523	0.24807261844628486
-0.48169728543750523	0.25418063257153556
-0.48163625028125523	0.2602583133796623
-0.48157521512500523	0.26627980513269217
-0.48151417996875523	0.2722523170898192
-0.48145314481250523	0.2782025428348269
-0.48139210965625523	0.28412578526249416
-0.48133107450000523	0.2899914418659258
-0.48127003934375523	0.2957975065565923
-0.48120900418750523	0.30157411141927787
-0.48114796903125523	0.3073268766790415
-0.48108693387500523	0.3130234426393875
-0.48102589871875523	0.31865063127086546
-0.48096486356250523	0.3242385186018087
-0.48090382840625523	0.3298045441902208
-0.48084279325000523	0.3353185348425888
-0.48078175809375523	0.3407553877036353
-0.48072072293750523	0.34614083269230067
-0.48065968778125523	0.3515039508533681
-0.48059865262500523	0.35682113792451314
-0.48053761746875523	0.36205641201641575
-0.48047658231250523	0.3672269321112993
-0.48041554715625523	0.37237181636512307
-0.48035451200000523	0.37747816314542953
-0.48029347684375523	0.38250119990772147
-0.48023244168750523	0.3874453365949703
-0.48017140653125523	0.3923568189888497
-0.48011037137500523	0.39723749163334354
-0.48004933621875523	0.4020378508790474
-0.47998830106250523	0.4067460884556327
-0.47992726590625523	0.41141048656120155
-0.47986623075000523	0.41605032391488295
-0.47980519559375523	0.4206171982633694
-0.47974416043750523	0.42508116800813645
-0.47968312528125523	0.4294861482055159
-0.47962209012500523	0.4338699106377601
-0.47956105496875523	0.43819205892354307
-0.47950001981250523	0.44240451881580184
-0.47943898465625523	0.4465394970952981
-0.47937794950000523	0.45065200818062495
-0.47931691434375523	0.4547174212842523
-0.47925587918750523	0.45867235719264815
-0.47919484403125523	0.462529341212075
-0.47913380887500523	0.4663559155574072
-0.47907277371875523	0.4701509403172836
-0.47901173856250523	0.4738423989972045
-0.47895070340625523	0.47741613889164447
-0.47888966825000523	0.48094365199106365
-0.47882863309375523	0.4844531218902733
-0.47876759793750523	0.4878743669729093
-0.47870656278125523	0.4911624325674139
-0.47864552762500523	0.49438056942359193
-0.47858449246875523	0.49758814408923774
-0.47852345731250523	0.5007303575151145
-0.47846242215625523	0.5037324130213128
-0.47840138700000523	0.5066349841445298
-0.47834035184375523	0.509524404948763
-0.47827931668750523	0.5123757950406844
-0.47821828153125523	0.5150923650544064
-0.47815724637500523	0.5176781555962312
-0.47809621121875523	0.5202345463943905
-0.47803517606250523	0.5227789234806925
-0.47797414090625523	0.5252085338905438
-0.47791310575000523	0.5274816914128587
-0.47785207059375523	0.5296953425430696
-0.47779103543750523	0.5319137381344459
-0.47773000028125523	0.5340501519405457
-0.47766896512500523	0.5360181555510799
-0.47760792996875523	0.5378871224743552
-0.47754689481250523	0.5397607780287192
-0.47748585965625523	0.5415907823966297
-0.47742482450000523	0.5432599141455384
-0.47736378934375523	0.5447905196587317
-0.47730275418750523	0.5463058131759854
-0.47724171903125523	0.5478103072560369
-0.47718068387500523	0.5491807681838048
-0.47711964871875523	0.5503848148410045
-0.47705861356250523	0.551537600316395
-0.47699757840625523	0.5526963654435386
-0.47693654325000523	0.5537596805588927
-0.47687550809375523	0.5546486260269415
-0.47681447293750523	0.5554448925026219
-0.47675343778125523	0.5562428885368762
-0.47669240262500523	0.5569835238347498
-0.47663136746875523	0.5575626314243621
-0.47657033231250523	0.558014560475996
-0.47650929715625523	0.5584461777782476
-0.47644826200000523	0.5588470452419259
-0.47638722684375523	0.5591132779881738
-0.47632619168750523	0.5592331078005212
-0.47626515653125523	0.5593019849301052
-0.47620412137500523	0.5593502677378713
-0.47614308621875523	0.5592945991793803
-0.47608205106250523	0.5590900463972208
-0.47602101590625523	0.5588053752886201
-0.47595998075000523	0.5584956075546271
-0.47589894559375523	0.558107548534956
-0.47583791043750523	0.5575803695997701
-0.47577687528125523	0.5569519903113198
-0.47571584012500523	0.5562854958050194
-0.47565480496875523	0.5555574179883642
-0.47559376981250523	0.5547057034017872
-0.47553273465625523	0.5537412401554842
-0.47547169950000523	0.5527231180651676
-0.47541066434375523	0.5516516483160422
-0.47534962918750523	0.5504728635833364
-0.47528859403125523	0.5491777022210229
-0.47522755887500523	0.5478144281011523
-0.47516652371875523	0.5463995158245835
-0.47510548856250523	0.5448917047318179
-0.47504445340625523	0.5432696620871901
-0.47498341825000523	0.5415682219285508
-0.47492238309375523	0.5398128261152216
-0.47486134793750523	0.5379759614921494
-0.47480031278125523	0.5360304873823654
-0.47473927762500523	0.5339978122268386
-0.47467824246875523	0.5319064355139846
-0.47461720731250523	0.5297415771670871
-0.47455617215625523	0.5274756147818781
-0.47449513700000523	0.5251186055435889
-0.47443410184375523	0.522697702770184
-0.47437306668750523	0.5202081158819644
-0.47431203153125523	0.5176251796067688
-0.47425099637500523	0.5149506849522436
-0.47418996121875523	0.5122078256775631
-0.47412892606250523	0.509398323869269
-0.47406789090625523	0.5065020314018562
-0.47400685575000523	0.5035161457688596
-0.47394582059375523	0.5004596878848284
-0.47388478543750523	0.497337734473298
-0.47382375028125523	0.494133824608236
-0.47376271512500523	0.4908426539771801
-0.47370167996875523	0.4874802179460478
-0.47364064481250523	0.48405375029351444
-0.47357960965625523	0.4805493169725356
-0.47351857450000523	0.476959687744955
-0.47345753934375523	0.47329894957884616
-0.47339650418750523	0.4695765862216294
-0.47333546903125523	0.4657805254886473
-0.47327443387500523	0.4619010159754213
-0.47321339871875523	0.4579501108502945
-0.47315236356250523	0.45394018746661197
-0.47309132840625523	0.4498618526953173
-0.47303029325000523	0.4457025103191824
-0.47296925809375523	0.4414708931201174
-0.47290822293750523	0.43718199803628666
-0.47284718778125523	0.4328305636715678
-0.47278615262500523	0.4284021078429421
-0.47272511746875523	0.4239007876461072
-0.47266408231250523	0.4193426551354173
-0.47260304715625523	0.4147272595216753
-0.47254201200000523	0.410040106200338
-0.47248097684375523	0.40528074177782597
-0.47241994168750523	0.400464444284493
-0.47235890653125523	0.395595225348285
-0.47229787137500523	0.39066030330149126
-0.47223683621875523	0.38565536567067116
-0.47217580106250523	0.38059341848423267
-0.47211476590625523	0.37548170533034425
-0.47205373075000523	0.3703100277116396
-0.47199269559375523	0.36507145440409766
-0.47193166043750523	0.3597764369883372
-0.47187062528125523	0.35443452986671875
-0.47180959012500523	0.3490382102229051
-0.47174855496875523	0.34357864242267755
-0.47168751981250523	0.33806356306433133
-0.47162648465625523	0.3325041613907549
-0.47156544950000523	0.3268958195958174
-0.47150441434375523	0.32122847725075104
-0.47144337918750523	0.3155070556641495
-0.47138234403125523	0.3097438932681539
-0.47132130887500523	0.3039372590118525
-0.47126027371875523	0.2980760431435809
-0.47119923856250523	0.29216202006006664
-0.47113820340625523	0.28620827462491855
-0.47107716825000523	0.28021672471614745
-0.47101613309375523	0.2741763087599993
-0.47095509793750523	0.2680851102574268
-0.47089406278125523	0.26195558225294335
-0.47083302762500523	0.25579320169051384
-0.47077199246875523	0.24958797529342067
-0.47071095731250523	0.2433345506430248
-0.47064992215625523	0.23704386875288475
-0.47058888700000523	0.23072486896067712
-0.47052785184375523	0.22436985224821954
-0.47046681668750523	0.21797039380017252
-0.47040578153125523	0.21153456781027508
-0.47034474637500523	0.20507389873699974
-0.47028371121875523	0.1985840567080381
