Time	Frequency
-0.5000343301562538	0.5291637500643966
-0.49997329500000376	0.5258899461712632
-0.49991225984375376	0.5225281422319329
-0.49985122468750376	0.519074100869959
-0.49979018953125376	0.515521397860556
-0.49972915437500376	0.5118669068758495
-0.49966811921875376	0.5081137905679014
-0.49960708406250376	0.5042696129478516
-0.49954604890625376	0.500340946546465
-0.49948501375000376	0.4963286289399286
-0.49942397859375376	0.4922274841830221
-0.49936294343750376	0.4880308830874627
-0.49930190828125376	0.48373659004964364
-0.49924087312500376	0.47934926203576744
-0.49917983796875376	0.47487754532402493
-0.49911880281250376	0.470327847462862
-0.49905776765625376	0.46569964536873343
-0.49899673250000376	0.46098630913326094
-0.49893569734375376	0.4561810137149677
-0.49887466218750376	0.4512830375311118
-0.49881362703125376	0.44629927168881767
-0.49875259187500376	0.4412394782593369
-0.49869155671875376	0.43610899544804704
-0.49863052156250376	0.43090489266930204
-0.49856948640625376	0.42561886869301463
-0.49850845125000376	0.4202447404607972
-0.49844741609375376	0.4147844950227826
-0.49838638093750376	0.4092477302016128
-0.49832534578125376	0.4036446601514787
-0.49826431062500376	0.3979783486795998
-0.49820327546875376	0.3922426871547111
-0.49814224031250376	0.3864280905747693
-0.49808120515625376	0.3805304108587139
-0.49802017000000376	0.3745555314860843
-0.49795913484375376	0.3685155582333838
-0.49789809968750376	0.36241961938021416
-0.49783706453125376	0.3562669031428048
-0.49777602937500376	0.3500479162118397
-0.49771499421875376	0.343753205466121
-0.49765395906250376	0.3373823691393151
-0.49759292390625376	0.33094569449353434
-0.49753188875000376	0.3244567577221243
-0.49747085359375376	0.3179218961512533
-0.49740981843750376	0.31133544503736504
-0.49734878328125376	0.30468517476545787
-0.49728774812500376	0.29796362611474514
-0.49722671296875376	0.2911756934146552
-0.49716567781250376	0.28433584786265037
-0.49710464265625376	0.27745706828647165
-0.49704360750000376	0.2705406660519604
-0.49698257234375376	0.2635757800150212
-0.49692153718750376	0.2565493515586991
-0.49686050203125376	0.24945842235115231
-0.49679946687500376	0.24231417248730514
-0.49673843171875376	0.23513384382127545
-0.49667739656250376	0.2279271861819739
-0.49661636140625376	0.2206889342544197
-0.49655532625000376	0.2134038810372
-0.49649429109375376	0.20606067815655885
-0.49643325593750376	0.19866294671791213
-0.49637222078125376	0.19122791624529903
-0.49631118562500376	0.18377313661846587
-0.49625015046875376	0.17630242149283992
-0.49618911531250376	0.16880325464652335
-0.49612808015625376	0.16125818292137753
-0.49606704500000376	0.15366080110250957
-0.49600600984375376	0.1460228650375321
-0.49594497468750376	0.13836612452107794
-0.49588393953125376	0.13070515622396608
-0.49582290437500376	0.12303563532923878
-0.49576186921875376	0.11533850544890915
-0.49570083406250376	0.10759700707101756
-0.49563979890625376	0.09981235007673145
-0.49557876375000376	0.09200459746461731
-0.49551772859375376	0.08419741193067956
-0.49545669343750376	0.07639904651908967
-0.49539565828125376	0.06859581771594507
-0.49533462312500376	0.06076421322145785
-0.49527358796875376	0.05289190027375164
-0.49521255281250376	0.04498998249859466
-0.49515151765625376	0.037085698382108394
-0.49509048250000376	0.02920093157394389
-0.49502944734375376	0.021334351188370945
-0.49496841218750376	0.013462789360742774
-0.49490737703125376	0.005561471900262693
-0.49484634187500376	-0.0023735624392785845
-0.49478530671875376	-0.010319923395257807
-0.49472427156250376	-0.018245654546454947
-0.49466323640625376	-0.026134994202459193
-0.49460220125000376	-0.034001432987811206
-0.49454116609375376	-0.041876295427062664
-0.49448013093750376	-0.04978144516358322
-0.49441909578125376	-0.057708752968465074
-0.49435806062500376	-0.06562441376769375
-0.49429702546875376	-0.0734955840324613
-0.49423599031250376	-0.08131740650882795
-0.49417495515625376	-0.08911734332132658
-0.49411392000000376	-0.09693201161114151
-0.49405288484375376	-0.10477489602062877
-0.49399184968750376	-0.1126222649857931
-0.49393081453125376	-0.12043042695838767
-0.49386977937500376	-0.12817109140400915
-0.49380874421875376	-0.13585535447928035
-0.49374770906250376	-0.14352505552643868
-0.49368667390625376	-0.15121716212218778
-0.49362563875000376	-0.1589303821253042
-0.49356460359375376	-0.16662291460848486
-0.49350356843750376	-0.1742450657209508
-0.49344253328125376	-0.18178054385986092
-0.49338149812500376	-0.18926119273763328
-0.49332046296875376	-0.1967409747151328
-0.49325942781250376	-0.20424946517332676
-0.49319839265625376	-0.2117638280508214
-0.49313735750000376	-0.21922440041601043
-0.49307632234375376	-0.22658285719827487
-0.49301528718750376	-0.23384334150849423
-0.49295425203125376	-0.24106072351662733
-0.49289321687500376	-0.24829496930320596
-0.49283218171875376	-0.2555585047322169
-0.49277114656250376	-0.2628016829349729
-0.49271011140625376	-0.26995100663559823
-0.49264907625000376	-0.27697000254715065
-0.49258804109375376	-0.28389155982818715
-0.49252700593750376	-0.2907923620966625
-0.49246597078125376	-0.2977281939614912
-0.49240493562500376	-0.3046836405299104
-0.49234390046875376	-0.31158037184005183
-0.49228286531250376	-0.3183400129577991
-0.49222183015625376	-0.32495035713663584
-0.49216079500000376	-0.33147832318031256
-0.49209975984375376	-0.33801571343759257
-0.49203872468750376	-0.34460070085968
-0.49197768953125376	-0.35118125679944534
-0.49191665437500376	-0.3576540766367654
-0.49185561921875376	-0.3639493471006615
-0.49179458406250376	-0.37009108608901037
-0.49173354890625376	-0.3761803257840186
-0.49167251375000376	-0.382311660849809
-0.49161147859375376	-0.38849118190534027
-0.49155044343750376	-0.3946260566421614
-0.49148940828125376	-0.40059801215707197
-0.49142837312500376	-0.4063618618462482
-0.49136733796875376	-0.4119863508543007
-0.49130630281250376	-0.4176000103480028
-0.49124526765625376	-0.4232837858058695
-0.49118423250000376	-0.4289993475247556
-0.49112319734375376	-0.4346155766940806
-0.49106216218750376	-0.44001488604486333
-0.49100112703125376	-0.4451924057196654
-0.49094009187500376	-0.45026367100207443
-0.49087905671875376	-0.45537084186752125
-0.49081802156250376	-0.46056301201371336
-0.49075698640625376	-0.46575069267814684
-0.49069595125000376	-0.47077544682867434
-0.49063491609375376	-0.4755399638832799
-0.49057388093750376	-0.4800910144439526
-0.49051284578125376	-0.48458391347739377
-0.49045181062500376	-0.48915481429959046
-0.49039077546875376	-0.4938055152012071
-0.49032974031250376	-0.49839770802733463
-0.49026870515625376	-0.5027642346774759
-0.49020767000000376	-0.5068470884957028
-0.49014663484375376	-0.510747437296134
-0.49008559968750376	-0.5146440246053591
-0.49002456453125376	-0.5186454217956303
-0.48996352937500376	-0.5226980853266406
-0.48990249421875376	-0.526627692388149
-0.48984145906250376	-0.5302813142452089
-0.48978042390625376	-0.5336535719370591
-0.48971938875000376	-0.5368918989620265
-0.48965835359375376	-0.5401754739945609
-0.48959731843750376	-0.5435671662296561
-0.48953628328125376	-0.5469607995890149
-0.48947524812500376	-0.550167619025849
-0.48941421296875376	-0.5530708348579215
-0.48935317781250376	-0.5557208845864434
-0.48929214265625376	-0.5582930680817133
-0.48923110750000376	-0.5609428350844131
-0.48917007234375376	-0.5636782212352578
-0.48910903718750376	-0.5663541372120686
-0.48904800203125376	-0.5687921456952227
-0.48898696687500376	-0.5709261938956585
-0.48892593171875376	-0.5728545812654849
-0.48886489656250376	-0.5747568823386119
-0.48880386140625376	-0.5767458425682976
-0.48874282625000376	-0.5787764533858715
-0.48868179109375376	-0.580685482074092
-0.48862075593750376	-0.5823265837724404
-0.48855972078125376	-0.583688666607279
-0.48849868562500376	-0.5849013274540724
-0.48843765046875376	-0.5861256304254193
-0.48837661531250376	-0.5874221277519137
-0.48831558015625376	-0.5887042718151002
-0.48825454500000376	-0.589812853323211
-0.48819350984375376	-0.5906473735549305
-0.48813247468750376	-0.5912456521242228
-0.48807143953125376	-0.5917484339576874
-0.48801040437500376	-0.5922814593390482
-0.48794936921875376	-0.592853710544608
-0.48788833406250376	-0.5933541475966801
-0.48782729890625376	-0.5936461882823912
-0.48776626375000376	-0.5936795538479542
-0.48770522859375376	-0.593527819874113
-0.48764419343750376	-0.5933238335362345
-0.48758315828125376	-0.5931493761354681
-0.48752212312500376	-0.5929706556143364
-0.48746108796875376	-0.5926704050910665
-0.48740005281250376	-0.5921466753010859
-0.48733901765625376	-0.5913952211442653
-0.48727798250000376	-0.5905090129237842
-0.48721694734375376	-0.5895985895940556
-0.48715591218750376	-0.5887013719589859
-0.48709487703125376	-0.5877543204786545
-0.48703384187500376	-0.5866496427528393
-0.48697280671875376	-0.5853246935060027
-0.48691177156250376	-0.5838113023079293
-0.48685073640625376	-0.5822059751996188
-0.48678970125000376	-0.5805886107741884
-0.48672866609375376	-0.5789582233894895
-0.48666763093750376	-0.5772374033958693
-0.48660659578125376	-0.5753389793293173
-0.48654556062500376	-0.5732378540404011
-0.48648452546875376	-0.5709891306900509
-0.48642349031250376	-0.5686799683536262
-0.48636245515625376	-0.5663573065765377
-0.48630142000000376	-0.5639915440799919
-0.48624038484375376	-0.561504328774945
-0.48617934968750376	-0.5588350188499126
-0.48611831453125376	-0.5559898100023267
-0.48605727937500376	-0.553034142206608
-0.48599624421875376	-0.5500370866089331
-0.48593520906250376	-0.5470151992237476
-0.48587417390625376	-0.5439217204933128
-0.48581313875000376	-0.5406879702873273
-0.48575210359375376	-0.5372808149535715
-0.48569106843750376	-0.5337285903539609
-0.48563003328125376	-0.5300957335011123
-0.48556899812500376	-0.5264291053352618
-0.48550796296875376	-0.5227210719910675
-0.48544692781250376	-0.5189187062071217
-0.48538589265625376	-0.5149695565330936
-0.48532485750000376	-0.5108649766515679
-0.48526382234375376	-0.5066456956456354
-0.48520278718750376	-0.5023668734058032
-0.48514175203125376	-0.49805309498383354
-0.48508071687500376	-0.49368041093901616
-0.48501968171875376	-0.4891987866617382
-0.48495864656250376	-0.48457477683648204
-0.48489761140625376	-0.47981861845592727
-0.48483657625000376	-0.4749743867535291
-0.48477554109375376	-0.4700830678457775
-0.48471450593750376	-0.4651500266955606
-0.48465347078125376	-0.46014321686104626
-0.48459243562500376	-0.45502199978561225
-0.48453140046875376	-0.4497714199428354
-0.48447036531250376	-0.44441371187777556
-0.48440933015625376	-0.4389889096904333
-0.48434829500000376	-0.4335219981232225
-0.48428725984375376	-0.42800415585001417
-0.48422622468750376	-0.42240272832866266
-0.48416518953125376	-0.41669016465803715
-0.48410415437500376	-0.41086706534367723
-0.48404311921875376	-0.40496076830307604
-0.48398208406250376	-0.39900213750748076
-0.48392104890625376	-0.39300091759129857
-0.48386001375000376	-0.38693994241172996
-0.48379897859375376	-0.3807918664813691
-0.48373794343750376	-0.3745432910232843
-0.48367690828125376	-0.3682058450283472
-0.48361587312500376	-0.3618058316069283
-0.48355483796875376	-0.3553624047645936
-0.48349380281250376	-0.3488731079867617
-0.48343276765625376	-0.342318305158606
-0.48337173250000376	-0.33567970686571075
-0.48331069734375376	-0.32895664805410396
-0.48324966218750376	-0.32216650109111755
-0.48318862703125376	-0.31532984005687875
-0.48312759187500376	-0.30845383943066024
-0.48306655671875376	-0.3015280278938511
-0.48300552156250376	-0.29453532153764783
-0.48294448640625376	-0.2874681962066026
-0.48288345125000376	-0.2803358291437127
-0.48282241609375376	-0.273156425799752
-0.48276138093750376	-0.26594208436947986
-0.48270034578125376	-0.2586896236437836
-0.48263931062500376	-0.2513850589821188
-0.48257827546875376	-0.2440173484313711
-0.48251724031250376	-0.23658919721338292
-0.48245620515625376	-0.22911557308111888
-0.48239517000000376	-0.2216114594899785
-0.48233413484375376	-0.21407986242923924
-0.48227309968750376	-0.20651056528689574
-0.48221206453125376	-0.19889042969814447
-0.48215102937500376	-0.19121614514989163
-0.48208999421875376	-0.18349832352830753
-0.48202895906250376	-0.1757533883260813
-0.48196792390625376	-0.16799044902669158
-0.48190688875000376	-0.16020464687110347
-0.48184585359375376	-0.15238263877235234
-0.48178481843750376	-0.14451534341000982
-0.48172378328125376	-0.13660696365478806
-0.48166274812500376	-0.12867261589802786
-0.48160171296875376	-0.12072662305382038
-0.48154067781250376	-0.11277147762017482
-0.48147964265625376	-0.10479695065172825
-0.48141860750000376	-0.09679012643948826
-0.48135757234375376	-0.08874768014330599
-0.48129653718750376	-0.08067988620598435
-0.48123550203125376	-0.07260309233295703
-0.48117446687500376	-0.06452711518662334
-0.48111343171875376	-0.0564482532384108
-0.48105239656250376	-0.04835381738999341
-0.48099136140625376	-0.040234155605080354
-0.48093032625000376	-0.032091918143638605
-0.48086929109375376	-0.023940892188584608
-0.48080825593750376	-0.015795570038617465
-0.48074722078125376	-0.0076603002186854995
-0.48068618562500376	0.0004729231533698473
-0.48062515046875376	0.008616303235643856
-0.48056411531250376	0.016774714892286383
-0.48050308015625376	0.024940548258943724
-0.48044204500000376	0.03309911307643971
-0.48038100984375376	0.04123978994728848
-0.48031997468750376	0.049363444346433465
-0.48025893953125376	0.05748011364670713
-0.48019790437500376	0.0655991867764523
-0.48013686921875376	0.07372040817501135
-0.48007583406250376	0.08183316165570001
-0.48001479890625376	0.08992431481618876
-0.47995376375000376	0.09798783744917801
-0.47989272859375376	0.10602833716886605
-0.47983169343750376	0.11405579785151959
-0.47977065828125376	0.12207597036208563
-0.47970962312500376	0.13008449959698637
-0.47964858796875376	0.13806960509948865
-0.47958755281250376	0.14602075525989722
-0.47952651765625376	0.15393600342971447
-0.47946548250000376	0.16182210100643618
-0.47940444734375376	0.16968751790461417
-0.47934341218750376	0.17753428416524458
-0.47928237703125376	0.18535536441733125
-0.47922134187500376	0.19313949229743088
-0.47916030671875376	0.20087926291540997
-0.47909927156250376	0.20857583395581764
-0.47903823640625376	0.21623653484413335
-0.47897720125000376	0.22386754994333966
-0.47891616609375376	0.2314678441306661
-0.47885513093750376	0.23902917257864795
-0.47879409578125376	0.24654177003959227
-0.47873306062500376	0.25400099404524545
-0.47867202546875376	0.2614097493672534
-0.47861099031250376	0.26877486945425033
-0.47854995515625376	0.2761004916886473
-0.47848892000000376	0.283383785675053
-0.47842788484375376	0.2906163102766109
-0.47836684968750376	0.29778974090362553
-0.47830581453125376	0.30490131074533333
-0.47824477937500376	0.3119547534822723
-0.47818374421875376	0.31895619690392424
-0.47812270906250376	0.3259083280468484
-0.47806167390625376	0.33280736162748553
-0.47800063875000376	0.3396450523138985
-0.47793960359375376	0.34641414148920446
-0.47787856843750376	0.35311302754727175
-0.47781753328125376	0.3597459992661566
-0.47775649812500376	0.3663188763908607
-0.47769546296875376	0.3728334972251261
-0.47763442781250376	0.37928529393978344
-0.47757339265625376	0.38566583688706874
-0.47751235750000376	0.3919684641195495
-0.47745132234375376	0.3981926479073548
-0.47739028718750376	0.40434358926990016
-0.47732925203125376	0.4104272379155608
-0.47726821687500376	0.416444646142433
-0.47720718171875376	0.4223901291554009
-0.47714614656250376	0.4282547021243972
-0.47708511140625376	0.4340322402990328
-0.47702407625000376	0.43972363100950485
-0.47696304109375376	0.4453354654896701
-0.47690200593750376	0.4508739999310951
-0.47684097078125376	0.4563391088712262
-0.47677993562500376	0.4617232932987518
-0.47671890046875376	0.46701678113820616
-0.47665786531250376	0.47221465456155476
-0.47659683015625376	0.47732022408463815
-0.47653579500000376	0.4823417893580577
-0.47647475984375376	0.4872851322754039
-0.47641372468750376	0.4921477631964462
-0.47635268953125376	0.49691988481481064
-0.47629165437500376	0.50159158809389
-0.47623061921875376	0.506160423967661
-0.47616958406250376	0.5106329574527413
-0.47610854890625376	0.5150187962831989
-0.47604751375000376	0.5193218635398498
-0.47598647859375376	0.5235361734465098
-0.47592544343750376	0.52764986349344
-0.47586440828125376	0.5316543925658701
-0.47580337312500376	0.5355512618405186
-0.47574233796875376	0.5393504153879404
-0.47568130281250376	0.5430613838046666
-0.47562026765625376	0.5466844882011089
-0.47555923250000376	0.5502096393754745
-0.47549819734375376	0.5536240236145854
-0.47543716218750376	0.5569223964192455
-0.47537612703125376	0.5601112656322519
-0.47531509187500376	0.563203175423154
-0.47525405671875376	0.5662056157606532
-0.47519302156250376	0.5691138673380968
-0.47513198640625376	0.5719141272557794
-0.47507095125000376	0.5745946093222736
-0.47500991609375376	0.5771552897974908
-0.47494888093750376	0.5796078662068374
-0.47488784578125376	0.5819656553491808
-0.47482681062500376	0.5842317489682483
-0.47476577546875376	0.5863955496205288
-0.47470474031250376	0.5884410171413738
-0.47464370515625376	0.590359972950583
-0.47458267000000376	0.5921591271095794
-0.47452163484375376	0.593854490138813
-0.47446059968750376	0.5954575448468281
-0.47439956453125376	0.5969648398902095
-0.47433852937500376	0.598360129425306
-0.47427749421875376	0.5996276771130432
-0.47421645906250376	0.6007656408517446
-0.47415542390625376	0.6017879618578004
-0.47409438875000376	0.6027126857801758
-0.47403335359375376	0.6035463235627957
-0.47397231843750376	0.6042776258904011
-0.47391128328125376	0.6048864590243352
-0.47385024812500376	0.6053606754208756
-0.47378921296875376	0.6057067749779546
-0.47372817781250376	0.6059449430961678
-0.47366714265625376	0.6060921063887172
-0.47360610750000376	0.6061471358928395
-0.47354507234375376	0.606091049478027
-0.47348403718750376	0.6059026213448213
-0.47342300203125376	0.605576554340581
-0.47336196687500376	0.6051286883815955
-0.47330093171875376	0.6045832478394084
-0.47323989656250376	0.603952363385528
-0.47317886140625376	0.6032251864534744
-0.47311782625000376	0.6023763632130161
-0.47305679109375376	0.6013873436505901
-0.47299575593750376	0.6002627180496108
-0.47293472078125376	0.5990273665139564
-0.47287368562500376	0.5977060926624952
-0.47281265046875376	0.5963024812376759
-0.47275161531250376	0.5947950845152307
-0.47269058015625376	0.5931549466734434
-0.47262954500000376	0.5913703445466653
-0.47256850984375376	0.5894578604087751
-0.47250747468750376	0.5874497038267045
-0.47244643953125376	0.5853670543771631
-0.47238540437500376	0.5832016387253124
-0.47232436921875376	0.5809217457877612
-0.47226333406250376	0.5784986746888188
-0.47220229890625376	0.5759319002878925
-0.47214126375000376	0.5732512764796817
-0.47208022859375376	0.5704932602051538
-0.47201919343750376	0.5676703001582707
-0.47195815828125376	0.564759306638448
-0.47189712312500376	0.5617200791839073
-0.47183608796875376	0.5585294543105522
-0.47177505281250376	0.5552026519745653
-0.47171401765625376	0.5517827387253113
-0.47165298250000376	0.5483055161885013
-0.47159194734375376	0.5447687486891776
-0.47153091218750376	0.5411325198271877
-0.47146987703125376	0.5373521348936483
-0.47140884187500376	0.5334170148693124
-0.47134780671875376	0.5293623514455771
-0.47128677156250376	0.5252419069308231
-0.47122573640625376	0.5210832672650085
-0.47116470125000376	0.5168631784096044
-0.47110366609375376	0.5125253606896617
-0.47104263093750376	0.5080278623083329
-0.47098159578125376	0.5033807949761595
-0.47092056062500376	0.4986413063409621
-0.47085952546875376	0.493867671445177
-0.47079849031250376	0.4890697823767578
-0.47073745515625376	0.4841985404004806
-0.47067642000000376	0.47918558443420606
-0.47061538484375376	0.4740019709125522
-0.47055434968750376	0.4686862213439797
-0.47049331453125376	0.4633158060451235
-0.47043227937500376	0.45794342311709557
-0.47037124421875376	0.45255097488334783
-0.47031020906250376	0.4470619082788492
-0.47024917390625376	0.441404652505144
