Time	Frequency
-0.5000002923437563	0.15779090776853072
-0.4999392571875063	0.1516965121676269
-0.4998782220312563	0.14559034290315012
-0.4998171868750063	0.13952218709438832
-0.4997561517187563	0.13344256417716213
-0.4996951165625063	0.1272848746646052
-0.4996340814062563	0.12107348540955695
-0.4995730462500063	0.1148848337753791
-0.4995120110937563	0.10872615934120863
-0.4994509759375063	0.1025264276937173
-0.4993899407812563	0.09625194512342934
-0.4993289056250063	0.08996076725983959
-0.4992678704687563	0.08371065014957277
-0.4992068353125063	0.07746898895436276
-0.4991458001562563	0.07116714195064856
-0.4990847650000063	0.06481081195505427
-0.4990237298437563	0.05847135205969327
-0.4989626946875063	0.05217375011677203
-0.4989016595312563	0.04585956430905387
-0.4988406243750063	0.0394817159171678
-0.4987795892187563	0.033079571618396315
-0.4987185540625063	0.026716917370329486
-0.4986575189062563	0.02038305425435327
-0.4985964837500063	0.014012618389454582
-0.4985354485937563	0.007590280683299881
-0.4984744134375063	0.0011748193111704754
-0.4984133782812563	-0.005192822846404591
-0.4983523431250063	-0.011551218444051856
-0.4982913079687563	-0.01795487743096224
-0.4982302728125063	-0.024387767193016
-0.4981692376562563	-0.030788818936269485
-0.4981082025000063	-0.037146544171897465
-0.4980471673437563	-0.04351382953748422
-0.4979861321875063	-0.049922476335826714
-0.4979250970312563	-0.05633331549533824
-0.4978640618750063	-0.06269793590989325
-0.4978030267187563	-0.06903241788438141
-0.4977419915625063	-0.07538851214537753
-0.4976809564062563	-0.08177077886064284
-0.4976199212500063	-0.08813001054966954
-0.4975588860937563	-0.09444013753050835
-0.4974978509375063	-0.10073621899946647
-0.4974368157812563	-0.10705618737380718
-0.4973757806250063	-0.11338051110729927
-0.4973147454687563	-0.11966342789654774
-0.4972537103125063	-0.12590359526516837
-0.4971926751562563	-0.1321429087265872
-0.4971316400000063	-0.13839819578460488
-0.4970706048437563	-0.14463471171497425
-0.4970095696875063	-0.15082104281093345
-0.4969485345312563	-0.1569764862748159
-0.4968874993750063	-0.16313727798793393
-0.4968264642187563	-0.16929782597304868
-0.4967654290625063	-0.1754197860600295
-0.4967043939062563	-0.1814919921939578
-0.4966433587500063	-0.18754551335648004
-0.4965823235937563	-0.1936019703129195
-0.4965212884375063	-0.19963854438445863
-0.4964602532812563	-0.2056240501264397
-0.4963992181250063	-0.21156691820755302
-0.4963381829687563	-0.21749912884440806
-0.4962771478125063	-0.22342360553206278
-0.4962161126562563	-0.2293092232551077
-0.4961550775000063	-0.23513964803958198
-0.4960940423437563	-0.24093723751686286
-0.4960330071875063	-0.2467252035551077
-0.4959719720312563	-0.25248963835385596
-0.4959109368750063	-0.25820124556136026
-0.4958499017187563	-0.26386070735522343
-0.4957888665625063	-0.26949538401551426
-0.4957278314062563	-0.2751139721901944
-0.4956667962500063	-0.28069195571066075
-0.4956057610937563	-0.2862099635500316
-0.4955447259375063	-0.2916829831549549
-0.4954836907812563	-0.2971344883220805
-0.4954226556250063	-0.3025578152639356
-0.4953616204687563	-0.307926216104869
-0.4953005853125063	-0.3132343991417126
-0.4952395501562563	-0.3185050389142186
-0.4951785150000063	-0.32375097504979033
-0.4951174798437563	-0.3289540048766477
-0.4950564446875063	-0.33409319280903055
-0.4949954095312563	-0.33917668616948043
-0.4949343743750063	-0.34422686773368455
-0.4948733392187563	-0.34924355663205053
-0.4948123040625063	-0.35420380033379184
-0.4947512689062563	-0.35909747320571495
-0.4946902337500063	-0.3639416055383155
-0.4946291985937563	-0.36875159915568634
-0.4945681634375063	-0.37351595564669177
-0.4945071282812563	-0.3782141131144672
-0.4944460931250063	-0.3828479035193775
-0.4943850579687563	-0.3874367738386831
-0.4943240228125063	-0.39198556702175996
-0.4942629876562563	-0.39647640349665586
-0.4942019525000063	-0.40089653720693547
-0.4941409173437563	-0.40525713051048695
-0.4940798821875063	-0.4095737719331854
-0.4940188470312563	-0.41384075048152025
-0.4939578118750063	-0.41803976830722694
-0.4938967767187563	-0.42216817462733575
-0.4938357415625063	-0.4262415898924361
-0.4937747064062563	-0.43026767297564367
-0.4937136712500063	-0.4342333926151559
-0.4936526360937563	-0.4381253598202904
-0.4935916009375063	-0.44194998683700215
-0.4935305657812563	-0.4457217542685143
-0.4934695306250063	-0.4494392011822268
-0.4934084954687563	-0.45308687360383343
-0.4933474603125063	-0.4566592526033411
-0.4932864251562563	-0.46016822447472205
-0.4932253900000063	-0.4636229334770086
-0.4931643548437563	-0.46701464878304944
-0.4931033196875063	-0.47033023065087515
-0.4930422845312563	-0.47357210663172644
-0.4929812493750063	-0.4767531769212312
-0.4929202142187563	-0.479875439782796
-0.4928591790625063	-0.48292642945995246
-0.4927981439062563	-0.485898484686477
-0.4927371087500063	-0.4887998839531346
-0.4926760735937563	-0.4916406801502646
-0.4926150384375063	-0.4944162326534056
-0.4925540032812563	-0.4971142263801858
-0.4924929681250063	-0.4997334556865021
-0.4924319329687563	-0.5022846907442359
-0.4923708978125063	-0.504772818692065
-0.4923098626562563	-0.5071887696650954
-0.4922488275000063	-0.5095235742680698
-0.4921877923437563	-0.5117817951098576
-0.4921267571875063	-0.5139733256810409
-0.4920657220312563	-0.5160971934481723
-0.4920046868750063	-0.5181429648098478
-0.4919436517187563	-0.5201068657935014
-0.4918826165625063	-0.5219968973305688
-0.4918215814062563	-0.5238193774574719
-0.4917605462500063	-0.5255686662360549
-0.4916995110937563	-0.5272360311896307
-0.4916384759375063	-0.5288229888770108
-0.4915774407812563	-0.5303380662927786
-0.4915164056250063	-0.5317827632717304
-0.4914553704687563	-0.5331491279801339
-0.4913943353125063	-0.5344322370817224
-0.4913333001562563	-0.5356373821725002
-0.4912722650000063	-0.5367709709211265
-0.4912112298437563	-0.5378301782533893
-0.4911501946875063	-0.5388075499212227
-0.4910891595312563	-0.539702560398282
-0.4910281243750063	-0.5405217523061496
-0.4909670892187563	-0.5412679071830259
-0.4909060540625063	-0.541935737675187
-0.4908450189062563	-0.5425203941312704
-0.4907839837500063	-0.5430247585761421
-0.4907229485937563	-0.543454292694193
-0.4906619134375063	-0.5438082467967036
-0.4906008782812563	-0.5440810877109507
-0.4905398431250063	-0.5442712799707349
-0.4904788079687563	-0.5443833131393764
-0.4904177728125063	-0.5444202303384837
-0.4903567376562563	-0.5443789084541242
-0.4902957025000063	-0.5442552877490592
-0.4902346673437563	-0.5440507198494927
-0.4901736321875063	-0.543769453930285
-0.4901125970312563	-0.5434118323504273
-0.4900515618750063	-0.5429741045138581
-0.4899905267187563	-0.5424546003720762
-0.4899294915625063	-0.541856155518443
-0.4898684564062563	-0.5411814108194339
-0.4898074212500063	-0.5404289039347171
-0.4897463860937563	-0.5395958241971207
-0.4896853509375063	-0.5386825411244321
-0.4896243157812563	-0.5376918507335154
-0.4895632806250063	-0.536624635288335
-0.4895022454687563	-0.5354788964360926
-0.4894412103125063	-0.5342532904331331
-0.4893801751562563	-0.5329493123609754
-0.4893191400000063	-0.5315689372616822
-0.4892581048437563	-0.5301118454988705
-0.4891970696875063	-0.5285764653850261
-0.4891360345312563	-0.5269627310016937
-0.4890749993750063	-0.525272247117351
-0.4890139642187563	-0.5235060128968432
-0.4889529290625063	-0.5216634172778744
-0.4888918939062563	-0.5197437488355313
-0.4888308587500063	-0.5177475279740552
-0.4887698235937563	-0.5156758299233778
-0.4887087884375063	-0.5135290689688987
-0.4886477532812563	-0.5113070239211888
-0.4885867181250063	-0.509009680176424
-0.4885256829687563	-0.5066375186435245
-0.4884646478125063	-0.5041911251657224
-0.4884036126562563	-0.5016709241470015
-0.4883425775000063	-0.4990772298720838
-0.4882815423437563	-0.4964102408889468
-0.4882205071875063	-0.49367004044168783
-0.4881594720312563	-0.49085696888120395
-0.4880984368750063	-0.4879718977027395
-0.4880374017187563	-0.48501561524234926
-0.4879763665625063	-0.48198805750973295
-0.4879153314062563	-0.4788888552986926
-0.4878542962500063	-0.4757186460090323
-0.4877932610937563	-0.4724789636425186
-0.4877322259375063	-0.4691705410756597
-0.4876711907812563	-0.4657926656426663
-0.4876101556250063	-0.4623448819806211
-0.4875491204687563	-0.4588285409636341
-0.4874880853125063	-0.455245624246732
-0.4874270501562563	-0.4515964332631875
-0.4873660150000063	-0.447879741899106
-0.4873049798437563	-0.4440954188778356
-0.4872439446875063	-0.44024557716585866
-0.4871829095312563	-0.4363322450802905
-0.4871218743750063	-0.4323549219085906
-0.4870608392187563	-0.42831201446944256
-0.4869998040625063	-0.42420425327052247
-0.4869387689062563	-0.4200346754756521
-0.4868777337500063	-0.41580488945017513
-0.4868166985937563	-0.4115132733715651
-0.4867556634375063	-0.4071581570012893
-0.4866946282812563	-0.4027415302383498
-0.4866335931250063	-0.39826731302460894
-0.4865725579687563	-0.39373616347728774
-0.4865115228125063	-0.3891449441370893
-0.4864504876562563	-0.3844924777479246
-0.4863894525000063	-0.37978289074990046
-0.4863284173437563	-0.3750205408528815
-0.4862673821875063	-0.37020390168236256
-0.4862063470312563	-0.365328550362425
-0.4861453118750063	-0.3603953408086411
-0.4860842767187563	-0.3554107585630037
-0.4860232415625063	-0.3503778965003522
-0.4859622064062563	-0.3452919839227519
-0.4859011712500063	-0.34014867868430804
-0.4858401360937563	-0.33495272928372777
-0.4857791009375063	-0.32971227323516566
-0.4857180657812563	-0.32442672560865604
-0.4856570306250063	-0.3190880858986293
-0.4855959954687563	-0.3136949292402817
-0.4855349603125063	-0.30825676517631884
-0.4854739251562563	-0.30278035879265686
-0.4854128900000063	-0.29725929995490985
-0.4853518548437563	-0.2916849005020243
-0.4852908196875063	-0.2860621092115995
-0.4852297845312563	-0.28040384377389704
-0.4851687493750063	-0.2747112165533466
-0.4851077142187563	-0.268971883315391
-0.4850466790625063	-0.26318110983576887
-0.4849856439062563	-0.2573519084253353
-0.4849246087500063	-0.2514959033336717
-0.4848635735937563	-0.24560490150215225
-0.4848025384375063	-0.23966462758693707
-0.4847415032812563	-0.23367989072050074
-0.4846804681250063	-0.22766934109668016
-0.4846194329687563	-0.22163635537686924
-0.4845583978125063	-0.2155636840553723
-0.4844973626562563	-0.20944266835375527
-0.4844363275000063	-0.20328997320251713
-0.4843752923437563	-0.19712271286203492
-0.4843142571875063	-0.19093113140767942
-0.4842532220312563	-0.18469476387335682
-0.4841921868750063	-0.17841774075113864
-0.4841311517187563	-0.17212489883904467
-0.4840701165625063	-0.1658227170968299
-0.4840090814062563	-0.15948881414273333
-0.4839480462500063	-0.1531094847021338
-0.4838870110937563	-0.14670482187833644
-0.4838259759375063	-0.14029840027913948
-0.4837649407812563	-0.13387946616447907
-0.4837039056250063	-0.12742072122148276
-0.4836428704687563	-0.1209247295075375
-0.4835818353125063	-0.11442268576614341
-0.4835208001562563	-0.10792531504158545
-0.4834597650000063	-0.1014056752561645
-0.4833987298437563	-0.09484395250719634
-0.4833376946875063	-0.08826221324978081
-0.4832766595312563	-0.08169095588551435
-0.4832156243750063	-0.07512050935887482
-0.4831545892187563	-0.0685172431870798
-0.4830935540625063	-0.06187987372573906
-0.4830325189062563	-0.05524416251376996
-0.4829714837500063	-0.048626828993340476
-0.4829104485937563	-0.04199922802359197
-0.4828494134375063	-0.03533462391069805
-0.4827883782812563	-0.028653449017150046
-0.4827273431250063	-0.021992685772288335
-0.4826663079687563	-0.01534775302038357
-0.4826052728125063	-0.00868075989504548
-0.4825442376562563	-0.0019827514566847985
-0.4824832025000063	0.004709897936040236
-0.4824221673437563	0.011371854017228107
-0.4823611321875063	0.01802797652736082
-0.4823000970312563	0.02471244497280419
-0.4822390618750063	0.03141278536802946
-0.4821780267187563	0.03808778734462137
-0.4821169915625063	0.04473105401598515
-0.4820559564062563	0.05137974250988707
-0.4819949212500063	0.05805468680033767
-0.4819338860937563	0.06472613311478731
-0.4818728509375063	0.07135860807386928
-0.4818118157812563	0.07796461412072785
-0.4817507806250063	0.08458386845710118
-0.4816897454687563	0.09122040811765453
-0.4816287103125063	0.09783448021393827
-0.4815676751562563	0.10440186983850085
-0.4815066400000063	0.11095002543813967
-0.4814456048437563	0.11751534477440752
-0.4813845696875063	0.12408586065345487
-0.4813235345312563	0.13061674967958198
-0.4812624993750063	0.13709683055111824
-0.4812014642187563	0.14356577877676988
-0.4811404290625063	0.1500535749343002
-0.4810793939062563	0.1565317963804622
-0.4810183587500063	0.16295282687436166
-0.4809573235937563	0.16932162309709944
-0.4808962884375063	0.175690275832682
-0.4808352532812563	0.1820779542829572
-0.4807742181250063	0.18843633116941244
-0.4807131829687563	0.1947192817255841
-0.4806521478125063	0.20095529400706258
-0.4805911126562563	0.20720697007014835
-0.4805300775000063	0.2134719253789566
-0.4804690423437563	0.21967922199367673
-0.4804080071875063	0.22579624614136595
-0.4803469720312563	0.2318833425350748
-0.4802859368750063	0.238002801464014
-0.4802249017187563	0.24411677289894557
-0.4801638665625063	0.250138833698731
-0.4801028314062563	0.2560685337583548
-0.4800417962500063	0.2619972344927983
-0.4799807610937563	0.2679655581331785
-0.4799197259375063	0.27389269124070953
-0.4798586907812563	0.27969748120071736
-0.4797976556250063	0.28542797646186335
-0.4797366204687563	0.29119008423762205
-0.4796755853125063	0.2969788214996663
-0.4796145501562563	0.3026794525202064
-0.4795535150000063	0.3082453338064255
-0.4794924798437563	0.313774125997686
-0.4794314446875063	0.3193554208662827
-0.4793704095312563	0.32492592227905254
-0.4793093743750063	0.33036481812081775
-0.4792483392187563	0.33568361850315204
-0.4791873040625063	0.34100910611073304
-0.4791262689062563	0.3463823251609764
-0.4790652337500063	0.3516912738758576
-0.4790041985937563	0.35684620402629874
-0.4789431634375063	0.3619204823726329
-0.4788821282812563	0.3670329231735383
-0.4788210931250063	0.37215855345447113
-0.4787600579687563	0.3771683598074979
-0.4786990228125063	0.3820331085337365
-0.4786379876562563	0.3868664404855514
-0.4785769525000063	0.3917415026422661
-0.4785159173437563	0.3965755238616157
-0.4784548821875063	0.40126343615937926
-0.4783938470312563	0.40584300065605333
-0.4783328118750063	0.4104294479096614
-0.4782717767187563	0.41502992312539105
-0.4782107415625063	0.4195350434433191
-0.4781497064062563	0.42389496389792825
-0.4780886712500063	0.4281948364261537
-0.4780276360937563	0.4325137275472812
-0.4779666009375063	0.4367985181352269
-0.4779055657812563	0.4409523336958951
-0.4778445306250063	0.4449891488796852
-0.4777834954687563	0.44900627821072614
-0.4777224603125063	0.45302518680656845
-0.4776614251562563	0.4569590550431145
-0.4776003900000063	0.46075431207046336
-0.4775393548437563	0.4644741928622205
-0.4774783196875063	0.46819283392589733
-0.4774172845312563	0.4718752925475889
-0.4773562493750063	0.4754357776263512
-0.4772952142187563	0.47887567043620627
-0.4772341790625063	0.4822782307916369
-0.4771731439062563	0.4856722819002712
-0.4771121087500063	0.48898631152473865
-0.4770510735937563	0.49216431316733295
-0.4769900384375063	0.49525447854434573
-0.4769290032812563	0.4983294483697215
-0.4768679681250063	0.5013688942400162
-0.4768069329687563	0.5042926777002188
-0.4767458978125063	0.5070889426386449
-0.4766848626562563	0.5098313001289428
-0.4766238275000063	0.512559684260753
-0.4765627923437563	0.5152166395665976
-0.4765017571875063	0.5177392334120708
-0.4764407220312563	0.5201582576920907
-0.4763796868750063	0.5225475731010423
-0.4763186517187563	0.5249061792091868
-0.4762576165625063	0.5271603044302281
-0.4761965814062563	0.5292801450852939
-0.4761355462500063	0.5313254422542574
-0.4760745110937563	0.5333495907375032
-0.4760134759375063	0.5353155543312029
-0.4759524407812563	0.5371551242392756
-0.4758914056250063	0.5388756820095366
-0.4758303704687563	0.5405465513304633
-0.4757693353125063	0.5421890908720769
-0.4757083001562563	0.5437441974956716
-0.4756472650000063	0.5451658232454217
-0.4755862298437563	0.5464917453851552
-0.4755251946875063	0.5477822954826562
-0.4754641595312563	0.5490258767393315
-0.4754031243750063	0.5501587397829644
-0.4753420892187563	0.5511649250330158
-0.4752810540625063	0.5520990847448001
-0.4752200189062563	0.5529993750805829
-0.4751589837500063	0.5538288923672636
-0.4750979485937563	0.5545351740843368
-0.4750369134375063	0.5551315040324762
-0.4749758782812563	0.5556736130306708
-0.4749148431250063	0.5561718126701919
-0.4748538079687563	0.5565768198411939
-0.4747927728125063	0.5568581944326804
-0.4747317376562563	0.5570504099402452
-0.4746707025000063	0.5571966906739753
-0.4746096673437563	0.557281749623101
-0.4745486321875063	0.5572579517057495
-0.4744875970312563	0.5571204128957868
-0.4744265618750063	0.5569126267029483
-0.4743655267187563	0.556656877995055
-0.4743044915625063	0.556320636602385
-0.4742434564062563	0.5558695898460714
-0.4741824212500063	0.5553211295699653
-0.4741213860937563	0.5547150219944614
-0.4740603509375063	0.5540505198030886
-0.4739993157812563	0.5532894278489631
-0.4739382806250063	0.5524175395047023
-0.4738772454687563	0.5514659933668418
-0.4738162103125063	0.5504607778645826
-0.4737551751562563	0.5493823420263176
-0.4736941400000063	0.5481982801039404
-0.4736331048437563	0.5469150181529729
-0.4735720696875063	0.5455665179896569
-0.4735110345312563	0.5441600493776045
-0.4734499993750063	0.5426659616417957
-0.4733889642187563	0.5410660171050179
-0.4733279290625063	0.539382113787586
-0.4732668939062563	0.5376407761442984
-0.4732058587500063	0.5358315009462217
-0.4731448235937563	0.5339248984928232
-0.4730837884375063	0.5319201131016563
-0.4730227532812563	0.5298457035432524
-0.4729617181250063	0.5277140403389393
-0.4729006829687563	0.5255026617346313
-0.4728396478125063	0.5231912264589672
-0.4727786126562563	0.5207941142174385
-0.4727175775000063	0.5183372893038567
-0.4726565423437563	0.5158175000592028
-0.4725955071875063	0.5132087752961646
-0.4725344720312563	0.5105046498766199
-0.4724734368750063	0.5077284300383939
-0.4724124017187563	0.5048962061349769
-0.4723513665625063	0.5019923050211905
-0.4722903314062563	0.4989955049007831
-0.4722292962500063	0.4959132639693966
-0.4721682610937563	0.49276984219800185
-0.4721072259375063	0.4895683424027689
-0.4720461907812563	0.4862871795590296
-0.4719851556250063	0.4829154802330955
-0.4719241204687563	0.47947054095335656
-0.4718630853125063	0.47597051106721866
-0.4718020501562563	0.47240668395493796
-0.4717410150000063	0.4687589220961382
-0.4716799798437563	0.46502850578181093
-0.4716189446875063	0.4612361867660612
-0.4715579095312563	0.45738974846951025
-0.4714968743750063	0.45347311803265944
-0.4714358392187563	0.4494733107886457
-0.4713748040625063	0.4454015533256356
-0.4713137689062563	0.4412756837940714
-0.4712527337500063	0.4370928640163519
-0.4711916985937563	0.43283582776281876
-0.4711306634375063	0.4285015972027003
-0.4710696282812563	0.4241066001834831
-0.4710085931250063	0.419661004628042
-0.4709475579687563	0.41515390489279325
-0.4708865228125063	0.4105723230646772
-0.4708254876562563	0.4059227710914384
-0.4707644525000063	0.4012213205567198
-0.4707034173437563	0.3964690571425609
-0.4706423821875063	0.39165206157350074
-0.4705813470312563	0.38676499583223406
-0.4705203118750063	0.3818203332355146
-0.4704592767187563	0.37682924256280553
-0.4703982415625063	0.37178515867786793
-0.4703372064062563	0.3666757464282415
-0.4702761712500063	0.36150360510132
-0.4702151360937563	0.35628297525614444
-0.4701541009375063	0.3510182838515809
-0.4700930657812563	0.3456987066996417
-0.4700320306250063	0.34031685417703816
-0.4699709954687563	0.3348815146464961
-0.4699099603125063	0.3294046295560245
-0.4698489251562563	0.3238837940837931
-0.4697878900000063	0.3183077500275521
-0.4697268548437563	0.3126754797785802
-0.4696658196875063	0.306998723952633
-0.4696047845312563	0.30128453231382923
-0.4695437493750063	0.29552572509908603
