Time	Frequency
-0.5000343306249988	-0.20723066025001152
-0.4999732954687488	-0.21343299658413167
-0.4999122603124988	-0.21958392339339144
-0.4998512251562488	-0.2257773539230571
-0.4997901899999988	-0.23201339200717663
-0.4997291548437488	-0.23819375451191235
-0.4996681196874988	-0.24424489257354068
-0.4996070845312488	-0.25021316269739957
-0.4995460493749988	-0.25620771806976567
-0.4994850142187488	-0.2622600036861406
-0.4994239790624988	-0.26827893204972586
-0.4993629439062488	-0.2741631027589712
-0.4993019087499988	-0.27993046286529877
-0.4992408735937488	-0.2856984500202394
-0.4991798384374988	-0.29153487532082234
-0.4991188032812488	-0.29736723285026717
-0.4990577681249988	-0.3030695593851305
-0.4989967329687488	-0.30862158420321484
-0.4989356978124988	-0.3141379849227448
-0.4988746626562488	-0.3197251261367038
-0.4988136274999988	-0.3253428190292102
-0.4987525923437488	-0.3308489679726388
-0.4986915571874988	-0.33617685953307375
-0.4986305220312488	-0.34142264072069434
-0.4985694868749988	-0.3467273710104543
-0.4985084517187488	-0.3520970767424638
-0.4984474165624988	-0.35738883038042746
-0.4983863814062488	-0.36248663422837174
-0.4983253462499988	-0.367449313228812
-0.4982643110937488	-0.37244087996285696
-0.4982032759374988	-0.3775245367656381
-0.4981422407812488	-0.38257789467461356
-0.4980812056249988	-0.3874413304511026
-0.4980201704687488	-0.39211827092006457
-0.4979591353124988	-0.3967747107689764
-0.4978981001562488	-0.4015329817436429
-0.4978370649999988	-0.4063152289078287
-0.4977760298437488	-0.41093564958387674
-0.4977149946874988	-0.41533096283722054
-0.4976539595312488	-0.4196415345675399
-0.4975929243749988	-0.42403814445957755
-0.4975318892187488	-0.42850774306468686
-0.4974708540624988	-0.4328663823958566
-0.4974098189062488	-0.43698601975474105
-0.4973487837499988	-0.44095373768236773
-0.4972877485937488	-0.44496399508567624
-0.4972267134374988	-0.44907675931569896
-0.4971656782812488	-0.4531421332952463
-0.4971046431249988	-0.4569852855297578
-0.4970436079687488	-0.46062185502047714
-0.4969825728124988	-0.4642368382265542
-0.4969215376562488	-0.4679545536308249
-0.4968605024999988	-0.47168563048314055
-0.4967994673437488	-0.4752388398030565
-0.4967384321874988	-0.4785564648428154
-0.4966773970312488	-0.4817819199957801
-0.4966163618749988	-0.4850796837887447
-0.4965553267187488	-0.4884333111933183
-0.4964942915624988	-0.4916693027771737
-0.4964332564062488	-0.4946720168684164
-0.4963722212499988	-0.49752205134318683
-0.4963111860937488	-0.5003916388854495
-0.4962501509374988	-0.5033320215889239
-0.4961891157812488	-0.5062150083509109
-0.4961280806249988	-0.5088942990918104
-0.4960670454687488	-0.5113826060908447
-0.4960060103124988	-0.513829239473721
-0.4959449751562488	-0.5163335310118634
-0.4958839399999988	-0.5188268696838563
-0.4958229048437488	-0.5211627315122159
-0.4957618696874988	-0.5232962200383667
-0.4957008345312488	-0.525332381505964
-0.4956397993749988	-0.5273918478845574
-0.4955787642187488	-0.529464950410661
-0.4955177290624988	-0.5314301591670693
-0.4954566939062488	-0.5332055570793891
-0.4953956587499988	-0.534844078945853
-0.4953346235937488	-0.536461728591725
-0.4952735884374988	-0.5380948599857995
-0.4952125532812488	-0.5396616375021094
-0.4951515181249988	-0.5410669901900012
-0.4950904829687488	-0.5423163031777655
-0.4950294478124988	-0.5435017144439566
-0.4949684126562488	-0.5446862359256689
-0.4949073774999988	-0.5458309509208196
-0.4948463423437488	-0.546848642841034
-0.4947853071874988	-0.547710489452699
-0.4947242720312488	-0.548475133113433
-0.4946632368749988	-0.5492120565954571
-0.4946022017187488	-0.5499187341208793
-0.4945411665624988	-0.5505298584605531
-0.4944801314062488	-0.5509995189353075
-0.4944190962499988	-0.5513529496948881
-0.4943580610937488	-0.5516499635938048
-0.4942970259374988	-0.551911618153933
-0.4942359907812488	-0.5520997310414621
-0.4941749556249988	-0.5521675994698675
-0.4941139204687488	-0.5521149388298318
-0.4940528853124988	-0.5519826581857581
-0.4939918501562488	-0.5518007361691051
-0.4939308149999988	-0.5515553360653492
-0.4938697798437488	-0.5512105350899678
-0.4938087446874988	-0.5507522202873744
-0.4937477095312488	-0.5502007460738458
-0.4936866743749988	-0.5495826818575897
-0.4936256392187488	-0.5489002707003467
-0.4935646040624988	-0.5481334306307559
-0.4935035689062488	-0.5472660830786513
-0.4934425337499988	-0.546302749150275
-0.4933814985937488	-0.5452592269494289
-0.4933204634374988	-0.5441435365780455
-0.4932594282812488	-0.5429500807369534
-0.4931983931249988	-0.5416693718375342
-0.4931373579687488	-0.54029821499667
-0.4930763228124988	-0.5388400824384166
-0.4930152876562488	-0.537299873667076
-0.4929542524999988	-0.5356807649756262
-0.4928932173437488	-0.5339836463856396
-0.4928321821874988	-0.5322062065913904
-0.4927711470312488	-0.5303431109860299
-0.4927101118749988	-0.5283907032439182
-0.4926490767187488	-0.5263529952608833
-0.4925880415624988	-0.5242399817815957
-0.4925270064062488	-0.5220567271697931
-0.4924659712499988	-0.519795534501024
-0.4924049360937488	-0.5174434380324469
-0.4923439009374988	-0.5149986583301129
-0.4922828657812488	-0.5124753959220294
-0.4922218306249988	-0.5098883240130913
-0.4921607954687488	-0.5072341938768896
-0.4920997603124988	-0.5044943114937226
-0.4920387251562488	-0.5016572759049839
-0.4919776899999988	-0.4987347622973384
-0.4919166548437488	-0.4957491723623437
-0.4918556196874988	-0.49270656192337053
-0.4917945845312488	-0.4895884413022907
-0.4917335493749988	-0.48637412696813864
-0.4916725142187488	-0.48306717676168714
-0.4916114790624988	-0.4796927952110733
-0.4915504439062488	-0.4762678959662064
-0.4914894087499988	-0.4727801835804223
-0.4914283735937488	-0.46920305049293454
-0.4913673384374988	-0.46552894788802635
-0.4913063032812488	-0.4617799617929575
-0.4912452681249988	-0.4579817556855909
-0.4911842329687488	-0.45413251767969487
-0.4911231978124988	-0.45020545910970344
-0.4910621626562488	-0.44618236066652084
-0.4910011274999988	-0.442076922217133
-0.4909400923437488	-0.4379188066817124
-0.4908790571874988	-0.4337178412397542
-0.4908180220312488	-0.42945259440040345
-0.4907569868749988	-0.4250975660059989
-0.4906959517187488	-0.4206553883599395
-0.4906349165624988	-0.4161542349259107
-0.4905738814062488	-0.41161386057796184
-0.4905128462499988	-0.4070223326036305
-0.4904518110937488	-0.4023518787989249
-0.4903907759374988	-0.39759393945163635
-0.4903297407812488	-0.39277020786042643
-0.4902687056249988	-0.38790642798023417
-0.4902076704687488	-0.3830016718911268
-0.4901466353124988	-0.3780309332925251
-0.4900856001562488	-0.3729772083208318
-0.4900245649999988	-0.3678529864623267
-0.4899635298437488	-0.3626850582115127
-0.4899024946874988	-0.35748239299751267
-0.4898414595312488	-0.3522268479644792
-0.4897804243749988	-0.346897082603369
-0.4897193892187488	-0.34149552174915493
-0.4896583540624988	-0.33604559007642754
-0.4895973189062488	-0.3305634075732172
-0.4895362837499988	-0.32503938650344616
-0.4894752485937488	-0.31945202620729374
-0.4894142134374988	-0.3137956611521896
-0.4893531782812488	-0.3080876688823714
-0.4892921431249988	-0.3023473390890998
-0.4892311079687488	-0.2965733705459976
-0.4891700728124988	-0.29074751798911036
-0.4891090376562488	-0.28485871675815355
-0.4890480024999988	-0.2789171512323077
-0.4889869673437488	-0.27294173410454126
-0.4889259321874988	-0.266937796513938
-0.4888648970312488	-0.2608926223837657
-0.4888038618749988	-0.25479318075604507
-0.4887428267187488	-0.2486430836051757
-0.4886817915624988	-0.24245811830945424
-0.4886207564062488	-0.23624730242266914
-0.4885597212499988	-0.23000364354511002
-0.4884986860937488	-0.2237151756510343
-0.4884376509374988	-0.21738115123275828
-0.4883766157812488	-0.21101303695164414
-0.4883155806249988	-0.20462044191498382
-0.4882545454687488	-0.19820073303553445
-0.4881935103124988	-0.1917447535481253
-0.4881324751562488	-0.18525001004571942
-0.4880714399999988	-0.1787242872491914
-0.4880104048437488	-0.17217606837439572
-0.4879493696874988	-0.16560506320630053
-0.4878883345312488	-0.15900491711754233
-0.4878272993749988	-0.15237338973917608
-0.4877662642187488	-0.14571607387927477
-0.4877052290624988	-0.13903951335390166
-0.4876441939062488	-0.13234373833623939
-0.4875831587499988	-0.12562415852359515
-0.4875221235937488	-0.11887962180307417
-0.4874610884374988	-0.11211528876346243
-0.4874000532812488	-0.10533659374783
-0.4873390181249988	-0.09854292740013074
-0.4872779829687488	-0.09172995396073756
-0.4872169478124988	-0.08489747374988743
-0.4871559126562488	-0.07805160281552688
-0.4870948774999988	-0.0711977215332865
-0.4870338423437488	-0.06433396866193966
-0.4869728071874988	-0.05745475585188644
-0.4869117720312488	-0.05055999513826801
-0.4868507368749988	-0.043657382577866714
-0.4867897017187488	-0.03675387986330598
-0.4867286665624988	-0.02984736853734359
-0.4866676314062488	-0.022930120547758392
-0.4866065962499988	-0.01600033244511662
-0.4865455610937488	-0.009066602193214956
-0.4864845259374988	-0.0021386955692837975
-0.4864234907812488	0.0047839984989247455
-0.4863624556249988	0.011711006105536423
-0.4863014204687488	0.018647288548559817
-0.4862403853124988	0.025584936276295076
-0.4861793501562488	0.03251146071836618
-0.4861183149999988	0.03942457519921304
-0.4860572798437488	0.04633429231292797
-0.4859962446874988	0.05324904318757847
-0.4859352095312488	0.060163198870641005
-0.4858741743749988	0.06706232331250776
-0.4858131392187488	0.07394015217233949
-0.4857521040624988	0.08080564813373431
-0.4856910689062488	0.08767056467574234
-0.4856300337499988	0.09453299290993536
-0.4855689985937488	0.10137801432037313
-0.4855079634374988	0.10819515722485354
-0.4854469282812488	0.11499064400437627
-0.4853858931249988	0.12177844822863373
-0.4853248579687488	0.12856112216892013
-0.4852638228124988	0.1353248141452525
-0.4852027876562488	0.14205527145478233
-0.4851417524999988	0.14875484712091552
-0.4850807173437488	0.15543859161055962
-0.4850196821874988	0.1621138677513326
-0.4849586470312488	0.16876937291233957
-0.4848976118749988	0.17538786320319333
-0.4848365767187488	0.1819667427151195
-0.4847755415624988	0.1885203933951384
-0.4847145064062488	0.19506083683288597
-0.4846534712499988	0.20158090976682588
-0.4845924360937488	0.2080616827146328
-0.4845314009374988	0.21449528815926516
-0.4844703657812488	0.22089399087221975
-0.4844093306249988	0.2272733915422751
-0.4843482954687488	0.23363104127142673
-0.4842872603124988	0.23994797955543784
-0.4842262251562488	0.24621161527577393
-0.4841651899999988	0.25243087565519345
-0.4841041548437488	0.2586237999873935
-0.4840431196874988	0.2647931076214172
-0.4839820845312488	0.27092115922296894
-0.4839210493749988	0.27699111168990326
-0.4838600142187488	0.2830075033692134
-0.4837989790624988	0.2889896222765837
-0.4837379439062488	0.29494549072548126
-0.4836769087499988	0.30085985520382025
-0.4836158735937488	0.3067123278455115
-0.4835548384374988	0.3125026960312434
-0.4834938032812488	0.3182503744100985
-0.4834327681249988	0.32396818731663113
-0.4833717329687488	0.3296443127590136
-0.4833106978124988	0.33525617057457086
-0.4832496626562488	0.3407986455218958
-0.4831886274999988	0.3462899484738511
-0.4831275923437488	0.35174701320226237
-0.4830665571874988	0.3571620270712717
-0.4830055220312488	0.36251098333757736
-0.4829444868749988	0.36778383005028736
-0.4828834517187488	0.3729969666769282
-0.4828224165624988	0.378171094142305
-0.4827613814062488	0.38330283511474134
-0.4827003462499988	0.3883675489134035
-0.4826393110937488	0.3933503264496976
-0.4825782759374988	0.39826481831919086
-0.4825172407812488	0.4031348453465269
-0.4824562056249988	0.40796217820406705
-0.4823951704687488	0.4127225717731
-0.4823341353124988	0.41739611433007534
-0.4822731001562488	0.42199275695563243
-0.4822120649999988	0.42653895697138294
-0.4821510298437488	0.43104205145202296
-0.4820899946874988	0.43547904549107486
-0.4820289595312488	0.43982526607185807
-0.4819679243749988	0.4440860115628734
-0.4819068892187488	0.4482894468035912
-0.4818458540624988	0.4524490725632308
-0.4817848189062488	0.4565445578715082
-0.4817237837499988	0.46054677361346047
-0.4816627485937488	0.46445518152722715
-0.4816017134374988	0.4682985668778076
-0.4815406782812488	0.47209707463354333
-0.4814796431249988	0.4758344913169014
-0.4814186079687488	0.47947768094923426
-0.4813575728124988	0.4830189674481325
-0.4812965376562488	0.4864862429851976
-0.4812355024999988	0.48990656810596045
-0.4811744673437488	0.49326984005950175
-0.4811134321874988	0.49654019447174774
-0.4810523970312488	0.49970150995190427
-0.4809913618749988	0.5027784550367942
-0.4809303267187488	0.5058048356009602
-0.4808692915624988	0.5087789888529848
-0.4808082564062488	0.5116641407230111
-0.4807472212499988	0.5144347364391137
-0.4806861860937488	0.5171096428407556
-0.4806251509374988	0.5197283238824669
-0.4805641157812488	0.5222992579282756
-0.4805030806249988	0.5247871820090526
-0.4804420454687488	0.5271571796999815
-0.4803810103124988	0.5294198844305652
-0.4803199751562488	0.5316187210788746
-0.4802589399999988	0.5337737944638569
-0.4801979048437488	0.5358541947619404
-0.4801368696874988	0.5378160090793366
-0.4800758345312488	0.5396588416141481
-0.4800147993749988	0.5414276180562084
-0.4799537642187488	0.5431551327235634
-0.4798927290624988	0.5448181892939582
-0.4798316939062488	0.5463653868823409
-0.4797706587499988	0.5477830141020138
-0.4797096235937488	0.5491141532705193
-0.4796485884374988	0.5504040973604276
-0.4795875532812488	0.5516407328348604
-0.4795265181249988	0.5527678475718655
-0.4794654829687488	0.5537568312594471
-0.4794044478124988	0.5546450828714624
-0.4793434126562488	0.5554893354130199
-0.4792823774999988	0.5562916834685621
-0.4792213423437488	0.5569944306220475
-0.4791603071874988	0.5575533481959433
-0.4790992720312488	0.5579961543134924
-0.4790382368749988	0.5583887085556031
-0.4789772017187488	0.5587497716345143
-0.4789161665624988	0.5590244630592024
-0.4788551314062488	0.5591535578492502
-0.4787940962499988	0.5591510862522986
-0.4787330610937488	0.5590884745846062
-0.4786720259374988	0.559002661854199
-0.4786109907812488	0.5588463151195319
-0.4785499556249988	0.55854709318117
-0.4784889204687488	0.5581018405105316
-0.4784278853124988	0.5575831007295488
-0.4783668501562488	0.5570464080796964
-0.4783058149999988	0.5564568862409774
-0.4782447798437488	0.5557321903042506
-0.4781837446874988	0.5548491138146798
-0.4781227095312488	0.5538760217826764
-0.4780616743749988	0.5528862656126085
-0.4780006392187488	0.5518623529339556
-0.4779396040624988	0.5507161662686684
-0.4778785689062488	0.549402325259183
-0.4778175337499988	0.5479791353392819
-0.4777564985937488	0.5465357954079574
-0.4776954634374988	0.5450769749848162
-0.4776344282812488	0.5435142914474995
-0.4775733931249988	0.5417790977139672
-0.4775123579687488	0.5399130711012295
-0.4774513228124988	0.5380177201519044
-0.4773902876562488	0.536124267691226
-0.4773292524999988	0.5341509408742587
-0.4772682173437488	0.532006030565509
-0.4772071821874988	0.5297073443675153
-0.4771461470312488	0.5273632997188235
-0.4770851118749988	0.5250355940500876
-0.4770240767187488	0.5226577528355898
-0.4769630415624988	0.5201171882614551
-0.4769020064062488	0.517400100561551
-0.4768409712499988	0.5146136863885185
-0.4767799360937488	0.5118523906816049
-0.4767189009374988	0.5090754982453638
-0.4766578657812488	0.506154862824849
-0.4765968306249988	0.5030376793066307
-0.4765357954687488	0.4998185203613165
-0.4764747603124988	0.4966240092983401
-0.4764137251562488	0.49345135227136805
-0.4763526899999988	0.4901669807502241
-0.4762916548437488	0.48667366259926603
-0.4762306196874988	0.48303792090461317
-0.4761695845312488	0.4794121738789265
-0.4761085493749988	0.4758432183056892
-0.4760475142187488	0.47220832766803017
-0.4759864790624988	0.46836615144374827
-0.4759254439062488	0.46433773813058643
-0.4758644087499988	0.460287112686209
-0.4758033735937488	0.4563182874615331
-0.4757423384374988	0.45234091088833717
-0.4756813032812488	0.4481786246521609
-0.4756202681249988	0.4437910437273753
-0.4755592329687488	0.43933088939131376
-0.4754981978124988	0.43495775874750126
-0.4754371626562488	0.4306368406131432
-0.4753761274999988	0.42617758527498795
-0.4753150923437488	0.4214707091163794
-0.4752540571874988	0.4166293311307379
-0.4751930220312488	0.4118532588927336
-0.4751319868749988	0.40718067146177
-0.4750709517187488	0.40243752866854593
-0.4750099165624988	0.3974524734135644
-0.4749488814062488	0.3922721641710435
-0.4748878462499988	0.3871071046169392
-0.4748268110937488	0.3820722035513946
-0.4747657759374988	0.37704394224719684
-0.4747047407812488	0.37181320167046245
-0.4746437056249988	0.3663451404866758
-0.4745826704687488	0.3608235026655809
-0.4745216353124988	0.3554243183924575
-0.4744606001562488	0.3500998400881928
-0.4743995649999988	0.34463986061176755
-0.4743385298437488	0.338932752796295
-0.4742774946874988	0.3331024561773254
-0.4742164595312488	0.32735425460382456
-0.4741554243749988	0.3217232473004916
-0.4740943892187488	0.3160358737033546
-0.4740333540624988	0.3101272279578217
-0.4739723189062488	0.30404271440384956
-0.4739112837499988	0.29797838833996815
-0.4738502485937488	0.2920396429402835
-0.4737892134374988	0.2861172696925477
-0.4737281782812488	0.2800280851258772
-0.4736671431249988	0.2737404797277267
-0.4736061079687488	0.267408091537449
-0.4735450728124988	0.2611780400780679
-0.4734840376562488	0.2550148958727529
-0.4734230024999988	0.24875252919207466
-0.4733619673437488	0.24230121479332062
-0.4733009321874988	0.23575305219398843
-0.4732398970312488	0.22926355750837696
-0.4731788618749988	0.22286310918631883
-0.4731178267187488	0.21642843783102203
-0.4730567915624988	0.20983981197430898
-0.4729957564062488	0.20312529075803354
-0.4729347212499988	0.1964198764172186
-0.4728736860937488	0.18979909784134388
-0.4728126509374988	0.18319369896009086
-0.4727516157812488	0.1764825486980726
-0.4726905806249988	0.1696415087195877
-0.4726295454687488	0.16276698345141652
-0.4725685103124988	0.15595446008587407
-0.4725074751562488	0.14918653336661383
-0.4724464399999988	0.1423629538384177
-0.4723854048437488	0.13542679985715267
-0.4723243696874988	0.12842977692448496
-0.4722633345312488	0.1214638638050493
-0.4722022993749988	0.11455088491910302
-0.4721412642187488	0.107623942688047
-0.4720802290624988	0.10061490414133344
-0.4720191939062488	0.09353573915598414
-0.4719581587499988	0.08645854101403892
-0.4718971235937488	0.07942691702579777
-0.4718360884374988	0.07240912021746329
-0.4717750532812488	0.06534383741469695
-0.4717140181249988	0.058215843593774005
-0.4716529829687488	0.051070032257764686
-0.4715919478124988	0.04395405468050202
-0.4715309126562488	0.03686431441072533
-0.4714698774999988	0.029757659307103904
-0.4714088423437488	0.02260711282179846
-0.4713478071874988	0.015431684956407182
-0.4712867720312488	0.008269723960939562
-0.4712257368749988	0.0011342455461152432
-0.4711647017187488	-0.005996473952280746
-0.4711036665624988	-0.013147859396053771
-0.4710426314062488	-0.020319104061647473
-0.4709815962499988	-0.027487638938640067
-0.4709205610937488	-0.034636561685578854
-0.4708595259374988	-0.04177025367181049
-0.4707984907812488	-0.048903759244189576
-0.4707374556249988	-0.05604361466795662
-0.4706764204687488	-0.06318262599564974
-0.4706153853124988	-0.07030971927920981
-0.4705543501562488	-0.07741990434482467
-0.4704933149999988	-0.08451504526079892
-0.4704322798437488	-0.09159934739828454
-0.4703712446874988	-0.09867583845439158
-0.4703102095312488	-0.10574431121529905
-0.4702491743749988	-0.11279977866792894
-0.4701881392187488	-0.11983406254854732
-0.4701271040624988	-0.12684243298738798
-0.4700660689062488	-0.13382952793827352
-0.4700050337499988	-0.14080525258731905
-0.4699439985937488	-0.14777188645735143
-0.4698829634374988	-0.15471757532428365
-0.4698219282812488	-0.16162730922070834
-0.4697608931249988	-0.16850051862049
-0.4696998579687488	-0.17535276456032312
-0.4696388228124988	-0.1821966219535505
-0.4695777876562488	-0.18902385964252102
