Time	Frequency
-0.5000419600937533	4.664376995141423e-23
-0.49998092493750335	4.5752893701479966e-23
-0.49991988978125335	4.485397731771979e-23
-0.49985885462500335	4.3950710764379674e-23
-0.49979781946875335	4.30411022630979e-23
-0.49973678431250335	4.2121653406638566e-23
-0.49967574915625335	4.1194910548748513e-23
-0.49961471400000335	4.026471413914688e-23
-0.49955367884375335	3.932851754796074e-23
-0.49949264368750335	3.838270786572649e-23
-0.49943160853125335	3.7430379206818975e-23
-0.49937057337500335	3.6475484812649554e-23
-0.49930953821875335	3.551497277689671e-23
-0.49924850306250335	3.45451196158727e-23
-0.49918746790625335	3.3569517622865353e-23
-0.49912643275000335	3.259229205859592e-23
-0.49906539759375335	3.1609949874784494e-23
-0.49900436243750335	3.0618537502782625e-23
-0.49894332728125335	2.962196857500802e-23
-0.49888229212500335	2.862459531892293e-23
-0.49882125696875335	2.7622697308879337e-23
-0.49876022181250335	2.661211049343666e-23
-0.49869918665625335	2.559699241498388e-23
-0.49863815150000335	2.4582012435548218e-23
-0.49857711634375335	2.3563208566904422e-23
-0.49851608118750335	2.253593823487873e-23
-0.49845504603125335	2.1504531707591984e-23
-0.49839401087500335	2.0474302647673318e-23
-0.49833297571875335	1.9441239289747253e-23
-0.49827194056250335	1.8399932061068165e-23
-0.49821090540625335	1.7354703415635247e-23
-0.49814987025000335	1.6311763550408893e-23
-0.49808883509375335	1.5267090331108002e-23
-0.49802779993750335	1.4214230190063236e-23
-0.49796676478125335	1.3157559638633215e-23
-0.49790572962500335	1.210448763195491e-23
-0.49784469446875335	1.1050918808158003e-23
-0.49778365931250335	9.989073693311803e-24
-0.49772262415625335	8.92341724471795e-24
-0.49766158900000335	7.862796882467901e-24
-0.49760055384375335	6.803042514687288e-24
-0.49753951868750335	5.734873637835144e-24
-0.49747848353125335	4.6628020488944224e-24
-0.49741744837500335	3.597180052011088e-24
-0.49735641321875335	2.533821318181562e-24
-0.49729537806250335	1.4620178424802653e-24
-0.49723434290625335	3.8628343716895854e-25
-0.49717330775000335	-6.817765682011054e-25
-0.49711227259375335	-1.746357720806513e-24
-0.49705123743750335	-2.819142428423264e-24
-0.49699020228125335	-3.89555280736024e-24
-0.49692916712500335	-4.9633147775838266e-24
-0.49686813196875335	-6.0267103322879965e-24
-0.49680709681250335	-7.097749451216583e-24
-0.49674606165625335	-8.171851669321429e-24
-0.49668502650000335	-9.236904252959109e-24
-0.49662399134375335	-1.0297136643578127e-23
-0.49656295618750335	-1.1363838623459412e-23
-0.49650192103125335	-1.243240380933336e-23
-0.49644088587500335	-1.3491882880100073e-23
-0.49637985071875335	-1.4546627595484622e-23
-0.49631881556250335	-1.5606424577304118e-23
-0.49625778040625335	-1.6666503670705566e-23
-0.49619674525000335	-1.7717720546345057e-23
-0.49613571009375335	-1.8764636544553926e-23
-0.49607467493750335	-1.9815018710188797e-23
-0.49601363978125335	-2.0863824744881756e-23
-0.49595260462500335	-2.190403865185521e-23
-0.49589156946875335	-2.2940541496405467e-23
-0.49583053431250335	-2.3978934450614067e-23
-0.49576949915625335	-2.5013844717361717e-23
-0.49570846400000335	-2.604045377115171e-23
-0.49564742884375335	-2.706405154473419e-23
-0.49558639368750335	-2.8088094110258196e-23
-0.49552535853125335	-2.9106663436498e-23
-0.49546432337500335	-3.011691060296216e-23
-0.49540328821875335	-3.1124762333382686e-23
-0.49534225306250335	-3.2131915546419344e-23
-0.49528121790625335	-3.3131755272574795e-23
-0.49522018275000335	-3.412296343174578e-23
-0.49515914759375335	-3.511224230336978e-23
-0.49509811243750335	-3.610009361395417e-23
-0.49503707728125335	-3.707915937556539e-23
-0.49497604212500335	-3.804900728882983e-23
-0.49491500696875335	-3.9016987769764394e-23
-0.49485397181250335	-3.998295300347776e-23
-0.49479293665625335	-4.093897167447298e-23
-0.49473190150000335	-4.188503318715838e-23
-0.49467086634375335	-4.2828993341906335e-23
-0.49460983118750335	-4.377056988231299e-23
-0.49454879603125335	-4.4701480895126364e-23
-0.49448776087500335	-4.562157755300368e-23
-0.49442672571875335	-4.653887045999169e-23
-0.49436569056250335	-4.745344381854615e-23
-0.49430465540625335	-4.8357092321835e-23
-0.49424362025000335	-4.9249176322169986e-23
-0.49418258509375335	-5.013739389984994e-23
-0.49412154993750335	-5.102236688147763e-23
-0.49406051478125335	-5.189645777469632e-23
-0.49399947962500335	-5.2758535618569483e-23
-0.49393844446875335	-5.361553014587538e-23
-0.49387740931250335	-5.446847419263985e-23
-0.49381637415625335	-5.531065019929654e-23
-0.49375533900000335	-5.614063870856804e-23
-0.49369430384375335	-5.696437565358328e-23
-0.49363326868750335	-5.778309655334678e-23
-0.49357223353125335	-5.859119510385633e-23
-0.49351119837500335	-5.938719102483432e-23
-0.49345016321875335	-6.017579354803097e-23
-0.49338912806250335	-6.095806624228718e-23
-0.49332809290625335	-6.172963577755735e-23
-0.49326705775000335	-6.248944240347262e-23
-0.49320602259375335	-6.324109642956269e-23
-0.49314498743750335	-6.398513951472601e-23
-0.49308395228125335	-6.471822094167428e-23
-0.49302291712500335	-6.543988578934804e-23
-0.49296188196875335	-6.615279606861878e-23
-0.49290084681250335	-6.685678923166858e-23
-0.49283981165625335	-6.754932612792727e-23
-0.49277877650000335	-6.823074488452466e-23
-0.49271774134375335	-6.890310725514277e-23
-0.49265670618750335	-6.956547979991756e-23
-0.49259567103125335	-7.021579366802352e-23
-0.49253463587500335	-7.085514476796306e-23
-0.49247360071875335	-7.148523609679528e-23
-0.49241256556250335	-7.210438597139704e-23
-0.49235153040625335	-7.27107617079347e-23
-0.49229049525000335	-7.330620347411207e-23
-0.49222946009375335	-7.389237138231777e-23
-0.49216842493750335	-7.446693397157682e-23
-0.49210738978125335	-7.502795507286082e-23
-0.49204635462500335	-7.557780647921785e-23
-0.49198531946875335	-7.611835724905391e-23
-0.49192428431250335	-7.664690287009173e-23
-0.49186324915625335	-7.716126666831931e-23
-0.49180221400000335	-7.76640643340696e-23
-0.49174117884375335	-7.81574425904967e-23
-0.49168014368750335	-7.863860273100902e-23
-0.49161910853125335	-7.91051110726659e-23
-0.49155807337500335	-7.955957115829175e-23
-0.49149703821875335	-8.000437000616057e-23
-0.49143600306250335	-8.043685538224249e-23
-0.49137496790625335	-8.085442831198439e-23
-0.49131393275000335	-8.125945201207335e-23
-0.49125289759375335	-8.165440389720832e-23
-0.49119186243750335	-8.203696295679749e-23
-0.49113082728125335	-8.240455676344487e-23
-0.49106979212500335	-8.275918296696065e-23
-0.49100875696875335	-8.310319863810807e-23
-0.49094772181250335	-8.343468577940297e-23
-0.49088668665625335	-8.375131883154064e-23
-0.49082565150000335	-8.405472766140856e-23
-0.49076461634375335	-8.434695049005291e-23
-0.49070358118750335	-8.4626407620824e-23
-0.49064254603125335	-8.489116321976194e-23
-0.49058151087500335	-8.514256715779426e-23
-0.49052047571875335	-8.538224121155893e-23
-0.49045944056250335	-8.560886006379322e-23
-0.49039840540625335	-8.582096123680156e-23
-0.49033737025000335	-8.601971165387345e-23
-0.49027633509375335	-8.620625174095832e-23
-0.49021529993750335	-8.637939748958168e-23
-0.49015426478125335	-8.653819116612551e-23
-0.49009322962500335	-8.668372942409695e-23
-0.49003219446875335	-8.681667064093138e-23
-0.48997115931250335	-8.693586421639797e-23
-0.48991012415625335	-8.704082744564045e-23
-0.48984908900000335	-8.713268262275003e-23
-0.48978805384375335	-8.721166929635888e-23
-0.48972701868750335	-8.727659949353131e-23
-0.48966598353125335	-8.732737117755601e-23
-0.48960494837500335	-8.736518187667563e-23
-0.48954391321875335	-8.738997009394515e-23
-0.48948287806250335	-8.7400471487123e-23
-0.48942184290625335	-8.739684389548104e-23
-0.48936080775000335	-8.738039105234026e-23
-0.48929977259375335	-8.735086377987579e-23
-0.48923873743750335	-8.730690958558553e-23
-0.48917770228125335	-8.724883414765092e-23
-0.48911666712500335	-8.717802974851841e-23
-0.48905563196875335	-8.709417697819779e-23
-0.48899459681250335	-8.699588064377387e-23
-0.48893356165625335	-8.688347963119826e-23
-0.48887252650000335	-8.67583918351868e-23
-0.48881149134375335	-8.662030758053274e-23
-0.48875045618750335	-8.646785218274802e-23
-0.48868942103125335	-8.6301365278112e-23
-0.48862838587500335	-8.612222888336904e-23
-0.48856735071875335	-8.593015425173782e-23
-0.48850631556250335	-8.572385656364315e-23
-0.48844528040625335	-8.550367235777749e-23
-0.48838424525000335	-8.527089311459278e-23
-0.48832321009375335	-8.502525054852205e-23
-0.48826217493750335	-8.476556620078839e-23
-0.48820113978125335	-8.449217004740866e-23
-0.48814010462500335	-8.420625998964152e-23
-0.48807906946875335	-8.390757919053886e-23
-0.48801803431250335	-8.359507113851292e-23
-0.48795699915625335	-8.326908949363507e-23
-0.48789596400000335	-8.293070679218997e-23
-0.48783492884375335	-8.257963804051664e-23
-0.48777389368750335	-8.221499164045808e-23
-0.48771285853125335	-8.183720736055135e-23
-0.48765182337500335	-8.144721367178677e-23
-0.48759078821875335	-8.10446177019766e-23
-0.48752975306250335	-8.062866194365995e-23
-0.48746871790625335	-8.019991188377016e-23
-0.48740768275000335	-7.975919061697319e-23
-0.48734664759375335	-7.930600938113298e-23
-0.48728561243750335	-7.883972484805604e-23
-0.48722457728125335	-7.836100791147293e-23
-0.48716354212500335	-7.787059629537385e-23
-0.48710250696875335	-7.736791781087883e-23
-0.48704147181250335	-7.685243496548632e-23
-0.48698043665625335	-7.63249178282785e-23
-0.48691940150000335	-7.57859957111944e-23
-0.48685836634375335	-7.523500183205898e-23
-0.48679733118750335	-7.467152834151965e-23
-0.48673629603125335	-7.409646010024432e-23
-0.48667526087500335	-7.351032346585641e-23
-0.48661422571875335	-7.29123620706885e-23
-0.48655319056250335	-7.230226716705819e-23
-0.48649215540625335	-7.168100739964551e-23
-0.48643112025000335	-7.104903106176817e-23
-0.48637008509375335	-7.040553572220186e-23
-0.48630904993750335	-6.975032506258088e-23
-0.48624801478125335	-6.908441774410582e-23
-0.48618697962500335	-6.840813593540546e-23
-0.48612594446875335	-6.772063595520642e-23
-0.48606490931250335	-6.7021872046999e-23
-0.48600387415625335	-6.631292165625642e-23
-0.48594283900000335	-6.559398318039607e-23
-0.48588180384375335	-6.486419639345806e-23
-0.48582076868750335	-6.412364849014353e-23
-0.48575973353125335	-6.337340687539249e-23
-0.48569869837500335	-6.261352957074587e-23
-0.48563766321875335	-6.184316249229048e-23
-0.48557662806250335	-6.106253424471933e-23
-0.48551559290625335	-6.027276784921344e-23
-0.48545455775000335	-5.947386676945366e-23
-0.48539352259375335	-5.866495004845844e-23
-0.48533248743750335	-5.784624877945124e-23
-0.48527145228125335	-5.701884553761987e-23
-0.48521041712500335	-5.618275005909729e-23
-0.48514938196875335	-5.533719900443458e-23
-0.48508834681250335	-5.448248859611148e-23
-0.48502731165625335	-5.361960894756198e-23
-0.48496627650000335	-5.274848055062951e-23
-0.48490524134375335	-5.186839062387477e-23
-0.48484420618750335	-5.097970303299861e-23
-0.48478317103125335	-5.008336754180862e-23
-0.48472213587500335	-4.9179269310568433e-23
-0.48466110071875335	-4.826676480294563e-23
-0.48460006556250335	-4.734627819824458e-23
-0.48453903040625335	-4.641871714121084e-23
-0.48447799525000335	-4.5483920000888746e-23
-0.48441696009375335	-4.454130172000586e-23
-0.48435592493750335	-4.359136278498771e-23
-0.48429488978125335	-4.2634958705591005e-23
-0.48423385462500335	-4.1671835633188867e-23
-0.48417281946875335	-4.070144212618026e-23
-0.48411178431250335	-3.9724341697363065e-23
-0.48405074915625335	-3.874134534698624e-23
-0.48398971400000335	-3.775216277568098e-23
-0.48392867884375335	-3.675634151889834e-23
-0.48386764368750335	-3.575454737998932e-23
-0.48380660853125335	-3.4747511801713586e-23
-0.48374557337500335	-3.373481874634763e-23
-0.48368453821875335	-3.2716072289642845e-23
-0.48362350306250335	-3.16920507705258e-23
-0.48356246790625335	-3.066344137940326e-23
-0.48350143275000335	-2.9629735200050734e-23
-0.48344039759375335	-2.8590598659190715e-23
-0.48337936243750335	-2.75469148102558e-23
-0.48331832728125335	-2.6499289313889334e-23
-0.48325729212500335	-2.5447106410712355e-23
-0.48319625696875335	-2.439014921486504e-23
-0.48313522181250335	-2.3329429630036603e-23
-0.48307418665625335	-2.2265442571357334e-23
-0.48301315150000335	-2.1197445487988067e-23
-0.48295211634375335	-2.0125326155337227e-23
-0.48289108118750335	-1.9050212029627818e-23
-0.48283004603125335	-1.7972500323096834e-23
-0.48276901087500335	-1.6891373002751717e-23
-0.48270797571875335	-1.5806821657459123e-23
-0.48264694056250335	-1.4719995532524453e-23
-0.48258590540625335	-1.363117889132463e-23
-0.48252487025000335	-1.2539579595330649e-23
-0.48246383509375335	-1.1445310189700556e-23
-0.48240279993750335	-1.0349488353929309e-23
-0.48234176478125335	-9.252306545400844e-24
-0.48228072962500335	-8.153007383464318e-24
-0.48221969446875335	-7.051778083043781e-24
-0.48215865931250335	-5.949719200656238e-24
-0.48209762415625335	-4.8469672996343664e-24
-0.48203658900000335	-3.742774621739905e-24
-0.48197555384375335	-2.6373868245048148e-24
-0.48191451868750335	-1.5319073065676373e-24
-0.48185348353125335	-4.263923621735395e-25
-0.48179244837500335	6.799468292812215e-25
-0.48173141321875335	1.786800914433268e-24
-0.48167037806250335	2.8930319661204743e-24
-0.48160934290625335	3.998633122265705e-24
-0.48154830775000335	5.104372400159508e-24
-0.48148727259375335	6.209826506433788e-24
-0.48142623743750335	7.313855970170925e-24
-0.48136520228125335	8.416619834351371e-24
-0.48130416712500335	9.518977345938469e-24
-0.48124313196875335	1.0620369164564099e-23
-0.48118209681250335	1.1719519916794086e-23
-0.48112106165625335	1.2816665802017363e-23
-0.48106002650000335	1.3912740054099526e-23
-0.48099899134375335	1.5007087935790027e-23
-0.48093795618750335	1.609846157444095e-23
-0.48087692103125335	1.7187317139912218e-23
-0.48081588587500335	1.827456161738794e-23
-0.48075485071875335	1.9359249373069372e-23
-0.48069381556250335	2.044010102964715e-23
-0.48063278040625335	2.1517812813876678e-23
-0.48057174525000335	2.2593318554640292e-23
-0.48051071009375335	2.366549810774306e-23
-0.48044967493750335	2.473311949771228e-23
-0.48038863978125335	2.579707813860887e-23
-0.48032760462500335	2.6858198370859053e-23
-0.48026656946875335	2.791508444762221e-23
-0.48020553431250335	2.8966637693856434e-23
-0.48014449915625335	3.001407697987916e-23
-0.48008346400000335	3.1058103055384475e-23
-0.48002242884375335	3.2097036167258073e-23
-0.47996139368750335	3.312993892196114e-23
-0.47990035853125335	3.4158285472305377e-23
-0.47983932337500335	3.5182564739464604e-23
-0.47977828821875335	3.620084625748544e-23
-0.47971725306250335	3.721242606601425e-23
-0.47965621790625335	3.821900695506733e-23
-0.47959518275000335	3.9220850998823447e-23
-0.47953414759375335	4.021586845864401e-23
-0.47947311243750335	4.120362731801895e-23
-0.47941207728125335	4.218595843694312e-23
-0.47935104212500335	4.3162811145921705e-23
-0.47929000696875335	4.413197275892269e-23
-0.47922897181250335	4.5093323729044483e-23
-0.47916793665625335	4.604882692577674e-23
-0.47910690150000335	4.699817741651361e-23
-0.47904586634375335	4.7939061951207286e-23
-0.47898483118750335	4.887161139157158e-23
-0.47892379603125335	4.979787852096459e-23
-0.47886276087500335	5.0717274437826905e-23
-0.47880172571875335	5.162740260111619e-23
-0.47874069056250335	5.2528718411078395e-23
-0.47867965540625335	5.342336978938642e-23
-0.47861862025000335	5.431045527046242e-23
-0.47855758509375335	5.518750261936409e-23
-0.47849654993750335	5.605529369189777e-23
-0.47843551478125335	5.691603993633096e-23
-0.47837447962500335	5.776847826066309e-23
-0.47831344446875335	5.861008783490766e-23
-0.47825240931250335	5.944208150428705e-23
-0.47819137415625335	6.026676444535563e-23
-0.47813033900000335	6.108243708484889e-23
-0.47806930384375335	6.188648620029697e-23
-0.47800826868750335	6.268057434126248e-23
-0.47794723353125335	6.346706267340813e-23
-0.47788619837500335	6.424376679909407e-23
-0.47782516321875335	6.500806390979491e-23
-0.47776412806250335	6.576217243571004e-23
-0.47770309290625335	6.650847507593146e-23
-0.47764205775000335	6.724421348207195e-23
-0.47758102259375335	6.796676919913979e-23
-0.47751998743750335	6.867897141083524e-23
-0.47745895228125335	6.938318622801865e-23
-0.47739791712500335	7.007603927382409e-23
-0.47733688196875335	7.075496307759928e-23
-0.47727584681250335	7.142341173759161e-23
-0.47721481165625335	7.208367827944815e-23
-0.47715377650000335	7.273177186937623e-23
-0.47709274134375335	7.336524544013192e-23
-0.47703170618750335	7.398820252195504e-23
-0.47697067103125335	7.460283191780185e-23
-0.47690963587500335	7.520452502674568e-23
-0.47684860071875335	7.579093567211165e-23
-0.47678756556250335	7.636675263925357e-23
-0.47672653040625335	7.693409225693832e-23
-0.47666549525000335	7.74878088316464e-23
-0.47660446009375335	7.80256096859469e-23
-0.47654342493750335	7.85526984434065e-23
-0.47648238978125335	7.907120949232789e-23
-0.47642135462500335	7.957556239645672e-23
-0.47636031946875335	8.006340153455502e-23
-0.47629928431250335	8.05403137865602e-23
-0.47623824915625335	8.100857639244938e-23
-0.47617721400000335	8.146226740889165e-23
-0.47611617884375335	8.189881273245209e-23
-0.47605514368750335	8.232417988034817e-23
-0.47599410853125335	8.274102905399473e-23
-0.47593307337500335	8.314305066542536e-23
-0.47587203821875335	8.352711901183547e-23
-0.47581100306250335	8.389960602343112e-23
-0.47574996790625335	8.426390875293557e-23
-0.47568893275000335	8.46132995100973e-23
-0.47562789759375335	8.494377577876014e-23
-0.47556686243750335	8.526222487199837e-23
-0.47550582728125335	8.557310053231653e-23
-0.47544479212500335	8.586908488636511e-23
-0.47538375696875335	8.614498139437905e-23
-0.47532272181250335	8.640836639870502e-23
-0.47526168665625335	8.666504425439567e-23
-0.47520065150000335	8.69069539025848e-23
-0.47513961634375335	8.712743776301399e-23
-0.47507858118750335	8.733487824730119e-23
-0.47501754603125335	8.753666049255649e-23
-0.47495651087500335	8.772393646330747e-23
-0.47489547571875335	8.788843553998555e-23
-0.47483444056250335	8.8039296173636e-23
-0.47477340540625335	8.818550257353288e-23
-0.47471237025000335	8.831755028672211e-23
-0.47465133509375335	8.842572379242077e-23
-0.47459029993750335	8.851972115406515e-23
-0.47452926478125335	8.860973574191768e-23
-0.47446822962500335	8.868587086875883e-23
-0.47440719446875335	8.873757112422734e-23
-0.47434615931250335	8.877475492738267e-23
-0.47428512415625335	8.880805126015812e-23
-0.47422408900000335	8.88275937385853e-23
-0.47416305384375335	8.882289650620637e-23
-0.47410201868750335	8.880362070644302e-23
-0.47404098353125335	8.877981611123797e-23
-0.47397994837500335	8.874210273872671e-23
-0.47391891321875335	8.868110293015234e-23
-0.47385787806250335	8.860585182404089e-23
-0.47379684290625335	8.852486582602334e-23
-0.47373580775000335	8.842952172421098e-23
-0.47367477259375335	8.831235004869079e-23
-0.47361373743750335	8.81815800638881e-23
-0.47355270228125335	8.804356752078203e-23
-0.47349166712500335	8.789052032267976e-23
-0.47343063196875335	8.771732815699974e-23
-0.47336959681250335	8.753144963388682e-23
-0.47330856165625335	8.733680750438713e-23
-0.47324752650000335	8.712632986218608e-23
-0.47318649134375335	8.68973815948907e-23
-0.47312545618750335	8.665682426265163e-23
-0.47306442103125335	8.640615798390461e-23
-0.47300338587500335	8.61387669479781e-23
-0.47294235071875335	8.585435128825565e-23
-0.47288131556250335	8.55595285909864e-23
-0.47282028040625335	8.525365321244471e-23
-0.47275924525000335	8.49301670556127e-23
-0.47269821009375335	8.459070895941914e-23
-0.47263717493750335	8.424205765147151e-23
-0.47257613978125335	8.388193004144515e-23
-0.47251510462500335	8.350345669086428e-23
-0.47245406946875335	8.310960276602457e-23
-0.47239303431250335	8.27075795431445e-23
-0.47233199915625335	8.229412717591377e-23
-0.47227096400000335	8.186191664082725e-23
-0.47220992884375335	8.141458612922055e-23
