Time	Frequency
-0.5000275724062533	-0.4155433042556621
-0.4999665372500033	-0.42074272837041643
-0.4999055020937533	-0.42588874684146816
-0.4998444669375033	-0.430997877706239
-0.4997834317812533	-0.436060826809022
-0.4997223966250033	-0.44104844566063894
-0.4996613614687533	-0.4459335231290396
-0.4996003263125033	-0.4507115840383401
-0.4995392911562533	-0.4554042947345627
-0.4994782560000033	-0.4600424171813817
-0.4994172208437533	-0.46464116174823306
-0.4993561856875033	-0.4691870779732138
-0.4992951505312533	-0.473647229204908
-0.4992341153750033	-0.4779941070104144
-0.4991730802187533	-0.4822269753941258
-0.4991120450625033	-0.48637263274912346
-0.4990510099062533	-0.4904643614268402
-0.4989899747500033	-0.4945150707853552
-0.4989289395937533	-0.49850585752334753
-0.4988679044375033	-0.5023995788476905
-0.4988068692812533	-0.5061693204775592
-0.4987458341250033	-0.5098195193036117
-0.4986847989687533	-0.5133827723945718
-0.4986237638125033	-0.516894226343305
-0.4985627286562533	-0.5203632290857548
-0.4985016935000033	-0.5237646413683678
-0.4984406583437533	-0.5270573217735456
-0.4983796231875033	-0.5302159302471571
-0.4983185880312533	-0.5332511188706237
-0.4982575528750033	-0.5362016287309594
-0.4981965177187533	-0.5391037760480848
-0.4981354825625033	-0.5419620521581189
-0.4980744474062533	-0.5447442640305629
-0.4980134122500033	-0.5474057411826301
-0.4979523770937533	-0.5499241583901671
-0.4978913419375033	-0.5523175362763965
-0.4978303067812533	-0.55463063733733
-0.4977692716250033	-0.556899713061404
-0.4977082364687533	-0.5591230416597127
-0.4976472013125033	-0.5612609297337074
-0.4975861661562533	-0.5632660289999905
-0.4975251310000033	-0.5651205694768814
-0.4974640958437533	-0.5668509659753286
-0.4974030606875033	-0.5685075974571732
-0.4973420255312533	-0.5701250321581248
-0.4972809903750033	-0.5716938893619609
-0.4972199552187533	-0.5731670073414967
-0.4971589200625033	-0.5744958317004623
-0.4970978849062533	-0.5756687770340249
-0.4970368497500033	-0.5767210986959249
-0.4969758145937533	-0.5777077737743365
-0.4969147794375033	-0.5786600796719292
-0.4968537442812533	-0.5795600158699579
-0.4967927091250033	-0.5803533467553277
-0.4967316739687533	-0.5809917709813572
-0.4966706388125033	-0.5814713074584056
-0.4966096036562533	-0.5818362973630887
-0.4965485685000033	-0.5821451201877176
-0.4964875333437533	-0.582424052325276
-0.4964264981875033	-0.5826456725910418
-0.4963654630312533	-0.5827494805859702
-0.4963044278750033	-0.5826892029961286
-0.4962433927187533	-0.582469756749774
-0.4961823575625033	-0.5821443496532529
-0.4961213224062533	-0.5817732544433959
-0.4960602872500033	-0.5813761870173189
-0.4959992520937533	-0.5809158875074488
-0.4959382169375033	-0.5803265177717807
-0.4958771817812533	-0.5795652726436226
-0.4958161466250033	-0.578646802837258
-0.4957551114687533	-0.5776328623789759
-0.4956940763125033	-0.5765845069855793
-0.4956330411562533	-0.575513938532982
-0.4955720060000033	-0.5743739982937269
-0.4955109708437533	-0.5730942888463686
-0.4954499356875033	-0.5716363873493311
-0.4953889005312533	-0.5700250130279968
-0.4953278653750033	-0.5683300530945703
-0.4952668302187533	-0.5666125965965915
-0.4952057950625033	-0.5648767774095412
-0.4951447599062533	-0.5630654870479985
-0.4950837247500033	-0.5611042225725504
-0.4950226895937533	-0.5589595806589822
-0.4949616544375033	-0.5566667340557314
-0.4949006192812533	-0.5543036045843857
-0.4948395841250033	-0.5519308414079506
-0.4947785489687533	-0.5495440178085431
-0.4947175138125033	-0.5470758690285494
-0.4946564786562533	-0.5444479147151454
-0.4945954435000033	-0.5416320865148379
-0.4945344083437533	-0.5386743273611557
-0.4944733731875033	-0.535660805861283
-0.4944123380312533	-0.5326517866298663
-0.4943513028750033	-0.529634079898107
-0.4942902677187533	-0.5265297700155526
-0.4942292325625033	-0.5232559011647087
-0.4941681974062533	-0.5197897383486512
-0.4941071622500033	-0.5161886665999884
-0.4940461270937533	-0.512547976150044
-0.4939850919375033	-0.5089278177088302
-0.4939240567812533	-0.505305546987709
-0.4938630216250033	-0.5015914795537921
-0.4938019864687533	-0.497697537397328
-0.4937409513125033	-0.49360663694217055
-0.4936799161562533	-0.4893886898106674
-0.4936188810000033	-0.4851491603850035
-0.4935578458437533	-0.48094828984548804
-0.4934968106875033	-0.4767531694118707
-0.4934357755312533	-0.47246110845446504
-0.4933747403750033	-0.4679782243376571
-0.4933137052187533	-0.46329356344006295
-0.4932526700625033	-0.45849076423780744
-0.4931916349062533	-0.45368633695689625
-0.4931305997500033	-0.4489404989117349
-0.4930695645937533	-0.44420910396839464
-0.4930085294375033	-0.43937534864511973
-0.4929474942812533	-0.4343391575013296
-0.4928864591250033	-0.42909636488274877
-0.4928254239687533	-0.4237455220520348
-0.4927643888125033	-0.418414891418858
-0.4927033536562533	-0.4131642598753648
-0.4926423185000033	-0.4079371962034669
-0.4925812833437533	-0.4026022530411311
-0.4925202481875033	-0.3970536472799742
-0.4924592130312533	-0.39129482856938
-0.4923981778750033	-0.38543945669666113
-0.4923371427187533	-0.3796268033978628
-0.4922761075625033	-0.3739151351594904
-0.4922150724062533	-0.3682353416289634
-0.4921540372500033	-0.3624422049082421
-0.4920930020937533	-0.35642585182173175
-0.4920319669375033	-0.3501983561679961
-0.4919709317812533	-0.3438877199491785
-0.4919098966250033	-0.3376419734252837
-0.4918488614687533	-0.3315159922997279
-0.4917878263125033	-0.3254283586145619
-0.4917267911562533	-0.3192228276403757
-0.4916657560000033	-0.3127884804888291
-0.4916047208437533	-0.3061465737902189
-0.4915436856875033	-0.29943660287591
-0.4914826505312533	-0.2928110947790169
-0.4914216153750033	-0.28631931907724956
-0.4913605802187533	-0.27986951021144935
-0.4912995450625033	-0.2732992918492223
-0.4912385099062533	-0.2665007252801265
-0.4911774747500033	-0.2595040728715924
-0.4911164395937533	-0.25245575516760765
-0.4910554044375033	-0.2455072109843122
-0.4909943692812533	-0.2386999840969157
-0.4909333341250033	-0.2319352110501784
-0.4908722989687533	-0.22505062796639008
-0.4908112638125033	-0.21794566963739048
-0.4907502286562533	-0.21065860576853943
-0.4906891935000033	-0.20333697874178594
-0.4906281583437533	-0.19612493616724763
-0.4905671231875033	-0.18905452949550378
-0.4905060880312533	-0.18202393011265447
-0.4904450528750033	-0.17487788146778885
-0.4903840177187533	-0.16752744314135198
-0.4903229825625033	-0.1600171522130068
-0.4902619474062533	-0.1524894343084055
-0.4902009122500033	-0.14507544077535087
-0.4901398770937533	-0.13779691518632092
-0.4900788419375033	-0.1305534035008309
-0.4900178067812533	-0.12320246897214845
-0.4899567716250033	-0.11566955416407758
-0.4898957364687533	-0.10800328816214033
-0.4898347013125033	-0.10033595746948334
-0.4897736661562533	-0.09278194020988044
-0.4897126310000033	-0.08535292049014839
-0.4896515958437533	-0.07795359470777861
-0.4895905606875033	-0.07045843693311686
-0.4895295255312533	-0.06280851029690417
-0.4894684903750033	-0.05505425424572265
-0.4894074552187533	-0.04731394964345275
-0.4893464200625033	-0.03968271513973976
-0.4892853849062533	-0.03216291164250547
-0.4892243497500033	-0.024667543018839225
-0.4891633145937533	-0.017090801070735694
-0.4891022794375033	-0.009389523125093472
-0.4890412442812533	-0.001613617027855477
-0.4889802091250033	0.006135069518203673
-0.4889191739687533	0.013780913219076655
-0.4888581388125033	0.02132900962565975
-0.4887971036562533	0.028856144931413502
-0.4887360685000033	0.03644825808428647
-0.4886750333437533	0.04413431605227236
-0.4886139981875033	0.05186672096550766
-0.4885529630312533	0.059560526547713356
-0.4884919278750033	0.06715850764391486
-0.4884308927187533	0.07467151253952815
-0.4883698575625033	0.08216517185876873
-0.4883088224062533	0.08970618864560602
-0.4882477872500033	0.09731113688377113
-0.4881867520937533	0.10493621063396488
-0.4881257169375033	0.1125131389025897
-0.4880646817812533	0.1200012127976034
-0.4880036466250033	0.12741507456476497
-0.4879426114687533	0.1348089144269233
-0.4878815763125033	0.14223188972594042
-0.4878205411562533	0.14969043176883623
-0.4877595060000033	0.1571455755231644
-0.4876984708437533	0.16454481257646533
-0.4876374356875033	0.1718617274245943
-0.4875764005312533	0.1791128554497932
-0.4875153653750033	0.18634085398704583
-0.4874543302187533	0.19357928249566606
-0.4873932950625033	0.20082701172490514
-0.4873322599062533	0.20805102374274598
-0.4872712247500033	0.215213264878165
-0.4872101895937533	0.2222990528090591
-0.4871491544375033	0.22932518261654855
-0.4870881192812533	0.23632326402403092
-0.4870270841250033	0.2433132366314727
-0.4869660489687533	0.2502882737186097
-0.4869050138125033	0.25722168607817136
-0.4868439786562533	0.2640885612147833
-0.4867829435000033	0.27088399105883554
-0.4867219083437533	0.2776239108134389
-0.4866608731875033	0.28432951735917417
-0.4865998380312533	0.29100910066860197
-0.4865388028750033	0.29765187322129033
-0.4864777677187533	0.30423761397973703
-0.4864167325625033	0.31075302038627806
-0.4863556974062533	0.31720100343698127
-0.4862946622500033	0.3235958841811263
-0.4862336270937533	0.32994943826047696
-0.4861725919375033	0.33626011710880427
-0.4861115567812533	0.34251436076516084
-0.4860505216250033	0.3486980767474782
-0.4859894864687533	0.35480804150448747
-0.4859284513125033	0.36085353869209935
-0.4858674161562533	0.3668469718751162
-0.4858063810000033	0.37279180777761345
-0.4857453458437533	0.37867841299004973
-0.4856843106875033	0.38449132197431773
-0.4856232755312533	0.3902218533611554
-0.4855622403750033	0.39587529808553595
-0.4855012052187533	0.4014661340414558
-0.4854401700625033	0.40700499749487323
-0.4853791349062533	0.41248836245210374
-0.4853180997500033	0.41789982028007
-0.4852570645937533	0.42322241670414373
-0.4851960294375033	0.42845217735038665
-0.4851349942812533	0.4336014785619061
-0.4850739591250033	0.4386889522340811
-0.4850129239687533	0.4437236899880889
-0.4849518888125033	0.44869650226238583
-0.4848908536562533	0.45358569195297693
-0.4848298185000033	0.4583732809774144
-0.4847687833437533	0.46305899603799583
-0.4847077481875033	0.46766063187561957
-0.4846467130312533	0.47219998047004935
-0.4845856778750033	0.4766850393944669
-0.4845246427187533	0.4811025084825845
-0.4844636075625033	0.4854268745059274
-0.4844025724062533	0.4896394136627034
-0.4843415372500033	0.49374243943102114
-0.4842805020937533	0.49775750093826665
-0.4842194669375033	0.5017085460094003
-0.4841584317812533	0.5056028809693851
-0.4840973966250033	0.509424658349482
-0.4840363614687533	0.5131461089041233
-0.4839753263125033	0.5167481568539407
-0.4839142911562533	0.5202346500367875
-0.4838532560000033	0.5236291695339677
-0.4837922208437533	0.5269567782619922
-0.4837311856875033	0.5302245488585586
-0.4836701505312533	0.5334156136090825
-0.4836091153750033	0.536501315850146
-0.4835480802187533	0.5394623800613827
-0.4834870450625033	0.5423031209198403
-0.4834260099062533	0.5450478646521718
-0.4833649747500033	0.5477222211321191
-0.4833039395937533	0.5503333986004686
-0.4832429044375033	0.5528644451658578
-0.4831818692812533	0.555286704923438
-0.4831208341250033	0.5575810403961545
-0.4830597989687533	0.5597518125464702
-0.4829987638125033	0.5618231565433733
-0.4829377286562533	0.5638204839596836
-0.4828766935000033	0.5657511738430393
-0.4828156583437533	0.5675988974969398
-0.4827546231875033	0.5693357390173902
-0.4826935880312533	0.5709429145797335
-0.4826325528750033	0.5724244917747927
-0.4825715177187533	0.5738038979149016
-0.4825104825625033	0.5751060149896603
-0.4824494474062533	0.5763384004365268
-0.4823884122500033	0.5774856480329671
-0.4823273770937533	0.5785209535879837
-0.4822663419375033	0.5794260902202081
-0.4822053067812533	0.58020478178272
-0.4821442716250033	0.580879529145095
-0.4820832364687533	0.5814744442209735
-0.4820222013125033	0.5819971095762283
-0.4819611661562533	0.5824330441640955
-0.4819001310000033	0.5827567242019113
-0.4818390958437533	0.5829506979451916
-0.4817780606875033	0.5830184489622512
-0.4817170255312533	0.5829815046091399
-0.4816559903750033	0.5828631147940262
-0.4815949552187533	0.582670826425635
-0.4815339200625033	0.5823909982501586
-0.4814728849062533	0.5819992487554974
-0.4814118497500033	0.5814788641259565
-0.4813508145937533	0.580833293088724
-0.4812897794375033	0.5800834047789435
-0.4812287442812533	0.5792517205024958
-0.4811677091250033	0.5783455873463313
-0.4811066739687533	0.5773518967843113
-0.4810456388125033	0.5762471813773802
-0.4809846036562533	0.5750154212228828
-0.4809235685000033	0.5736601730931399
-0.4808625333437533	0.5722019487031444
-0.4808014981875033	0.5706628612015388
-0.4807404630312533	0.5690501077566126
-0.4806794278750033	0.5673507638043843
-0.4806183927187533	0.5655418191329263
-0.4805573575625033	0.5636078016828123
-0.4804963224062533	0.5615526515809016
-0.4804352872500033	0.5593969222390192
-0.4803742520937533	0.5571624759475549
-0.4803132169375033	0.5548562402825922
-0.4802521817812533	0.5524652417602164
-0.4801911466250033	0.54996670210985
-0.4801301114687533	0.5473456060987638
-0.4800690763125033	0.5446063953360267
-0.4800080411562533	0.5417699393858927
-0.4799470060000033	0.5388580946491854
-0.4798859708437533	0.5358775142560622
-0.4798249356875033	0.5328149500739408
-0.4797639005312533	0.5296475945899765
-0.4797028653750033	0.5263607137113868
-0.4796418302187533	0.5229593035925201
-0.4795807950625033	0.5194648445740546
-0.4795197599062533	0.5158994820866336
-0.4794587247500033	0.5122696091182355
-0.4793976895937533	0.5085613353977039
-0.4793366544375033	0.5047513798263674
-0.4792756192812533	0.5008252319321183
-0.4792145841250033	0.49678881742508896
-0.4791535489687533	0.4926647216175384
-0.4790925138125033	0.4884756305550634
-0.4790314786562533	0.48422746175073045
-0.4789704435000033	0.4799051619977064
-0.4789094083437533	0.47548456566233377
-0.4788483731875033	0.4709514054766739
-0.4787873380312533	0.4663129934797532
-0.4787263028750033	0.4615934909564046
-0.4786652677187533	0.4568161489227655
-0.4786042325625033	0.4519859744744128
-0.4785431974062533	0.44708620836612034
-0.4784821622500033	0.4420915620640593
-0.4784211270937533	0.43698829395532873
-0.4783600919375033	0.43178576580382494
-0.4782990567812533	0.426510294119044
-0.4782380216250033	0.42118569596465844
-0.4781769864687533	0.4158154272374188
-0.4781159513125033	0.410380212023682
-0.4780549161562533	0.4048533055828744
-0.4779938810000033	0.3992218803535643
-0.4779328458437533	0.393498065393852
-0.4778718106875033	0.38771086392914605
-0.4778107755312533	0.38188472947134333
-0.4777497403750033	0.37602105326512414
-0.4776887052187533	0.37009716795718667
-0.4776276700625033	0.3640843417368627
-0.4775666349062533	0.3579711139492831
-0.4775055997500033	0.3517735680026898
-0.4774445645937533	0.3455241477991925
-0.4773835294375033	0.33924734608410995
-0.4773224942812533	0.3329410404561765
-0.4772614591250033	0.326578343011412
-0.4772004239687533	0.3201290486645513
-0.4771393888125033	0.3135842670174782
-0.4770783536562533	0.3069649339809143
-0.4770173185000033	0.30030703190087166
-0.4769562833437533	0.29363446822463973
-0.4768952481875033	0.28694067771424203
-0.4768342130312533	0.28019381583632463
-0.4767731778750033	0.2733622246411389
-0.4767121427187533	0.2664405519415551
-0.4766511075625033	0.2594556994070868
-0.4765900724062533	0.2524472867060829
-0.4765290372500033	0.24543747943682698
-0.4764680020937533	0.23841386087000485
-0.4764069669375033	0.23133928350902294
-0.4763459317812533	0.22418163653509257
-0.4762848966250033	0.21694053168538527
-0.4762238614687533	0.20964961448443403
-0.4761628263125033	0.2023518360096739
-0.4761017911562533	0.19506651780297043
-0.4760407560000033	0.18777424698666526
-0.4759797208437533	0.18043223422478175
-0.4759186856875033	0.1730087503962859
-0.4758576505312533	0.16550968878857605
-0.4757966153750033	0.15797595169348977
-0.4757355802187533	0.15045294293768158
-0.4756745450625033	0.14295561100191256
-0.4756135099062533	0.13545675314086428
-0.4755524747500033	0.12790855319633493
-0.4754914395937533	0.12028115052943812
-0.4754304044375033	0.11258800844480381
-0.4753693692812533	0.10487746250999994
-0.4753083341250033	0.0971961810567571
-0.4752472989687533	0.0895529360559865
-0.4751862638125033	0.08191171526916001
-0.4751252286562533	0.07422040850996448
-0.4750641935000033	0.06645301000756317
-0.4750031583437533	0.05863204136451574
-0.4749421231875033	0.05081284140366166
-0.4748810880312533	0.043041372238613415
-0.4748200528750033	0.035318569716883914
-0.4747590177187533	0.027599683961243928
-0.4746979825625033	0.01982985230925049
-0.4746369474062533	0.011988518615290926
-0.4745759122500033	0.004107724796889249
-0.4745148770937533	-0.0037509910114607195
-0.4744538419375033	-0.011543837488062885
-0.4743928067812533	-0.01927891796084643
-0.4743317716250033	-0.027009731491377052
-0.4742707364687533	-0.03479253394735806
-0.4742097013125033	-0.04264066823379324
-0.4741486661562533	-0.050511988448824555
-0.4740876310000033	-0.05834009164416526
-0.4740265958437533	-0.06608541787356204
-0.4739655606875033	-0.07376609221588482
-0.4739045255312533	-0.08144364508976715
-0.4738434903750033	-0.08917393728386401
-0.4737824552187533	-0.09696159463679284
-0.4737214200625033	-0.10475426314538197
-0.4736603849062533	-0.11248189839770256
-0.4735993497500033	-0.12011076230303395
-0.4735383145937533	-0.1276698234917061
-0.4734772794375033	-0.13522809279590875
-0.4734162442812533	-0.14283968850968942
-0.4733552091250033	-0.15049963925742257
-0.4732941739687533	-0.1581456073740028
-0.4732331388125033	-0.16570481205751084
-0.4731721036562533	-0.17315014923834782
-0.4731110685000033	-0.1805215751175314
-0.4730500333437533	-0.18789498957784959
-0.4729889981875033	-0.19532205158401206
-0.4729279630312533	-0.20278788049133203
-0.4728669278750033	-0.2102202946245658
-0.4728058927187533	-0.21754434211804222
-0.4727448575625033	-0.2247402282920062
-0.4726838224062533	-0.23185914953731315
-0.4726227872500033	-0.23898362040944218
-0.4725617520937533	-0.2461622720657538
-0.4725007169375033	-0.25336977470932975
-0.4724396817812533	-0.2605239132959144
-0.4723786466250033	-0.2675477725543033
-0.4723176114687533	-0.2744293086620804
-0.4722565763125033	-0.2812314962769289
-0.4721955411562533	-0.2880439203564167
-0.4721345060000033	-0.29491226984375823
-0.4720734708437533	-0.3018003120759394
-0.4720124356875033	-0.30861502237383104
-0.4719514005312533	-0.3152769344920532
-0.4718903653750033	-0.32178183134829924
-0.4718293302187533	-0.3282052972168541
-0.4717682950625033	-0.3346450067973402
-0.4717072599062533	-0.3411440186922241
-0.4716462247500033	-0.3476544460456657
-0.4715851895937533	-0.3540711794729671
-0.4715241544375033	-0.36031143275717753
-0.4714631192812533	-0.36637932661211814
-0.4714020841250033	-0.3723645987938925
-0.4713410489687533	-0.3783743257480746
-0.4712800138125033	-0.38444887384144694
-0.4712189786562533	-0.3905273128197352
-0.4711579435000033	-0.396490869465859
-0.4710969083437533	-0.4022529475706772
-0.4710358731875033	-0.4078269349814208
-0.4709748380312533	-0.4133182415078753
-0.4709138028750033	-0.41884438166093124
-0.4708527677187533	-0.42444294911790864
-0.4707917325625033	-0.4300387653966978
-0.4707306974062533	-0.4354979011425566
-0.4706696622500033	-0.44072939307914244
-0.4706086270937533	-0.44575680361349107
-0.4705475919375033	-0.4507027993693886
-0.4704865567812533	-0.4556960983978883
-0.4704255216250033	-0.46077081463549835
-0.4703644864687533	-0.46583623271996305
-0.4703034513125033	-0.4707427580008053
-0.4702424161562533	-0.4753956819350404
-0.4701813810000033	-0.47982967633604623
-0.4701203458437533	-0.48418498338091204
-0.4700593106875033	-0.48860097162694116
-0.4699982755312533	-0.49310738863859715
-0.4699372403750033	-0.4975977212098564
-0.4698762052187533	-0.5019075421894978
-0.4698151700625033	-0.5059397479766093
-0.4697541349062533	-0.5097407015257853
-0.4696930997500033	-0.5134670481735469
-0.4696320645937533	-0.5172664466692138
-0.4695710294375033	-0.5211627986549799
-0.4695099942812533	-0.5250349354813889
