Time	Frequency
-0.5000228866875034	8.8959145428954e-23
-0.4999618515312534	8.869843291437121e-23
-0.4999008163750034	8.842469981166358e-23
-0.4998397812187534	8.813595934934789e-23
-0.4997787460625034	8.78350956722604e-23
-0.4997177109062534	8.752334754145974e-23
-0.4996566757500034	8.719745549969388e-23
-0.4995956405937534	8.685730852554011e-23
-0.4995346054375034	8.65063418818762e-23
-0.4994735702812534	8.614364322295207e-23
-0.4994125351250034	8.576619807540899e-23
-0.4993514999687534	8.537602938547606e-23
-0.4992904648125034	8.497554329287392e-23
-0.4992294296562534	8.456206400116411e-23
-0.4991683945000034	8.413427077739619e-23
-0.4991073593437534	8.369533465596788e-23
-0.4990463241875034	8.324560316497376e-23
-0.4989852890312534	8.27820650186751e-23
-0.4989242538750034	8.230553384095004e-23
-0.4988632187187534	8.181871758689434e-23
-0.4988021835625034	8.13200909817917e-23
-0.4987411484062534	8.080778877661077e-23
-0.4986801132500034	8.028400476421488e-23
-0.4986190780937534	7.974989979583784e-23
-0.4985580429375034	7.92032537862794e-23
-0.4984970077812534	7.864389066672192e-23
-0.4984359726250034	7.807401668209625e-23
-0.4983749374687534	7.749325870990793e-23
-0.4983139023125034	7.689998166126305e-23
-0.4982528671562534	7.629520280109634e-23
-0.4981918320000034	7.568017960984885e-23
-0.4981307968437534	7.505383559702139e-23
-0.4980697616875034	7.441563074030375e-23
-0.4980087265312534	7.376680055457292e-23
-0.4979476913750034	7.31076092686197e-23
-0.4978866562187534	7.243719584898953e-23
-0.4978256210625034	7.175578032921682e-23
-0.4977645859062534	7.106413616538818e-23
-0.4977035507500034	7.036211027429813e-23
-0.4976425155937534	6.964938390863368e-23
-0.4975814804375034	6.892628138754933e-23
-0.4975204452812534	6.819314364801703e-23
-0.4974594101250034	6.744995295915682e-23
-0.4973983749687534	6.66966355332521e-23
-0.4973373398125034	6.593330044085282e-23
-0.4972763046562534	6.516027315626078e-23
-0.4972152695000034	6.437773949939243e-23
-0.4971542343437534	6.358549055763562e-23
-0.4970931991875034	6.278356679008433e-23
-0.4970321640312534	6.197252049070954e-23
-0.4969711288750034	6.115243125372215e-23
-0.4969100937187534	6.032289201919615e-23
-0.4968490585625034	5.948423999611934e-23
-0.4967880234062534	5.86371228565059e-23
-0.4967269882500034	5.77812239605594e-23
-0.4966659530937534	5.691622250807143e-23
-0.4966049179375034	5.604286523408558e-23
-0.4965438827812534	5.516152967195056e-23
-0.4964828476250034	5.427159772880022e-23
-0.4964218124687534	5.337320602131249e-23
-0.4963607773125034	5.2467250794679765e-23
-0.4962997421562534	5.1553577969816265e-23
-0.4962387070000034	5.063163899675171e-23
-0.4961776718437534	4.970207271443533e-23
-0.4961166366875034	4.876550239928054e-23
-0.4960556015312534	4.7821411478632557e-23
-0.4959945663750034	4.6869685381688e-23
-0.4959335312187534	4.5911149628705874e-23
-0.4958724960625034	4.494592938985881e-23
-0.4958114609062534	4.3973531013068893e-23
-0.4957504257500034	4.2994344346927665e-23
-0.4956893905937534	4.2009017062726725e-23
-0.4956283554375034	4.101727300997017e-23
-0.4955673202812534	4.0018906875406354e-23
-0.4955062851250034	3.901454452602343e-23
-0.4954452499687534	3.8004489004126115e-23
-0.4953842148125034	3.698841520352895e-23
-0.4953231796562534	3.596649509306067e-23
-0.4952621445000034	3.493929014739688e-23
-0.4952011093437534	3.390678883325991e-23
-0.4951400741875034	3.286880101739906e-23
-0.4950790390312534	3.1825692147485544e-23
-0.4950180038750034	3.0777857637355987e-23
-0.4949569687187534	2.972522493887873e-23
-0.4948959335625034	2.8667790801791877e-23
-0.4948348984062534	2.760592244084954e-23
-0.4947738632500034	2.6539861105856397e-23
-0.4947128280937534	2.546955219228783e-23
-0.4946517929375034	2.4395104086123714e-23
-0.4945907577812534	2.3316882360244284e-23
-0.4945297226250034	2.2235068314128677e-23
-0.4944686874687534	2.11496048169325e-23
-0.4944076523125034	2.006063698424254e-23
-0.4943466171562534	1.896852658334294e-23
-0.4942855820000034	1.7873393978816745e-23
-0.4942245468437534	1.677518981021914e-23
-0.4941635116875034	1.5674177069503112e-23
-0.4941024765312534	1.457071987595419e-23
-0.4940414413750034	1.3464811987222264e-23
-0.4939804062187534	1.2356453426086154e-23
-0.4939193710625034	1.1246036210510952e-23
-0.4938583359062534	1.0133808736313851e-23
-0.4937973007500034	9.019657499058676e-24
-0.4937362655937534	7.90375170334487e-24
-0.4936752304375034	6.78652401493712e-24
-0.4936141952812534	5.6680063433385965e-24
-0.4935531601250034	4.548133214964086e-24
-0.4934921249687534	3.4273097660755615e-24
-0.4934310898125034	2.305845035498121e-24
-0.4933700546562534	1.1836015966586572e-24
-0.4933090195000034	6.071031292569939e-26
-0.4932479843437534	-1.062379684028044e-24
-0.4931869491875034	-2.1856025230573705e-24
-0.4931259140312534	-3.3090076395445895e-24
-0.4930648788750034	-4.432220609457445e-24
-0.4930038437187534	-5.554977087403917e-24
-0.4929428085625034	-6.677389523692674e-24
-0.4928817734062534	-7.799272672003864e-24
-0.4928207382500034	-8.920192970256038e-24
-0.4927597030937534	-1.0040111459044517e-23
-0.4926986679375034	-1.1159050591876438e-23
-0.4926376327812534	-1.227664592003169e-23
-0.4925765976250034	-1.3392675019243455e-23
-0.4925155624687534	-1.4507203292354822e-23
-0.4924545273125034	-1.5619998143722017e-23
-0.4923934921562534	-1.6730717487176214e-23
-0.4923324570000034	-1.7839373518718533e-23
-0.4922714218437534	-1.894587345831956e-23
-0.4922103866875034	-2.0049837277562707e-23
-0.4921493515312534	-2.1151173855233737e-23
-0.4920883163750034	-2.2249909417295e-23
-0.4920272812187534	-2.3345684037952298e-23
-0.4919662460625034	-2.4438243917786496e-23
-0.4919052109062534	-2.5527698223779324e-23
-0.4918441757500034	-2.661383178094169e-23
-0.4917831405937534	-2.769622249765158e-23
-0.4917221054375034	-2.8774929221321133e-23
-0.4916610702812534	-2.98499665182496e-23
-0.4916000351250034	-3.092083665917693e-23
-0.4915389999687534	-3.19873743683914e-23
-0.4914779648125034	-3.3049810896131314e-23
-0.4914169296562534	-3.4107803330481257e-23
-0.4913558945000034	-3.5160860332804414e-23
-0.4912948593437534	-3.6209181406733836e-23
-0.4912338241875034	-3.7252788016740746e-23
-0.4911727890312534	-3.829106392883456e-23
-0.4911117538750034	-3.932390091139835e-23
-0.4910507187187534	-4.0351619830844086e-23
-0.4909896835625034	-4.1373798479343063e-23
-0.4909286484062534	-4.2389924354199654e-23
-0.4908676132500034	-4.340030227162857e-23
-0.4908065780937534	-4.4404926243095687e-23
-0.4907455429375034	-4.540310128226601e-23
-0.4906845077812534	-4.639481056133263e-23
-0.4906234726250034	-4.7380418873262595e-23
-0.4905624374687534	-4.8359394480373325e-23
-0.4905014023125034	-4.9331240161821226e-23
-0.4904403671562534	-5.029636251878161e-23
-0.4903793320000034	-5.1254710350814746e-23
-0.4903182968437534	-5.2205547356462825e-23
-0.4902572616875034	-5.314894837635857e-23
-0.4901962265312534	-5.408528061692029e-23
-0.4901351913750034	-5.501391334278048e-23
-0.4900741562187534	-5.593440905723066e-23
-0.4900131210625034	-5.684728225135518e-23
-0.4899520859062534	-5.775240086784362e-23
-0.4898910507500034	-5.864897479939502e-23
-0.4898300155937534	-5.953718553063478e-23
-0.4897689804375034	-6.041741225556384e-23
-0.4897079452812534	-6.128895344743826e-23
-0.4896469101250034	-6.215143878912741e-23
-0.4895858749687534	-6.300543506404915e-23
-0.4895248398125034	-6.385070115803601e-23
-0.4894638046562534	-6.468644511946322e-23
-0.4894027695000034	-6.55129925688085e-23
-0.4893417343437534	-6.633068867255897e-23
-0.4892806991875034	-6.71387335112871e-23
-0.4892196640312534	-6.793687050489618e-23
-0.4891586288750034	-6.872572135269943e-23
-0.4890975937187534	-6.950491638482284e-23
-0.4890365585625034	-7.027370906421805e-23
-0.4889755234062534	-7.103256549008941e-23
-0.4889144882500034	-7.178172735738644e-23
-0.4888534530937534	-7.252031313889122e-23
-0.4887924179375034	-7.324823930706035e-23
-0.4887313827812534	-7.396616363235104e-23
-0.4886703476250034	-7.467355132904204e-23
-0.4886093124687534	-7.536972389688698e-23
-0.4885482773125034	-7.605530698183378e-23
-0.4884872421562534	-7.673041408395028e-23
-0.4884262070000034	-7.739408247411836e-23
-0.4883651718437534	-7.804642186387088e-23
-0.4883041366875034	-7.868810405712913e-23
-0.4882431015312534	-7.931841649673347e-23
-0.4881820663750034	-7.993678196147412e-23
-0.4881210312187534	-8.054399708096912e-23
-0.4880599960625034	-8.114002464946235e-23
-0.4879989609062534	-8.172382773128561e-23
-0.4879379257500034	-8.22957380730824e-23
-0.4878768905937534	-8.285642006477e-23
-0.4878158554375034	-8.340495570840868e-23
-0.4877548202812534	-8.394090885223183e-23
-0.4876937851250034	-8.446525012374882e-23
-0.4876327499687534	-8.497772927462905e-23
-0.4875717148125034	-8.547725607237348e-23
-0.4875106796562534	-8.596444461098004e-23
-0.4874496445000034	-8.643992016674308e-23
-0.4873886093437534	-8.690253113534565e-23
-0.4873275741875034	-8.735202836819339e-23
-0.4872665390312534	-8.778956237882037e-23
-0.4872055038750034	-8.821462325839097e-23
-0.4871444687187534	-8.862608021359113e-23
-0.4870834335625034	-8.902486721703977e-23
-0.4870223984062534	-8.941154211091485e-23
-0.4869613632500034	-8.978469678104691e-23
-0.4869003280937534	-9.014429054572966e-23
-0.4868392929375034	-9.049164949901712e-23
-0.4867782577812534	-9.082601486277151e-23
-0.4867172226250034	-9.114625764059591e-23
-0.4866561874687534	-9.14535956171146e-23
-0.4865951523125034	-9.174846275722598e-23
-0.4865341171562534	-9.202924639384316e-23
-0.4864730820000034	-9.229616712291036e-23
-0.4864120468437534	-9.255067581941576e-23
-0.4863510116875034	-9.27917258950469e-23
-0.4862899765312534	-9.301823080318303e-23
-0.4862289413750034	-9.323170503963678e-23
-0.4861679062187534	-9.343242215438092e-23
-0.4861068710625034	-9.361859212122858e-23
-0.4860458359062534	-9.379073248337175e-23
-0.4859848007500034	-9.395034962822294e-23
-0.4859237655937534	-9.409609225729184e-23
-0.4858627304375034	-9.422701274271876e-23
-0.4858016952812534	-9.43449018891816e-23
-0.4857406601250034	-9.444978211222461e-23
-0.4856796249687534	-9.453974983200855e-23
-0.4856185898125034	-9.461568186493285e-23
-0.4855575546562534	-9.46790491341034e-23
-0.4854965195000034	-9.472817359366002e-23
-0.4854354843437534	-9.476235046359912e-23
-0.4853744491875034	-9.478362887205208e-23
-0.4853134140312534	-9.47916791168389e-23
-0.4852523788750034	-9.478454113249495e-23
-0.4851913437187534	-9.476352700254015e-23
-0.4851303085625034	-9.472997927175604e-23
-0.4850692734062534	-9.468186137874326e-23
-0.4850082382500034	-9.461882787434882e-23
-0.4849472030937534	-9.454316581262215e-23
-0.4848861679375034	-9.44540737658866e-23
-0.4848251327812534	-9.434960824419598e-23
-0.4847640976250034	-9.423161715821562e-23
-0.4847030624687534	-9.410119941706669e-23
-0.4846420273125034	-9.39559061572964e-23
-0.4845809921562534	-9.3795886947505e-23
-0.4845199570000034	-9.362365228153291e-23
-0.4844589218437534	-9.343780255985191e-23
-0.4843978866875034	-9.323649513973702e-23
-0.4843368515312534	-9.302220578101945e-23
-0.4842758163750034	-9.279565314069125e-23
-0.4842147812187534	-9.255393336683496e-23
-0.4841537460625034	-9.229785479050387e-23
-0.4840927109062534	-9.203013898738668e-23
-0.4840316757500034	-9.174862800242591e-23
-0.4839706405937534	-9.145164571280796e-23
-0.4839096054375034	-9.114241838761082e-23
-0.4838485702812534	-9.08211760255896e-23
-0.4837875351250034	-9.04844948574404e-23
-0.4837264999687534	-9.01339671200104e-23
-0.4836654648125034	-8.97725296047726e-23
-0.4836044296562534	-8.939714947361267e-23
-0.4835433945000034	-8.900636230322539e-23
-0.4834823593437534	-8.860423644089967e-23
-0.4834213241875034	-8.81904299839363e-23
-0.4833602890312534	-8.776094176840935e-23
-0.4832992538750034	-8.731826242492812e-23
-0.4832382187187534	-8.686555720592885e-23
-0.4831771835625034	-8.63987857147636e-23
-0.4831161484062534	-8.591673694749062e-23
-0.4830551132500034	-8.54244435426943e-23
-0.4829940780937534	-8.492089379932799e-23
-0.4829330429375034	-8.440142443856079e-23
-0.4828720077812534	-8.386954662585822e-23
-0.4828109726250034	-8.332867771718652e-23
-0.4827499374687534	-8.277365886528202e-23
-0.4826889023125034	-8.220356428466882e-23
-0.4826278671562534	-8.162446552494618e-23
-0.4825668320000034	-8.103462177383845e-23
-0.4825057968437534	-8.042868331849551e-23
-0.4824447616875034	-7.981125219304644e-23
-0.4823837265312534	-7.918598050849048e-23
-0.4823226913750034	-7.854651300872262e-23
-0.4822616562187534	-7.789224469465196e-23
-0.4822006210625034	-7.723035171549798e-23
-0.4821395859062534	-7.655829603954977e-23
-0.4820785507500034	-7.586999035489947e-23
-0.4820175155937534	-7.517122962215289e-23
-0.4819564804375034	-7.446591854761164e-23
-0.4818954452812534	-7.374639328918398e-23
-0.4818344101250034	-7.301242636637669e-23
-0.4817733749687534	-7.227241334417848e-23
-0.4817123398125034	-7.15228896287578e-23
-0.4816513046562534	-7.075692920505982e-23
-0.4815902695000034	-6.998170507560536e-23
-0.4815292343437534	-6.920142406364935e-23
-0.4814681991875034	-6.840683141370717e-23
-0.4814071640312534	-6.759807046050095e-23
-0.4813461288750034	-6.678513824156447e-23
-0.4812850937187534	-6.596357973088756e-23
-0.4812240585625034	-6.512516624419765e-23
-0.4811630234062534	-6.427864486929556e-23
-0.4811019882500034	-6.342907412800395e-23
-0.4810409530937534	-6.256525895260378e-23
-0.4809799179375034	-6.168712055029686e-23
-0.4809188827812534	-6.080680134075327e-23
-0.4808578476250034	-5.991940355944005e-23
-0.4807968124687534	-5.901456107896776e-23
-0.4807357773125034	-5.810216497360203e-23
-0.4806747421562534	-5.718927394309076e-23
-0.4806137070000034	-5.626294111511462e-23
-0.4805526718437534	-5.532144057463243e-23
-0.4804916366875034	-5.437923887036006e-23
-0.4804306015312534	-5.343262496515495e-23
-0.4803695663750034	-5.246848570491386e-23
-0.4803085312187534	-5.149613625741055e-23
-0.4802474960625034	-5.052570378261173e-23
-0.4801864609062534	-4.954415198654038e-23
-0.4801254257500034	-4.8546544181704444e-23
-0.4800643905937534	-4.754820605415791e-23
-0.4800033554375034	-4.654865984370181e-23
-0.4799423202812534	-4.5533150634733915e-23
-0.4798812851250034	-4.450795492771959e-23
-0.4798202499687534	-4.348567784682129e-23
-0.4797592148125034	-4.245594143514072e-23
-0.4796981796562534	-4.141055749912987e-23
-0.4796371445000034	-4.036285952240549e-23
-0.4795761093437534	-3.9316320119170896e-23
-0.4795150741875034	-3.825728624088087e-23
-0.4794540390312534	-3.7187628425588444e-23
-0.4793930038750034	-3.611998411477386e-23
-0.4793319687187534	-3.5048533575037225e-23
-0.4792709335625034	-3.396379619306046e-23
-0.4792098984062534	-3.2874826593818963e-23
-0.4791488632500034	-3.1787708543367306e-23
-0.4790878280937534	-3.0692380919107427e-23
-0.4790267929375034	-2.958696974186129e-23
-0.4789657577812534	-2.8481656303391335e-23
-0.4789047226250034	-2.737517768289276e-23
-0.4788436874687534	-2.625908313679181e-23
-0.4787826523125034	-2.5137554102920286e-23
-0.4787216171562534	-2.4017204091999516e-23
-0.4786605820000034	-2.2892649777252564e-23
-0.4785995468437534	-2.176003470543956e-23
-0.4785385116875034	-2.0625579124458083e-23
-0.4784774765312534	-1.9491233226133395e-23
-0.4784164413750034	-1.835142784590746e-23
-0.4783554062187534	-1.72062991151771e-23
-0.4782943710625034	-1.6060917117699757e-23
-0.4782333359062534	-1.4914329166087888e-23
-0.4781723007500034	-1.3762809264431812e-23
-0.4781112655937534	-1.2608239279306088e-23
-0.4780502304375034	-1.1453774161854709e-23
-0.4779891952812534	-1.0297688657944405e-23
-0.4779281601250034	-9.137844869350743e-24
-0.4778671249687534	-7.976307402258242e-24
-0.4778060898125034	-6.815146756137126e-24
-0.4777450546562534	-5.652632282750613e-24
-0.4776840195000034	-4.487242179803664e-24
-0.4776229843437534	-3.3211796029992565e-24
-0.4775619491875034	-2.1561568923997073e-24
-0.4775009140312534	-9.900377622165995e-25
-0.4774398788750034	1.782749197989224e-25
-0.4773788437187534	1.3459108654477761e-24
-0.4773178085625034	2.5119097185283202e-24
-0.4772567734062534	3.679175269026866e-24
-0.4771957382500034	4.847603955465855e-24
-0.4771347030937534	6.013738256103447e-24
-0.4770736679375034	7.178250474588713e-24
-0.4770126327812534	8.344155053477851e-24
-0.4769515976250034	9.509443644069858e-24
-0.4768905624687534	1.0671227635972754e-23
-0.4768295273125034	1.1832059930740365e-23
-0.4767684921562534	1.2993647307084207e-23
-0.4767074570000034	1.415246166147725e-23
-0.4766464218437534	1.5307547360463245e-23
-0.4765853866875034	1.6462332254483222e-23
-0.4765243515312534	1.7616226617497888e-23
-0.4764633163750034	1.876565726612509e-23
-0.4764022812187534	1.9912004227865805e-23
-0.4763412460625034	2.105789009964758e-23
-0.4762802109062534	2.220070339377839e-23
-0.4762191757500034	2.333839751321293e-23
-0.4761581405937534	2.447375670408789e-23
-0.4760971054375034	2.560740617396913e-23
-0.4760360702812534	2.673613075479426e-23
-0.4759750351250034	2.78600351193802e-23
-0.4759139999687534	2.898170118668381e-23
-0.4758529648125034	3.009979843774612e-23
-0.4757919296562534	3.1212000215460717e-23
-0.4757308945000034	3.231989594412773e-23
-0.4756698593437534	3.342471441907661e-23
-0.4756088241875034	3.452428001745444e-23
-0.4755477890312534	3.561783024809316e-23
-0.4754867538750034	3.670715035746027e-23
-0.4754257187187534	3.779198241888123e-23
-0.4753646835625034	3.887051931014903e-23
-0.4753036484062534	3.994318169260332e-23
-0.4752426132500034	4.101100810623892e-23
-0.4751815780937534	4.207301983620889e-23
-0.4751205429375034	4.312833436117405e-23
-0.4750595077812534	4.417762465249523e-23
-0.4749984726250034	4.5221050529666175e-23
-0.4749374374687534	4.625775139341315e-23
-0.4748764023125034	4.728750339069519e-23
-0.4748153671562534	4.8310654968975823e-23
-0.4747543320000034	4.932703310223955e-23
-0.4746932968437534	5.0336175638596065e-23
-0.4746322616875034	5.1337914630101384e-23
-0.4745712265312534	5.2332285964562986e-23
-0.4745101913750034	5.331926009446027e-23
-0.4744491562187534	5.429852751029495e-23
-0.4743881210625034	5.526971249422688e-23
-0.4743270859062534	5.623289906603348e-23
-0.4742660507500034	5.718820992631384e-23
-0.4742050155937534	5.81351160657343e-23
-0.4741439804375034	5.907325786070432e-23
-0.4740829452812534	6.000305528659434e-23
-0.4740219101250034	6.092444463385356e-23
-0.4739608749687534	6.183660188706186e-23
-0.4738998398125034	6.273952346565243e-23
-0.4738388046562534	6.363376755233117e-23
-0.4737777695000034	6.451880336904479e-23
-0.4737167343437534	6.539390351501045e-23
-0.4736556991875034	6.625957139121525e-23
-0.4735946640312534	6.711607123749897e-23
-0.4735336288750034	6.796248371080939e-23
-0.4734725937187534	6.879855162343051e-23
-0.4734115585625034	6.96249745825312e-23
-0.4733505234062534	7.044146880466011e-23
-0.4732894882500034	7.1247158682069e-23
-0.4732284530937534	7.204232528447224e-23
-0.4731674179375034	7.282741764234614e-23
-0.4731063827812534	7.360173044413955e-23
-0.4730453476250034	7.436481396706798e-23
-0.4729843124687534	7.511722225528269e-23
-0.4729232773125034	7.58589170449887e-23
-0.4728622421562534	7.65891351899766e-23
-0.4728012070000034	7.730791823380285e-23
-0.4727401718437534	7.801570154656497e-23
-0.4726791366875034	7.871205518557589e-23
-0.4726181015312534	7.939648039919654e-23
-0.4725570663750034	8.006927953422264e-23
-0.4724960312187534	8.073056423987627e-23
-0.4724349960625034	8.137980750349331e-23
-0.4723739609062534	8.201685056224559e-23
-0.4723129257500034	8.264198299483001e-23
-0.4722518905937534	8.325505704124006e-23
-0.4721908554375034	8.385566062991896e-23
-0.4721298202812534	8.444381518457695e-23
-0.4720687851250034	8.501966715621306e-23
-0.4720077499687534	8.558297774851471e-23
-0.4719467148125034	8.613348108188882e-23
-0.4718856796562534	8.667125144333309e-23
-0.4718246445000034	8.719634487385674e-23
-0.4717636093437534	8.770851669650887e-23
-0.4717025741875034	8.820757243311003e-23
-0.4716415390312534	8.869360932292823e-23
-0.4715805038750034	8.916664375243297e-23
-0.4715194687187534	8.962640059729485e-23
