Time	Frequency
-0.5000534037187379	-0.46353917811050804
-0.49999236856248785	-0.4583029020259119
-0.49993133340623785	-0.45298163588812695
-0.49987029824998785	-0.44757187462689935
-0.49980926309373785	-0.44207284119061707
-0.49974822793748785	-0.436489468035225
-0.49968719278123785	-0.4308258418630254
-0.49962615762498785	-0.4250801919981899
-0.49956512246873785	-0.4192496998132855
-0.49950408731248785	-0.41333693833100515
-0.49944305215623785	-0.4073473051649546
-0.49938201699998785	-0.40128193186121414
-0.49932098184373785	-0.39513780608431837
-0.49925994668748785	-0.3889147171248869
-0.49919891153123785	-0.3826175037643236
-0.49913787637498785	-0.3762499586126445
-0.49907684121873785	-0.36981050347887534
-0.49901580606248785	-0.3632968394521014
-0.49895477090623785	-0.356711811524021
-0.49889373574998785	-0.3500607429773029
-0.49883270059373785	-0.3433447774826273
-0.49877166543748785	-0.3365611752825101
-0.49871063028123785	-0.32970993142100824
-0.49864959512498785	-0.3227958414578904
-0.49858855996873785	-0.3158226935215494
-0.49852752481248785	-0.30878919073524025
-0.49846648965623785	-0.30169326965272997
-0.49840545449998785	-0.29453771252937294
-0.49834441934373785	-0.2873278986876475
-0.49828338418748785	-0.28006527158034883
-0.49822234903123785	-0.27274713871418016
-0.49816131387498785	-0.265373294000115
-0.49810027871873785	-0.25794876655552224
-0.49803924356248785	-0.25047798330802584
-0.49797820840623785	-0.24295967590208506
-0.49791717324998785	-0.2353911943823609
-0.49785613809373785	-0.22777542530871348
-0.49779510293748785	-0.22011863641600413
-0.49773406778123785	-0.21242247883145032
-0.49767303262498785	-0.20468345891449685
-0.49761199746873785	-0.19690115246342058
-0.49755096231248785	-0.18908159871533825
-0.49748992715623785	-0.18122973822994495
-0.49742889199998785	-0.17334344197474758
-0.49736785684373785	-0.1654195857675388
-0.49730682168748785	-0.15746203607749806
-0.49724578653123785	-0.14947787244957028
-0.49718475137498785	-0.14146793531769453
-0.49712371621873785	-0.1334276775992987
-0.49706268106248785	-0.12535751226250286
-0.49700164590623785	-0.11726511384583388
-0.49694061074998785	-0.10915503863349825
-0.49687957559373785	-0.1010233673817077
-0.49681854043748785	-0.09286698413291922
-0.49675750528123785	-0.08469172078579051
-0.49669647012498785	-0.07650521202379029
-0.49663543496873785	-0.06830642644135182
-0.49657439981248785	-0.06008993835821966
-0.49651336465623785	-0.051858033835313726
-0.49645232949998785	-0.04361976572344301
-0.49639129434373785	-0.035378117783750065
-0.49633025918748785	-0.02712743904588936
-0.49626922403123785	-0.018865886530455345
-0.49620818887498785	-0.010601439641576222
-0.49614715371873785	-0.0023410126820872005
-0.49608611856248785	0.005918717354050551
-0.49602508340623785	0.014183018905980786
-0.49596404824998785	0.022447396573123318
-0.49590301309373785	0.0307024612931539
-0.49584197793748785	0.03894717568259445
-0.49578094278123785	0.047187883849157584
-0.49571990762498785	0.05542468909088717
-0.49565887246873785	0.06364841505159967
-0.49559783731248785	0.07185359696796764
-0.49553680215623785	0.08004534580911349
-0.49547576699998785	0.0882279103699758
-0.49541473184373785	0.09639450701703907
-0.49535369668748785	0.1045361729515032
-0.49529266153123785	0.1126543834119565
-0.49523162637498785	0.12075575227182364
-0.49517059121873785	0.1288380776955836
-0.49510955606248785	0.13689151532319366
-0.49504852090623785	0.14491268031231086
-0.49498748574998785	0.15290771531440314
-0.49492645059373785	0.16087917738446414
-0.49486541543748785	0.16881901473063157
-0.49480438028123785	0.17671958522593703
-0.49474334512498785	0.18458399118823454
-0.49468230996873785	0.1924182095581591
-0.49462127481248785	0.2002183421227883
-0.49456023965623785	0.2079745568633975
-0.49449920449998785	0.21568520265434638
-0.49443816934373785	0.22335714928016276
-0.49437713418748785	0.23099156521566153
-0.49431609903123785	0.23857931434855417
-0.49425506387498785	0.24611389274476236
-0.49419402871873785	0.2536000143973411
-0.49413299356248785	0.261043241064529
-0.49407195840623785	0.2684379655752529
-0.49401092324998785	0.27577410006855413
-0.49394988809373785	0.2830516544116236
-0.49388885293748785	0.29027867342280156
-0.49382781778123785	0.2974553985504866
-0.49376678262498785	0.3045711839269429
-0.49370574746873785	0.3116199392518807
-0.49364471231248785	0.31860837796704367
-0.49358367715623785	0.3255425937966271
-0.49352264199998785	0.3324150068194785
-0.49346160684373785	0.33921433060079237
-0.49340057168748785	0.34594269142413
-0.49333953653123785	0.35261045588099516
-0.49327850137498785	0.3592162921965265
-0.49321746621873785	0.36574649723399605
-0.49315643106248785	0.37219601397840474
-0.49309539590623785	0.37857550824669356
-0.49303436074998785	0.38489131147344596
-0.49297332559373785	0.3911318334813316
-0.49291229043748785	0.3972846196493543
-0.49285125528123785	0.40335607590690076
-0.49279022012498785	0.4093592758881525
-0.49272918496873785	0.4152891550457578
-0.49266814981248785	0.42112818260025453
-0.49260711465623785	0.42687448845549675
-0.49254607949998785	0.43254404650680317
-0.49248504434373785	0.43814146103071466
-0.49242400918748785	0.4436491778137013
-0.49236297403123785	0.4490553292445681
-0.49230193887498785	0.4543731209685276
-0.49224090371873785	0.4596169089459902
-0.49217986856248785	0.46477501134012683
-0.49211883340623785	0.4698271792627191
-0.49205779824998785	0.47477805271574436
-0.49199676309373785	0.4796483543426449
-0.49193572793748785	0.4844374029156471
-0.49187469278123785	0.48912169837580666
-0.49181365762498785	0.49369359786192796
-0.49175262246873785	0.4981736774919092
-0.49169158731248785	0.5025740863390349
-0.49163055215623785	0.506875429553671
-0.49156951699998785	0.5110580557588172
-0.49150848184373785	0.5151347962971776
-0.49144744668748785	0.5191281290166848
-0.49138641153123785	0.5230298970544255
-0.49132537637498785	0.5268131770010642
-0.49126434121873785	0.5304771033147976
-0.49120330606248785	0.5340477407309988
-0.49114227090623785	0.5375324750888586
-0.49108123574998785	0.5409056146789859
-0.49102020059373785	0.5441505935406786
-0.49095916543748785	0.547287404581459
-0.49089813028123785	0.5503380379592226
-0.49083709512498785	0.5532878637034068
-0.49077605996873785	0.5561086391828071
-0.49071502481248785	0.5588051658698269
-0.49065398965623785	0.5614070081907838
-0.49059295449998785	0.5639181058675269
-0.49053191934373785	0.5663083738686286
-0.49047088418748785	0.568562605155674
-0.49040984903123785	0.5707059032602442
-0.49034881387498785	0.5727620172173578
-0.49028777871873785	0.5747123678650099
-0.49022674356248785	0.5765247525017836
-0.49016570840623785	0.5782064456873534
-0.49010467324998785	0.579793423422644
-0.49004363809373785	0.5812904453826762
-0.48998260293748785	0.5826604185659302
-0.48992156778123785	0.5838841492859633
-0.48986053262498785	0.5849937293779189
-0.48979949746873785	0.5860209808001889
-0.48973846231248785	0.5869426351021194
-0.48967742715623785	0.587715554780749
-0.48961639199998785	0.5883487642620698
-0.48955535684373785	0.5888917868273013
-0.48949432168748785	0.5893524850353367
-0.48943328653123785	0.5896799144028927
-0.48937225137498785	0.5898471176309138
-0.48931121621873785	0.589899316635146
-0.48925018106248785	0.5898815063633137
-0.48918914590623785	0.5897608318502885
-0.48912811074998785	0.5894773651427555
-0.48906707559373785	0.5890452757426244
-0.48900604043748785	0.5885335163023941
-0.48894500528123785	0.5879510595356863
-0.48888397012498785	0.587228020809166
-0.48882293496873785	0.5863309317211342
-0.48876189981248785	0.5853219701981867
-0.48870086465623785	0.5842577282126072
-0.48863982949998785	0.5830929459740455
-0.48857879434373785	0.5817537999874527
-0.48851775918748785	0.5802623736549177
-0.48845672403123785	0.5787023598036616
-0.48839568887498785	0.5770797446421617
-0.48833465371873785	0.5753118640108507
-0.48827361856248785	0.5733655395988998
-0.48821258340623785	0.5713134568538917
-0.48815154824998785	0.5692134647018976
-0.48809051309373785	0.5670128272697172
-0.48802947793748785	0.5646375792535722
-0.48796844278123785	0.5621162906792572
-0.48790740762498785	0.5595314651932941
-0.48784637246873785	0.556882494886436
-0.48778533731248785	0.5540898500548361
-0.48772430215623785	0.5511297082269513
-0.48766326699998785	0.5480719249025645
-0.48760223184373785	0.5449620473724869
-0.48754119668748785	0.5417484629071595
-0.48748016153123785	0.5383728991287394
-0.48741912637498785	0.5348674485109327
-0.48735809121873785	0.5312979082823038
-0.48729705606248785	0.5276548235361115
-0.48723602090623785	0.5238746453102585
-0.48717498574998785	0.5199487055393004
-0.48711395059373785	0.515935190988187
-0.48705291543748785	0.5118602779420888
-0.48699188028123785	0.507678310802528
-0.48693084512498785	0.5033530099099711
-0.48686980996873785	0.49891802886857667
-0.48680877481248785	0.4944181741628324
-0.48674773965623785	0.48983603939430487
-0.48668670449998785	0.4851262196743973
-0.48662566934373785	0.48029361476052124
-0.48656463418748785	0.4753835052796966
-0.48650359903123785	0.4704054582995052
-0.48644256387498785	0.4653212917953432
-0.48638152871873785	0.4601130652465834
-0.48632049356248785	0.45481333329339674
-0.48625945840623785	0.44944963393830584
-0.48619842324998785	0.44400056588793463
-0.48613738809373785	0.4384359555934477
-0.48607635293748785	0.4327693766079558
-0.48601531778123785	0.42703470531605214
-0.48595428262498785	0.4212302367797916
-0.48589324746873785	0.4153254792824323
-0.48583221231248785	0.4093156188996799
-0.48577117715623785	0.40323005202268325
-0.48571014199998785	0.39708330529738545
-0.48564910684373785	0.3908534558267574
-0.48558807168748785	0.38452265946609726
-0.48552703653123785	0.3781087597004542
-0.48546600137498785	0.37163555645749335
-0.48540496621873785	0.36509463631078937
-0.48534393106248785	0.3584632331266667
-0.48528289590623785	0.35174540388007974
-0.48522186074998785	0.3449660868848672
-0.48516082559373785	0.338130302751071
-0.48509979043748785	0.33121780848791277
-0.48503875528123785	0.3242205541936423
-0.48497772012498785	0.3171580326920168
-0.48491668496873785	0.31004553281442
-0.48485564981248785	0.3028706877129972
-0.48479461465623785	0.2956176785419546
-0.48473357949998785	0.288296550471721
-0.48467254434373785	0.28092784280796756
-0.48461150918748785	0.27350980299042177
-0.48455047403123785	0.26602423186826485
-0.48448943887498785	0.2584702213289315
-0.48442840371873785	0.25086797057969024
-0.48436736856248785	0.24322662866254469
-0.48430633340623785	0.2355312777216522
-0.48424529824998785	0.227771055304917
-0.48418426309373785	0.21996019333068997
-0.48412322793748785	0.21211621838155628
-0.48406219278123785	0.2042327568251591
-0.48400115762498785	0.1962930869500353
-0.48394012246873785	0.1883010319327397
-0.48387908731248785	0.1802769198399404
-0.48381805215623785	0.17222595441459354
-0.48375701699998785	0.16413245909168334
-0.48369598184373785	0.1559889966367016
-0.48363494668748785	0.1478110017501426
-0.48357391153123785	0.13961311666472595
-0.48351287637498785	0.13138765097844393
-0.48345184121873785	0.12312073582038859
-0.48339080606248785	0.11481817950291302
-0.48332977090623785	0.10649788809477617
-0.48326873574998785	0.09816254558644663
-0.48320770059373785	0.08979840527142008
-0.48314666543748785	0.08140122235261742
-0.48308563028123785	0.0729855154696954
-0.48302459512498785	0.06456256886441329
-0.48296355996873785	0.05612481699857821
-0.48290252481248785	0.04766199155013478
-0.48284148965623785	0.03918078274856469
-0.48278045449998785	0.03069554791393607
-0.48271941934373785	0.02220706683295399
-0.48265838418748785	0.013704949166287604
-0.48259734903123785	0.005188219045687503
-0.48253631387498785	-0.0033309807032674563
-0.48247527871873785	-0.011845610041309058
-0.48241424356248785	-0.020362377245565423
-0.48235320840623785	-0.028887041196472965
-0.48229217324998785	-0.037412069098830596
-0.48223113809373785	-0.045927031207950476
-0.48217010293748785	-0.05443329861901692
-0.48210906778123785	-0.06293834807339072
-0.48204803262498785	-0.07144019261752464
-0.48198699746873785	-0.07992839264208931
-0.48192596231248785	-0.08839903355934599
-0.48186492715623785	-0.09685805062353399
-0.48180389199998785	-0.10530814814118597
-0.48174285684373785	-0.11374182128483526
-0.48168182168748785	-0.1221515798881295
-0.48162078653123785	-0.1305395498296192
-0.48155975137498785	-0.1389105710225258
-0.48149871621873785	-0.14726122459124635
-0.48143768106248785	-0.15558332475415074
-0.48137664590623785	-0.1638750940652917
-0.48131561074998785	-0.17214099061417643
-0.48125457559373785	-0.1803811898878025
-0.48119354043748785	-0.18858876527833288
-0.48113250528123785	-0.1967588969159244
-0.48107147012498785	-0.204894089672241
-0.48101043496873785	-0.21299689282748727
-0.48094939981248785	-0.22106297758265592
-0.48088836465623785	-0.22908605677000693
-0.48082732949998785	-0.23706580729605295
-0.48076629434373785	-0.245005351207403
-0.48070525918748785	-0.25290306051457234
-0.48064422403123785	-0.26075294372861846
-0.48058318887498785	-0.2685524811346952
-0.48052215371873785	-0.27630407818748387
-0.48046111856248785	-0.2840080431513654
-0.48040008340623785	-0.2916595247814213
-0.48033904824998785	-0.2992544033138091
-0.48027801309373785	-0.30679367324783136
-0.48021697793748785	-0.3142789278213767
-0.48015594278123785	-0.32170699616809834
-0.48009490762498785	-0.32907291144838025
-0.48003387246873785	-0.336376000295824
-0.47997283731248785	-0.34361856412724795
-0.47991180215623785	-0.35079926266451916
-0.47985076699998785	-0.3579127349675314
-0.47978973184373785	-0.3649564413918402
-0.47972869668748785	-0.37193278773370236
-0.47966766153123785	-0.37884255410412854
-0.47960662637498785	-0.38568101347441114
-0.47954559121873785	-0.39244359539766144
-0.47948455606248785	-0.39913142683524505
-0.47942352090623785	-0.4057472023610244
-0.47936248574998785	-0.412288271887673
-0.47930145059373785	-0.4187487492152353
-0.47924041543748785	-0.425127226469262
-0.47917938028123785	-0.43142703218000367
-0.47911834512498785	-0.4376484755460432
-0.47905730996873785	-0.44378606256728037
-0.47899627481248785	-0.4498355516144957
-0.47893523965623785	-0.4557991199611733
-0.47887420449998785	-0.46167973080175156
-0.47881316934373785	-0.46747406913848133
-0.47875213418748785	-0.47317606479100327
-0.47869109903123785	-0.47878511406536683
-0.47863006387498785	-0.48430515002423813
-0.47856902871873785	-0.4897361539144388
-0.47850799356248785	-0.49507233532148553
-0.47844695840623785	-0.5003099597625887
-0.47838592324998785	-0.5054517198340207
-0.47832488809373785	-0.5105003964399593
-0.47826385293748785	-0.5154524322675679
-0.47820281778123785	-0.520302185358919
-0.47814178262498785	-0.525049755467796
-0.47808074746873785	-0.5296991784892702
-0.47801971231248785	-0.5342499903580049
-0.47795867715623785	-0.5386964284127511
-0.47789764199998785	-0.5430355546208785
-0.47783660684373785	-0.5472705220857258
-0.47777557168748785	-0.5514036572047911
-0.47771453653123785	-0.555431166640031
-0.47765350137498785	-0.5593481763192086
-0.47759246621873785	-0.5631554686303663
-0.47753143106248785	-0.5668567485427947
-0.47747039590623785	-0.5704511523206943
-0.47740936074998785	-0.5739334889084498
-0.47734832559373785	-0.5773016778021226
-0.47728729043748785	-0.5805589355190246
-0.47722625528123785	-0.5837071694178664
-0.47716522012498785	-0.5867426541990618
-0.47710418496873785	-0.5896611382493862
-0.47704314981248785	-0.5924638237467478
-0.47698211465623785	-0.5951543282329531
-0.47692107949998785	-0.5977317319057194
-0.47686004434373785	-0.6001912024984498
-0.47679900918748785	-0.6025310802885929
-0.47673797403123785	-0.6047546934855023
-0.47667693887498785	-0.6068639928676578
-0.47661590371873785	-0.6088555571329572
-0.47655486856248785	-0.6107254961547713
-0.47649383340623785	-0.6124751236494634
-0.47643279824998785	-0.6141081022175308
-0.47637176309373785	-0.6156237833280923
-0.47631072793748785	-0.6170176292291856
-0.47624969278123785	-0.6182880522628224
-0.47618865762498785	-0.6194385615867081
-0.47612762246873785	-0.6204716250159652
-0.47606658731248785	-0.6213841228336207
-0.47600555215623785	-0.6221719113770949
-0.47594451699998785	-0.6228362864021171
-0.47588348184373785	-0.6233816950567457
-0.47582244668748785	-0.6238080852973702
-0.47576141153123785	-0.624110526426667
-0.47570037637498785	-0.6242871517747115
-0.47563934121873785	-0.6243422934958035
-0.47557830606248785	-0.6242792053622668
-0.47551727090623785	-0.6240943405788768
-0.47545623574998785	-0.6237830752591876
-0.47539520059373785	-0.6233475983720131
-0.47533416543748785	-0.6227934744120508
-0.47527313028123785	-0.6221202624208416
-0.47521209512498785	-0.6213221291431474
-0.47515105996873785	-0.620397838864254
-0.47509002481248785	-0.6193532670957622
-0.47502898965623785	-0.6181917703076436
-0.47496795449998785	-0.6169085370592021
-0.47490691934373785	-0.6154989114924789
-0.47484588418748785	-0.6139668508447734
-0.47478484903123785	-0.6123187738733012
-0.47472381387498785	-0.61055290861182
-0.47466277871873785	-0.6086625649121726
-0.47460174356248785	-0.6066481809869718
-0.47454070840623785	-0.6045174018183535
-0.47447967324998785	-0.602272573596602
-0.47441863809373785	-0.5999070976172675
-0.47435760293748785	-0.5974173490606169
-0.47429656778123785	-0.5948098306257301
-0.47423553262498785	-0.5920909322767277
-0.47417449746873785	-0.5892566780118081
-0.47411346231248785	-0.5863002717710774
-0.47405242715623785	-0.5832246681766544
-0.47399139199998785	-0.5800385127797514
-0.47393035684373785	-0.5767422881841763
-0.47386932168748785	-0.5733283927376333
-0.47380828653123785	-0.5697951345170656
-0.47374725137498785	-0.5661507746725503
-0.47368621621873785	-0.5624005821448513
-0.47362518106248785	-0.5585389583944234
-0.47356414590623785	-0.5545602296832189
-0.47350311074998785	-0.5504696918117757
-0.47344207559373785	-0.54627580157715
-0.47338104043748785	-0.5419768339664995
-0.47332000528123785	-0.5375651280619902
-0.47325897012498785	-0.5330416857576702
-0.47319793496873785	-0.5284159138826251
-0.47313689981248785	-0.523690970570281
-0.47307586465623785	-0.5188598845150031
-0.47301482949998785	-0.5139190358132648
-0.47295379434373785	-0.5088759139763589
-0.47289275918748785	-0.5037379592602235
-0.47283172403123785	-0.4985015455836041
-0.47277068887498785	-0.49315980683442145
-0.47270965371873785	-0.4877159715381146
-0.47264861856248785	-0.4821795754962515
-0.47258758340623785	-0.47655198178891517
-0.47252654824998785	-0.4708257743718216
-0.47246551309373785	-0.4649991429438775
-0.47240447793748785	-0.4590809472389981
-0.47234344278123785	-0.4530777156908067
-0.47228240762498785	-0.44698447274242653
-0.47222137246873785	-0.4407950759436616
-0.47216033731248785	-0.4345146612204551
-0.47209930215623785	-0.42815304672204896
-0.47203826699998785	-0.42171013788782435
-0.47197723184373785	-0.4151779885161925
-0.47191619668748785	-0.40855624340995916
-0.47185516153123785	-0.40185506312570857
-0.47179412637498785	-0.3950802702519145
-0.47173309121873785	-0.38822545837553196
-0.47167205606248785	-0.3812847841218367
-0.47161102090623785	-0.37426534479370777
-0.47154998574998785	-0.36717790384826426
-0.47148895059373785	-0.3600208807352979
-0.47142791543748785	-0.35278479530645146
-0.47136688028123785	-0.345470628800722
-0.47130584512498785	-0.338091149497672
-0.47124480996873785	-0.3306518207109765
-0.47118377481248785	-0.32314325288480344
-0.47112273965623785	-0.31555925132306606
-0.47106170449998785	-0.3079104776184415
-0.47100066934373785	-0.30020937709233647
-0.47093963418748785	-0.29245111001578333
-0.47087859903123785	-0.28462373047643874
-0.47081756387498785	-0.276731490377197
-0.47075652871873785	-0.26879107107156425
-0.47069549356248785	-0.2608055655143406
-0.47063445840623785	-0.2527607748213488
-0.47057342324998785	-0.2446519139571613
-0.47051238809373785	-0.2364954355555276
-0.47045135293748785	-0.22830411364812697
-0.47039031778123785	-0.22006711424841902
-0.47032928262498785	-0.2117706411512369
