Time	Frequency
-0.5000572188749999	-0.562147939434592
-0.4999961837187499	-0.5627472090760434
-0.4999351485624999	-0.5632167788420674
-0.4998741134062499	-0.5635113496415287
-0.4998130782499999	-0.5636249209775833
-0.4997520430937499	-0.5635934767845865
-0.4996910079374999	-0.5634776628036011
-0.4996299727812499	-0.5633337174451675
-0.4995689376249999	-0.5631865942833771
-0.4995079024687499	-0.5630181581658816
-0.4994468673124999	-0.5627760470173965
-0.4993858321562499	-0.5623988742792694
-0.4993247969999999	-0.5618456724828035
-0.4992637618437499	-0.5611154791043416
-0.4992027266874999	-0.5602476626634639
-0.4991416915312499	-0.5593028642447133
-0.4990806563749999	-0.5583338239418569
-0.4990196212187499	-0.5573601550986862
-0.4989585860624999	-0.5563591249990111
-0.4988975509062499	-0.5552768283892024
-0.4988365157499999	-0.5540543502751348
-0.4987754805937499	-0.552656274103427
-0.4987144454374999	-0.551087763386379
-0.4986534102812499	-0.5493919865048551
-0.4985923751249999	-0.5476291941269855
-0.4985313399687499	-0.5458476158893996
-0.4984703048124999	-0.5440602567433451
-0.4984092696562499	-0.5422388626080714
-0.4983482344999999	-0.5403279787772244
-0.4982871993437499	-0.5382721625186518
-0.4982261641874999	-0.5360430600664983
-0.4981651290312499	-0.5336531952308852
-0.4981040938749999	-0.5311498353274686
-0.4980430587187499	-0.5285920125612474
-0.4979820235624999	-0.5260218656916282
-0.4979209884062499	-0.5234442783456144
-0.4978599532499999	-0.5208248310599124
-0.4977989180937499	-0.5181070313217809
-0.4977378829374999	-0.5152403361040757
-0.4976768477812499	-0.5122051909064756
-0.4976158126249999	-0.509022714501382
-0.4975547774687499	-0.505744319347704
-0.4974937423124999	-0.5024264885149852
-0.4974327071562499	-0.4991031407036919
-0.4973716719999999	-0.4957692121353127
-0.4973106368437499	-0.49238358187953346
-0.4972496016874999	-0.4888898355433121
-0.4971885665312499	-0.4852445315813708
-0.4971275313749999	-0.48143904466220894
-0.4970664962187499	-0.47750415163434357
-0.4970054610624999	-0.4734949080805794
-0.4969444259062499	-0.46946334328656064
-0.4968833907499999	-0.4654327204948146
-0.4968223555937499	-0.4613862518285341
-0.4967613204374999	-0.4572758987903883
-0.4967002852812499	-0.45304683237558824
-0.4966392501249999	-0.44866530944220634
-0.4965782149687499	-0.4441360103995134
-0.4965171798124999	-0.4395001322054262
-0.4964561446562499	-0.43481513708872144
-0.4963951094999999	-0.43012616041592433
-0.4963340743437499	-0.425443368989133
-0.4962730391874999	-0.4207368987366233
-0.4962120040312499	-0.4159521719139633
-0.4961509688749999	-0.41103791056413075
-0.4960899337187499	-0.4059727005448952
-0.4960288985624999	-0.4007765772501501
-0.4959678634062499	-0.3955016372254461
-0.4959068282499999	-0.39020630452338345
-0.4958457930937499	-0.3849259940343252
-0.4957847579374999	-0.3796549829705016
-0.4957237227812499	-0.3743491095958047
-0.4956626876249999	-0.3689482884373437
-0.4956016524687499	-0.3634074656983989
-0.4955406173124999	-0.35772037774911913
-0.4954795821562499	-0.3519240451181115
-0.4954185469999999	-0.3460812802652509
-0.4953575118437499	-0.34024958147328754
-0.4952964766874999	-0.3344519729458284
-0.4952354415312499	-0.32866470146446275
-0.4951744063749999	-0.3228286198441645
-0.4951133712187499	-0.31687907008578475
-0.4950523360624999	-0.3107793367675188
-0.4949913009062499	-0.30454078814267926
-0.4949302657499999	-0.29821912063073075
-0.4948692305937499	-0.2918877430638094
-0.4948081954374999	-0.2856012693680038
-0.4947471602812499	-0.27936758415284924
-0.4946861251249999	-0.27314278613704646
-0.4946250899687499	-0.26685221683551175
-0.4945640548124999	-0.26042791630147155
-0.4945030196562499	-0.25384408079937004
-0.4944419844999999	-0.24713229255652366
-0.4943809493437499	-0.24036807228470947
-0.4943199141874999	-0.23363472496790552
-0.4942588790312499	-0.22698195566266235
-0.4941978438749999	-0.22039994002776264
-0.4941368087187499	-0.2138225801978151
-0.4940757735624999	-0.20715935524633258
-0.4940147384062499	-0.20034069383932337
-0.4939537032499999	-0.19335443834778424
-0.4938926680937499	-0.18625469184099558
-0.4938316329374999	-0.17913762962379004
-0.4937705977812499	-0.1720952808279678
-0.4937095626249999	-0.165169764874314
-0.4936485274687499	-0.15833093827061503
-0.4935874923124999	-0.15148942792674147
-0.4935264571562499	-0.1445397693114011
-0.4934654219999999	-0.13741307009812695
-0.4934043868437499	-0.13011316473670678
-0.4933433516874999	-0.12271778368870023
-0.4932823165312499	-0.11534317117856055
-0.4932212813749999	-0.10808839910093813
-0.4931602462187499	-0.10098612246857014
-0.4930992110624999	-0.09398457201987127
-0.4930381759062499	-0.08697093889422167
-0.4929771407499999	-0.07982585393974989
-0.4929161055937499	-0.07248284920947809
-0.4928550704374999	-0.06496343432053547
-0.4927940352812499	-0.05736977368961636
-0.4927330001249999	-0.04983746486326606
-0.4926719649687499	-0.042470468653812495
-0.4926109298124999	-0.03528964456972179
-0.4925498946562499	-0.028220636153562968
-0.4924888594999999	-0.021128144445624476
-0.4924278243437499	-0.013881112611970838
-0.4923667891874999	-0.006417689176065801
-0.4923057540312499	0.001222042666937692
-0.4922447188749999	0.00891235054248959
-0.4921836837187499	0.01650034742602021
-0.4921226485624999	0.02387930286426036
-0.4920616134062499	0.0310412988388871
-0.4920005782499999	0.03808293171674655
-0.4919395430937499	0.04516020470056451
-0.4918785079374999	0.05241341086845476
-0.4918174727812499	0.059897872224059075
-0.4917564376249999	0.06755452278170238
-0.4916954024687499	0.07523567122211283
-0.4916343673124999	0.08277437002324847
-0.4915733321562499	0.09006431176885045
-0.4915122969999999	0.09711178752371499
-0.4914512618437499	0.10403417515428534
-0.4913902266874999	0.11100464959739281
-0.4913291915312499	0.1181687982523768
-0.4912681563749999	0.12557311555482664
-0.4912071212187499	0.13314036700139145
-0.4911460860624999	0.14070449533359125
-0.4910850509062499	0.14808893736279607
-0.4910240157499999	0.15519096132478982
-0.4909629805937499	0.16203142959243644
-0.4909019454374999	0.16874571445407147
-0.4908409102812499	0.17551938234353695
-0.4907798751249999	0.18249895688589982
-0.4907188399687499	0.18972057755981758
-0.4906578048124999	0.19709100491165796
-0.4905967696562499	0.204430573155211
-0.4905357344999999	0.21155807755517408
-0.4904746993437499	0.21837709118001417
-0.4904136641874999	0.22492225401873517
-0.4903526290312499	0.23134303474708187
-0.4902915938749999	0.2378322514754999
-0.4902305587187499	0.24453338289918333
-0.4901695235624999	0.25147113433384777
-0.4901084884062499	0.2585386362203179
-0.4900474532499999	0.2655476107904515
-0.4899864180937499	0.2723176601412759
-0.4899253829374999	0.2787619385134876
-0.4898643477812499	0.28492814016881773
-0.4898033126249999	0.2909752296957438
-0.4897422774687499	0.2970971358551388
-0.4896812423124999	0.3034297684154048
-0.4896202071562499	0.30998565571048514
-0.4895591719999999	0.3166476007833338
-0.4894981368437499	0.32322442533466506
-0.4894371016874999	0.3295418274837636
-0.4893760665312499	0.3355247540446962
-0.4893150313749999	0.34123217306495357
-0.4892539962187499	0.3468280050287665
-0.4891929610624999	0.3525022442818164
-0.4891319259062499	0.3583799047311642
-0.4890708907499999	0.36446130359355594
-0.4890098555937499	0.3706221637236593
-0.4889488204374999	0.37667313191674257
-0.4888877852812499	0.38244986529652614
-0.4888267501249999	0.38789054580327975
-0.4887657149687499	0.3930640344329067
-0.4887046798124999	0.3981356186792033
-0.4886436446562499	0.4032870674335202
-0.4885826094999999	0.40862950781416635
-0.4885215743437499	0.41415089125661336
-0.4884605391874999	0.4197226350350765
-0.4883995040312499	0.42516147101023494
-0.4883384688749999	0.43031662868074516
-0.4882774337187499	0.4351407317629103
-0.4882163985624999	0.43971078754750054
-0.4881553634062499	0.4441898181868116
-0.4880943282499999	0.4487480050140992
-0.4880332930937499	0.4534812658350812
-0.4879722579374999	0.4583661320724378
-0.4879112227812499	0.4632719731987345
-0.4878501876249999	0.46802400440449793
-0.4877891524687499	0.4724865852683798
-0.4877281173124999	0.47662691505536847
-0.4876670821562499	0.48052894119472556
-0.4876060469999999	0.48435156543040864
-0.4875450118437499	0.48825179067906765
-0.4874839766874999	0.4923097263018655
-0.4874229415312499	0.4964911325458265
-0.4873619063749999	0.5006649017591178
-0.4873008712187499	0.5046663783149791
-0.4872398360624999	0.508375777669509
-0.4871788009062499	0.5117742708934327
-0.4871177657499999	0.5149513612357742
-0.4870567305937499	0.5180606108325586
-0.4869956954374999	0.5212453808470936
-0.4869346602812499	0.5245703898319732
-0.4868736251249999	0.5279916975836313
-0.4868125899687499	0.5313788126099668
-0.4867515548124999	0.5345776541988413
-0.4866905196562499	0.5374839403713388
-0.4866294844999999	0.5400919317226727
-0.4865684493437499	0.5424956286274076
-0.4865074141874999	0.5448425237938421
-0.4864463790312499	0.5472625271152177
-0.4863853438749999	0.5498061327810336
-0.4863243087187499	0.5524211414823438
-0.4862632735624999	0.554978575048652
-0.4862022384062499	0.5573348126650709
-0.4861412032499999	0.5593999165663198
-0.4860801680937499	0.5611795924371656
-0.4860191329374999	0.5627711398671598
-0.4859580977812499	0.5643158855461216
-0.4858970626249999	0.5659312897896336
-0.4858360274687499	0.5676552334632505
-0.4857749923124999	0.569428782001285
-0.4857139571562499	0.5711251708312705
-0.4856529219999999	0.5726107098525443
-0.4855918868437499	0.573808271137979
-0.4855308516874999	0.5747331463432229
-0.4854698165312499	0.5754846067572517
-0.4854087813749999	0.5761977401090201
-0.4853477462187499	0.5769788734937197
-0.4852867110624999	0.5778553622301088
-0.4852256759062499	0.5787633799224575
-0.4851646407499999	0.579579096849416
-0.4851036055937499	0.580177976966297
-0.4850425704374999	0.5804937459002973
-0.4849815352812499	0.5805491023819481
-0.4849205001249999	0.5804439804756883
-0.4848594649687499	0.5803074001115202
-0.4847984298124999	0.5802360625040979
-0.4847373946562499	0.5802488963310705
-0.4846763594999999	0.5802789303169709
-0.4846153243437499	0.5802058976164981
-0.4845542891874999	0.5799136380038934
-0.4844932540312499	0.579344910127357
-0.4844322188749999	0.5785278074147165
-0.4843711837187499	0.5775616348789164
-0.4843101485624999	0.5765693395797529
-0.4842491134062499	0.5756392882541156
-0.4841880782499999	0.5747840105008398
-0.4841270430937499	0.5739352065735162
-0.4840660079374999	0.5729768981658506
-0.4840049727812499	0.5718006231998347
-0.4839439376249999	0.57035646810113
-0.4838829024687499	0.5686759739698987
-0.4838218673124999	0.5668564662667516
-0.4837608321562499	0.5650146781445563
-0.4836997969999999	0.5632318332634296
-0.4836387618437499	0.5615160438110254
-0.4835777266874999	0.5597994614102602
-0.4835166915312499	0.5579711067651426
-0.4834556563749999	0.5559295535273229
-0.4833946212187499	0.5536305245725549
-0.4833335860624999	0.551107142067511
-0.4832725509062499	0.5484536365307957
-0.4832115157499999	0.5457806048450018
-0.4831504805937499	0.5431632383445083
-0.4830894454374999	0.54060683664527
-0.4830284102812499	0.538045411580645
-0.4829673751249999	0.5353736091400779
-0.4829063399687499	0.5324966109492013
-0.4828453048124999	0.5293744751773204
-0.4827842696562499	0.5260403155270311
-0.4827232344999999	0.5225841357210206
-0.4826621993437499	0.5191102992777418
-0.4826011641874999	0.5156889260720451
-0.4825401290312499	0.512323954400936
-0.4824790938749999	0.508952417761974
-0.4824180587187499	0.5054749152695022
-0.4823570235624999	0.5018027138020382
-0.4822959884062499	0.49789920573013186
-0.4822349532499999	0.4937965026058772
-0.4821739180937499	0.4895798468373122
-0.4821128829374999	0.48534747768057596
-0.4820518477812499	0.48116503119697496
-0.4819908126249999	0.47703584014594935
-0.4819297774687499	0.47290057553493964
-0.4818687423124999	0.4686660007961506
-0.4818077071562499	0.46424918399796633
-0.4817466719999999	0.4596162471493516
-0.4816856368437499	0.45479765446371684
-0.4816246016874999	0.4498734523201612
-0.4815635665312499	0.44493576116258443
-0.4815025313749999	0.44004620451757165
-0.4814414962187499	0.43520813083562276
-0.4813804610624999	0.43036625399662065
-0.4813194259062499	0.42543352143724167
-0.4812583907499999	0.420332400687637
-0.4811973555937499	0.41503114951061165
-0.4811363204374999	0.4095582940493152
-0.4810752852812499	0.40398888086482704
-0.4810142501249999	0.39840930888373854
-0.4809532149687499	0.3928775023544716
-0.4808921798124999	0.38739692229506356
-0.4808311446562499	0.38191613100556493
-0.4807701094999999	0.37635385294483853
-0.4807090743437499	0.37063765021139883
-0.4806480391874999	0.3647379014267873
-0.4805870040312499	0.35868132398077096
-0.4805259688749999	0.3525382166712036
-0.4804649337187499	0.3463896919021476
-0.4804038985624999	0.3402902678076919
-0.4803428634062499	0.33424326302546425
-0.4802818282499999	0.32820038804963936
-0.4802207930937499	0.3220855298449164
-0.4801597579374999	0.31583114952332875
-0.4800987227812499	0.30940998337420145
-0.4800376876249999	0.3028475817786513
-0.4799766524687499	0.2962102453848309
-0.4799156173124999	0.28957413477365634
-0.4798545821562499	0.28299015795464766
-0.4797935469999999	0.2764610952854747
-0.4797325118437499	0.2699414109349275
-0.4796714766874999	0.26335958284011013
-0.4796104415312499	0.256652349369279
-0.4795494063749999	0.2497946904425563
-0.4794883712187499	0.24281153306700726
-0.4794273360624999	0.23576600902798153
-0.4793663009062499	0.2287300456077988
-0.4793052657499999	0.22175120422950612
-0.4792442305937499	0.21483132486237297
-0.4791831954374999	0.20792676891627224
-0.4791221602812499	0.20096983536606705
-0.4790611251249999	0.19390117492548392
-0.4790000899687499	0.18669805258367056
-0.4789390548124999	0.17938527084676156
-0.4788780196562499	0.17202364632569603
-0.4788169844999999	0.16468163306923364
-0.4787559493437499	0.1574037369932069
-0.4786949141874999	0.1501905210342836
-0.4786338790312499	0.1429992518140528
-0.4785728438749999	0.13576476473933155
-0.4785118087187499	0.1284308582324244
-0.4784507735624999	0.12097742489243692
-0.4783897384062499	0.11343032468784355
-0.4783287032499999	0.10584935312548327
-0.4782676680937499	0.09830031167548216
-0.4782066329374999	0.09082452621837539
-0.4781455977812499	0.08342013791860745
-0.4780845626249999	0.07604387983664156
-0.4780235274687499	0.06863232241783772
-0.4779624923124999	0.06113256490675835
-0.4779014571562499	0.05352793684419533
-0.4778404219999999	0.04584637800505247
-0.4777793868437499	0.038147444370669976
-0.4777183516874999	0.0304943793363384
-0.4776573165312499	0.022924754747140737
-0.4775962813749999	0.01543345136960061
-0.4775352462187499	0.00797583235595871
-0.4774742110624999	0.0004897016129517032
-0.4774131759062499	-0.0070742896263059395
-0.4773521407499999	-0.014728468247328031
-0.4772911055937499	-0.022441870666097742
-0.4772300704374999	-0.030154654463469294
-0.4771690352812499	-0.03780619959096876
-0.4771080001249999	-0.045363511676882434
-0.4770469649687499	-0.052836226165789466
-0.4769859298124999	-0.060271141131975126
-0.4769248946562499	-0.0677290488481917
-0.4768638594999999	-0.07525487901155704
-0.4768028243437499	-0.0828555574552123
-0.4767417891874999	-0.09049627977819848
-0.4766807540312499	-0.09811682853003191
-0.4766197188749999	-0.10566002148148929
-0.4765586837187499	-0.11309866581721965
-0.4764976485624999	-0.12044799891656247
-0.4764366134062499	-0.12775745827403603
-0.4763755782499999	-0.13508588707188202
-0.4763145430937499	-0.14247244489350805
-0.4762535079374999	-0.149917179578847
-0.4761924727812499	-0.15738056646329868
-0.4761314376249999	-0.16480232307001283
-0.4760704024687499	-0.17213022460268357
-0.4760093673124999	-0.1793447950604364
-0.4759483321562499	-0.1864679398956496
-0.4758872969999999	-0.19355142621210672
-0.4758262618437499	-0.20065091364445906
-0.4757652266874999	-0.2077982087772932
-0.4757041915312499	-0.2149852657153256
-0.4756431563749999	-0.22216771456933926
-0.4755821212187499	-0.2292861508052146
-0.4755210860624999	-0.23629479087584956
-0.4754600509062499	-0.24318337411531224
-0.4753990157499999	-0.24998139906988556
-0.4753379805937499	-0.25674268015956675
-0.4752769454374999	-0.26351807621070683
-0.4752159102812499	-0.27032987633333017
-0.4751548751249999	-0.2771603517533158
-0.4750938399687499	-0.2839601239708979
-0.4750328048124999	-0.2906722243961485
-0.4749717696562499	-0.29725990235190763
-0.4749107344999999	-0.30372434749493776
-0.4748496993437499	-0.3101033884855101
-0.4747886641874999	-0.31645181510239045
-0.4747276290312499	-0.3228132808714459
-0.4746665938749999	-0.32919788734549066
-0.4746055587187499	-0.3355767029086961
-0.4745445235624999	-0.3418959085419152
-0.4744834884062499	-0.3481033570807468
-0.4744224532499999	-0.35417426992237727
-0.4743614180937499	-0.3601232333802011
-0.4743003829374999	-0.3659963690905114
-0.4742393477812499	-0.37184751821297635
-0.4741783126249999	-0.37771039659419736
-0.4741172774687499	-0.38358077993531514
-0.4740562423124999	-0.3894178574607012
-0.4739952071562499	-0.39516428973150086
-0.4739341719999999	-0.40077494369657257
-0.4738731368437499	-0.4062396951907512
-0.4738121016874999	-0.41158851437321087
-0.4737510665312499	-0.4168759878854374
-0.4736900313749999	-0.422153042823719
-0.4736289962187499	-0.42744026055074363
-0.4735679610624999	-0.4327163513397257
-0.4735069259062499	-0.4379278689630489
-0.4734458907499999	-0.4430156696764319
-0.4733848555937499	-0.4479448687716217
-0.4733238204374999	-0.4527229108883562
-0.4732627852812499	-0.4573962737719746
-0.4732017501249999	-0.4620270701192563
-0.4731407149687499	-0.46666097414929836
-0.4730796798124999	-0.4713026763692506
-0.4730186446562499	-0.47591180326664806
-0.4729576094999999	-0.48042199385305345
-0.4728965743437499	-0.48477391136934816
-0.4728355391874999	-0.4889456762615593
-0.4727745040312499	-0.4929650704921916
-0.4727134688749999	-0.49689660024768445
-0.4726524337187499	-0.500809195571185
-0.4725913985624999	-0.5047405423996414
-0.4725303634062499	-0.5086762197558694
-0.4724693282499999	-0.5125547487080284
-0.4724082930937499	-0.516296883449199
-0.4723472579374999	-0.5198451262606909
-0.4722862227812499	-0.5231936894591299
-0.4722251876249999	-0.5263932525866888
-0.4721641524687499	-0.5295271088349018
-0.4721031173124999	-0.5326697419450385
-0.4720420821562499	-0.5358482731214674
-0.4719810469999999	-0.5390264602792108
-0.4719200118437499	-0.5421201601580518
-0.4718589766874999	-0.5450376450716251
-0.4717979415312499	-0.5477254246073154
-0.4717369063749999	-0.5501966371930612
-0.4716758712187499	-0.5525269401059903
-0.4716148360624999	-0.5548187053795927
-0.4715538009062499	-0.5571503681311722
-0.4714927657499999	-0.5595358445746719
-0.4714317305937499	-0.5619147448220145
-0.4713706954374999	-0.5641794156246593
-0.4713096602812499	-0.5662266920333466
-0.4712486251249999	-0.5680094386439525
-0.4711875899687499	-0.5695620893822237
-0.4711265548124999	-0.5709864618271808
-0.4710655196562499	-0.5724035067487975
-0.4710044844999999	-0.5738937829985803
-0.4709434493437499	-0.5754558057427525
-0.4708824141874999	-0.5770035815925297
-0.4708213790312499	-0.5784059587644905
-0.4707603438749999	-0.5795497605522029
-0.4706993087187499	-0.5803962601639655
-0.4706382735624999	-0.5810028222705534
-0.4705772384062499	-0.5814978287491346
-0.4705162032499999	-0.5820197378330942
-0.4704551680937499	-0.582649205469178
-0.4703941329374999	-0.5833674832908224
-0.4703330977812499	-0.5840623659138181
-0.4702720626249999	-0.584580238009289
-0.4702110274687499	-0.5848000529434333
-0.4701499923124999	-0.5846935493449535
-0.4700889571562499	-0.5843417577575558
-0.4700279219999999	-0.5838985222984557
-0.4699668868437499	-0.5835174613214911
-0.4699058516874999	-0.5832770471677403
-0.4698448165312499	-0.5831403399176456
-0.4697837813749999	-0.5829699530230321
-0.4697227462187499	-0.5825923393376163
-0.4696617110624999	-0.581881285231155
-0.4696006759062499	-0.5808204258340047
