Time	Frequency
-0.5000038128437438	0.42925056742104667
-0.49994277768749384	0.43521785240591077
-0.49988174253124384	0.44110039772438236
-0.49982070737499384	0.44689689924646975
-0.49975967221874384	0.4526065048580995
-0.49969863706249384	0.4582281617503846
-0.49963760190624384	0.4637603828298066
-0.49957656674999384	0.4692019628342194
-0.49951553159374384	0.47455220305021645
-0.49945449643749384	0.4798101515051943
-0.49939346128124384	0.48497443120106526
-0.49933242612499384	0.49004398191374726
-0.49927139096874384	0.4950181065321476
-0.49921035581249384	0.4998957604835032
-0.49914932065624384	0.5046756837192155
-0.49908828549999384	0.50935706922224
-0.49902725034374384	0.5139392303795143
-0.49896621518749384	0.5184210277587233
-0.49890518003124384	0.5228013648186156
-0.49884414487499384	0.5270795977572075
-0.49878310971874384	0.5312549689266033
-0.49872207456249384	0.5353263973733718
-0.49866103940624384	0.5392930633493205
-0.49860000424999384	0.5431544083991722
-0.49853896909374384	0.5469095686202519
-0.49847793393749384	0.5505576270765438
-0.49841689878124384	0.5540980759771048
-0.49835586362499384	0.5575302814316431
-0.49829482846874384	0.5608532156265268
-0.49823379331249384	0.5640662228917545
-0.49817275815624384	0.567169034609402
-0.49811172299999384	0.5701608605457184
-0.49805068784374384	0.5730406972885086
-0.49798965268749384	0.5758082962383243
-0.49792861753124384	0.5784634738098436
-0.49786758237499384	0.5810051992607858
-0.49780654721874384	0.5834326519978074
-0.49774551206249384	0.5857459238679654
-0.49768447690624384	0.5879446837113043
-0.49762344174999384	0.590027819202048
-0.49756240659374384	0.5919949323602905
-0.49750137143749384	0.5938463234438586
-0.49744033628124384	0.595581448605531
-0.49737930112499384	0.5971992696974479
-0.49731826596874384	0.5986997606334582
-0.49725723081249384	0.6000831952702991
-0.49719619565624384	0.6013487553492306
-0.49713516049999384	0.6024957171950753
-0.49707412534374384	0.6035245964990302
-0.49701309018749384	0.6044354425115905
-0.49695205503124384	0.6052271048614961
-0.49689101987499384	0.6058993603108633
-0.49682998471874384	0.6064530979871494
-0.49676894956249384	0.6068879731826893
-0.49670791440624384	0.6072028734155197
-0.49664687924999384	0.6073982415364212
-0.49658584409374384	0.6074748890290693
-0.49652480893749384	0.6074319316249541
-0.49646377378124384	0.6072687377560886
-0.49640273862499384	0.6069864799947317
-0.49634170346874384	0.6065854434143624
-0.49628066831249384	0.6060642875680748
-0.49621963315624384	0.6054232998867591
-0.49615859799999384	0.604664072207804
-0.49609756284374384	0.60378605923429
-0.49603652768749384	0.6027880373752204
-0.49597549253124384	0.6016713034571696
-0.49591445737499384	0.6004371545767373
-0.49585342221874384	0.5990842935550664
-0.49579238706249384	0.5976123161306649
-0.49573135190624384	0.5960233766412998
-0.49567031674999384	0.5943178457388525
-0.49560928159374384	0.592493917539727
-0.49554824643749384	0.5905525281846526
-0.49548721128124384	0.5884961866894676
-0.49542617612499384	0.5863239863107711
-0.49536514096874384	0.5840344618153522
-0.49530410581249384	0.5816300144966399
-0.49524307065624384	0.5791124283359889
-0.49518203549999384	0.5764796303948585
-0.49512100034374384	0.5737315287147631
-0.49505996518749384	0.5708715619082332
-0.49499893003124384	0.5679000075307332
-0.49493789487499384	0.5648144748134746
-0.49487685971874384	0.5616168110762579
-0.49481582456249384	0.5583103573401021
-0.49475478940624384	0.5548935326587223
-0.49469375424999384	0.551364819624076
-0.49463271909374384	0.5477279058875437
-0.49457168393749384	0.5439847673235747
-0.49451064878124384	0.5401325493385473
-0.49444961362499384	0.5361718242226583
-0.49438857846874384	0.5321071627656102
-0.49432754331249384	0.5279383757689073
-0.49426650815624384	0.5236627461445682
-0.49420547299999384	0.5192833264719734
-0.49414443784374384	0.5148038394116857
-0.49408340268749384	0.5102217476981512
-0.49402236753124384	0.5055360222213318
-0.49396133237499384	0.5007517903032124
-0.49390029721874384	0.4958705332558514
-0.49383926206249384	0.49088863376303515
-0.49377822690624384	0.4858081841343094
-0.49371719174999384	0.48063468092583983
-0.49365615659374384	0.4753664037539374
-0.49359512143749384	0.4700004787750981
-0.49353408628124384	0.464542081638992
-0.49347305112499384	0.45899500857564474
-0.49341201596874384	0.4533551327176566
-0.49335098081249384	0.4476225376297359
-0.49328994565624384	0.441804224508382
-0.49322891049999384	0.43590028288151006
-0.49316787534374384	0.42990586618244425
-0.49310684018749384	0.42382526488897093
-0.49304580503124384	0.41766501876288586
-0.49298476987499384	0.41142140379091013
-0.49292373471874384	0.40509191362305463
-0.49286269956249384	0.3986843907966646
-0.49280166440624384	0.39220163513460654
-0.49274062924999384	0.3856371103584697
-0.49267959409374384	0.378993024854548
-0.49261855893749384	0.3722787813929205
-0.49255752378124384	0.3654920412136506
-0.49249648862499384	0.35862673267582557
-0.49243545346874384	0.3516906530451006
-0.49237441831249384	0.3446909338563849
-0.49231338315624384	0.33762014629293186
-0.49225234799999384	0.33047661712411924
-0.49219131284374384	0.3232722744687208
-0.49213027768749384	0.3160081421341181
-0.49206924253124384	0.30867437223773647
-0.49200820737499384	0.30127667165594696
-0.49194717221874384	0.29382737354573446
-0.49188613706249384	0.2863198804596746
-0.49182510190624384	0.2787466666733279
-0.49176406674999384	0.2711207634857193
-0.49170303159374384	0.26344933819054633
-0.49164199643749384	0.2557195275506312
-0.49158096128124384	0.24793165592641062
-0.49151992612499384	0.2401033168011534
-0.49145889096874384	0.23223213087379604
-0.49139785581249384	0.22430360209478886
-0.49133682065624384	0.21632866580446736
-0.49127578549999384	0.20832323761768656
-0.49121475034374384	0.20027447114600047
-0.49115371518749384	0.1921732701729625
-0.49109268003124384	0.18404002265558123
-0.49103164487499384	0.1758816627112989
-0.49097060971874384	0.16767788554970375
-0.49090957456249384	0.15943154173814877
-0.49084853940624384	0.15116733781548164
-0.49078750424999384	0.14287837105421283
-0.49072646909374384	0.13454452051115387
-0.49066543393749384	0.12618368567248803
-0.49060439878124384	0.11781571524713673
-0.49054336362499384	0.10941892299441341
-0.49048232846874384	0.10098258952131776
-0.49042129331249384	0.09253735345823116
-0.49036025815624384	0.08408942218784833
-0.49029922299999384	0.07560802370439929
-0.49023818784374384	0.06709978935426417
-0.49017715268749384	0.05859984375354414
-0.49011611753124384	0.05009471203378994
-0.49005508237499384	0.04155476244791891
-0.48999404721874384	0.033007242843723486
-0.48993301206249384	0.0244800126717772
-0.48987197690624384	0.01593963322900946
-0.48981094174999384	0.007369579978639166
-0.48974990659374384	-0.0011856711382665847
-0.48968887143749384	-0.009716656771764642
-0.48962783628124384	-0.01826936676027784
-0.48956680112499384	-0.026837447039939285
-0.48950576596874384	-0.03536972776237415
-0.48944473081249384	-0.043882247119203896
-0.48938369565624384	-0.05242067027946032
-0.48932266049999384	-0.060952629155755396
-0.48926162534374384	-0.06943483168029602
-0.48920059018749384	-0.0779077720947564
-0.48913955503124384	-0.08640238414617592
-0.48907851987499384	-0.09486591805389623
-0.48901748471874384	-0.10327557556053074
-0.48895644956249384	-0.11168604428523353
-0.48889541440624384	-0.12010350039408585
-0.48883437924999384	-0.12846836532680855
-0.48877334409374384	-0.13678468735411722
-0.48871230893749384	-0.14510627771046078
-0.48865127378124384	-0.15341312536294188
-0.48859023862499384	-0.16165410635461722
-0.48852920346874384	-0.16985643320184826
-0.48846816831249384	-0.1780589994644222
-0.48840713315624384	-0.18622357865199027
-0.48834609799999384	-0.1943187147193952
-0.48828506284374384	-0.20238372281295403
-0.48822402768749384	-0.21043523615249282
-0.48816299253124384	-0.218429558820477
-0.48810195737499384	-0.226357952777796
-0.48804092221874384	-0.23425894986144807
-0.48797988706249384	-0.24212828396246827
-0.48791885190624384	-0.24992888068212157
-0.48785781674999384	-0.2576698503388822
-0.48779678159374384	-0.2653786225015889
-0.48773574643749384	-0.27303716583868537
-0.48767471128124384	-0.2806222343675214
-0.48761367612499384	-0.28815186359888917
-0.48755264096874384	-0.29563880162436
-0.48749160581249384	-0.3030613901465474
-0.48743057065624384	-0.31041073859499835
-0.48736953549999384	-0.3177039892618463
-0.48730850034374384	-0.32494122657313196
-0.48724746518749384	-0.332105306456815
-0.48718643003124384	-0.33919745530065326
-0.48712539487499384	-0.34622803549965525
-0.48706435971874384	-0.3531905255731633
-0.48700332456249384	-0.3600760915334484
-0.48694228940624384	-0.36688925939913897
-0.48688125424999384	-0.37363174908216906
-0.48682021909374384	-0.3802966731665016
-0.48675918393749384	-0.386883157454557
-0.48669814878124384	-0.3933937530512265
-0.48663711362499384	-0.399823948736539
-0.48657607846874384	-0.4061709727720776
-0.48651504331249384	-0.41243831190796637
-0.48645400815624384	-0.4186233462630121
-0.48639297299999384	-0.4247196397479296
-0.48633193784374384	-0.43073008681366604
-0.48627090268749384	-0.43665795491331294
-0.48620986753124384	-0.4424954648860771
-0.48614883237499384	-0.44823845797544914
-0.48608779721874384	-0.45389408831788386
-0.48602676206249384	-0.4594620078322363
-0.48596572690624384	-0.46493175954277843
-0.48590469174999384	-0.4703037917898613
-0.48584365659374384	-0.47558631600427503
-0.48578262143749384	-0.4807742096329674
-0.48572158628124384	-0.48585792875937706
-0.48566055112499384	-0.4908427122947968
-0.48559951596874384	-0.49573453263745226
-0.48553848081249384	-0.5005244026878087
-0.48547744565624384	-0.505206312556603
-0.48541641049999384	-0.5097882317039338
-0.48535537534374384	-0.5142718673331897
-0.48529434018749384	-0.5186470469234757
-0.48523330503124384	-0.5229126554333002
-0.48517226987499384	-0.5270767051364685
-0.48511123471874384	-0.5311362928208964
-0.48505019956249384	-0.5350826630604952
-0.48498916440624384	-0.5389188565598684
-0.48492812924999384	-0.5426504493995865
-0.48486709409374384	-0.5462714393988084
-0.48480605893749384	-0.5497764853322266
-0.48474502378124384	-0.553170833686507
-0.48468398862499384	-0.5564564520320918
-0.48462295346874384	-0.5596265203825963
-0.48456191831249384	-0.5626795069921312
-0.48450088315624384	-0.5656204750727792
-0.48443984799999384	-0.5684481073654025
-0.48437881284374384	-0.5711569542562672
-0.48431777768749384	-0.5737482928743711
-0.48425674253124384	-0.5762252236906399
-0.48419570737499384	-0.5785846171424165
-0.48413467221874384	-0.5808236785347628
-0.48407363706249384	-0.5829448274973191
-0.48401260190624384	-0.5849485179458822
-0.48395156674999384	-0.5868315198901269
-0.48389053159374384	-0.5885936931343311
-0.48382949643749384	-0.5902369489808205
-0.48376846128124384	-0.591759735028955
-0.48370742612499384	-0.593160171752222
-0.48364639096874384	-0.5944397048157438
-0.48358535581249384	-0.5955986507800572
-0.48352432065624384	-0.5966347338744958
-0.48346328549999384	-0.5975480451827878
-0.48340225034374384	-0.5983403052441099
-0.48334121518749384	-0.5990101469337535
-0.48328018003124384	-0.5995558166829058
-0.48321914487499384	-0.5999789992589432
-0.48315810971874384	-0.6002805446942795
-0.48309707456249384	-0.600458084735766
-0.48303603940624384	-0.6005113456455249
-0.48297500424999384	-0.600442739488342
-0.48291396909374384	-0.6002516571490928
-0.48285293393749384	-0.5999357377581975
-0.48279189878124384	-0.5994962983951155
-0.48273086362499384	-0.5989353791643224
-0.48266982846874384	-0.5982511715150903
-0.48260879331249384	-0.5974423413784067
-0.48254775815624384	-0.5965113407654992
-0.48248672299999384	-0.5954591411231004
-0.48242568784374384	-0.5942834148429723
-0.48236465268749384	-0.5929842172149863
-0.48230361753124384	-0.5915642333147767
-0.48224258237499384	-0.5900231956379347
-0.48218154721874384	-0.5883590839134648
-0.48212051206249384	-0.5865732043178615
-0.48205947690624384	-0.5846678447887644
-0.48199844174999384	-0.5826420340663793
-0.48193740659374384	-0.5804946831271641
-0.48187637143749384	-0.5782277380708205
-0.48181533628124384	-0.5758425789496301
-0.48175430112499384	-0.5733380314888302
-0.48169326596874384	-0.5707140695504107
-0.48163223081249384	-0.5679727046262942
-0.48157119565624384	-0.565114541641585
-0.48151016049999384	-0.5621388208049289
-0.48144912534374384	-0.5590463100665369
-0.48138809018749384	-0.5558385914756957
-0.48132705503124384	-0.5525159171567231
-0.48126601987499384	-0.5490783310744322
-0.48120498471874384	-0.5455269406611746
-0.48114394956249384	-0.5418626468155089
-0.48108291440624384	-0.5380857451120619
-0.48102187924999384	-0.5341970099245785
-0.48096084409374384	-0.5301973938029845
-0.48089980893749384	-0.5260874327921049
-0.48083877378124384	-0.5218680173173944
-0.48077773862499384	-0.5175403858963055
-0.48071670346874384	-0.5131050954043684
-0.48065566831249384	-0.50856258298508
-0.48059463315624384	-0.5039141789864474
-0.48053359799999384	-0.499161049995485
-0.48047256284374384	-0.49430348537195495
-0.48041152768749384	-0.489342382952554
-0.48035049253124384	-0.48427949773782697
-0.48028945737499384	-0.4791156442616715
-0.48022842221874384	-0.4738509703903745
-0.48016738706249384	-0.46848694275666464
-0.48010635190624384	-0.4630255716514275
-0.48004531674999384	-0.45746736005812816
-0.47998428159374384	-0.4518124928483287
-0.47992324643749384	-0.4460627532592053
-0.47986221128124384	-0.44022001751030176
-0.47980117612499384	-0.43428470854111273
-0.47974014096874384	-0.42825751024428615
-0.47967910581249384	-0.42214034378291565
-0.47961807065624384	-0.4159345533187466
-0.47955703549999384	-0.40964060927405066
-0.47949600034374384	-0.40325995593833497
-0.47943496518749384	-0.396794698017681
-0.47937393003124384	-0.3902457643688704
-0.47931289487499384	-0.3836136693418171
-0.47925185971874384	-0.37690022319419486
-0.47919082456249384	-0.3701074140154422
-0.47912978940624384	-0.36323595667426994
-0.47906875424999384	-0.35628668910518313
-0.47900771909374384	-0.3492617064231223
-0.47894668393749384	-0.3421628008096205
-0.47888564878124384	-0.3349906808154631
-0.47882461362499384	-0.3277465900170036
-0.47876357846874384	-0.3204326930585846
-0.47870254331249384	-0.3130504975887667
-0.47864150815624384	-0.30560077907349803
-0.47858047299999384	-0.29808501241140534
-0.47851943784374384	-0.2905053120028838
-0.47845840268749384	-0.2828632107481389
-0.47839736753124384	-0.2751597784869332
-0.47833633237499384	-0.26739662270233755
-0.47827529721874384	-0.25957565264166205
-0.47821426206249384	-0.2516982570706989
-0.47815322690624384	-0.24376571920861773
-0.47809219174999384	-0.23577991248706046
-0.47803115659374384	-0.22774272113737815
-0.47797012143749384	-0.21965545706165132
-0.47790908628124384	-0.21151952256525108
-0.47784805112499384	-0.2033368375110031
-0.47778701596874384	-0.19510918712514344
-0.47772598081249384	-0.1868379943309137
-0.47766494565624384	-0.17852489778636924
-0.47760391049999384	-0.1701718141999234
-0.47754287534374384	-0.161780369975693
-0.47748184018749384	-0.1533518778302343
-0.47742080503124384	-0.1448880392615881
-0.47735976987499384	-0.1363910395545046
-0.47729873471874384	-0.127862744877116
-0.47723769956249384	-0.11930460739973847
-0.47717666440624384	-0.11071835322220853
-0.47711562924999384	-0.10210584911759443
-0.47705459409374384	-0.0934685845936555
-0.47699355893749384	-0.08480806293317887
-0.47693252378124384	-0.07612624695783272
-0.47687148862499384	-0.06742509413015185
-0.47681045346874384	-0.05870619023323161
-0.47674941831249384	-0.04997127140948717
-0.47668838315624384	-0.041222452530441774
-0.47662734799999384	-0.03246156489739546
-0.47656631284374384	-0.023690069184344787
-0.47650527768749384	-0.014909748851811183
-0.47644424253124384	-0.006122582465664781
-0.47638320737499384	0.0026698137372494412
-0.47632217221874384	0.011465739487823493
-0.47626113706249384	0.020263109955273015
-0.47620010190624384	0.029060190883197116
-0.47613906674999384	0.037855586843008354
-0.47607803159374384	0.04664736058802645
-0.47601699643749384	0.05543330528088993
-0.47595596128124384	0.06421185717574254
-0.47589492612499384	0.07298156484880172
-0.47583389096874384	0.08174023904998463
-0.47577285581249384	0.09048586009108778
-0.47571182065624384	0.09921718871165565
-0.47565078549999384	0.10793246456393625
-0.47558975034374384	0.11662922433367796
-0.47552871518749384	0.1253058539001648
-0.47546768003124384	0.13396135256959907
-0.47540664487499384	0.14259371663883552
-0.47534560971874384	0.15120043031472993
-0.47528457456249384	0.15977999694329575
-0.47522353940624384	0.16833128009620255
-0.47516250424999384	0.1768521506213902
-0.47510146909374384	0.18534042122350017
-0.47504043393749384	0.19379493646523308
-0.47497939878124384	0.20221415638720197
-0.47491836362499384	0.21059545951048017
-0.47485732846874384	0.21893712501280568
-0.47479629331249384	0.22723855139221102
-0.47473525815624384	0.23549787079000598
-0.47467422299999384	0.24371226237668675
-0.47461318784374384	0.25188042735924104
-0.47455215268749384	0.26000165884284054
-0.47449111753124384	0.2680735953827585
-0.47443008237499384	0.2760938287557062
-0.47436904721874384	0.2840616661812772
-0.47430801206249384	0.2919758378962069
-0.47424697690624384	0.2998334654974904
-0.47418594174999384	0.3076329785480692
-0.47412490659374384	0.3153741864055994
-0.47406387143749384	0.32305503038085526
-0.47400283628124384	0.3306726117392772
-0.47394180112499384	0.3382262653372669
-0.47388076596874384	0.34571543889036976
-0.47381973081249384	0.3531371698969299
-0.47375869565624384	0.36048916563178307
-0.47369766049999384	0.3677716158761188
-0.47363662534374384	0.37498334661863103
-0.47357559018749384	0.3821210020488249
-0.47351455503124384	0.38918343817378054
-0.47345351987499384	0.39617112669700627
-0.47339248471874384	0.403081556633436
-0.47333144956249384	0.40991148617205025
-0.47327041440624384	0.4166612215099893
-0.47320937924999384	0.423330716138812
-0.47314834409374384	0.4299162037958292
-0.47308730893749384	0.4364155313634275
-0.47302627378124384	0.4428301091674124
-0.47296523862499384	0.449158638746014
-0.47290420346874384	0.45539698548947155
-0.47284316831249384	0.4615447545469701
-0.47278213315624384	0.4676032787301281
-0.47272109799999384	0.4735693365228706
-0.47266006284374384	0.47943941073525753
-0.47259902768749384	0.48521503306017955
-0.47253799253124384	0.49089653417026285
-0.47247695737499384	0.4964794058063719
-0.47241592221874384	0.50196200449432
-0.47235488706249384	0.5073468199664876
-0.47229385190624384	0.5126320111127449
-0.47223281674999384	0.5178128368799079
-0.47217178159374384	0.5228900192802873
-0.47211074643749384	0.5278655767977278
-0.47204971128124384	0.5327355158341945
-0.47198867612499384	0.5374965996684362
-0.47192764096874384	0.5421517096388521
-0.47186660581249384	0.5467008724084081
-0.47180557065624384	0.5511386722012922
-0.47174453549999384	0.5554646235199846
-0.47168350034374384	0.5596823247462251
-0.47162246518749384	0.563788811925152
-0.47156143003124384	0.5677790994435623
-0.47150039487499384	0.5716558429614432
-0.47143935971874384	0.5754213119781285
-0.47137832456249384	0.5790699567783422
-0.47131728940624384	0.5825993692779995
-0.47125625424999384	0.5860143551873225
-0.47119521909374384	0.5893139402128477
-0.47113418393749384	0.5924915769465492
-0.47107314878124384	0.5955488417722435
-0.47101211362499384	0.598490456855559
-0.47095107846874384	0.6013115327877298
-0.47089004331249384	0.6040072157765711
-0.47082900815624384	0.6065828199236386
-0.47076797299999384	0.6090401370236237
-0.47070693784374384	0.6113714696238707
-0.47064590268749384	0.6135763046125728
-0.47058486753124384	0.6156618724703975
-0.47052383237499384	0.6176250384177644
-0.47046279721874384	0.6194579342976024
-0.47040176206249384	0.6211655040362812
-0.47034072690624384	0.6227534655807028
-0.47027969174999384	0.6242135702429675
-0.47021865659374384	0.6255416001359083
-0.47015762143749384	0.6267470572105733
