Time	Frequency
-0.5000419600937533	0.2981469298217469
-0.49998092493750335	0.2924524497433644
-0.49991988978125335	0.28670657713779024
-0.49985885462500335	0.2809328982527106
-0.49979781946875335	0.27511868164287434
-0.49973678431250335	0.26924156549280787
-0.49967574915625335	0.2633178260930566
-0.49961471400000335	0.25737201159429707
-0.49955367884375335	0.2513878439409862
-0.49949264368750335	0.24534222941952794
-0.49943160853125335	0.2392549456058419
-0.49937057337500335	0.2331512616149862
-0.49930953821875335	0.22701166966487496
-0.49924850306250335	0.22081236925158473
-0.49918746790625335	0.2145763223101371
-0.49912643275000335	0.208329897502843
-0.49906539759375335	0.20205076726866966
-0.49900436243750335	0.19571366040086022
-0.49894332728125335	0.18934359283382582
-0.49888229212500335	0.18296838400105353
-0.49882125696875335	0.1765642529456065
-0.49876022181250335	0.17010458305493553
-0.49869918665625335	0.16361594933573875
-0.49863815150000335	0.15712819834531833
-0.49857711634375335	0.1506160050589907
-0.49851608118750335	0.14404969414738536
-0.49845504603125335	0.13745694467990174
-0.49839401087500335	0.13087172158263038
-0.49833297571875335	0.12426838165539457
-0.49827194056250335	0.11761234691473751
-0.49821090540625335	0.11093124648220049
-0.49814987025000335	0.1042647759304029
-0.49808883509375335	0.09758722578113378
-0.49802779993750335	0.09085734483645161
-0.49796676478125335	0.08410310775248427
-0.49790572962500335	0.07737187256288945
-0.49784469446875335	0.0706374617187805
-0.49778365931250335	0.06385014883074931
-0.49772262415625335	0.0570384739013012
-0.49766158900000335	0.05025898963061158
-0.49760055384375335	0.043485040795684854
-0.49753951868750335	0.03665730642737954
-0.49747848353125335	0.02980462592739601
-0.49741744837500335	0.022993171213246507
-0.49735641321875335	0.01619618327422219
-0.49729537806250335	0.009345216553790989
-0.49723434290625335	0.0024691233353132894
-0.49717330775000335	-0.00435791512658937
-0.49711227259375335	-0.01116271676517846
-0.49705123743750335	-0.018019955519009357
-0.49699020228125335	-0.0249003695602107
-0.49692916712500335	-0.031725502981761654
-0.49686813196875335	-0.03852272627977853
-0.49680709681250335	-0.04536880723249982
-0.49674606165625335	-0.05223446751202279
-0.49668502650000335	-0.05904228253728768
-0.49662399134375335	-0.06581928689370745
-0.49656295618750335	-0.0726376448580746
-0.49650192103125335	-0.07946791243324133
-0.49644088587500335	-0.08624010156993611
-0.49637985071875335	-0.09298202871187042
-0.49631881556250335	-0.09975624993568948
-0.49625778040625335	-0.10653227441645159
-0.49619674525000335	-0.1132516516103437
-0.49613571009375335	-0.11994353760009842
-0.49607467493750335	-0.12665757932849495
-0.49601363978125335	-0.133361546429523
-0.49595260462500335	-0.14001059265895627
-0.49589156946875335	-0.14663591778117638
-0.49583053431250335	-0.15327332448239944
-0.49576949915625335	-0.15988846984893426
-0.49570846400000335	-0.1664505538707341
-0.49564742884375335	-0.17299338979252737
-0.49558639368750335	-0.17953906882395576
-0.49552535853125335	-0.18604976291547742
-0.49546432337500335	-0.19250726177022512
-0.49540328821875335	-0.198949449000232
-0.49534225306250335	-0.20538717130783551
-0.49528121790625335	-0.21177814581477467
-0.49522018275000335	-0.21811394735437767
-0.49515914759375335	-0.22443741688995356
-0.49509811243750335	-0.23075176145682433
-0.49503707728125335	-0.23700994880364437
-0.49497604212500335	-0.24320921567325968
-0.49491500696875335	-0.24939654591733243
-0.49485397181250335	-0.2555709947032284
-0.49479293665625335	-0.2616818650704036
-0.49473190150000335	-0.26772908929184674
-0.49467086634375335	-0.2737628816355031
-0.49460983118750335	-0.2797814379187279
-0.49454879603125335	-0.28573182016048515
-0.49448776087500335	-0.2916130770565522
-0.49442672571875335	-0.29747641237980266
-0.49436569056250335	-0.3033223643522475
-0.49430465540625335	-0.3090984846610086
-0.49424362025000335	-0.31480068467871697
-0.49418258509375335	-0.32047817052676897
-0.49412154993750335	-0.32613491692017327
-0.49406051478125335	-0.3317221050155977
-0.49399947962500335	-0.33723250571189256
-0.49393844446875335	-0.3427104138538886
-0.49387740931250335	-0.3481624313284065
-0.49381637415625335	-0.3535456195015691
-0.49375533900000335	-0.35885090520391116
-0.49369430384375335	-0.3641162309139212
-0.49363326868750335	-0.3693494940678127
-0.49357223353125335	-0.37451485917613764
-0.49351119837500335	-0.37960286428887563
-0.49345016321875335	-0.3846436108105572
-0.49338912806250335	-0.38964389707212554
-0.49332809290625335	-0.39457576875240247
-0.49326705775000335	-0.39943245192811394
-0.49320602259375335	-0.40423702369408154
-0.49314498743750335	-0.4089929463334301
-0.49308395228125335	-0.41367880206467994
-0.49302291712500335	-0.4182916830328841
-0.49296188196875335	-0.4228486048088103
-0.49290084681250335	-0.427348528386973
-0.49283981165625335	-0.43177522351952446
-0.49277877650000335	-0.43613085151473246
-0.49271774134375335	-0.44042859110002414
-0.49265670618750335	-0.4446624757287429
-0.49259567103125335	-0.44881928130852816
-0.49253463587500335	-0.4529060128854064
-0.49247360071875335	-0.4569335560148378
-0.49241256556250335	-0.4608911613800191
-0.49235153040625335	-0.4647671144677602
-0.49229049525000335	-0.4685731776281416
-0.49222946009375335	-0.4723199622978534
-0.49216842493750335	-0.475992565780728
-0.49210738978125335	-0.4795786120863166
-0.49204635462500335	-0.48309326171335637
-0.49198531946875335	-0.4865484616812669
-0.49192428431250335	-0.4899269247503382
-0.49186324915625335	-0.49321473762251217
-0.49180221400000335	-0.4964286197877212
-0.49174117884375335	-0.4995822930981711
-0.49168014368750335	-0.5026578682241903
-0.49161910853125335	-0.5056397890669118
-0.49155807337500335	-0.5085446974694062
-0.49149703821875335	-0.5113878512500392
-0.49143600306250335	-0.5141522973316045
-0.49137496790625335	-0.5168214230714171
-0.49131393275000335	-0.5194103341481234
-0.49125289759375335	-0.5219348661939454
-0.49119186243750335	-0.5243801833115541
-0.49113082728125335	-0.5267298425476656
-0.49106979212500335	-0.5289966128778233
-0.49100875696875335	-0.5311955606959349
-0.49094772181250335	-0.5333144261640436
-0.49088668665625335	-0.535338344309452
-0.49082565150000335	-0.5372777332396382
-0.49076461634375335	-0.5391456212614445
-0.49070358118750335	-0.540931910955502
-0.49064254603125335	-0.5426242284731186
-0.49058151087500335	-0.5442312021878829
-0.49052047571875335	-0.5457631984944056
-0.49045944056250335	-0.5472117459660993
-0.49039840540625335	-0.5485674964470295
-0.49033737025000335	-0.5498379089096694
-0.49027633509375335	-0.5510302729555212
-0.49021529993750335	-0.5521370204036269
-0.49015426478125335	-0.5531520294216796
-0.49009322962500335	-0.5540823098177755
-0.49003219446875335	-0.5549320699398078
-0.48997115931250335	-0.5556939551522783
-0.48991012415625335	-0.5563648800062391
-0.48984908900000335	-0.5569520182043732
-0.48978805384375335	-0.5574569009412929
-0.48972701868750335	-0.557871934695208
-0.48966598353125335	-0.5581964672475646
-0.48960494837500335	-0.5584381531976644
-0.48954391321875335	-0.558596599457098
-0.48948287806250335	-0.5586637243515502
-0.48942184290625335	-0.5586405367894853
-0.48936080775000335	-0.5585353702329581
-0.48929977259375335	-0.5583466319375665
-0.48923873743750335	-0.5580656767726203
-0.48917770228125335	-0.5576944586327429
-0.48911666712500335	-0.5572418769859077
-0.48905563196875335	-0.5567058901637839
-0.48899459681250335	-0.5560775800946848
-0.48893356165625335	-0.5553591129372667
-0.48887252650000335	-0.554559551873103
-0.48881149134375335	-0.5536769174585884
-0.48875045618750335	-0.5527024227118817
-0.48868942103125335	-0.551638238587733
-0.48862838587500335	-0.5504931989357587
-0.48856735071875335	-0.5492654580868279
-0.48850631556250335	-0.5479468034755304
-0.48844528040625335	-0.5465393862568441
-0.48838424525000335	-0.5450514615724967
-0.48832321009375335	-0.5434813145414186
-0.48826217493750335	-0.5418214124563134
-0.48820113978125335	-0.5400738645235429
-0.48814010462500335	-0.5382463277267275
-0.48807906946875335	-0.5363371603643579
-0.48801803431250335	-0.534339609215445
-0.48795699915625335	-0.5322559348748036
-0.48789596400000335	-0.5300929929932685
-0.48783492884375335	-0.5278489618916496
-0.48777389368750335	-0.5255181424754398
-0.48771285853125335	-0.5231033457446781
-0.48765182337500335	-0.520610506484985
-0.48759078821875335	-0.5180371134577384
-0.48752975306250335	-0.5153783246760225
-0.48746871790625335	-0.5126377547317374
-0.48740768275000335	-0.509820664845146
-0.48734664759375335	-0.5069239308491743
-0.48728561243750335	-0.5039434405906678
-0.48722457728125335	-0.5008834824216656
-0.48716354212500335	-0.4977487718731587
-0.48710250696875335	-0.4945356515144115
-0.48704147181250335	-0.49124068569390383
-0.48698043665625335	-0.48786879669242167
-0.48691940150000335	-0.4844240070712353
-0.48685836634375335	-0.48090205475936404
-0.48679733118750335	-0.4773003327841631
-0.48673629603125335	-0.473624497174117
-0.48667526087500335	-0.469877912406616
-0.48661422571875335	-0.46605574378030384
-0.48655319056250335	-0.4621560177803103
-0.48649215540625335	-0.45818492598243954
-0.48643112025000335	-0.45414533387711964
-0.48637008509375335	-0.4500321123247858
-0.48630904993750335	-0.44584400645864497
-0.48624801478125335	-0.4415875275600495
-0.48618697962500335	-0.4372647349305447
-0.48612594446875335	-0.4328702357602946
-0.48606490931250335	-0.4284037375737361
-0.48600387415625335	-0.42387212740123176
-0.48594283900000335	-0.4192766733988706
-0.48588180384375335	-0.4146118770031966
-0.48582076868750335	-0.40987829556265054
-0.48575973353125335	-0.4050827519285169
-0.48569869837500335	-0.40022561697442616
-0.48563766321875335	-0.3953014313968789
-0.48557662806250335	-0.39031165643683874
-0.48551559290625335	-0.38526347044454656
-0.48545455775000335	-0.3801568955598464
-0.48539352259375335	-0.3749863007066135
-0.48533248743750335	-0.3697531630324957
-0.48527145228125335	-0.3644644023569862
-0.48521041712500335	-0.35912008091343695
-0.48514938196875335	-0.3537153194368713
-0.48508834681250335	-0.3482520113810767
-0.48502731165625335	-0.34273648555011077
-0.48496627650000335	-0.3371682337279179
-0.48490524134375335	-0.3315426998162669
-0.48484420618750335	-0.32586220964434576
-0.48478317103125335	-0.32013283410144117
-0.48472213587500335	-0.3143538391320753
-0.48466110071875335	-0.30852111125266973
-0.48460006556250335	-0.30263736181690404
-0.48453903040625335	-0.29670839248906344
-0.48447799525000335	-0.29073317012424477
-0.48441696009375335	-0.28470795503696117
-0.48435592493750335	-0.2786359463359327
-0.48429488978125335	-0.27252261243864906
-0.48423385462500335	-0.2663663307449468
-0.48417281946875335	-0.2601635764406764
-0.48411178431250335	-0.25391795149906515
-0.48405074915625335	-0.2476346398328752
-0.48398971400000335	-0.24131178584883803
-0.48392867884375335	-0.23494649739401977
-0.48386764368750335	-0.22854303028275877
-0.48380660853125335	-0.2221060598964267
-0.48374557337500335	-0.21563292692232036
-0.48368453821875335	-0.20912110061304778
-0.48362350306250335	-0.2025755561102311
-0.48356246790625335	-0.1960006859342476
-0.48350143275000335	-0.18939323709311098
-0.48344039759375335	-0.18275107738677224
-0.48337936243750335	-0.17607985129186984
-0.48331832728125335	-0.1693834301906165
-0.48325729212500335	-0.16265787814969163
-0.48319625696875335	-0.1559018088349012
-0.48313522181250335	-0.149121690333592
-0.48307418665625335	-0.14232068614277035
-0.48301315150000335	-0.13549404987823177
-0.48295211634375335	-0.12864106420050173
-0.48289108118750335	-0.12176893580860455
-0.48283004603125335	-0.11488020368275281
-0.48276901087500335	-0.10796963895689468
-0.48270797571875335	-0.10103718786707454
-0.48264694056250335	-0.09409019638810917
-0.48258590540625335	-0.08713048153121271
-0.48252487025000335	-0.08015297994771801
-0.48246383509375335	-0.07315841102616029
-0.48240279993750335	-0.066153918972728
-0.48234176478125335	-0.05914073397482261
-0.48228072962500335	-0.052114014856098505
-0.48221969446875335	-0.04507495829415898
-0.48215865931250335	-0.03803059904513515
-0.48209762415625335	-0.03098181002170971
-0.48203658900000335	-0.023923811553988292
-0.48197555384375335	-0.016858173884663957
-0.48191451868750335	-0.009791949936705626
-0.48185348353125335	-0.0027254995428710703
-0.48179244837500335	0.004346219437332112
-0.48173141321875335	0.011421229617521638
-0.48167037806250335	0.01849225736844134
-0.48160934290625335	0.025559258827701173
-0.48154830775000335	0.032627143161036605
-0.48148727259375335	0.03969320467767169
-0.48142623743750335	0.04675015988066622
-0.48136520228125335	0.05379902537258861
-0.48130416712500335	0.060845293459150115
-0.48124313196875335	0.0678853888372898
-0.48118209681250335	0.07491115932132085
-0.48112106165625335	0.08192411469749572
-0.48106002650000335	0.08893022019572855
-0.48099899134375335	0.09592529073618399
-0.48093795618750335	0.1029013499181727
-0.48087692103125335	0.109861313578973
-0.48081588587500335	0.11681097916695371
-0.48075485071875335	0.12374430219184042
-0.48069381556250335	0.13065310487518028
-0.48063278040625335	0.13754183749768156
-0.48057174525000335	0.14441646909260492
-0.48051071009375335	0.15126983969940205
-0.48044967493750335	0.15809407453211183
-0.48038863978125335	0.1648948970764958
-0.48032760462500335	0.171677576515715
-0.48026656946875335	0.17843319123739154
-0.48020553431250335	0.1851547185117814
-0.48014449915625335	0.19184994935670718
-0.48008346400000335	0.1985233629634969
-0.48002242884375335	0.2051642223519618
-0.47996139368750335	0.21176653570356088
-0.47990035853125335	0.2183397258015583
-0.47983932337500335	0.2248869178295974
-0.47977828821875335	0.2313957722512786
-0.47971725306250335	0.2378617893527418
-0.47965621790625335	0.2442958533660292
-0.47959518275000335	0.2506996394690234
-0.47953414759375335	0.2570597900544837
-0.47947311243750335	0.2633735436733197
-0.47941207728125335	0.2696526031807458
-0.47935104212500335	0.2758966446974029
-0.47929000696875335	0.2820915247364374
-0.47922897181250335	0.2882364791541768
-0.47916793665625335	0.2943440546103913
-0.47910690150000335	0.30041230197617624
-0.47904586634375335	0.30642643495959176
-0.47898483118750335	0.31238729002857896
-0.47892379603125335	0.31830798857226333
-0.47886276087500335	0.32418476633247945
-0.47880172571875335	0.33000230462133584
-0.47874069056250335	0.3357635143567387
-0.47867965540625335	0.3414821250518243
-0.47861862025000335	0.3471523745395415
-0.47855758509375335	0.3527584602966678
-0.47849654993750335	0.35830537994471734
-0.47843551478125335	0.3638072690587544
-0.47837447962500335	0.36925605395600275
-0.47831344446875335	0.3746356214937676
-0.47825240931250335	0.3799537241774695
-0.47819137415625335	0.38522509669328636
-0.47813033900000335	0.3904388753706501
-0.47806930384375335	0.3955783564942056
-0.47800826868750335	0.40065416707905643
-0.47794723353125335	0.4056813996937039
-0.47788619837500335	0.410646091670668
-0.47782516321875335	0.41553147802053747
-0.47776412806250335	0.4203517389468774
-0.47770309290625335	0.42512210465984707
-0.47764205775000335	0.4298249437993764
-0.47758102259375335	0.4344435192038365
-0.47751998743750335	0.43899591501254603
-0.47745895228125335	0.4434972554037044
-0.47739791712500335	0.44792597136383566
-0.47733688196875335	0.4522656516231566
-0.47727584681250335	0.45653837477413145
-0.47721481165625335	0.4607587978343512
-0.47715377650000335	0.4649014113982947
-0.47709274134375335	0.4689505738146414
-0.47703170618750335	0.47293251484448734
-0.47697067103125335	0.4768612253140904
-0.47690963587500335	0.4807072470510411
-0.47684860071875335	0.48445558329643335
-0.47678756556250335	0.4881362047614528
-0.47672653040625335	0.49176263901741263
-0.47666549525000335	0.49530199479659953
-0.47660446009375335	0.49873961730721994
-0.47654342493750335	0.5021087681057901
-0.47648238978125335	0.5054230902001573
-0.47642135462500335	0.5086469134474915
-0.47636031946875335	0.511765180719249
-0.47629928431250335	0.5148136033462749
-0.47623824915625335	0.5178067374441744
-0.47617721400000335	0.5207067299572331
-0.47611617884375335	0.5234971272189277
-0.47605514368750335	0.5262160735932088
-0.47599410853125335	0.528880573084799
-0.47593307337500335	0.5314502948138707
-0.47587203821875335	0.5339052592912942
-0.47581100306250335	0.5362861958884293
-0.47574996790625335	0.5386148185628086
-0.47568893275000335	0.5408481239252251
-0.47562789759375335	0.5429605278965025
-0.47556686243750335	0.544996054174767
-0.47550582728125335	0.5469831710775526
-0.47544479212500335	0.5488751027658937
-0.47538375696875335	0.5506386329629275
-0.47532272181250335	0.5523221896411844
-0.47526168665625335	0.5539628742322243
-0.47520065150000335	0.5555091604560194
-0.47513961634375335	0.5569184930663675
-0.47507858118750335	0.5582444524297571
-0.47501754603125335	0.5595342443350417
-0.47495651087500335	0.5607313121485318
-0.47489547571875335	0.5617827900784043
-0.47483444056250335	0.5627470910943936
-0.47477340540625335	0.5636816422529903
-0.47471237025000335	0.5645256911006336
-0.47465133509375335	0.565217136038416
-0.47459029993750335	0.565817967077903
-0.47452926478125335	0.5663933402313867
-0.47446822962500335	0.5668799958842817
-0.47440719446875335	0.5672104638643553
-0.47434615931250335	0.5674481426960906
-0.47428512415625335	0.567660972821134
-0.47422408900000335	0.5677858883232508
-0.47416305384375335	0.5677558636186874
-0.47410201868750335	0.567632652726314
-0.47404098353125335	0.5674804937781094
-0.47397994837500335	0.5672394299395893
-0.47391891321875335	0.5668495192255711
-0.47385787806250335	0.5663685142322727
-0.47379684290625335	0.5658508518157759
-0.47373580775000335	0.5652414124145085
-0.47367477259375335	0.5644924511844261
-0.47361373743750335	0.5636565695753184
-0.47355270228125335	0.5627743935409433
-0.47349166712500335	0.5617961160072097
-0.47343063196875335	0.5606890718613238
-0.47336959681250335	0.5595009365317026
-0.47330856165625335	0.5582567842390209
-0.47324752650000335	0.5569114113653486
-0.47318649134375335	0.5554479742749655
-0.47312545618750335	0.5539103320533364
-0.47306442103125335	0.5523080734559681
-0.47300338587500335	0.5505989102278148
-0.47294235071875335	0.5487809256217708
-0.47288131556250335	0.5468964192423721
-0.47282028040625335	0.5449412641355849
-0.47275924525000335	0.5428735409519783
-0.47269821009375335	0.5407037251483091
-0.47263717493750335	0.5384751463445109
-0.47257613978125335	0.5361732110295631
-0.47251510462500335	0.533754009759755
-0.47245406946875335	0.5312364958750156
-0.47239303431250335	0.5286667638455578
-0.47233199915625335	0.5260239767371003
-0.47227096400000335	0.5232612874388946
-0.47220992884375335	0.5204019512662367
-0.47214889368750335	0.517495148794283
-0.47208785853125335	0.5145179707801765
-0.47202682337500335	0.5114207508413949
-0.47196578821875335	0.5082267203924907
-0.47190475306250335	0.5049875804359091
-0.47184371790625335	0.5016826055128409
-0.47178268275000335	0.4982605051026758
-0.47172164759375335	0.4947407425388901
-0.47166061243750335	0.49117542930645147
-0.47159957728125335	0.48754891911424586
-0.47153854212500335	0.48381133065378007
-0.47147750696875335	0.4799765400919208
-0.47141647181250335	0.4760937146922897
-0.47135543665625335	0.4721530588972124
-0.47129440150000335	0.4681091820720437
-0.47123336634375335	0.46397040040010284
-0.47117233118750335	0.4597800597051076
-0.47111129603125335	0.45553336220169505
-0.47105026087500335	0.451192120775874
-0.47098922571875335	0.44676080265934975
-0.47092819056250335	0.4422746494944794
-0.47086715540625335	0.437731449587187
-0.47080612025000335	0.4331017961048586
-0.47074508509375335	0.42838921375815187
-0.47068404993750335	0.42362032435305264
-0.47062301478125335	0.4187927451744949
-0.47056197962500335	0.4138853919925957
-0.47050094446875335	0.4089028861548346
-0.47043990931250335	0.40386402691850265
-0.47037887415625335	0.39876449981209605
-0.47031783900000335	0.39359049722342465
