Time	Frequency
-0.5000350011562489	0.49999514713132315
-0.4999739659999989	0.5064634891251747
-0.4999129308437489	0.5127994682289709
-0.4998518956874989	0.5189940232642272
-0.4997908605312489	0.5250461010944152
-0.4997298253749989	0.530961340948282
-0.4996687902187489	0.5367407663999934
-0.4996077550624989	0.542377028252894
-0.4995467199062489	0.5478635163870966
-0.4994856847499989	0.5532019888001831
-0.4994246495937489	0.5583972544043754
-0.4993636144374989	0.5634475198243197
-0.4993025792812489	0.5683452481354987
-0.4992415441249989	0.5730867966525139
-0.4991805089687489	0.5776757720800697
-0.4991194738124989	0.5821152205072972
-0.4990584386562489	0.5864010451424969
-0.4989974034999989	0.5905267049261526
-0.4989363683437489	0.594491541563599
-0.4988753331874989	0.598299790708525
-0.4988142980312489	0.6019521677927945
-0.4987532628749989	0.6054432745979691
-0.4986922277187489	0.6087685878250079
-0.4986311925624989	0.61192989315317
-0.4985701574062489	0.6149308592294209
-0.4985091222499989	0.61776992714284
-0.4984480870937489	0.6204415819283862
-0.4983870519374989	0.6229437859393261
-0.4983260167812489	0.6252798707275636
-0.4982649816249989	0.6274520949276428
-0.4982039464687489	0.629457099157724
-0.4981429113124989	0.6312902872934705
-0.4980818761562489	0.6329521098778867
-0.4980208409999989	0.6344464171507721
-0.4979598058437489	0.6357735985585178
-0.4978987706874989	0.6369293113603212
-0.4978377355312489	0.6379107124959871
-0.4977767003749989	0.6387203409107134
-0.4977156652187489	0.6393615824620205
-0.4976546300624989	0.6398329130146132
-0.4975935949062489	0.6401299685611906
-0.4975325597499989	0.6402521293513602
-0.4974715245937489	0.6402032560948755
-0.4974104894374989	0.6399854766088714
-0.4973494542812489	0.6395958005261702
-0.4972884191249989	0.6390308193001495
-0.4972273839687489	0.6382920941388375
-0.4971663488124989	0.6373838300629644
-0.4971053136562489	0.6363065153360137
-0.4970442784999989	0.6350564708665767
-0.4969832433437489	0.6336319643483536
-0.4969222081874989	0.632036306399338
-0.4968611730312489	0.6302731500306942
-0.4968001378749989	0.6283413874639215
-0.4967391027187489	0.6262375654684242
-0.4966780675624989	0.6239619874972268
-0.4966170324062489	0.6215189825225892
-0.4965559972499989	0.6189109689083672
-0.4964949620937489	0.6161356161236581
-0.4964339269374989	0.6131904912363494
-0.4963728917812489	0.6100778914192527
-0.4963118566249989	0.6068023758250731
-0.4962508214687489	0.6033648791908284
-0.4961897863124989	0.5997625555636457
-0.4961287511562489	0.5959945651674134
-0.4960677159999989	0.5920647316480118
-0.4960066808437489	0.5879769635414159
-0.4959456456874989	0.5837306993468113
-0.4958846105312489	0.5793234679015423
-0.4958235753749989	0.5747564569611459
-0.4957625402187489	0.5700343667808743
-0.4957015050624989	0.5651598445658202
-0.4956404699062489	0.5601312478363937
-0.4955794347499989	0.5549471851119069
-0.4955183995937489	0.5496106700829961
-0.4954573644374989	0.5441264186575185
-0.4953963292812489	0.5384955899069863
-0.4953352941249989	0.5327162121557498
-0.4952742589687489	0.5267885529784082
-0.4952132238124989	0.5207169768323394
-0.4951521886562489	0.5145054355294859
-0.4950911534999989	0.5081537269152832
-0.4950301183437489	0.5016603795027715
-0.4949690831874989	0.4950275774070462
-0.4949080480312489	0.4882603469850089
-0.4948470128749989	0.48136130186674764
-0.4947859777187489	0.4743292635702405
-0.4947249425624989	0.4671639409114095
-0.4946639074062489	0.4598692915555651
-0.4946028722499989	0.452450220722926
-0.4945418370937489	0.4449077766247189
-0.4944808019374989	0.4372404997811298
-0.4944197667812489	0.42944984681960885
-0.4943587316249989	0.42154105679392284
-0.4942976964687489	0.4135180619798637
-0.4942366613124989	0.4053805093572107
-0.4941756261562489	0.3971276073550006
-0.4941145909999989	0.3887627415310657
-0.4940535558437489	0.3802915664047744
-0.4939925206874989	0.3717165016489127
-0.4939314855312489	0.36303632076845604
-0.4938704503749989	0.354251603773907
-0.4938094152187489	0.3453675028586094
-0.4937483800624989	0.3363893543538719
-0.4936873449062489	0.327317894376052
-0.4936263097499989	0.31815167054124777
-0.4935652745937489	0.3088930289545943
-0.4935042394374989	0.2995482459367369
-0.4934432042812489	0.2901214890752142
-0.4933821691249989	0.28061206271928585
-0.4933211339687489	0.2710193629680785
-0.4932600988124989	0.26134786037922714
-0.4931990636562489	0.2516041572115118
-0.4931380284999989	0.2417905674645542
-0.4930769933437489	0.23190538357420115
-0.4930159581874989	0.22194957033895843
-0.4929549230312489	0.21192938848209847
-0.4928938878749989	0.20185073265142672
-0.4928328527187489	0.1917139702095227
-0.4927718175624989	0.18151744652255564
-0.4927107824062489	0.17126431455286734
-0.4926497472499989	0.1609619445376142
-0.4925887120937489	0.15061463604298833
-0.4925276769374989	0.14022101088745717
-0.4924666417812489	0.1297803987171153
-0.4924056066249989	0.1192982972197763
-0.4923445714687489	0.10878215322977106
-0.4922835363124989	0.09823395584134881
-0.4922225011562489	0.08765133448335119
-0.4921614659999989	0.07703562952505234
-0.4921004308437489	0.06639436568486481
-0.4920393956874989	0.0557340196602492
-0.4919783605312489	0.04505417014962037
-0.4919173253749989	0.03435237677561097
-0.4918562902187489	0.023632487145083262
-0.4917952550624989	0.012903282604915042
-0.4917342199062489	0.0021692207386257486
-0.4916731847499989	-0.008572306101799166
-0.4916121495937489	-0.01932257046761895
-0.4915511144374989	-0.030074882822234368
-0.4914900792812489	-0.040820399026419235
-0.4914290441249989	-0.05155758667734297
-0.4913680089687489	-0.06229034075405467
-0.4913069738124989	-0.07301737109265932
-0.4912459386562489	-0.08372950606503518
-0.4911849034999989	-0.09441945783464893
-0.4911238683437489	-0.10508897044800435
-0.4910628331874989	-0.11574193312656421
-0.4910017980312489	-0.12637379225839404
-0.4909407628749989	-0.1369738680544235
-0.4908797277187489	-0.1475375180022159
-0.4908186925624989	-0.15806928237527734
-0.4907576574062489	-0.16857155275519636
-0.4906966222499989	-0.17903618359529896
-0.4906355870937489	-0.18945255456827995
-0.4905745519374989	-0.199819914623597
-0.4905135167812489	-0.21014458545095074
-0.4904524816249989	-0.2204258366538951
-0.4903914464687489	-0.23065233397850507
-0.4903304113124989	-0.24081526101254352
-0.4902693761562489	-0.2509180676104456
-0.4902083409999989	-0.2609672465792476
-0.4901473058437489	-0.2709578497160751
-0.4900862706874989	-0.28087644452305566
-0.4900252355312489	-0.29071771639157706
-0.4899642003749989	-0.3004890858344266
-0.4899031652187489	-0.3101954097247386
-0.4898421300624989	-0.3198270269975414
-0.4897810949062489	-0.329370250680014
-0.4897200597499989	-0.3388247232105247
-0.4896590245937489	-0.3482005039622788
-0.4895979894374989	-0.35749865483172283
-0.4895369542812489	-0.36670519282344205
-0.4894759191249989	-0.3758084459288306
-0.4894148839687489	-0.38481358195232723
-0.4893538488124989	-0.3937313853413021
-0.4892928136562489	-0.402557744352288
-0.4892317784999989	-0.4112756480600758
-0.4891707433437489	-0.4198775542568916
-0.4891097081874989	-0.42837391610835834
-0.4890486730312489	-0.4367738955288787
-0.4889876378749989	-0.44506731739834265
-0.4889266027187489	-0.453236209367868
-0.4888655675624989	-0.461279103925503
-0.4888045324062489	-0.4692106023229693
-0.4887434972499989	-0.47703583065586513
-0.4886824620937489	-0.4847386443436579
-0.4886214269374989	-0.4923026024386758
-0.4885603917812489	-0.4997333476813386
-0.4884993566249989	-0.5070474888593103
-0.4884383214687489	-0.5142439144739303
-0.4883772863124989	-0.5213016076746158
-0.4883162511562489	-0.528208550630467
-0.4882552159999989	-0.5349779189723398
-0.4881941808437489	-0.5416256632470575
-0.4881331456874989	-0.5481427882370151
-0.4880721105312489	-0.5545054154671207
-0.4880110753749989	-0.5607085860752821
-0.4879500402187489	-0.5667721540299674
-0.4878890050624989	-0.572708321945814
-0.4878279699062489	-0.5784996085163028
-0.4877669347499989	-0.5841221000091477
-0.4877058995937489	-0.5895799372461435
-0.4876448644374989	-0.5948978288411705
-0.4875838292812489	-0.6000811959766871
-0.4875227941249989	-0.6051044235847007
-0.4874617589687489	-0.6099469441625275
-0.4874007238124989	-0.6146233910575051
-0.4873396886562489	-0.6191605083052085
-0.4872786534999989	-0.6235540085111231
-0.4872176183437489	-0.6277716006143489
-0.4871565831874989	-0.6317999235914211
-0.4870955480312489	-0.6356645585595088
-0.4870345128749989	-0.6393905041332955
-0.4869734777187489	-0.6429614745908143
-0.4869124425624989	-0.646341338990047
-0.4868514074062489	-0.6495277035447307
-0.4867903722499989	-0.6525559868399322
-0.4867293370937489	-0.6554449625995424
-0.4866683019374989	-0.6581652862587509
-0.4866072667812489	-0.6606811760746903
-0.4865462316249989	-0.6630044063823497
-0.4864851964687489	-0.6651774042330908
-0.4864241613124989	-0.6672079755315543
-0.4863631261562489	-0.6690544036523294
-0.4863020909999989	-0.6706865768143729
-0.4862410558437489	-0.672132293101342
-0.4861800206874989	-0.6734363587595339
-0.4861189855312489	-0.6745915041611967
-0.4860579503749989	-0.675546497378857
-0.4859969152187489	-0.6762824777895047
-0.4859358800624989	-0.6768428891865482
-0.4858748449062489	-0.6772689492589157
-0.4858138097499989	-0.6775359909607861
-0.4857527745937489	-0.6775884405750449
-0.4856917394374989	-0.6774234713627422
-0.4856307042812489	-0.6770969725458618
-0.4855696691249989	-0.6766401320849003
-0.4855086339687489	-0.676011235444
-0.4854475988124989	-0.6751572022843781
-0.4853865636562489	-0.6740940422470124
-0.4853255284999989	-0.6728843256572805
-0.4852644933437489	-0.6715437011662089
-0.4852034581874989	-0.6700168774902785
-0.4851424230312489	-0.6682604912667134
-0.4850813878749989	-0.6663089981724053
-0.4850203527187489	-0.664224028583751
-0.4849593175624989	-0.6620026920106026
-0.4848982824062489	-0.659582578540345
-0.4848372472499989	-0.6569360501197757
-0.4847762120937489	-0.6541122255239096
-0.4847151769374989	-0.6511640038318907
-0.4846541417812489	-0.6480701977673597
-0.4845931066249989	-0.644769180036169
-0.4845320714687489	-0.6412522823270201
-0.4844710363124989	-0.6375767856352051
-0.4844100011562489	-0.633780774117503
-0.4843489659999989	-0.6298285817756817
-0.4842879308437489	-0.6256670647972926
-0.4842268956874989	-0.6213061608153777
-0.4841658605312489	-0.6168035886662757
-0.4841048253749989	-0.6121795309668429
-0.4840437902187489	-0.6073900292531736
-0.4839827550624989	-0.6023961798740858
-0.4839217199062489	-0.5972230209672906
-0.4838606847499989	-0.5919215611613161
-0.4837996495937489	-0.5864943332138199
-0.4837386144374989	-0.5808960810864174
-0.4836775792812489	-0.5751049071420828
-0.4836165441249989	-0.5691553387589955
-0.4835555089687489	-0.5630865742502374
-0.4834944738124989	-0.5568868231355172
-0.4834334386562489	-0.5505159418571561
-0.4833724034999989	-0.5439685023939557
-0.4833113683437489	-0.5372820275950461
-0.4832503331874989	-0.5304815439752666
-0.4831892980312489	-0.5235460728406193
-0.4831282628749989	-0.5164451458557717
-0.4830672277187489	-0.5091870043014699
-0.4830061925624989	-0.5018065247517061
-0.4829451574062489	-0.4943146944410003
-0.4828841222499989	-0.48668692676048564
-0.4828230870937489	-0.47890482469162327
-0.4827620519374989	-0.4709858131560146
-0.4827010167812489	-0.4629576509036601
-0.4826399816249989	-0.4548195909682445
-0.4825789464687489	-0.44654875804929706
-0.4825179113124989	-0.43813899616436147
-0.4824568761562489	-0.42961195729074014
-0.4823958409999989	-0.4209859022339977
-0.4823348058437489	-0.4122520230573062
-0.4822737706874989	-0.4033931420850665
-0.4822127355312489	-0.39441355410513296
-0.4821517003749989	-0.38533441757716
-0.4820906652187489	-0.3761641371549435
-0.4820296300624989	-0.3668901724573295
-0.4819685949062489	-0.3575031887232069
-0.4819075597499989	-0.34801473650047476
-0.4818465245937489	-0.3384419775782391
-0.4817854894374989	-0.32878482622604444
-0.4817244542812489	-0.3190309787306917
-0.4816634191249989	-0.30917955135990377
-0.4816023839687489	-0.299245866911965
-0.4815413488124989	-0.28924086972033203
-0.4814803136562489	-0.27915824362368985
-0.4814192784999989	-0.26898902843085504
-0.4813582433437489	-0.2587400112975112
-0.4812972081874989	-0.2484269624715604
-0.4812361730312489	-0.23805386541959472
-0.4811751378749989	-0.22761100055695943
-0.4811141027187489	-0.21709470480023269
-0.4810530675624989	-0.20651755641274508
-0.4809920324062489	-0.19589289385666575
-0.4809309972499989	-0.1852180979619725
-0.4808699620937489	-0.17448303620705602
-0.4808089269374989	-0.16369040701872786
-0.4807478917812489	-0.15285609817228557
-0.4806868566249989	-0.1419889480871933
-0.4806258214687489	-0.13108135008438337
-0.4805647863124989	-0.12012539672058999
-0.4805037511562489	-0.10912967694958788
-0.4804427159999989	-0.09811064049351541
-0.4803816808437489	-0.08707172508963686
-0.4803206456874989	-0.07600244958846895
-0.4802596105312489	-0.0648989712611758
-0.4801985753749989	-0.053774541932990964
-0.4801375402187489	-0.042643745778028395
-0.4800765050624989	-0.03150470964970765
-0.4800154699062489	-0.020346547973486305
-0.4799544347499989	-0.009170477433223823
-0.4798933995937489	0.0020076399769084863
-0.4798323644374989	0.013176938236577953
-0.4797713292812489	0.024343424248008224
-0.4797102941249989	0.03551623138052759
-0.4796492589687489	0.046689314571665586
-0.4795882238124989	0.05784631565906242
-0.4795271886562489	0.06898088990774437
-0.4794661534999989	0.08010156847663703
-0.4794051183437489	0.09121412233522537
-0.4793440831874989	0.10230845598546046
-0.4792830480312489	0.11336972865213067
-0.4792220128749989	0.12439635867263273
-0.4791609777187489	0.13539755957827698
-0.4790999425624989	0.14637472323964953
-0.4790389074062489	0.1573151752364454
-0.4789778722499989	0.16820728122412346
-0.4789168370937489	0.1790534839702977
-0.4788558019374989	0.18986178250119065
-0.4787947667812489	0.20062919941666157
-0.4787337316249989	0.21134230154888062
-0.4786726964687489	0.2219933920246921
-0.4786116613124989	0.2325875133152101
-0.4785506261562489	0.24313010042761862
-0.4784895909999989	0.25361457937314386
-0.4784285558437489	0.26402849547253415
-0.4783675206874989	0.27436821199746475
-0.4783064855312489	0.28463978971077
-0.4782454503749989	0.29484530120406854
-0.4781844152187489	0.30497576549584515
-0.4781233800624989	0.31502100606445776
-0.4780623449062489	0.3249808469328752
-0.4780013097499989	0.3348608204671785
-0.4779402745937489	0.3446595503569807
-0.4778792394374989	0.35436716728220374
-0.4778182042812489	0.3639766636509237
-0.4777571691249989	0.3734904180780273
-0.4776961339687489	0.3829122367572874
-0.4776350988124989	0.39223766109287117
-0.4775740636562489	0.40145726381473285
-0.4775130284999989	0.41056731137690966
-0.4774519933437489	0.4195713746941917
-0.4773909581874989	0.4284708743075725
-0.4773299230312489	0.4372593393210318
-0.4772688878749989	0.4459289399864355
-0.4772078527187489	0.45447885039564245
-0.4771468175624989	0.46291261641165643
-0.4770857824062489	0.471228991325613
-0.4770247472499989	0.4794205624161702
-0.4769637120937489	0.4874819815015161
-0.4769026769374989	0.49541470728371245
-0.4768416417812489	0.5032210928244992
-0.4767806066249989	0.5108973792609373
-0.4767195714687489	0.5184364340096798
-0.4766585363124989	0.5258356593891653
-0.4765975011562489	0.533097693674379
-0.4765364659999989	0.5402230669527311
-0.4764754308437489	0.5472064254130402
-0.4764143956874989	0.5540420251560417
-0.4763533605312489	0.560729698009192
-0.4762923253749989	0.5672720588150908
-0.4762312902187489	0.5736675257619993
-0.4761702550624989	0.5799101035462565
-0.4761092199062489	0.5859961350945954
-0.4760481847499989	0.5919273288544559
-0.4759871495937489	0.5977053828735363
-0.4759261144374989	0.6033267709152321
-0.4758650792812489	0.6087858470454961
-0.4758040441249989	0.6140812980164588
-0.4757430089687489	0.61921580713548
-0.4756819738124989	0.6241895229702658
-0.4756209386562489	0.6289976475770908
-0.4755599034999989	0.6336358909202906
-0.4754988683437489	0.638105132716763
-0.4754378331874989	0.6424079994551354
-0.4753767980312489	0.6465428018327158
-0.4753157628749989	0.6505043246075314
-0.4752547277187489	0.6542902132759219
-0.4751936925624989	0.6579029500219807
-0.4751326574062489	0.6613443214589124
-0.4750716222499989	0.6646110678604988
-0.4750105870937489	0.6676985083430549
-0.4749495519374989	0.6706064189547513
-0.4748885167812489	0.6733379938756999
-0.4748274816249989	0.6758935861172389
-0.4747664464687489	0.6782690045141976
-0.4747054113124989	0.680460952176807
-0.4746443761562489	0.6824710903213526
-0.4745833409999989	0.6843024408131918
-0.4745223058437489	0.6859537929820648
-0.4744612706874989	0.6874208132751177
-0.4744002355312489	0.6887020666035422
-0.4743392003749989	0.6898005553611748
-0.4742781652187489	0.6907184273072184
-0.4742171300624989	0.6914531411971625
-0.4741560949062489	0.6920010412529563
-0.4740950597499989	0.6923626985270851
-0.4740340245937489	0.6925416797427097
-0.4739729894374989	0.6925387475733062
-0.4739119542812489	0.6923505932486531
-0.4738509191249989	0.691975014347158
-0.4737898839687489	0.6914143729492108
-0.4737288488124989	0.6906719558985209
-0.4736678136562489	0.6897470171396007
-0.4736067784999989	0.6886362651383146
-0.4735457433437489	0.6873393729337479
-0.4734847081874989	0.6858598569260673
-0.4734236730312489	0.6842000351772332
-0.4733626378749989	0.6823580088020392
-0.4733016027187489	0.6803313508378092
-0.4732405675624989	0.678121652003
-0.4731795324062489	0.6757327723999346
-0.4731184972499989	0.6731656200172963
-0.4730574620937489	0.6704177192034667
-0.4729964269374989	0.6674881968348836
-0.4729353917812489	0.6643802925003496
-0.4728743566249989	0.6610974412244076
-0.4728133214687489	0.6576391093002028
-0.4727522863124989	0.6540029838130533
-0.4726912511562489	0.6501900870431229
-0.4726302159999989	0.646204693926446
-0.4725691808437489	0.6420491393714625
-0.4725081456874989	0.6377217559754338
-0.4724471105312489	0.6332212552259107
-0.4723860753749989	0.6285506100190894
-0.4723250402187489	0.6237142357951284
-0.4722640050624989	0.6187129280021693
-0.4722029699062489	0.6135445897500098
-0.4721419347499989	0.6082096220466658
-0.4720808995937489	0.602712513761368
-0.4720198644374989	0.597057060834356
-0.4719588292812489	0.591242643088288
-0.4718977941249989	0.5852675064171495
-0.4718367589687489	0.5791339981594252
-0.4717757238124989	0.5728474627295524
-0.4717146886562489	0.5664104008857176
-0.4716536534999989	0.5598210676497758
-0.4715926183437489	0.5530788860781964
-0.4715315831874989	0.5461882249723213
-0.4714705480312489	0.5391544437687875
-0.4714095128749989	0.5319783235360084
-0.4713484777187489	0.5246577141857377
-0.4712874425624989	0.5171939394390521
-0.4712264074062489	0.5095928926069466
-0.4711653722499989	0.501858958289204
-0.4711043370937489	0.4939912321026429
-0.4710433019374989	0.4859880837117335
-0.4709822667812489	0.47785305484179674
-0.4709212316249989	0.46959280079194066
-0.4708601964687489	0.46121012546687207
-0.4707991613124989	0.45270300518471274
-0.4707381261562489	0.4440712780242032
-0.4706770909999989	0.43532056701544064
-0.4706160558437489	0.42645714767052
-0.4705550206874989	0.4174816981331975
-0.4704939855312489	0.4083918646870855
-0.4704329503749989	0.39918978292595064
-0.4703719152187489	0.3898827011976235
-0.4703108800624989	0.3804755649835111
-0.4702498449062489	0.37096710405387806
-0.4701888097499989	0.3613556790759655
-0.4701277745937489	0.35164596701162687
-0.4700667394374989	0.34184594168362686
-0.4700057042812489	0.3319585050009834
-0.4699446691249989	0.3219808246595035
-0.4698836339687489	0.31191280960178985
-0.4698225988124989	0.3017616351373934
-0.4697615636562489	0.2915349279387209
-0.4697005284999989	0.2812330212517438
-0.4696394933437489	0.2708526054806778
-0.4695784581874989	0.2603963764910562
-0.4695174230312489	0.24987346194436544
-0.4694563878749989	0.239289584798371
-0.4693953527187489	0.2286423278121519
-0.4693343175624989	0.21792925297363824
-0.4692732824062489	0.20715642084230926
