Time	Frequency
-0.5000131785937469	-0.5847773740068366
-0.49995214343749694	-0.5893759383826954
-0.49989110828124694	-0.5938239004615576
-0.49983007312499694	-0.5981296821328852
-0.49976903796874694	-0.6022898967509589
-0.49970800281249694	-0.6062913331152388
-0.49964696765624694	-0.6101192415118689
-0.49958593249999694	-0.6137662607057063
-0.49952489734374694	-0.6172361389602946
-0.49946386218749694	-0.6205400670477602
-0.49940282703124694	-0.6236883784870345
-0.49934179187499694	-0.6266832390433592
-0.49928075671874694	-0.6295170206563612
-0.49921972156249694	-0.6321771557642608
-0.49915868640624694	-0.634654042362782
-0.49909765124999694	-0.6369467224240932
-0.49903661609374694	-0.639062688572618
-0.49897558093749694	-0.6410121588720284
-0.49891454578124694	-0.6428008035312583
-0.49885351062499694	-0.6444257913162168
-0.49879247546874694	-0.6458776350303739
-0.49873144031249694	-0.6471463794793074
-0.49867040515624694	-0.6482278923361642
-0.49860936999999694	-0.6491261233629625
-0.49854833484374694	-0.6498499875555543
-0.49848729968749694	-0.6504071049139436
-0.49842626453124694	-0.6507986267067988
-0.49836522937499694	-0.6510185302656133
-0.49830419421874694	-0.6510577056175756
-0.49824315906249694	-0.6509099852085243
-0.49818212390624694	-0.6505760884650228
-0.49812108874999694	-0.6500629467291531
-0.49806005359374694	-0.6493789787755125
-0.49799901843749694	-0.6485285400645923
-0.49793798328124694	-0.6475092307915569
-0.49787694812499694	-0.6463137612266495
-0.49781591296874694	-0.6449350151302492
-0.49775487781249694	-0.6433708938563487
-0.49769384265624694	-0.6416257697176111
-0.49763280749999694	-0.6397076782799276
-0.49757177234374694	-0.6376232099170229
-0.49751073718749694	-0.6353735345640004
-0.49744970203124694	-0.6329541296075032
-0.49738866687499694	-0.6303582528017915
-0.49732763171874694	-0.6275817755418596
-0.49726659656249694	-0.6246261998687022
-0.49720556140624694	-0.6214979486431327
-0.49714452624999694	-0.6182045056414714
-0.49708349109374694	-0.6147500397020884
-0.49702245593749694	-0.6111333677180321
-0.49696142078124694	-0.607349464254685
-0.49690038562499694	-0.6033934352241777
-0.49683935046874694	-0.599264309541871
-0.49677831531249694	-0.5949661546017082
-0.49671728015624694	-0.5905059018756094
-0.49665624499999694	-0.5858894730731673
-0.49659520984374694	-0.5811187491687373
-0.49653417468749694	-0.5761912803948108
-0.49647313953124694	-0.5711028751994709
-0.49641210437499694	-0.5658512522181306
-0.49635106921874694	-0.5604382522647745
-0.49629003406249694	-0.5548692582318993
-0.49622899890624694	-0.5491503994978008
-0.49616796374999694	-0.5432854887858216
-0.49610692859374694	-0.5372747085975899
-0.49604589343749694	-0.5311157684003494
-0.49598485828124694	-0.5248065644791519
-0.49592382312499694	-0.5183475328874115
-0.49586278796874694	-0.5117422282709081
-0.49580175281249694	-0.5049958538845871
-0.49574071765624694	-0.4981128050084599
-0.49567968249999694	-0.4910949767589724
-0.49561864734374694	-0.4839420139179925
-0.49555761218749694	-0.4766530691774456
-0.49549657703124694	-0.46922863997855496
-0.49543554187499694	-0.46167137134799247
-0.49537450671874694	-0.4539853874915996
-0.49531347156249694	-0.4461746149777371
-0.49525243640624694	-0.43824141247871
-0.49519140124999694	-0.43018652199267826
-0.49513036609374694	-0.42201022606216376
-0.49506933093749694	-0.4137137918287879
-0.49500829578124694	-0.4053001582781371
-0.49494726062499694	-0.3967733209355471
-0.49488622546874694	-0.38813682701063185
-0.49482519031249694	-0.3793926149686228
-0.49476415515624694	-0.370541226827759
-0.49470311999999694	-0.3615832113712879
-0.49464208484374694	-0.35252059128855645
-0.49458104968749694	-0.34335732491604776
-0.49452001453124694	-0.33409834616312967
-0.49445897937499694	-0.32474768301113804
-0.49439794421874694	-0.31530701725585536
-0.49433690906249694	-0.30577598736849204
-0.49427587390624694	-0.29615417365408714
-0.49421483874999694	-0.28644330889199515
-0.49415380359374694	-0.27664813859242166
-0.49409276843749694	-0.2667752049286995
-0.49403173328124694	-0.2568301671399834
-0.49397069812499694	-0.24681549310788364
-0.49390966296874694	-0.23673023788056596
-0.49384862781249694	-0.22657222221467058
-0.49378759265624694	-0.21634137912828932
-0.49372655749999694	-0.20604204335006962
-0.49366552234374694	-0.19568227088646886
-0.49360448718749694	-0.185270346663208
-0.49354345203124694	-0.17481089443503486
-0.49348241687499694	-0.16430333142773934
-0.49342138171874694	-0.15374381503908546
-0.49336034656249694	-0.14312954999067368
-0.49329931140624694	-0.13246268939039788
-0.49323827624999694	-0.12175118346335752
-0.49317724109374694	-0.11100576292183711
-0.49311620593749694	-0.10023479186111098
-0.49305517078124694	-0.08944038966104194
-0.49299413562499694	-0.07861852510039152
-0.49293310046874694	-0.06776323905491384
-0.49287206531249694	-0.05687249913563276
-0.49281103015624694	-0.04595184575787221
-0.49274999499999694	-0.0350131385330081
-0.49268895984374694	-0.02406892854318071
-0.49262792468749694	-0.013126008618897908
-0.49256688953124694	-0.002182459810660583
-0.49250585437499694	0.008769603604220211
-0.49244481921874694	0.01973714130032631
-0.49238378406249694	0.030719542559657385
-0.49232274890624694	0.04170657480648402
-0.49226171374999694	0.05268256037774943
-0.49220067859374694	0.06363455122005116
-0.49213964343749694	0.0745592719748393
-0.49207860828124694	0.08546394553343321
-0.49201757312499694	0.09636005865313844
-0.49195653796874694	0.10725389971853949
-0.49189550281249694	0.11814011666927277
-0.49183446765624694	0.1290027725677938
-0.49177343249999694	0.13982343525099108
-0.49171239734374694	0.15059127856636453
-0.49165136218749694	0.16130874223679378
-0.49159032703124694	0.17198874327184294
-0.49152929187499694	0.18264467353416522
-0.49146825671874694	0.19327944527714908
-0.49140722156249694	0.20388108994038556
-0.49134618640624694	0.21442822361551017
-0.49128515124999694	0.224901938223897
-0.49122411609374694	0.23529648858167215
-0.49116308093749694	0.2456218352321687
-0.49110204578124694	0.25589594827566164
-0.49104101062499694	0.2661313653642095
-0.49097997546874694	0.2763247309172156
-0.49091894031249694	0.28645648958783126
-0.49085790515624694	0.29650130553019344
-0.49079686999999694	0.306442722588693
-0.49073583484374694	0.3162826061898569
-0.49067479968749694	0.32603892366671056
-0.49061376453124694	0.3357328367748565
-0.49055272937499694	0.3453731100157414
-0.49049169421874694	0.35494795616256153
-0.49043065906249694	0.36443016017476176
-0.49036962390624694	0.3737927380785964
-0.49030858874999694	0.38302511918856424
-0.49024755359374694	0.3921391356257869
-0.49018651843749694	0.40116046673513395
-0.49012548328124694	0.41011059553290763
-0.49006444812499694	0.4189908047441376
-0.49000341296874694	0.4277788600836386
-0.48994237781249694	0.4364410897749907
-0.48988134265624694	0.44495255215337753
-0.48982030749999694	0.45331229592383415
-0.48975927234374694	0.4615434041653885
-0.48969823718749694	0.46967725077692546
-0.48963720203124694	0.4777317155679647
-0.48957616687499694	0.4856973710396623
-0.48951513171874694	0.49354109428525056
-0.48945409656249694	0.5012254930774255
-0.48939306140624694	0.508731943817164
-0.48933202624999694	0.5160721757113489
-0.48927099109374694	0.5232803840688491
-0.48920995593749694	0.5303903298158954
-0.48914892078124694	0.5374118184318162
-0.48908788562499694	0.5443219673222591
-0.48902685046874694	0.5510776355227432
-0.48896581531249694	0.5576417348469977
-0.48890478015624694	0.5640066700621117
-0.48884374499999694	0.5701993135386134
-0.48878270984374694	0.576263520166157
-0.48872167468749694	0.5822308449413135
-0.48866063953124694	0.5880982425151151
-0.48859960437499694	0.5938276316431119
-0.48853856921874694	0.5993684056139141
-0.48847753406249694	0.604689058951063
-0.48841649890624694	0.6097976281342149
-0.48835546374999694	0.6147370295681465
-0.48829442859374694	0.6195573073641228
-0.48823339343749694	0.6242821653105978
-0.48817235828124694	0.6288915279357553
-0.48811132312499694	0.6333321384952333
-0.48805028796874694	0.6375503263062098
-0.48798925281249694	0.6415263175920712
-0.48792821765624694	0.6452876677823255
-0.48786718249999694	0.6488922662186657
-0.48780614734374694	0.6523909097344696
-0.48774511218749694	0.6557931529079999
-0.48768407703124694	0.6590588898650412
-0.48762304187499694	0.6621221014753103
-0.48756200671874694	0.6649323861225935
-0.48750097156249694	0.6674878093829452
-0.48743993640624694	0.669837373904475
-0.48737890124999694	0.6720504266214646
-0.48731786609374694	0.6741717593200865
-0.48725683093749694	0.6761911494213523
-0.48719579578124694	0.6780476825608038
-0.48713476062499694	0.6796672398364728
-0.48707372546874694	0.681009873800632
-0.48701269031249694	0.6820965840222057
-0.48695165515624694	0.6829974109878876
-0.48689061999999694	0.6837873383058588
-0.48682958484374694	0.6844976211989723
-0.48676854968749694	0.6850939811651467
-0.48670751453124694	0.6854966251689422
-0.48664647937499694	0.6856303761289293
-0.48658544421874694	0.6854733348484515
-0.48652440906249694	0.6850725259401584
-0.48646337390624694	0.6845154705935459
-0.48640233874999694	0.6838748386865825
-0.48634130359374694	0.6831612086875031
-0.48628026843749694	0.6823146709154736
-0.48621923328124694	0.6812417035592014
-0.48615819812499694	0.6798746693743851
-0.48609716296874694	0.6782161341984417
-0.48603612781249694	0.6763390781253011
-0.48597509265624694	0.6743418304047347
-0.48591405749999694	0.6722857422263012
-0.48585302234374694	0.6701553441056128
-0.48579198718749694	0.6678670550307628
-0.48573095203124694	0.66532177149737
-0.48566991687499694	0.662468409729428
-0.48560888171874694	0.6593378540947985
-0.48554784656249694	0.6560250049729106
-0.48548681140624694	0.6526296052452123
-0.48542577624999694	0.6491931745372175
-0.48536474109374694	0.6456723033845672
-0.48530370593749694	0.6419657922694277
-0.48524267078124694	0.6379790258481498
-0.48518163562499694	0.6336849449308534
-0.48512060046874694	0.6291425869740718
-0.48505956531249694	0.6244609478481645
-0.48499853015624694	0.6197307918077111
-0.48493749499999694	0.6149676584211126
-0.48487645984374694	0.6101024235968622
-0.48481542468749694	0.6050255999811361
-0.48475438953124694	0.5996574061026397
-0.48469335437499694	0.5939992024716455
-0.48463231921874694	0.5881335945713433
-0.48457128406249694	0.5821730680928651
-0.48451024890624694	0.5761897971062405
-0.48444921374999694	0.570171168711096
-0.48438817859374694	0.5640290514680829
-0.48432714343749694	0.5576567200796333
-0.48426610828124694	0.5509972803944727
-0.48420507312499694	0.5440803034099494
-0.48414403796874694	0.5370036579418241
-0.48408300281249694	0.5298724036466659
-0.48402196765624694	0.5227337542809838
-0.48396093249999694	0.5155491960999808
-0.48389989734374694	0.5082209303832245
-0.48383886218749694	0.500655318375217
-0.48377782703124694	0.49282287213713566
-0.48371679187499694	0.4847771181308837
-0.48365575671874694	0.47662103614584406
-0.48359472156249694	0.46844290311582076
-0.48353368640624694	0.46026245017843775
-0.48347265124999694	0.45202111482239543
-0.48341161609374694	0.443621708115323
-0.48335058093749694	0.4349915510553558
-0.48328954578124694	0.42612890007577586
-0.48322851062499694	0.4171039239634891
-0.48316747546874694	0.408014643866965
-0.48310644031249694	0.3989263992639716
-0.48304540515624694	0.3898331718400641
-0.48298436999999694	0.38066461036924
-0.48292333484374694	0.37133326963740076
-0.48286229968749694	0.36179138130437516
-0.48280126453124694	0.35206130618353637
-0.48274022937499694	0.34222125319419316
-0.48267919421874694	0.33235637310448884
-0.48261815906249694	0.32250686532324324
-0.48255712390624694	0.31264576018344414
-0.48249608874999694	0.3026994574687122
-0.48243505359374694	0.2925969127306159
-0.48237401843749694	0.28231573721017633
-0.48231298328124694	0.27189637948618656
-0.48225194812499694	0.2614165481606878
-0.48219091296874694	0.25094310444260765
-0.48212987781249694	0.2404922703792622
-0.48206884265624694	0.2300229274098453
-0.48200780749999694	0.21946610981114634
-0.48194677234374694	0.20877093020643306
-0.48188573718749694	0.19793760535816
-0.48182470203124694	0.18701737012242386
-0.48176366687499694	0.17608045756856786
-0.48170263171874694	0.16517323203220052
-0.48164159656249694	0.15429177037433356
-0.48158056140624694	0.14338798729139413
-0.48151952624999694	0.13240326722922732
-0.48145849109374694	0.12130749084842632
-0.48139745593749694	0.11011877471868345
-0.48133642078124694	0.09889218537551042
-0.48127538562499694	0.08768567540283385
-0.48121435046874694	0.07652550945303349
-0.48115331531249694	0.0653928787547839
-0.48109228015624694	0.05423932250393363
-0.48103124499999694	0.043020212779699515
-0.48097020984374694	0.03172457305138662
-0.48090917468749694	0.020382603419430177
-0.48084813953124694	0.009047004156691452
-0.48078710437499694	-0.0022391226353957044
-0.48072606921874694	-0.013467021583216793
-0.48066503406249694	-0.024664461158692308
-0.48060399890624694	-0.0358749430992257
-0.48054296374999694	-0.047127821158451315
-0.48048192859374694	-0.05841842077936103
-0.48042089343749694	-0.06971043942205161
-0.48035985828124694	-0.08095824263606523
-0.48029882312499694	-0.09213403042015032
-0.48023778796874694	-0.10324258907633935
-0.48017675281249694	-0.11431496083942824
-0.48011571765624694	-0.12538589607014441
-0.48005468249999694	-0.13646995577352802
-0.47999364734374694	-0.14755130806116365
-0.47993261218749694	-0.1585930574186582
-0.47987157703124694	-0.1695594787143339
-0.47981054187499694	-0.1804366047960963
-0.47974950671874694	-0.19123823202283896
-0.47968847156249694	-0.20199412562716684
-0.47962743640624694	-0.21272863023345365
-0.47956640124999694	-0.22344369528462024
-0.47950536609374694	-0.23411682237878534
-0.47944433093749694	-0.24471449951518687
-0.47938329578124694	-0.25521201752941275
-0.47932226062499694	-0.26560690129012626
-0.47926122546874694	-0.2759176391808074
-0.47920019031249694	-0.2861691348610932
-0.47913915515624694	-0.2963748084021234
-0.47907811999999694	-0.3065269305965763
-0.47901708484374694	-0.31660084037919184
-0.47895604968749694	-0.3265695957553026
-0.47889501453124694	-0.33641934841358434
-0.47883397937499694	-0.3461557552499207
-0.47877294421874694	-0.3557977431500389
-0.47871190906249694	-0.36536310160351626
-0.47865087390624694	-0.3748555044352325
-0.47858983874999694	-0.3842612827237682
-0.47852880359374694	-0.3935574056001445
-0.47846776843749694	-0.40272491283100764
-0.47840673328124694	-0.41175913638456874
-0.47834569812499694	-0.4206703892695048
-0.47828466296874694	-0.4294750059298349
-0.47822362781249694	-0.4381829571138524
-0.47816259265624694	-0.446790241541126
-0.47810155749999694	-0.45528067271894807
-0.47804052234374694	-0.4636354105445503
-0.47797948718749694	-0.4718437183606058
-0.47791845203124694	-0.4799079389578627
-0.47785741687499694	-0.48783981298916546
-0.47779638171874694	-0.49565097908636324
-0.47773534656249694	-0.5033440501599354
-0.47767431140624694	-0.5109099861207202
-0.47761327624999694	-0.51833317583959
-0.47755224109374694	-0.5256005850517832
-0.47749120593749694	-0.5327087835186157
-0.47743017078124694	-0.5396643628640132
-0.47736913562499694	-0.5464778516412501
-0.47730810046874694	-0.5531553993706104
-0.47724706531249694	-0.5596937173411023
-0.47718603015624694	-0.5660814409045878
-0.47712499499999694	-0.5723057560648439
-0.47706395984374694	-0.5783597274791964
-0.47700292468749694	-0.5842455093757392
-0.47694188953124694	-0.5899714725020585
-0.47688085437499694	-0.5955453161799942
-0.47681981921874694	-0.6009679035250128
-0.47675878406249694	-0.6062319295050109
-0.47669774890624694	-0.6113260788387774
-0.47663671374999694	-0.6162416884651706
-0.47657567859374694	-0.6209774565290428
-0.47651464343749694	-0.6255391738567858
-0.47645360828124694	-0.6299347970336556
-0.47639257312499694	-0.6341682512556085
-0.47633153796874694	-0.6382361169094701
-0.47627050281249694	-0.6421293105235931
-0.47620946765624694	-0.6458384944507511
-0.47614843249999694	-0.6493595445253652
-0.47608739734374694	-0.6526954583315279
-0.47602636218749694	-0.6558535413528098
-0.47596532703124694	-0.6588398708676994
-0.47590429187499694	-0.6616547316164758
-0.47584325671874694	-0.6642919908323599
-0.47578222156249694	-0.666742759119245
-0.47572118640624694	-0.669000815761527
-0.47566015124999694	-0.6710661611275884
-0.47559911609374694	-0.6729444313243208
-0.47553808093749694	-0.6746426911928424
-0.47547704578124694	-0.6761644441627743
-0.47541601062499694	-0.6775071253425063
-0.47535497546874694	-0.6786636460980259
-0.47529394031249694	-0.6796268706648924
-0.47523290515624694	-0.6803940216081897
-0.47517186999999694	-0.680968151432056
-0.47511083484374694	-0.6813558267028811
-0.47504979968749694	-0.6815626592960781
-0.47498876453124694	-0.6815896425935832
-0.47492772937499694	-0.6814326292150433
-0.47486669421874694	-0.6810851808202247
-0.47480565906249694	-0.680542813628626
-0.47474462390624694	-0.679805836057037
-0.47468358874999694	-0.678879008669902
-0.47462255359374694	-0.6777683898454685
-0.47456151843749694	-0.6764775483763482
-0.47450048328124694	-0.6750056068506286
-0.47443944812499694	-0.6733482588411576
-0.47437841296874694	-0.6715009731224851
-0.47431737781249694	-0.6694622087814348
-0.47425634265624694	-0.6672345126980315
-0.47419530749999694	-0.6648229211944444
-0.47413427234374694	-0.6622319321242852
-0.47407323718749694	-0.6594631088320123
-0.47401220203124694	-0.6565147832105048
-0.47395116687499694	-0.6533838592833451
-0.47389013171874694	-0.6500684147250269
-0.47382909656249694	-0.6465694054872253
-0.47376806140624694	-0.6428903732749426
-0.47370702624999694	-0.6390354588670086
-0.47364599109374694	-0.6350072668869706
-0.47358495593749694	-0.6308060431274057
-0.47352392078124694	-0.6264305339788924
-0.47346288562499694	-0.6218797824938849
-0.47340185046874694	-0.6171545509883041
-0.47334081531249694	-0.6122574273559496
-0.47327978015624694	-0.6071916739207341
-0.47321874499999694	-0.601959736661143
-0.47315770984374694	-0.5965625360365919
-0.47309667468749694	-0.5910000220448643
-0.47303563953124694	-0.5852725018028836
-0.47297460437499694	-0.5793816792635376
-0.47291356921874694	-0.5733305225955542
-0.47285253406249694	-0.5671220545530865
-0.47279149890624694	-0.560758127901894
-0.47273046374999694	-0.5542391993582617
-0.47266942859374694	-0.5475652783339356
-0.47260839343749694	-0.5407373571445312
-0.47254735828124694	-0.5337582622012113
-0.47248632312499694	-0.5266322101775026
-0.47242528796874694	-0.5193631790912165
-0.47236425281249694	-0.5119531920018917
-0.47230321765624694	-0.5044019596315942
-0.47224218249999694	-0.4967083179704103
-0.47218114734374694	-0.4888725320921249
-0.47212011218749694	-0.48089790248513437
-0.47205907703124694	-0.47279034888426624
-0.47199804187499694	-0.46455601645683214
-0.47193700671874694	-0.45619850534490286
-0.47187597156249694	-0.4477176259799412
-0.47181493640624694	-0.4391106805285468
-0.47175390124999694	-0.43037573038832055
-0.47169286609374694	-0.4215147731808255
-0.47163183093749694	-0.4125344229073209
-0.47157079578124694	-0.4034433570432507
-0.47150976062499694	-0.3942482069850553
-0.47144872546874694	-0.38495061090270094
-0.47138769031249694	-0.37554741543597703
-0.47132665515624694	-0.36603414661792566
-0.47126561999999694	-0.35640971134377386
-0.47120458484374694	-0.3466792355536442
-0.47114354968749694	-0.33685293048187226
-0.47108251453124694	-0.32694137255889894
-0.47102147937499694	-0.31695011216786106
-0.47096044421874694	-0.3068773721103758
-0.47089940906249694	-0.2967166592080122
-0.47083837390624694	-0.28646272865704026
-0.47077733874999694	-0.2761171001318145
-0.47071630359374694	-0.2656894214456437
-0.47065526843749694	-0.25519344686504414
-0.47059423328124694	-0.24463997274017663
-0.47053319812499694	-0.2340313425455411
-0.47047216296874694	-0.22336134960481646
-0.47041112781249694	-0.21262082828122908
-0.47035009265624694	-0.2018055106687857
-0.47028905749999694	-0.19092121305071746
-0.47022802234374694	-0.17998266757262618
