Time	Frequency
-0.5000114426562448	-0.442840517142709
-0.49995040749999475	-0.4463242775837648
-0.49988937234374475	-0.4497077913417414
-0.49982833718749475	-0.4530313605025135
-0.49976730203124475	-0.45632913586929624
-0.49970626687499475	-0.45958213734162545
-0.49964523171874475	-0.4627438213851484
-0.49958419656249475	-0.46580282166779263
-0.49952316140624475	-0.46879762395851793
-0.49946212624999475	-0.47176361679012624
-0.49940109109374475	-0.47468447166031713
-0.49934005593749475	-0.4775135474540566
-0.49927902078124475	-0.4802362925742164
-0.49921798562499475	-0.48288945594832905
-0.49915695046874475	-0.48551119759930506
-0.49909591531249475	-0.4880891835053199
-0.49903488015624475	-0.49057639965506994
-0.49897384499999475	-0.4929535139520381
-0.49891280984374475	-0.49525434022777576
-0.49885177468749475	-0.49752036286974394
-0.49879073953124475	-0.49974496786025824
-0.49872970437499475	-0.5018816836205056
-0.49866866921874475	-0.5039054327140671
-0.49860763406249475	-0.5058453461390813
-0.49854659890624475	-0.5077456956703071
-0.49848556374999475	-0.5096069420523274
-0.49842452859374475	-0.5113849164735417
-0.49836349343749475	-0.5130488661949251
-0.49830245828124475	-0.5146214457853404
-0.49824142312499475	-0.516148179736788
-0.49818038796874475	-0.517637203034225
-0.49811935281249475	-0.5190486791831743
-0.49805831765624475	-0.5203471963751369
-0.49799728249999475	-0.5215477147363636
-0.49793624734374475	-0.5226950029063167
-0.49787521218749475	-0.5238044611788824
-0.49781417703124475	-0.5248423104993212
-0.49775314187499475	-0.5257703114741085
-0.49769210671874475	-0.5265954299729586
-0.49763107156249475	-0.5273595924299141
-0.49757003640624475	-0.5280841504213293
-0.49750900124999475	-0.5287424154183374
-0.49744796609374475	-0.529295397454192
-0.49738693093749475	-0.5297426629350731
-0.49732589578124475	-0.5301217029108928
-0.49726486062499475	-0.5304580214047685
-0.49720382546874475	-0.5307322604967157
-0.49714279031249475	-0.5309066218166795
-0.49708175515624475	-0.5309744586462319
-0.49702071999999475	-0.5309678321366229
-0.49695968484374475	-0.5309145195283803
-0.49689864968749475	-0.5308020511917352
-0.49683761453124475	-0.5305953312831575
-0.49677657937499475	-0.5302830403076876
-0.49671554421874475	-0.5298914350215503
-0.49665450906249475	-0.5294488230768769
-0.49659347390624475	-0.5289487537813058
-0.49653243874999475	-0.5283598273755398
-0.49647140359374475	-0.5276675733030521
-0.49641036843749475	-0.52689266566664
-0.49634933328124475	-0.5260626921875643
-0.49628829812499475	-0.5251760683228994
-0.49622726296874475	-0.5242054357902303
-0.49616622781249475	-0.5231345514569069
-0.49610519265624475	-0.5219791659133008
-0.49604415749999475	-0.5207652570307724
-0.49598312234374475	-0.519494818413141
-0.49592208718749475	-0.5181444707856674
-0.49586105203124475	-0.5166973661337294
-0.49580001687499475	-0.5151652062564959
-0.49573898171874475	-0.5135719136653296
-0.49567794656249475	-0.5119219923104806
-0.49561691140624475	-0.5101957364965146
-0.49555587624999475	-0.5083764335387535
-0.49549484109374475	-0.5064725000334904
-0.49543380593749475	-0.5045056654397597
-0.49537277078124475	-0.5024821256134391
-0.49531173562499475	-0.500385332149493
-0.49525070046874475	-0.4981990935475932
-0.49518966531249475	-0.49592935470751587
-0.49512863015624475	-0.4935958844159375
-0.49506759499999475	-0.4912059576963527
-0.49500655984374475	-0.4887455840542707
-0.49494552468749475	-0.486199290537712
-0.49488448953124475	-0.48357116009209894
-0.49482345437499475	-0.4808791557105685
-0.49476241921874475	-0.47813125294665376
-0.49470138406249475	-0.4753156883469119
-0.49464034890624475	-0.4724177451002457
-0.49457931374999475	-0.4694399162397235
-0.49451827859374475	-0.46639856307490934
-0.49445724343749475	-0.463302251441364
-0.49439620828124475	-0.4601411663067932
-0.49433517312499475	-0.45690134181079756
-0.49427413796874475	-0.45358395462808887
-0.49421310281249475	-0.45020384662336227
-0.49415206765624475	-0.44676994450255025
-0.49409103249999475	-0.4432742127426351
-0.49402999734374475	-0.4397035464835817
-0.49396896218749475	-0.43605802132962557
-0.49390792703124475	-0.43235100111935254
-0.49384689187499475	-0.42859158853358975
-0.49378585671874475	-0.424773372268197
-0.49372482156249475	-0.42088418915084846
-0.49366378640624475	-0.4169231742940399
-0.49360275124999475	-0.41290220258497495
-0.49354171609374475	-0.40883038736864247
-0.49348068093749475	-0.4047028249078099
-0.49341964578124475	-0.40050840107091684
-0.49335861062499475	-0.39624562778842065
-0.49329757546874475	-0.39192506468741156
-0.49323654031249475	-0.3875555297371399
-0.49317550515624475	-0.3831331874343752
-0.49311446999999475	-0.3786480267986627
-0.49305343484374475	-0.3740983402996793
-0.49299239968749475	-0.36949352204790953
-0.49293136453124475	-0.3648419136886953
-0.49287032937499475	-0.36014051721631846
-0.49280929421874475	-0.3553803062146116
-0.49274825906249475	-0.3505594777024358
-0.49268722390624475	-0.34568651901524755
-0.49262618874999475	-0.34076927674428176
-0.49256515359374475	-0.3358053457639117
-0.49250411843749475	-0.3307867474774698
-0.49244308328124475	-0.32571191623705414
-0.49238204812499475	-0.32058848377496807
-0.49232101296874475	-0.31542349072301923
-0.49225997781249475	-0.3102147821333133
-0.49219894265624475	-0.30495532859644764
-0.49213790749999475	-0.2996440968211836
-0.49207687234374475	-0.2942882738465778
-0.49201583718749475	-0.2888941191600666
-0.49195480203124475	-0.2834593897782475
-0.49189376687499475	-0.27797771674341415
-0.49183273171874475	-0.272448659028413
-0.49177169656249475	-0.26687937046841387
-0.49171066140624475	-0.2612755951377706
-0.49164962624999475	-0.25563468800539885
-0.49158859109374475	-0.24995047733694342
-0.49152755593749475	-0.244223104695734
-0.49146652078124475	-0.23846001458172875
-0.49140548562499475	-0.23266667762504767
-0.49134445046874475	-0.22683998580844086
-0.49128341531249475	-0.22097364747449
-0.49122238015624475	-0.21506824150082765
-0.49116134499999475	-0.2091318177378515
-0.49110030984374475	-0.2031698744989817
-0.49103927468749475	-0.19717863096525542
-0.49097823953124475	-0.19115131356367593
-0.49091720437499475	-0.18508892912082348
-0.49085616921874475	-0.17900032202878846
-0.49079513406249475	-0.17289113290602628
-0.49073409890624475	-0.16675696166638865
-0.49067306374999475	-0.16059045313896533
-0.49061202859374475	-0.1543927935828473
-0.49055099343749475	-0.14817366051049755
-0.49048995828124475	-0.1419392262102781
-0.49042892312499475	-0.13568457279765567
-0.49036788796874475	-0.1294013837435613
-0.49030685281249475	-0.12309075699656964
-0.49024581765624475	-0.11676336132966736
-0.49018478249999475	-0.11042617259866445
-0.49012374734374475	-0.1040738195854539
-0.49006271218749475	-0.09769684036667557
-0.49000167703124475	-0.09129597280791255
-0.48994064187499475	-0.08488283732477103
-0.48987960671874475	-0.07846556984146308
-0.48981857156249475	-0.0720386806356773
-0.48975753640624475	-0.06559134974938197
-0.48969650124999475	-0.05912348785851222
-0.48963546609374475	-0.05264761867916602
-0.48957443093749475	-0.046173335679816116
-0.48951339578124475	-0.03969519624011621
-0.48945236062499475	-0.033200999073768174
-0.48939132546874475	-0.026689723745514607
-0.48933029031249475	-0.020174688747767584
-0.48926925515624475	-0.01366702051048607
-0.48920821999999475	-0.0071614876651751305
-0.48914718484374475	-0.0006443836982270282
-0.48908614968749475	0.005886615545043952
-0.48902511453124475	0.012417569642440202
-0.48896407937499475	0.018935531989189222
-0.48890304421874475	0.02544501701337979
-0.48884200906249475	0.0319610840418754
-0.48878097390624475	0.03848771555057845
-0.48871993874999475	0.04501066062092278
-0.48865890359374475	0.051515057279261214
-0.48859786843749475	0.05800452203756745
-0.48853683328124475	0.06449554489190144
-0.48847579812499475	0.07099399856173645
-0.48841476296874475	0.07748539445401875
-0.48835372781249475	0.08395274142413113
-0.48829269265624475	0.09039849936103682
-0.48823165749999475	0.09684060576939066
-0.48817062234374475	0.10328707335379805
-0.48810958718749475	0.1097233403492604
-0.48804855203124475	0.11613014803733061
-0.48798751687499475	0.12250845027879353
-0.48792648171874475	0.128877524868914
-0.48786544656249475	0.13524793698577037
-0.48780441140624475	0.1416054762555565
-0.48774337624999475	0.14792846662294726
-0.48768234109374475	0.15421591891397818
-0.48762130593749475	0.160488387562433
-0.48756027078124475	0.16675938501770013
-0.48749923562499475	0.1730153439180067
-0.48743820046874475	0.17923186100041633
-0.48737716531249475	0.18540540869292554
-0.48731613015624475	0.19155771311529945
-0.48725509499999475	0.19770575096216084
-0.48719405984374475	0.20383711142315797
-0.48713302468749475	0.20992461710218693
-0.48707198953124475	0.21596164645119909
-0.48701095437499475	0.2219706769186587
-0.48694991921874475	0.2279724786418853
-0.48688888406249475	0.2339565419150368
-0.48682784890624475	0.23989303512778687
-0.48676681374999475	0.2457715207149924
-0.48670577859374475	0.25161470089655685
-0.48664474343749475	0.25744756271121755
-0.48658370828124475	0.26326227152415294
-0.48652267312499475	0.26902643214242955
-0.48646163796874475	0.2747250964985194
-0.48640060281249475	0.28038060117126773
-0.48633956765624475	0.2860224139585806
-0.48627853249999475	0.2916461686492717
-0.48621749734374475	0.29721717514916646
-0.48615646218749475	0.3027152851031569
-0.48609542703124475	0.3081617201134181
-0.48603439187499475	0.31359069570999404
-0.48597335671874475	0.31900227227621547
-0.48591232156249475	0.32435983238373806
-0.48585128640624475	0.32963736820780415
-0.48579025124999475	0.3348541971703236
-0.48572921609374475	0.34004939012077734
-0.48566818093749475	0.3452283785191199
-0.48560714578124475	0.35035323973028576
-0.48554611062499475	0.35539147134756544
-0.48548507546874475	0.3603592613600194
-0.48542404031249475	0.3653003654988928
-0.48536300515624475	0.3702267952474106
-0.48530196999999475	0.3751002965560418
-0.48524093484374475	0.37988130130904
-0.48517989968749475	0.3845815346430965
-0.48511886453124475	0.38924909601038554
-0.48505782937499475	0.3939036864142863
-0.48499679421874475	0.3985078865637012
-0.48493575906249475	0.40301477690026777
-0.48487472390624475	0.4074301891594502
-0.48481368874999475	0.41180580917304416
-0.48475265359374475	0.41617001371888307
-0.48469161843749475	0.42048775977907993
-0.48463058328124475	0.42470477502088466
-0.48456954812499475	0.4288193388280996
-0.48450851296874475	0.43288563096755056
-0.48444747781249475	0.43694169919141085
-0.48438644265624475	0.4409566913397835
-0.48432540749999475	0.4448692508120849
-0.48426437234374475	0.4486684072218784
-0.48420333718749475	0.45240930767334875
-0.48414230203124475	0.45614035078725096
-0.48408126687499475	0.4598369673141968
-0.48402023171874475	0.46343149020492397
-0.48395919656249475	0.4669020533244629
-0.48389816140624475	0.47030282108240123
-0.48383712624999475	0.4736929453659278
-0.48377609109374475	0.47705646218887604
-0.48371505593749475	0.48032055754623043
-0.48365402078124475	0.4834508629496144
-0.48359298562499475	0.4864982170987475
-0.48353195046874475	0.4895325288052492
-0.48347091531249475	0.4925489274573739
-0.48340988015624475	0.4954712559226499
-0.48334884499999475	0.49825128422184484
-0.48328780984374475	0.5009336299594496
-0.48322677468749475	0.5035983622440678
-0.48316573953124475	0.5062543889117891
-0.48310470437499475	0.5088247544105492
-0.48304366921874475	0.5112462851208525
-0.48298263406249475	0.5135538920559488
-0.48292159890624475	0.5158364920390927
-0.48286056374999475	0.5181195144800436
-0.48279952859374475	0.5203285109271225
-0.48273849343749475	0.5223848263336504
-0.48267745828124475	0.5243098445430309
-0.48261642312499475	0.5261992314224999
-0.48255538796874475	0.52809749089544
-0.48249435281249475	0.5299367004901818
-0.48243331765624475	0.5316228848334802
-0.48237228249999475	0.5331597347876679
-0.48231124734374475	0.5346464400068428
-0.48225021218749475	0.5361486673011149
-0.48218917703124475	0.5376100324902873
-0.48212814187499475	0.5389227110568062
-0.48206710671874475	0.5400684214150734
-0.48200607156249475	0.5411451352930263
-0.48194503640624475	0.5422407241895572
-0.48188400124999475	0.5433161709393654
-0.48182296609374475	0.5442530552061852
-0.48176193093749475	0.5450073697667646
-0.48170089578124475	0.54566960901989
-0.48163986062499475	0.5463491339577775
-0.48157882546874475	0.547030385440079
-0.48151779031249475	0.5475897039080067
-0.48145675515624475	0.5479549635025371
-0.48139571999999475	0.5482016725249677
-0.48133468484374475	0.5484574644368424
-0.48127364968749475	0.5487357158977879
-0.48121261453124475	0.5489151616399687
-0.48115157937499475	0.5488956845860633
-0.48109054421874475	0.5487298451295196
-0.48102950906249475	0.5485572227895176
-0.48096847390624475	0.5484235932839195
-0.48090743874999475	0.5482194210862849
-0.48084640359374475	0.5478202465115619
-0.48078536843749475	0.547248810302582
-0.48072433328124475	0.5466474824313038
-0.48066329812499475	0.5460943900852679
-0.48060226296874475	0.5455011827579889
-0.48054122781249475	0.5447265325076862
-0.48048019265624475	0.5437594088046585
-0.48041915749999475	0.5427341139482637
-0.48035812234374475	0.5417567233653804
-0.48029708718749475	0.5407678509120308
-0.48023605203124475	0.5396199095018053
-0.48017501687499475	0.5382684196552039
-0.48011398171874475	0.5368290519593963
-0.48005294656249475	0.535427228638591
-0.47999191140624475	0.5340364659276985
-0.47993087624999475	0.5325146606676773
-0.47986984109374475	0.530789108471607
-0.47980880593749475	0.5289491737270096
-0.47974777078124475	0.5271284429366775
-0.47968673562499475	0.5253322944623894
-0.47962570046874475	0.523434405634385
-0.47956466531249475	0.5213428167278966
-0.47950363015624475	0.5191173471010014
-0.47944259499999475	0.5168884974589463
-0.47938155984374475	0.5146880479578169
-0.47932052468749475	0.5124121680451238
-0.47925948953124475	0.5099600642803563
-0.47919845437499475	0.5073635094448904
-0.47913741921874475	0.5047410197244826
-0.47907638406249475	0.5021425818667363
-0.47901534890624475	0.499489122342412
-0.47895431374999475	0.4966804613814079
-0.47889327859374475	0.49372535254715255
-0.47883224343749475	0.4907252733940744
-0.47877120828124475	0.4877398096439942
-0.47871017312499475	0.48471284952110893
-0.47864913796874475	0.481551643094382
-0.47858810281249475	0.4782487865927042
-0.47852706765624475	0.4748874144019469
-0.47846603249999475	0.471529307280326
-0.47840499734374475	0.4681370528223646
-0.47834396218749475	0.4646290118592079
-0.47828292703124475	0.46098831029908977
-0.47822189187499475	0.4572813895338778
-0.47816085671874475	0.4535672343519221
-0.47809982156249475	0.4498217288594869
-0.47803878640624475	0.4459749011549144
-0.47797775124999475	0.44200590813144697
-0.47791671609374475	0.4379681073074139
-0.47785568093749475	0.433915280817754
-0.47779464578124475	0.42983154317967004
-0.47773361062499475	0.42565708077412195
-0.47767257546874475	0.4213705725347359
-0.47761154031249475	0.4170162330080942
-0.47755050515624475	0.41264237221157507
-0.47748946999999475	0.40823748703408547
-0.47742843484374475	0.4037492572266953
-0.47736739968749475	0.39915743650615776
-0.47730636453124475	0.39450075241905724
-0.47724532937499475	0.389823426272888
-0.47718429421874475	0.3851160420905321
-0.47712325906249475	0.3803306818400727
-0.47706222390624475	0.3754478834452506
-0.47700118874999475	0.3705035531835664
-0.47694015359374475	0.36554014086637293
-0.47687911843749475	0.3605496553405941
-0.47681808328124475	0.35548597220349437
-0.47675704812499475	0.35032889328589933
-0.47669601296874475	0.3451126093447316
-0.47663497781249475	0.3398801915727172
-0.47657394265624475	0.33462605290947467
-0.47651290749999475	0.3293043373892712
-0.47645187234374475	0.3238919317288891
-0.47639083718749475	0.3184209980770696
-0.47632980203124475	0.31293696970850093
-0.47626876687499475	0.30743842523479015
-0.47620773171874475	0.3018797290075101
-0.47614669656249475	0.2962330755904257
-0.47608566140624475	0.29052696054700267
-0.47602462624999475	0.28480952774639867
-0.47596359109374475	0.27908553618297927
-0.47590255593749475	0.27331096631552726
-0.47584152078124475	0.2674525034914809
-0.47578048562499475	0.26153285900169226
-0.47571945046874475	0.25560186232964693
-0.47565841531249475	0.24967172873567836
-0.47559738015624475	0.24370217740986427
-0.47553634499999475	0.2376548445057821
-0.47547530984374475	0.23154486074777397
-0.47541427468749475	0.22542177729402663
-0.47535323953124475	0.21930550659503237
-0.47529220437499475	0.21316169918444947
-0.47523116921874475	0.20694842639019942
-0.47517013406249475	0.20067223583598384
-0.47510909890624475	0.19438009626334982
-0.47504806374999475	0.18809872291705582
-0.47498702859374475	0.18180139715384663
-0.47492599343749475	0.17544499753124893
-0.47486495828124475	0.16902759551133018
-0.47480392312499475	0.16259127434294077
-0.47474288796874475	0.15616768831060474
-0.47468185281249475	0.14973840455896412
-0.47462081765624475	0.14326129476767765
-0.47455978249999475	0.13672710419142742
-0.47449874734374475	0.1301718316349988
-0.47443771218749475	0.1236299760260084
-0.47437667703124475	0.11709107925171461
-0.47431564187499475	0.11051593626582931
-0.47425460671874475	0.10388963232389183
-0.47419357156249475	0.09724134669002427
-0.47413253640624475	0.09060623569607955
-0.47407150124999475	0.08398089185432411
-0.47401046609374475	0.0773304950163177
-0.47394943093749475	0.07063643950154101
-0.47388839578124475	0.06392106817002899
-0.47382736062499475	0.05721834556746085
-0.47376632546874475	0.0505306427906331
-0.47370529031249475	0.043828261527484924
-0.47364425515624475	0.0370906013731497
-0.47358321999999475	0.030333819162396077
-0.47352218484374475	0.023589627939044577
-0.47346114968749475	0.016864761275284742
-0.47340011453124475	0.010134586106401954
-0.47333907937499475	0.003377809357515416
-0.47327804421874475	-0.003394643726938406
-0.47321700906249475	-0.010154009099822869
-0.47315597390624475	-0.016890725969843423
-0.47309493874999475	-0.02362478224890195
-0.47303390359374475	-0.030376940645103562
-0.47297286843749475	-0.03714018864818787
-0.47291183328124475	-0.043888821455826864
-0.47285079812499475	-0.0506116014248642
-0.47278976296874475	-0.0573245143216968
-0.47272872781249475	-0.06404729301769628
-0.47266769265624475	-0.07077600917684879
-0.47260665749999475	-0.07748793068479998
-0.47254562234374475	-0.08417094936909722
-0.47248458718749475	-0.09083777470435483
-0.47242355203124475	-0.0975067871336606
-0.47236251687499475	-0.10417619494466646
-0.47230148171874475	-0.11082591253703125
-0.47224044656249475	-0.11744355710885789
-0.47217941140624475	-0.12403921525806584
-0.47211837624999475	-0.13062989337467001
-0.47205734109374475	-0.1372154263251172
-0.47199630593749475	-0.14377804161009577
-0.47193527078124475	-0.1503052565200717
-0.47187423562499475	-0.15680494525308786
-0.47181320046874475	-0.16329285331313712
-0.47175216531249475	-0.1697700653920676
-0.47169113015624475	-0.1762207389952688
-0.47163009499999475	-0.18263244704337667
-0.47156905984374475	-0.18901131643393865
-0.47150802468749475	-0.19537200183211398
-0.47144698953124475	-0.20171664422357538
-0.47138595437499475	-0.2080311712078244
-0.47132491921874475	-0.214303275961505
-0.47126388406249475	-0.22053742374684024
-0.47120284890624475	-0.22674707800089128
-0.47114181374999475	-0.2329352566276299
-0.47108077859374475	-0.23908963676821146
-0.47101974343749475	-0.24519821806799763
-0.47095870828124475	-0.2512640039066476
-0.47089767312499475	-0.25729924782456454
-0.47083663796874475	-0.2633076521408541
-0.47077560281249475	-0.26927856498696556
-0.47071456765624475	-0.2752004371708339
-0.47065353249999475	-0.2810749946727935
-0.47059249734374475	-0.28691326032185827
-0.47053146218749475	-0.2927193316260611
-0.47047042703124475	-0.29848399912532997
-0.47040939187499475	-0.30419638748502636
-0.47034835671874475	-0.3098573527779029
-0.47028732156249475	-0.31547665424199933
