Time	Frequency
-0.5000056605937573	-4.4975659642147155e-23
-0.4999446254375073	-4.443718341604628e-23
-0.4998835902812573	-4.388915066114115e-23
-0.4998225551250073	-4.333218528305439e-23
-0.4997615199687573	-4.2766373581385894e-23
-0.4997004848125073	-4.2191327486672006e-23
-0.4996394496562573	-4.16069581189238e-23
-0.4995784145000073	-4.1013773683291294e-23
-0.4995173793437573	-4.0412272073984875e-23
-0.4994563441875073	-3.9802370663034075e-23
-0.4993953090312573	-3.918373105882136e-23
-0.4993342738750073	-3.8556469739063904e-23
-0.4992732387187573	-3.7921171092865185e-23
-0.4992122035625073	-3.727819145705732e-23
-0.4991511684062573	-3.6627320765688386e-23
-0.4990901332500073	-3.596830918530064e-23
-0.4990290980937573	-3.530144648571758e-23
-0.4989680629375073	-3.4627319237112533e-23
-0.4989070277812573	-3.3946127588771824e-23
-0.4988459926250073	-3.3257601281609655e-23
-0.4987849574687573	-3.2561631695558426e-23
-0.4987239223125073	-3.185864865463864e-23
-0.4986628871562573	-3.114917760723141e-23
-0.4986018520000073	-3.043326531347952e-23
-0.4985408168437573	-2.971064083617959e-23
-0.4984797816875073	-2.898135180986719e-23
-0.4984187465312573	-2.824591079967132e-23
-0.4983577113750073	-2.750474191418312e-23
-0.4982966762187573	-2.67577723078302e-23
-0.4982356410625073	-2.6004783285522374e-23
-0.4981746059062573	-2.524598202392157e-23
-0.4981135707500073	-2.4481924501432252e-23
-0.4980525355937573	-2.371291029642752e-23
-0.4979915004375073	-2.2938768124468713e-23
-0.4979304652812573	-2.2159352965217306e-23
-0.4978694301250073	-2.137500646319471e-23
-0.4978083949687573	-2.0586287514366513e-23
-0.4977473598125073	-1.979337676338072e-23
-0.4976863246562573	-1.8996054849763788e-23
-0.4976252895000073	-1.8194282862263424e-23
-0.4975642543437573	-1.7388508845458123e-23
-0.4975032191875073	-1.657924545027516e-23
-0.4974421840312573	-1.5766553650519202e-23
-0.4973811488750073	-1.4950208484053887e-23
-0.4973201137187573	-1.4130297240880748e-23
-0.4972590785625073	-1.330734444001032e-23
-0.4971980434062573	-1.248177589574579e-23
-0.4971370082500073	-1.1653534207744998e-23
-0.4970759730937573	-1.0822425303935357e-23
-0.4970149379375073	-9.988673074181115e-24
-0.4969539027812573	-9.152845109737358e-24
-0.4968928676250073	-8.315258894791891e-24
-0.4968318324687573	-7.475766107820652e-24
-0.4967707973125073	-6.634241672526023e-24
-0.4967097621562573	-5.791034989378889e-24
-0.4966487270000073	-4.946705547419678e-24
-0.4965876918437573	-4.101452248437966e-24
-0.4965266566875073	-3.255092081393565e-24
-0.4964656215312573	-2.4076070585821374e-24
-0.4964045863750073	-1.559435631547828e-24
-0.4963435512187573	-7.110744350590538e-25
-0.4962825160625073	1.3740502896544597e-25
-0.4962214809062573	9.861926712424416e-25
-0.4961604457500073	1.8351806819876482e-24
-0.4960994105937573	2.6838591634722555e-24
-0.4960383754375073	3.5318193540288816e-24
-0.4959773402812573	4.3790969627976224e-24
-0.4959163051250073	5.225844275402504e-24
-0.4958552699687573	6.071833463613555e-24
-0.4957942348125073	6.91653694578909e-24
-0.4957331996562573	7.759656046229913e-24
-0.4956721645000073	8.601296584076974e-24
-0.4956111293437573	9.44153644785835e-24
-0.4955500941875073	1.0280043442264565e-23
-0.4954890590312573	1.1116313356139201e-23
-0.4954280238750073	1.1950166568192267e-23
-0.4953669887187573	1.2781748275364432e-23
-0.4953059535625073	1.3611031423707274e-23
-0.4952449184062573	1.443758742363475e-23
-0.4951838832500073	1.5260976295233744e-23
-0.4951228480937573	1.6081154623037255e-23
-0.4950618129375073	1.689827560597434e-23
-0.4950007777812573	1.7712189340059974e-23
-0.4949397426250073	1.8522406212518893e-23
-0.4948787074687573	1.9328581309165562e-23
-0.4948176723125073	2.013078538508253e-23
-0.4947566371562573	2.0929136908904603e-23
-0.4946956020000073	2.17233492615319e-23
-0.4946345668437573	2.2512904766602722e-23
-0.4945735316875073	2.3297598949981272e-23
-0.4945124965312573	2.4077606196371296e-23
-0.4944514613750073	2.4852956024720687e-23
-0.4943904262187573	2.562322534045288e-23
-0.4943293910625073	2.6387927187389078e-23
-0.4942683559062573	2.7147009969536524e-23
-0.4942073207500073	2.7900697783278527e-23
-0.4941462855937573	2.864889896517486e-23
-0.4940852504375073	2.939108415507843e-23
-0.4940242152812573	3.012684293343006e-23
-0.4939631801250073	3.0856285023859827e-23
-0.4939021449687573	3.157965159222165e-23
-0.4938411098125073	3.229670203764344e-23
-0.4937800746562573	3.3006820534535655e-23
-0.4937190395000073	3.3709715712318705e-23
-0.4936580043437573	3.4405659533714253e-23
-0.4935969691875073	3.509486387543962e-23
-0.4935359340312573	3.577691513354883e-23
-0.4934748988750073	3.6451153350356477e-23
-0.4934138637187573	3.711745720642067e-23
-0.4933528285625073	3.7776239635267676e-23
-0.4932917934062573	3.842761896556025e-23
-0.4932307582500073	3.9070998716905584e-23
-0.4931697230937573	3.9705727890159503e-23
-0.4931086879375073	4.0331887184566995e-23
-0.4930476527812573	4.094999748876276e-23
-0.4929866176250073	4.156003564078035e-23
-0.4929255824687573	4.216123132914807e-23
-0.4928645473125073	4.2753007832292546e-23
-0.4928035121562573	4.333568711143373e-23
-0.4927424770000073	4.3909853800043475e-23
-0.4926814418437573	4.447527785125712e-23
-0.4926204066875073	4.503103144599533e-23
-0.4925593715312573	4.5576687052678715e-23
-0.4924983363750073	4.611281640814813e-23
-0.4924373012187573	4.663998659607669e-23
-0.4923762660625073	4.715771052506012e-23
-0.4923152309062573	4.7664961867335574e-23
-0.4922541957500073	4.8161549995664325e-23
-0.4921931605937573	4.864828866656621e-23
-0.4921321254375073	4.9125635832994744e-23
-0.4920710902812573	4.9592811004363884e-23
-0.4920100551250073	5.004876667440762e-23
-0.4919490199687573	5.049362386382508e-23
-0.4918879848125073	5.0928399480403824e-23
-0.4918269496562573	5.1353351881481455e-23
-0.4917659145000073	5.1767401112060674e-23
-0.4917048793437573	5.2169565074329826e-23
-0.4916438441875073	5.256032493317084e-23
-0.4915828090312573	5.294083199966869e-23
-0.4915217738750073	5.331105451463882e-23
-0.4914607387187573	5.366964061981675e-23
-0.4913997035625073	5.401579191009478e-23
-0.4913386684062573	5.435038756816186e-23
-0.4912776332500073	5.467461039543183e-23
-0.4912165980937573	5.498804822662479e-23
-0.4911555629375073	5.52891352605642e-23
-0.4910945277812573	5.557737280876615e-23
-0.4910334926250073	5.585403719682428e-23
-0.4909724574687573	5.612022735451314e-23
-0.4909114223125073	5.637509480681859e-23
-0.4908503871562573	5.661695359914758e-23
-0.4907893520000073	5.684571455980947e-23
-0.4907283168437573	5.706300958451322e-23
-0.4906672816875073	5.726971674418357e-23
-0.4906062465312573	5.746452299461817e-23
-0.4905452113750073	5.764574679132576e-23
-0.4904841762187573	5.781379995984536e-23
-0.4904231410625073	5.79705900668611e-23
-0.4903621059062573	5.811664289272706e-23
-0.4903010707500073	5.825019923308803e-23
-0.4902400355937573	5.836972480743671e-23
-0.4901790004375073	5.847618438886156e-23
-0.4901179652812573	5.85716473178862e-23
-0.4900569301250073	5.865617933406133e-23
-0.4899958949687573	5.872762877249399e-23
-0.4899348598125073	5.878474220457008e-23
-0.4898738246562573	5.882905673910434e-23
-0.4898127895000073	5.886267763813447e-23
-0.4897517543437573	5.888511990985807e-23
-0.4896907191875073	5.889392188284284e-23
-0.4896296840312573	5.888825499623052e-23
-0.4895686488750073	5.887022532453286e-23
-0.4895076137187573	5.884182439981453e-23
-0.4894465785625073	5.880193677549182e-23
-0.4893855434062573	5.87478951789868e-23
-0.4893245082500073	5.867942819229539e-23
-0.4892634730937573	5.859917656932447e-23
-0.4892024379375073	5.85088703678176e-23
-0.4891414027812573	5.840672184149753e-23
-0.4890803676250073	5.828998506151732e-23
-0.4890193324687573	5.815905793973928e-23
-0.4889582973125073	5.801705089992972e-23
-0.4888972621562573	5.786528240360731e-23
-0.4888362270000073	5.770127225474118e-23
-0.4887751918437573	5.752233562118552e-23
-0.4887141566875073	5.732963781093754e-23
-0.4886531215312573	5.712667296651219e-23
-0.4885920863750073	5.691420018539883e-23
-0.4885310512187573	5.668904246224952e-23
-0.4884700160625073	5.644871880737892e-23
-0.4884089809062573	5.619525959057516e-23
-0.4883479457500073	5.593246137707613e-23
-0.4882869105937573	5.566037049571333e-23
-0.4882258754375073	5.537510767282615e-23
-0.4881648402812573	5.507455631727125e-23
-0.4881038051250073	5.476170442733537e-23
-0.4880427699687573	5.444053171902193e-23
-0.4879817348125073	5.411021122815786e-23
-0.4879206996562573	5.376619560144182e-23
-0.4878596645000073	5.340691460576701e-23
-0.4877986293437573	5.303637793674102e-23
-0.4877375941875073	5.265859368817416e-23
-0.4876765590312573	5.2271706130097577e-23
-0.4876155238750073	5.1870574367623625e-23
-0.4875544887187573	5.145438207383715e-23
-0.4874934535625073	5.1028201870146583e-23
-0.4874324184062573	5.0595876629157736e-23
-0.4873713832500073	5.01543726236624e-23
-0.4873103480937573	4.969807740475191e-23
-0.4872493129375073	4.922714545601355e-23
-0.4871882777812573	4.874769353003229e-23
-0.4871272426250073	4.82631669093649e-23
-0.4870662074687573	4.7769262304740226e-23
-0.4870051723125073	4.726008710457946e-23
-0.4869441371562573	4.6736942835049947e-23
-0.4868831020000073	4.6206867271759344e-23
-0.4868220668437573	4.567266294388985e-23
-0.4867610316875073	4.5128778496355624e-23
-0.4866999965312573	4.456932705676319e-23
-0.4866389613750073	4.399687347341139e-23
-0.4865779262187573	4.3419112743558633e-23
-0.4865168910625073	4.2837948434195075e-23
-0.4864558559062573	4.2246748720217233e-23
-0.4863948207500073	4.163998952610346e-23
-0.4863337855937573	4.102148799559186e-23
-0.4862727504375073	4.0399206917448977e-23
-0.4862117152812573	3.9773965258477754e-23
-0.4861506801250073	3.91383639163409e-23
-0.4860896449687573	3.848759415114981e-23
-0.4860286098125073	3.78265767918102e-23
-0.4859675746562573	3.7163096009692055e-23
-0.4859065395000073	3.649681452790873e-23
-0.4858455043437573	3.5820002476717204e-23
-0.4857844691875073	3.51288693373406e-23
-0.4857234340312573	3.442913791409277e-23
-0.4856623988750073	3.3727937717761463e-23
-0.4856013637187573	3.302383347360089e-23
-0.4855403285625073	3.23092771095632e-23
-0.4854792934062573	3.1581701719937554e-23
-0.4854182582500073	3.0847229761558804e-23
-0.4853572230937573	3.0111936997265744e-23
-0.4852961879375073	2.937348070748182e-23
-0.4852351527812573	2.862495931615819e-23
-0.4851741176250073	2.7865066434936686e-23
-0.4851130824687573	2.7099905462916414e-23
-0.4850520473125073	2.6334266066427108e-23
-0.4849910121562573	2.556518029634433e-23
-0.4849299770000073	2.478674405990622e-23
-0.4848689418437573	2.3998810570075492e-23
-0.4848079066875073	2.320708605662657e-23
-0.4847468715312573	2.2414993669078618e-23
-0.4846858363750073	2.1619256899192002e-23
-0.4846248012187573	2.0815182758826914e-23
-0.4845637660625073	2.0003579639146094e-23
-0.4845027309062573	1.9189470447604542e-23
-0.4844416957500073	1.837498667295075e-23
-0.4843806605937573	1.755685022099889e-23
-0.4843196254375073	1.673163776600018e-23
-0.4842585902812573	1.59008361981264e-23
-0.4841975551250073	1.5068597964418563e-23
-0.4841365199687573	1.4235935625585986e-23
-0.4840754848125073	1.3399821157801957e-23
-0.4840144496562573	1.2558050546722082e-23
-0.4839534145000073	1.1712521980632833e-23
-0.4838923793437573	1.0866440443796253e-23
-0.4838313441875073	1.0019935847405398e-23
-0.4837703090312573	9.17043353613746e-24
-0.4837092738750073	8.316817082018983e-24
-0.4836482387187573	7.461122566821722e-24
-0.4835872035625073	6.60558448156651e-24
-0.4835261684062573	5.749693994733141e-24
-0.4834651332500073	4.891480404972493e-24
-0.4834040980937573	4.030759889644282e-24
-0.4833430629375073	3.169478848593877e-24
-0.4832820277812573	2.3089396431968897e-24
-0.4832209926250073	1.448235238522013e-24
-0.4831599574687573	5.860685771301328e-25
-0.4830989223125073	-2.770184276262913e-25
-0.4830378871562573	-1.139340476565312e-24
-0.4829768520000073	-2.000413461827471e-24
-0.4829158168437573	-2.861305783252954e-24
-0.4828547816875073	-3.722613526822674e-24
-0.4827937465312573	-4.583286842613623e-24
-0.4827327113750073	-5.442049239785206e-24
-0.4826716762187573	-6.299112890177038e-24
-0.4826106410625073	-7.155525772549811e-24
-0.4825496059062573	-8.011212560701373e-24
-0.4824885707500073	-8.86478758392125e-24
-0.4824275355937573	-9.715437425301839e-24
-0.4823665004375073	-1.0563936592255727e-23
-0.4823054652812573	-1.1411189606966065e-23
-0.4822444301250073	-1.225652436749392e-23
-0.4821833949687573	-1.3098389774870808e-23
-0.4821223598125073	-1.3936447198296416e-23
-0.4820613246562573	-1.4771864638332915e-23
-0.4820002895000073	-1.5605298430563944e-23
-0.4819392543437573	-1.6435581555797228e-23
-0.4818782191875073	-1.7261149462908247e-23
-0.4818171840312573	-1.8082128813645477e-23
-0.4817561488750073	-1.8899944495937457e-23
-0.4816951137187573	-1.9714953649593352e-23
-0.4816340785625073	-2.0525605978691687e-23
-0.4815730434062573	-2.133043267642616e-23
-0.4815120082500073	-2.2129966761080545e-23
-0.4814509730937573	-2.292574324145373e-23
-0.4813899379375073	-2.37178036182393e-23
-0.4813289027812573	-2.4504358288662933e-23
-0.4812678676250073	-2.5284129430255827e-23
-0.4812068324687573	-2.6057967739824232e-23
-0.4811457973125073	-2.6827378724809387e-23
-0.4810847621562573	-2.759209275162212e-23
-0.4810237270000073	-2.835021085577374e-23
-0.4809626918437573	-2.9100715059419553e-23
-0.4809016566875073	-2.9844693260216834e-23
-0.4808406215312573	-3.0583514203482497e-23
-0.4807795863750073	-3.1316622893216175e-23
-0.4807185512187573	-3.204213630621732e-23
-0.4806575160625073	-3.2759333957522046e-23
-0.4805964809062573	-3.3469434814429456e-23
-0.4805354457500073	-3.4173584064425284e-23
-0.4804744105937573	-3.4870998436024635e-23
-0.4804133754375073	-3.555992052450605e-23
-0.4803523402812573	-3.623993694934462e-23
-0.4802913051250073	-3.6912307215570214e-23
-0.4802302699687573	-3.757789810611819e-23
-0.4801692348125073	-3.823575232783874e-23
-0.4801081996562573	-3.8884313747861656e-23
-0.4800471645000073	-3.952346170842141e-23
-0.4799861293437573	-4.015441734469048e-23
-0.4799250941875073	-4.077774344608175e-23
-0.4798640590312573	-4.139237579631002e-23
-0.4798030238750073	-4.199702301870446e-23
-0.4797419887187573	-4.259182735782343e-23
-0.4796809535625073	-4.317790059590802e-23
-0.4796199184062573	-4.375549683704113e-23
-0.4795588832500073	-4.432350623431418e-23
-0.4794978480937573	-4.488093320976879e-23
-0.4794368129375073	-4.5428134624851126e-23
-0.4793757777812573	-4.596605480851118e-23
-0.4793147426250073	-4.649466481928807e-23
-0.4792537074687573	-4.7012889011172416e-23
-0.4791926723125073	-4.752004327709874e-23
-0.4791316371562573	-4.80166313578331e-23
-0.4790706020000073	-4.8503388074969716e-23
-0.4790095668437573	-4.898004910773234e-23
-0.4789485316875073	-4.9445634688590696e-23
-0.4788874965312573	-4.989974970994168e-23
-0.4788264613750073	-5.0342970405142693e-23
-0.4787654262187573	-5.07758094729195e-23
-0.4787043910625073	-5.119783080163837e-23
-0.4786433559062573	-5.16081951724741e-23
-0.4785823207500073	-5.2006770253967427e-23
-0.4785212855937573	-5.239415065489685e-23
-0.4784602504375073	-5.277061529629169e-23
-0.4783992152812573	-5.313560642847497e-23
-0.4783381801250073	-5.34884671411783e-23
-0.4782771449687573	-5.382929123297159e-23
-0.4782161098125073	-5.415863048154485e-23
-0.4781550746562573	-5.447654544727068e-23
-0.4780940395000073	-5.47824303040245e-23
-0.4780330043437573	-5.507583380602149e-23
-0.4779719691875073	-5.535701752160293e-23
-0.4779109340312573	-5.562643588365708e-23
-0.4778498988750073	-5.588395494404356e-23
-0.4777888637187573	-5.61289848767417e-23
-0.4777278285625073	-5.636129314364655e-23
-0.4776667934062573	-5.658125371393128e-23
-0.4776057582500073	-5.678918047219327e-23
-0.4775447230937573	-5.698477995003041e-23
-0.4774836879375073	-5.716754051322176e-23
-0.4774226527812573	-5.73374421920933e-23
-0.4773616176250073	-5.749490984739819e-23
-0.4773005824687573	-5.764009940740461e-23
-0.4772395473125073	-5.777260915615667e-23
-0.4771785121562573	-5.789204441429829e-23
-0.4771174770000073	-5.79985660345233e-23
-0.4770564418437573	-5.809259292549113e-23
-0.4769954066875073	-5.817412384900654e-23
-0.4769343715312573	-5.824271111053837e-23
-0.4768733363750073	-5.829811358639356e-23
-0.4768123012187573	-5.834062920499069e-23
-0.4767512660625073	-5.837061071102819e-23
-0.4766902309062573	-5.838791198684591e-23
-0.4766291957500073	-5.839210281054229e-23
-0.4765681605937573	-5.838311399021012e-23
-0.4765071254375073	-5.836133025397979e-23
-0.4764460902812573	-5.832699880161976e-23
-0.4763850551250073	-5.827985811078416e-23
-0.4763240199687573	-5.821954557305029e-23
-0.4762629848125073	-5.81461585405061e-23
-0.4762019496562573	-5.806011806473257e-23
-0.4761409145000073	-5.796154673346554e-23
-0.4760798793437573	-5.78501070099773e-23
-0.4760188441875073	-5.772554181113928e-23
-0.4759578090312573	-5.758809460942367e-23
-0.4758967738750073	-5.743817598943495e-23
-0.4758357387187573	-5.727578303732058e-23
-0.4757747035625073	-5.710054819297637e-23
-0.4757136684062573	-5.691234321511936e-23
-0.4756526332500073	-5.671152467033204e-23
-0.4755915980937573	-5.649845167208805e-23
-0.4755305629375073	-5.627300576380404e-23
-0.4754695277812573	-5.603483645253586e-23
-0.4754084926250073	-5.578396057516422e-23
-0.4753474574687573	-5.552080905291549e-23
-0.4752864223125073	-5.524565104685437e-23
-0.4752253871562573	-5.49582680042744e-23
-0.4751643520000073	-5.465836930172025e-23
-0.4751033168437573	-5.434611992029316e-23
-0.4750422816875073	-5.402198486869592e-23
-0.4749812465312573	-5.36861271785728e-23
-0.4749202113750073	-5.333826591243541e-23
-0.4748591762187573	-5.297820526608625e-23
-0.4747981410625073	-5.2606237559661086e-23
-0.4747371059062573	-5.2222814421022156e-23
-0.4746760707500073	-5.182798441089576e-23
-0.4746150355937573	-5.142144608618625e-23
-0.4745540004375073	-5.100312843319869e-23
-0.4744929652812573	-5.057341996424994e-23
-0.4744319301250073	-5.0132712445275624e-23
-0.4743708949687573	-4.968095185278245e-23
-0.4743098598125073	-4.9217866225255516e-23
-0.4742488246562573	-4.87435209852674e-23
-0.4741877895000073	-4.825836324555396e-23
-0.4741267543437573	-4.7762693656129217e-23
-0.4740657191875073	-4.725636954662325e-23
-0.4740046840312573	-4.673918471846887e-23
-0.4739436488750073	-4.6211342851747037e-23
-0.4738826137187573	-4.5673310394116825e-23
-0.4738215785625073	-4.5125281338111587e-23
-0.4737605434062573	-4.456706391824981e-23
-0.4736995082500073	-4.3998552674835077e-23
-0.4736384730937573	-4.3420065561997026e-23
-0.4735774379375073	-4.2832040840645525e-23
-0.4735164027812573	-4.2234560103590044e-23
-0.4734553676250073	-4.162741739465444e-23
-0.4733943324687573	-4.1010628796699193e-23
-0.4733332973125073	-4.038460579135094e-23
-0.4732722621562573	-3.974972546204903e-23
-0.4732112270000073	-3.910596076569302e-23
-0.4731501918437573	-3.845313488608386e-23
-0.4730891566875073	-3.779140435610379e-23
-0.4730281215312573	-3.7121233618418717e-23
-0.4729670863750073	-3.644290059056133e-23
-0.4729060512187573	-3.575628937073595e-23
-0.4728450160625073	-3.5061290163487906e-23
-0.4727839809062573	-3.435819905268715e-23
-0.4727229457500073	-3.364750053719273e-23
-0.4726619105937573	-3.292935250638332e-23
-0.4726008754375073	-3.2203568988524697e-23
-0.4725398402812573	-3.1470144611255134e-23
-0.4724788051250073	-3.072951330198699e-23
-0.4724177699687573	-2.99821311827512e-23
-0.4723567348125073	-2.9228018569692693e-23
-0.4722956996562573	-2.8466969653942875e-23
-0.4722346645000073	-2.769912135094816e-23
-0.4721736293437573	-2.692500610852605e-23
-0.4721125941875073	-2.6144988630885385e-23
-0.4720515590312573	-2.5358947858892813e-23
-0.4719905238750073	-2.4566712911933004e-23
-0.4719294887187573	-2.3768599576253097e-23
-0.4718684535625073	-2.296521395334227e-23
-0.4718074184062573	-2.2156795334890468e-23
-0.4717463832500073	-2.1343091871435306e-23
-0.4716853480937573	-2.052399374458289e-23
-0.4716243129375073	-1.9699989013738683e-23
