Time	Frequency
-0.5000208146875025	-0.5681770750186128
-0.4999597795312525	-0.56405863774223
-0.4998987443750025	-0.5598025537094652
-0.4998377092187525	-0.5554026219648878
-0.4997766740625025	-0.5508638068659608
-0.4997156389062525	-0.5461979431500067
-0.4996546037500025	-0.5414124886015527
-0.4995935685937525	-0.5365040094040615
-0.4995325334375025	-0.5314630357767328
-0.4994714982812525	-0.5262850555644359
-0.4994104631250025	-0.5209761828327806
-0.4993494279687525	-0.5155478366590145
-0.4992883928125025	-0.510006179949563
-0.4992273576562525	-0.504347204201666
-0.4991663225000025	-0.4985623028930913
-0.4991052873437525	-0.492648455837958
-0.4990442521875025	-0.48661255400927655
-0.4989832170312525	-0.48046552183877933
-0.4989221818750025	-0.4742124569757204
-0.4988611467187525	-0.46784895574675794
-0.4988001115625025	-0.46136724571907595
-0.4987390764062525	-0.4547657021628974
-0.4986780412500025	-0.4480519527366454
-0.4986170060937525	-0.4412364463910347
-0.4985559709375025	-0.4343232430040262
-0.4984949357812525	-0.4273075687038024
-0.4984339006250025	-0.4201824871058187
-0.4983728654687525	-0.4129476380336576
-0.4983118303125025	-0.4056111264848662
-0.4982507951562525	-0.3981827875424071
-0.4981897600000025	-0.3906658289546582
-0.4981287248437525	-0.3830554345957622
-0.4980676896875025	-0.3753456467211485
-0.4980066545312525	-0.36753730346459645
-0.4979456193750025	-0.35963883679501096
-0.4978845842187525	-0.35165925041873247
-0.4978235490625025	-0.3436007154972418
-0.4977625139062525	-0.33545840164968893
-0.4977014787500025	-0.3272274871268429
-0.4976404435937525	-0.3189100118776029
-0.4975794084375025	-0.3105145957727993
-0.4975183732812525	-0.3020494383267597
-0.4974573381250025	-0.29351590739878547
-0.4973963029687525	-0.28490930475114723
-0.4973352678125025	-0.27622585761473256
-0.4972742326562525	-0.26746859375844384
-0.4972131975000025	-0.25864613632798417
-0.4971521623437525	-0.24976582063779504
-0.4970911271875025	-0.24082825369956395
-0.4970300920312525	-0.231828924706488
-0.4969690568750025	-0.22276509769360187
-0.4969080217187525	-0.21364074105974973
-0.4968469865625025	-0.2044644761770047
-0.4967859514062525	-0.19524281930591425
-0.4967249162500025	-0.185975763806767
-0.4966638810937525	-0.17665908096838112
-0.4966028459375025	-0.1672908243609094
-0.4965418107812525	-0.15787550843023218
-0.4964807756250025	-0.1484217099080816
-0.4964197404687525	-0.1389354558717514
-0.4963587053125025	-0.1294163087649036
-0.4962976701562525	-0.11986021168184169
-0.4962366350000025	-0.11026593725333023
-0.4961755998437525	-0.1006385072952667
-0.4961145646875025	-0.09098627569454851
-0.4960535295312525	-0.08131470731476365
-0.4959924943750025	-0.07162317155658376
-0.4959314592187525	-0.061907926436967686
-0.4958704240625025	-0.05216825437968083
-0.4958093889062525	-0.042409551889827445
-0.4957483537500025	-0.03264008856621557
-0.4956873185937525	-0.022864794444337026
-0.4956262834375025	-0.013082595189204895
-0.4955652482812525	-0.0032898686722383852
-0.4955042131250025	0.006513590551903812
-0.4954431779687525	0.01632202780314947
-0.4953821428125025	0.02612719747859837
-0.4953211076562525	0.03592440924087839
-0.4952600725000025	0.045714982455343015
-0.4951990373437525	0.05550254636423538
-0.4951380021875025	0.06528696250672275
-0.4950769670312525	0.0750621408291605
-0.4950159318750025	0.08481996025427281
-0.4949548967187525	0.0945562055232161
-0.4948938615625025	0.10427246520589785
-0.4948328264062525	0.11397215230196589
-0.4947717912500025	0.12365475972153117
-0.4947107560937525	0.1333140993095487
-0.4946497209375025	0.1429422641410073
-0.4945886857812525	0.15253538368422415
-0.4945276506250025	0.16209530212590137
-0.4944666154687525	0.17162538881151576
-0.4944055803125025	0.18112476431741853
-0.4943445451562525	0.19058684420457567
-0.4942835100000025	0.20000370343536927
-0.4942224748437525	0.20937187141998947
-0.4941614396875025	0.21869367329751102
-0.4941004045312525	0.22797269719514537
-0.4940393693750025	0.237207917787197
-0.4939783342187525	0.2463924430146198
-0.4939172990625025	0.2555182519634845
-0.4938562639062525	0.26458219079390427
-0.4937952287500025	0.2735870854844023
-0.4937341935937525	0.2825366995191078
-0.4936731584375025	0.29142963338802796
-0.4936121232812525	0.3002584859738558
-0.4935510881250025	0.30901521761068407
-0.4934900529687525	0.3176972690826806
-0.4934290178125025	0.32630815896017795
-0.4933679826562525	0.334851879526831
-0.4933069475000025	0.34332672420765953
-0.4932459123437525	0.3517247977545676
-0.4931848771875025	0.3600378664853976
-0.4931238420312525	0.3682637827428532
-0.4930628068750025	0.3764068624723357
-0.4930017717187525	0.38447158888434185
-0.4929407365625025	0.3924559609099819
-0.4928797014062525	0.40035138899422446
-0.4928186662500025	0.40814942565057793
-0.4927576310937525	0.4158485819350223
-0.4926965959375025	0.423454175999492
-0.4926355607812525	0.43097109808137296
-0.4925745256250025	0.4383968209949559
-0.4925134904687525	0.44572195182084134
-0.4924524553125025	0.45293790530990374
-0.4923914201562525	0.4600439940303457
-0.4923303850000025	0.4670466197262519
-0.4922693498437525	0.4739510939856674
-0.4922083146875025	0.48075432363296905
-0.4921472795312525	0.487446007143657
-0.4920862443750025	0.49401739897769964
-0.4920252092187525	0.5004687964056697
-0.4919641740625025	0.5068078956320207
-0.4919031389062525	0.5130404303512176
-0.4918421037500025	0.5191625673914956
-0.4917810685937525	0.5251629839229374
-0.4917200334375025	0.5310328258678252
-0.4916589982812525	0.5367735037338389
-0.4915979631250025	0.5423941453258522
-0.4915369279687525	0.5479009489576138
-0.4914758928125025	0.5532891604339238
-0.4914148576562525	0.5585461715288782
-0.4913538225000025	0.5636630062444411
-0.4912927873437525	0.5686425285669985
-0.4912317521875025	0.573495644770424
-0.4911707170312525	0.5782289837773675
-0.4911096818750025	0.5828365698358563
-0.4910486467187525	0.587304301832726
-0.4909876115625025	0.5916231145078589
-0.4909265764062525	0.5957975267982251
-0.4908655412500025	0.5998404516707394
-0.4908045060937525	0.6037590124521588
-0.4907434709375025	0.6075457458035055
-0.4906824357812525	0.6111846950525116
-0.4906214006250025	0.6146667755893854
-0.4905603654687525	0.61799871439527
-0.4904993303125025	0.6211958325748863
-0.4904382951562525	0.6242654849075298
-0.4903772600000025	0.6271981010892916
-0.4903162248437525	0.6299755977519468
-0.4902551896875025	0.632589184097303
-0.4901941545312525	0.6350483353758941
-0.4901331193750025	0.6373710695274722
-0.4900720842187525	0.6395647777953658
-0.4900110490625025	0.6416172511180933
-0.4899500139062525	0.6435078865063099
-0.4898889787500025	0.6452283927992788
-0.4898279435937525	0.6467917110089181
-0.4897669084375025	0.6482190623546725
-0.4897058732812525	0.6495175412692424
-0.4896448381250025	0.6506713918419401
-0.4895838029687525	0.6516569902389978
-0.4895227678125025	0.6524670550959516
-0.4894617326562525	0.6531189969300514
-0.4894006975000025	0.6536376492571642
-0.4893396623437525	0.6540291755252494
-0.4892786271875025	0.6542732710487288
-0.4892175920312525	0.6543429932041601
-0.4891565568750025	0.6542328265608143
-0.4890955217187525	0.6539657185114652
-0.4890344865625025	0.6535703882049134
-0.4889734514062525	0.6530512142696402
-0.4889124162500025	0.6523822019076551
-0.4888513810937525	0.6515328532650281
-0.4887903459375025	0.6505003682505646
-0.4887293107812525	0.6493143890621315
-0.4886682756250025	0.6480076652209467
-0.4886072404687525	0.6465817614882499
-0.4885462053125025	0.6450038603407107
-0.4884851701562525	0.6432398494667343
-0.4884241350000025	0.6412907425921016
-0.4883630998437525	0.6391940278574183
-0.4883020646875025	0.6369864858002057
-0.4882410295312525	0.634665660519497
-0.4881799943750025	0.6321907103781925
-0.4881189592187525	0.6295239727357773
-0.4880579240625025	0.6266715589452504
-0.4879968889062525	0.6236799774506203
-0.4879358537500025	0.6205899000075616
-0.4878748185937525	0.6173935710041575
-0.4878137834375025	0.6140410465095633
-0.4877527482812525	0.6104913254001588
-0.4876917131250025	0.6067568662219714
-0.4876306779687525	0.6028941946737469
-0.4875696428125025	0.5989475923457338
-0.4875086076562525	0.5949027089383706
-0.4874475725000025	0.5906995152146729
-0.4873865373437525	0.5862940228523333
-0.4873255021875025	0.5817062998704148
-0.4872644670312525	0.5770036776281086
-0.4872034318750025	0.572233586810396
-0.4871423967187525	0.5673739824628595
-0.4870813615625025	0.5623542100615536
-0.4870203264062525	0.5571277822745686
-0.4869592912500025	0.5517232610872962
-0.4868982560937525	0.5462190970270454
-0.4868372209375025	0.5406653327098097
-0.4867761857812525	0.5350315345911464
-0.4867151506250025	0.5292363938151573
-0.4866541154687525	0.523231544464801
-0.4865930803125025	0.5170544867341168
-0.4865320451562525	0.5107943814393139
-0.4864710100000025	0.5045030200480374
-0.4864099748437525	0.498141385709561
-0.4863489396875025	0.4916184086473774
-0.4862879045312525	0.48488484204702437
-0.4862268693750025	0.4779869165826996
-0.4861658342187525	0.47102308341700694
-0.4861047990625025	0.4640457326799931
-0.4860437639062525	0.45700783557136065
-0.4859827287500025	0.44981058035918614
-0.4859216935937525	0.4424052421905131
-0.4858606584375025	0.4348457457476793
-0.4857996232812525	0.4272370669451517
-0.4857385881250025	0.4196305885257027
-0.4856775529687525	0.4119727567967799
-0.4856165178125025	0.4041602632579136
-0.4855554826562525	0.3961465335103905
-0.4854944475000025	0.3879913119902798
-0.4854334123437525	0.3798024736106635
-0.4853723771875025	0.37162874579267335
-0.4853113420312525	0.3634121649616959
-0.4852503068750025	0.3550487071319988
-0.4851892717187525	0.34649558007853
-0.4851282365625025	0.33781614949222843
-0.4850672014062525	0.3291172406054555
-0.4850061662500025	0.32044306725290195
-0.4849451310937525	0.3117334440209328
-0.4848840959375025	0.30288777894894314
-0.4848230607812525	0.29386886629417375
-0.4847620256250025	0.28474127521951037
-0.4847009904687525	0.27560675738006657
-0.4846399553125025	0.2665035045577406
-0.4845789201562525	0.2573713966142701
-0.4845178850000025	0.2481168313437165
-0.4844568498437525	0.23870955304104088
-0.4843958146875025	0.22921336911241902
-0.4843347795312525	0.2197217170982767
-0.4842737443750025	0.2102654500394849
-0.4842127092187525	0.2007862021491554
-0.4841516740625025	0.1911999634247849
-0.4840906389062525	0.18148418477062053
-0.4840296037500025	0.171700403950041
-0.4839685685937525	0.16193194071185887
-0.4839075334375025	0.15220207409937692
-0.4838464982812525	0.14245543020725238
-0.4837854631250025	0.13261878526543822
-0.4837244279687525	0.1226772800009662
-0.4836633928125025	0.11268919526042337
-0.4836023576562525	0.10272692019194875
-0.4835413225000025	0.09280620765437776
-0.4834802873437525	0.08287522046383253
-0.4834192521875025	0.07287183666114184
-0.4833582170312525	0.06278868900686203
-0.4832971818750025	0.052680396805816015
-0.4832361467187525	0.04260832477356838
-0.4831751115625025	0.03258107861632065
-0.4831140764062525	0.02255076073630985
-0.4830530412500025	0.012466196155908714
-0.4829920060937525	0.002326880895281761
-0.4829309709375025	-0.007816602834061982
-0.4828699357812525	-0.017913475475069288
-0.4828089006250025	-0.027961361333692362
-0.4827478654687525	-0.038003940272329555
-0.4826868303125025	-0.04808240049931687
-0.4826257951562525	-0.05819166639046328
-0.4825647600000025	-0.06828532286596163
-0.4825037248437525	-0.07832201991232896
-0.4824426896875025	-0.0883045276756414
-0.4823816545312525	-0.09827240056115545
-0.4823206193750025	-0.10825789700910265
-0.4822595842187525	-0.11825134425832143
-0.4821985490625025	-0.12821048758084902
-0.4821375139062525	-0.13810232216961793
-0.4820764787500025	-0.147933594708826
-0.4820154435937525	-0.1577397387667367
-0.4819544084375025	-0.16754535565194342
-0.4818933732812525	-0.17733747992289697
-0.4818323381250025	-0.18707815016360316
-0.4817713029687525	-0.19674168009788148
-0.4817102678125025	-0.2063376663282968
-0.4816492326562525	-0.21589725774495996
-0.4815881975000025	-0.22543830887885832
-0.4815271623437525	-0.23494554332926568
-0.4814661271875025	-0.24438522364835075
-0.4814050920312525	-0.25373793398194683
-0.4813440568750025	-0.26301536425820843
-0.4812830217187525	-0.27224482170321185
-0.4812219865625025	-0.28143856128520167
-0.4811609514062525	-0.29057971562142604
-0.4810999162500025	-0.29963848470127286
-0.4810388810937525	-0.30860080030772913
-0.4809778459375025	-0.31747973177224287
-0.4809168107812525	-0.32629881028756735
-0.4808557756250025	-0.3350654641449205
-0.4807947404687525	-0.34376203714713166
-0.4807337053125025	-0.35236273826137937
-0.4806726701562525	-0.36085807995161684
-0.4806116350000025	-0.36926170198241737
-0.4805505998437525	-0.37759345654866183
-0.4804895646875025	-0.3858568906003289
-0.4804285295312525	-0.3940342764404104
-0.4803674943750025	-0.4021035516340071
-0.4803064592187525	-0.4100589730302051
-0.4802454240625025	-0.41791426859097597
-0.4801843889062525	-0.4256858453442676
-0.4801233537500025	-0.43337404729504236
-0.4800623185937525	-0.4409616157907781
-0.4800012834375025	-0.44843017863935564
-0.4799402482812525	-0.45577722058171216
-0.4798792131250025	-0.46301613374008993
-0.4798181779687525	-0.47015996837364527
-0.4797571428125025	-0.477206253450868
-0.4796961076562525	-0.48413840935608005
-0.4796350725000025	-0.4909416366808784
-0.4795740373437525	-0.49761639811410385
-0.4795130021875025	-0.5041756692043811
-0.4794519670312525	-0.5106293979006128
-0.4793909318750025	-0.5169727016503027
-0.4793298967187525	-0.52318981335477
-0.4792688615625025	-0.5292691419365484
-0.4792078264062525	-0.535213569958974
-0.4791467912500025	-0.5410355029782375
-0.4790857560937525	-0.5467422404356924
-0.4790247209375025	-0.5523271004989687
-0.4789636857812525	-0.5577753023517308
-0.4789026506250025	-0.5630780893100318
-0.4788416154687525	-0.5682402786679598
-0.4787805803125025	-0.5732736013932964
-0.4787195451562525	-0.5781830695339611
-0.4786585100000025	-0.5829606516841376
-0.4785974748437525	-0.5875926235694925
-0.4785364396875025	-0.592072704575731
-0.4784754045312525	-0.5964072836849708
-0.4784143693750025	-0.6006074387426538
-0.4783533342187525	-0.6046762499555975
-0.4782922990625025	-0.6086046681455185
-0.4782312639062525	-0.6123800640099971
-0.4781702287500025	-0.615998360081836
-0.4781091935937525	-0.619467125532384
-0.4780481584375025	-0.6227966387243885
-0.4779871232812525	-0.6259883859015918
-0.4779260881250025	-0.6290328365702237
-0.4778650529687525	-0.631918595994691
-0.4778040178125025	-0.6346433737037672
-0.4777429826562525	-0.637215466261272
-0.4776819475000025	-0.639644355549289
-0.4776209123437525	-0.6419302714354628
-0.4775598771875025	-0.6440634951439241
-0.4774988420312525	-0.6460339457064022
-0.4774378068750025	-0.6478409782664087
-0.4773767717187525	-0.6494933306831381
-0.4773157365625025	-0.6509995078306753
-0.4772547014062525	-0.6523586648372067
-0.4771936662500025	-0.653561278485533
-0.4771326310937525	-0.6545986954683051
-0.4770715959375025	-0.6554716332560337
-0.4770105607812525	-0.6561889787474733
-0.4769495256250025	-0.6567582954982566
-0.4768884904687525	-0.6571779054470986
-0.4768274553125025	-0.6574386127335775
-0.4767664201562525	-0.6575331237781665
-0.4767053850000025	-0.6574633899798796
-0.4766443498437525	-0.6572383892396761
-0.4765833146875025	-0.6568647871206382
-0.4765222795312525	-0.6563401849443697
-0.4764612443750025	-0.655655822284351
-0.4764002092187525	-0.6548057744496256
-0.4763391740625025	-0.6537930950168205
-0.4762781389062525	-0.6526266782861317
-0.4762171037500025	-0.6513122499848226
-0.4761560685937525	-0.6498468368417235
-0.4760950334375025	-0.6482223075372412
-0.4760339982812525	-0.6464341623473113
-0.4759729631250025	-0.6444864335228377
-0.4759119279687525	-0.6423877566626475
-0.4758508928125025	-0.6401428614449255
-0.4757898576562525	-0.6377482998475189
-0.4757288225000025	-0.6351966852653014
-0.4756677873437525	-0.6324849271968542
-0.4756067521875025	-0.629617918856552
-0.4755457170312525	-0.6266039792659305
-0.4754846818750025	-0.6234469218844105
-0.4754236467187525	-0.6201429670126389
-0.4753626115625025	-0.6166855520167734
-0.4753015764062525	-0.6130729148867229
-0.4752405412500025	-0.6093106086428578
-0.4751795060937525	-0.6054065072743563
-0.4751184709375025	-0.6013635894925345
-0.4750574357812525	-0.5971779261189599
-0.4749964006250025	-0.5928438144191743
-0.4749353654687525	-0.5883606584985552
-0.4748743303125025	-0.5837345318328155
-0.4748132951562525	-0.5789729221977843
-0.4747522600000025	-0.5740781794175326
-0.4746912248437525	-0.5690463763170093
-0.4746301896875025	-0.5638725825113535
-0.4745691545312525	-0.5585571014090703
-0.4745081193750025	-0.5531063642145312
-0.4744470842187525	-0.5475275707693854
-0.4743860490625025	-0.5418225966559044
-0.4743250139062525	-0.5359874861166316
-0.4742639787500025	-0.5300179747968577
-0.4742029435937525	-0.523915261245671
-0.4741419084375025	-0.5176861507371129
-0.4740808732812525	-0.5113375367427662
-0.4740198381250025	-0.5048709117406196
-0.4739588029687525	-0.49828244038566255
-0.4738977678125025	-0.49156845018102396
-0.4738367326562525	-0.4847307918270318
-0.4737756975000025	-0.4777766034272897
-0.4737146623437525	-0.47071265674309326
-0.4736536271875025	-0.4635400967906519
-0.4735925920312525	-0.45625500081634307
-0.4735315568750025	-0.4488541602489954
-0.4734705217187525	-0.4413401138504709
-0.4734094865625025	-0.4337203203009113
-0.4733484514062525	-0.4260014115200686
-0.4732874162500025	-0.4181843192768082
-0.4732263810937525	-0.41026519259067173
-0.4731653459375025	-0.4022412471257975
-0.4731043107812525	-0.39411555221539096
-0.4730432756250025	-0.3858958318175926
-0.4729822404687525	-0.3775885578703504
-0.4729212053125025	-0.36919438760208967
-0.4728601701562525	-0.3607095486948124
-0.4727991350000025	-0.35213174165419897
-0.4727380998437525	-0.3434645575268658
-0.4726770646875025	-0.3347158953339748
-0.4726160295312525	-0.3258920262073274
-0.4725549943750025	-0.3169933567137325
-0.4724939592187525	-0.30801614207114286
-0.4724329240625025	-0.29895845881523037
-0.4723718889062525	-0.2898244263122669
-0.4723108537500025	-0.2806223006617885
-0.4722498185937525	-0.27135831093049173
-0.4721887834375025	-0.26203250713032095
-0.4721277482812525	-0.25264090882639884
-0.4720667131250025	-0.2431818598874799
-0.4720056779687525	-0.23366007566139077
-0.4719446428125025	-0.2240841988200874
-0.4718836076562525	-0.21446036369734664
-0.4718225725000025	-0.20478829326576403
-0.4717615373437525	-0.1950638907656934
-0.4717005021875025	-0.18528575762998334
-0.4716394670312525	-0.17545907005407824
-0.4715784318750025	-0.16559280088302616
-0.4715173967187525	-0.15569297998746046
-0.4714563615625025	-0.14575885233468786
-0.4713953264062525	-0.1357859652526867
-0.4713342912500025	-0.12577317315260753
-0.4712732560937525	-0.11572644780279968
-0.4712122209375025	-0.10565544322666641
-0.4711511857812525	-0.09556612310497455
-0.4710901506250025	-0.08545697616456156
-0.4710291154687525	-0.07532289880497721
-0.4709680803125025	-0.0651629543178673
-0.4709070451562525	-0.054984000477667924
-0.4708460100000025	-0.04479632242075659
-0.4707849748437525	-0.03460564137740881
-0.4707239396875025	-0.02440962160540878
-0.4706629045312525	-0.014202599297819026
-0.4706018693750025	-0.003983914336061697
-0.4705408342187525	0.006238671241698682
-0.4704797990625025	0.01645412968210766
-0.4704187639062525	0.02665689759644441
-0.4703577287500025	0.036850333619168125
-0.4702966935937525	0.04704101820390906
-0.4702356584375025	0.05722938123739993
-0.4701746232812525	0.06740636815341453
-0.4701135881250025	0.07755996847081074
-0.4700525529687525	0.0876850724471234
-0.4699915178125025	0.09778638994193072
-0.4699304826562525	0.10787130154331694
-0.4698694475000025	0.11793980369903417
-0.4698084123437525	0.12798173769516616
-0.4697473771875025	0.13798441234598444
-0.4696863420312525	0.14794314817556728
-0.4696253068750025	0.15786389211827828
-0.4695642717187525	0.1677548910096237
-0.4695032365625025	0.17761564930116858
