Time	Frequency
-0.5000270956562503	0.43497971757302184
-0.49996606050000025	0.4395534487656957
-0.49990502534375025	0.44409876590744046
-0.49984399018750025	0.448686100406699
-0.49978295503125025	0.45333691299834095
-0.49972191987500025	0.4580130003587699
-0.49966088471875025	0.46263180780538854
-0.49959984956250025	0.46710153912128893
-0.49953881440625025	0.4713610406678701
-0.49947777925000025	0.47540692450642213
-0.49941674409375025	0.4792957279288168
-0.49935570893750025	0.4831197987542107
-0.49929467378125025	0.48696709402775695
-0.49923363862500025	0.4908821962524852
-0.49917260346875025	0.4948456467988027
-0.49911156831250025	0.4987810754762035
-0.49905053315625025	0.5025875367414063
-0.49898949800000025	0.5061832181749147
-0.49892846284375025	0.5095413979344844
-0.49886742768750025	0.5127027019213247
-0.49880639253125025	0.5157580023450252
-0.49874535737500025	0.518809074179173
-0.49868432221875025	0.5219238901878159
-0.49862328706250025	0.5251060535817669
-0.49856225190625025	0.5282920132905045
-0.49850121675000025	0.5313777348064487
-0.49844018159375025	0.5342635448380408
-0.49837914643750025	0.5368976904969386
-0.49831811128125025	0.5392994912680538
-0.49825707612500025	0.5415516367912107
-0.49819604096875025	0.5437645519062757
-0.49813500581250025	0.5460281304462135
-0.49807397065625025	0.5483718809365465
-0.49801293550000025	0.5507510356298072
-0.49795190034375025	0.5530650413326198
-0.49789086518750025	0.5552007503068979
-0.49782983003125025	0.5570816808713012
-0.49776879487500025	0.5587018519306448
-0.49770775971875025	0.5601291644406977
-0.49764672456250025	0.5614764137100038
-0.49758568940625025	0.5628522501559537
-0.49752465425000025	0.5643133690259249
-0.49746361909375025	0.5658388768340328
-0.49740258393750025	0.5673383778657857
-0.49734154878125025	0.5686906896788922
-0.49728051362500025	0.5697965219882464
-0.49721947846875025	0.5706221552506155
-0.49715844331250025	0.5712148995678479
-0.49709740815625025	0.5716832222878939
-0.49703637300000025	0.5721498321507749
-0.49697533784375025	0.5726979992622261
-0.49691430268750025	0.5733345571350543
-0.49685326753125025	0.5739859636587534
-0.49679223237500025	0.5745295407716837
-0.49673119721875025	0.5748466286785766
-0.49667016206250025	0.5748746059243188
-0.49660912690625025	0.5746349552223361
-0.49654809175000025	0.5742247926929962
-0.49648705659375025	0.5737751623622394
-0.49642602143750025	0.5733940018017619
-0.49636498628125025	0.5731185849078497
-0.49630395112500025	0.572898396113232
-0.49624291596875025	0.5726163022538547
-0.49618188081250025	0.5721391456117487
-0.49612084565625025	0.571375888626243
-0.49605981050000025	0.5703179634683408
-0.49599877534375025	0.5690440067795359
-0.49593774018750025	0.5676864937311347
-0.49587670503125025	0.5663744209997009
-0.49581566987500025	0.5651768632138477
-0.49575463471875025	0.5640721233647483
-0.49569359956250025	0.5629562520856024
-0.49563256440625025	0.5616876472537491
-0.49557152925000025	0.5601486687057615
-0.49551049409375025	0.5582975188058105
-0.49544945893750025	0.5561875359098052
-0.49538842378125025	0.553945092542582
-0.49532738862500025	0.5517153035764453
-0.49526635346875025	0.549598902181781
-0.49520531831250025	0.547607802607438
-0.49514428315625025	0.5456589829636278
-0.49508324800000025	0.5436097636256478
-0.49502221284375025	0.5413195776698857
-0.49496117768750025	0.5387116120271708
-0.49490014253125025	0.5358073425600289
-0.49483910737500025	0.5327185075136429
-0.49477807221875025	0.5295995676025771
-0.49471703706250025	0.5265809657760302
-0.49465600190625025	0.5237120787305279
-0.49459496675000025	0.5209388748934156
-0.49453393159375025	0.5181264410125651
-0.49447289643750025	0.5151170682175241
-0.49441186128125025	0.5117989590741755
-0.49435082612500025	0.5081557631555713
-0.49428979096875025	0.5042751651198801
-0.49422875581250025	0.5003122011567953
-0.49416772065625025	0.4964227195452864
-0.49410668550000025	0.4926957509864411
-0.49404565034375025	0.48911420091047636
-0.49398461518750025	0.4855612090824587
-0.49392358003125025	0.48187005776901753
-0.49386254487500025	0.4778964433325551
-0.49380150971875025	0.4735817959225773
-0.49374047456250025	0.4689800561617862
-0.49367943940625025	0.46423591838361905
-0.49361840425000025	0.4595233723242591
-0.49355736909375025	0.45497076760274524
-0.49349633393750025	0.45060480689535837
-0.49343529878125025	0.4463380067940192
-0.49337426362500025	0.4420055696790727
-0.49331322846875025	0.4374362532838099
-0.49325219331250025	0.43252696201816926
-0.49319115815625025	0.42728873922320376
-0.49313012300000025	0.42184373833703537
-0.49306908784375025	0.41637389416729537
-0.49300805268750025	0.4110431170293388
-0.49294701753125025	0.4059264467613715
-0.49288598237500025	0.4009768292557912
-0.49282494721875025	0.39604434658267884
-0.49276391206250025	0.39094030083589737
-0.49270287690625025	0.385518891928719
-0.49264184175000025	0.3797412241511364
-0.49258080659375025	0.37369373047843696
-0.49251977143750025	0.36755255319907826
-0.49245873628125025	0.36150876152437195
-0.49239770112500025	0.3556863947577617
-0.49233666596875025	0.3500886040252943
-0.49227563081250025	0.34459539955857155
-0.49221459565625025	0.3390145552929392
-0.49215356050000025	0.3331642303314765
-0.49209252534375025	0.32695197475084364
-0.49203149018750025	0.3204159624458566
-0.49197045503125025	0.31371020293235846
-0.49190941987500025	0.3070396484971192
-0.49184838471875025	0.3005728639091579
-0.49178734956250025	0.2943696417645167
-0.49172631440625025	0.2883547237103071
-0.49166527925000025	0.2823493784034802
-0.49160424409375025	0.27614784535428183
-0.49154320893750025	0.2696061074140168
-0.49148217378125025	0.2627048280131713
-0.49142113862500025	0.25555910317788005
-0.49136010346875025	0.24837043927439853
-0.49129906831250025	0.24134131301417197
-0.49123803315625025	0.2345887710885861
-0.49117699800000025	0.22809407649590305
-0.49111596284375025	0.22171034449001745
-0.49105492768750025	0.21522528370521612
-0.49099389253125025	0.20845234980302263
-0.49093285737500025	0.20131134711567675
-0.49087182221875025	0.193863785748185
-0.49081078706250025	0.18628764262240496
-0.49074975190625025	0.17880220817154863
-0.49068871675000025	0.17157497816387338
-0.49062768159375025	0.16465033060405132
-0.49056664643750025	0.15793063169803298
-0.49050561128125025	0.15121804351709034
-0.49044457612500025	0.1442992812151761
-0.49038354096875025	0.1370371766344464
-0.49032250581250025	0.12942995974260593
-0.49026147065625025	0.12161280657832166
-0.49020043550000025	0.11380082120524763
-0.49013940034375025	0.10619781611960684
-0.49007836518750025	0.09890989098099609
-0.49001733003125025	0.09190071996582103
-0.48995629487500025	0.08500767224010224
-0.48989525971875025	0.07801174613931582
-0.48983422456250025	0.07073136499321536
-0.48977318940625025	0.06310015006092026
-0.48971215425000025	0.055195550229033774
-0.48965111909375025	0.0472060891264062
-0.48959008393750025	0.03935132263240471
-0.48952904878125025	0.03178886706366068
-0.48946801362500025	0.02454818890462868
-0.48940697846875025	0.017519164683814287
-0.48934594331250025	0.010500053580669882
-0.48928490815625025	0.003284223781879996
-0.48922387300000025	-0.004251500566743216
-0.48916283784375025	-0.012094516669392007
-0.48910180268750025	-0.020102233472100176
-0.48904076753125025	-0.028062999423893023
-0.48897973237500025	-0.03578573440874239
-0.48891869721875025	-0.04318014014911329
-0.48885766206250025	-0.05029367965247247
-0.48879662690625025	-0.057289835759409054
-0.48873559175000025	-0.0643772078264257
-0.48867455659375025	-0.07172011840674275
-0.48861352143750025	-0.07936897980037555
-0.48855248628125025	-0.08723963564453288
-0.48849145112500025	-0.09514984427272694
-0.48843041596875025	-0.10289692485907034
-0.48836938081250025	-0.11034326140867728
-0.48830834565625025	-0.11747326330217663
-0.48824731050000025	-0.12439789599597086
-0.48818627534375025	-0.13130553606949483
-0.48812524018750025	-0.13838074522294722
-0.48806420503125025	-0.1457258196564422
-0.48800316987500025	-0.1533182222055264
-0.48794213471875025	-0.1610213392587445
-0.48788109956250025	-0.16864333087345917
-0.48782006440625025	-0.17601856600821847
-0.48775902925000025	-0.18307676310159768
-0.48769799409375025	-0.18987062885335051
-0.48763695893750025	-0.19655098926521566
-0.48757592378125025	-0.20330090412314686
-0.48751488862500025	-0.21025725728842026
-0.48745385346875025	-0.21745320353844605
-0.48739281831250025	-0.2248055563842631
-0.48733178315625025	-0.23215156658467917
-0.48727074800000025	-0.23931863991978772
-0.48720971284375025	-0.2461970003548282
-0.48714867768750025	-0.25278437467970677
-0.48708764253125025	-0.2591842098646751
-0.48702660737500025	-0.2655592555252055
-0.48696557221875025	-0.2720611847240476
-0.48690453706250025	-0.27876635705990366
-0.48684350190625025	-0.28564464537497447
-0.48678246675000025	-0.29257394539126214
-0.48672143159375025	-0.29939333212228014
-0.48666039643750025	-0.3059714680645606
-0.48659936128125025	-0.3122609648487889
-0.48653832612500025	-0.31831601890702427
-0.48647729096875025	-0.3242666525789849
-0.48641625581250025	-0.33026146675215645
-0.48635522065625025	-0.3364038870548224
-0.48629418550000025	-0.3427090544658291
-0.48623315034375025	-0.34909917734978047
-0.48617211518750025	-0.3554383621922839
-0.48611108003125025	-0.36159115328796226
-0.48605004487500025	-0.36747941123142985
-0.48598900971875025	-0.37311344414426306
-0.48592797456250025	-0.3785848490181915
-0.48586693940625025	-0.3840251303052716
-0.48580590425000025	-0.3895485085666739
-0.48574486909375025	-0.3952035743387327
-0.48568383393750025	-0.4009540876453179
-0.48562279878125025	-0.40669631245011983
-0.48556176362500025	-0.41230454218287677
-0.48550072846875025	-0.4176846590018357
-0.48543969331250025	-0.4228127566710112
-0.48537865815625025	-0.427742843730869
-0.48531762300000025	-0.43258118911530125
-0.48525658784375025	-0.43743923309013333
-0.48519555268750025	-0.4423857209837572
-0.48513451753125025	-0.4474183836485475
-0.48507348237500025	-0.45246670211509077
-0.48501244721875025	-0.4574237078670227
-0.48495141206250025	-0.46219235196425634
-0.48489037690625025	-0.46672619923191705
-0.48482934175000025	-0.4710472470583575
-0.48476830659375025	-0.4752339502583644
-0.48470727143750025	-0.4793855117123616
-0.48464623628125025	-0.4835785088274854
-0.48458520112500025	-0.48783466371377976
-0.48452416596875025	-0.4921131152683974
-0.48446313081250025	-0.49632969086315903
-0.48440209565625025	-0.5003941229105084
-0.48434106050000025	-0.5042486653951476
-0.48428002534375025	-0.5078914149855935
-0.48421899018750025	-0.511374821435242
-0.48415795503125025	-0.5147809027689874
-0.48409691987500025	-0.5181846529491904
-0.48403588471875025	-0.5216218120202394
-0.48397484956250025	-0.5250746914486206
-0.48391381440625025	-0.5284814953127057
-0.48385277925000025	-0.5317643302379502
-0.48379174409375025	-0.5348632090842712
-0.48373070893750025	-0.5377611101515508
-0.48366967378125025	-0.5404894821102199
-0.48360863862500025	-0.5431124896620014
-0.48354760346875025	-0.545697653768671
-0.48348656831250025	-0.5482861633832045
-0.48342553315625025	-0.5508757843221429
-0.48336449800000025	-0.5534233544360158
-0.48330346284375025	-0.5558650472563706
-0.48324242768750025	-0.5581449051358002
-0.48318139253125025	-0.5602388774660838
-0.48312035737500025	-0.5621639513839511
-0.48305932221875025	-0.5639688578065776
-0.48299828706250025	-0.5657111419596816
-0.48293725190625025	-0.5674312399407447
-0.48287621675000025	-0.5691351146559546
-0.48281518159375025	-0.5707928334093928
-0.48275414643750025	-0.5723531620986531
-0.48269311128125025	-0.5737671105612533
-0.48263207612500025	-0.5750096188453304
-0.48257104096875025	-0.5760897732914058
-0.48251000581250025	-0.5770453591505145
-0.48244897065625025	-0.5779246872151114
-0.48238793550000025	-0.5787642712715502
-0.48232690034375025	-0.5795725732620773
-0.48226586518750025	-0.5803270036433285
-0.48220483003125025	-0.580985151323716
-0.48214379487500025	-0.581504740816836
-0.48208275971875025	-0.581862996584974
-0.48202172456250025	-0.582066580113622
-0.48196068940625025	-0.5821477504761412
-0.48189965425000025	-0.5821487923277926
-0.48183861909375025	-0.582102121080131
-0.48177758393750025	-0.5820153290505269
-0.48171654878125025	-0.5818679911946895
-0.48165551362500025	-0.5816215677594186
-0.48159447846875025	-0.5812377070469097
-0.48153344331250025	-0.5806963401928349
-0.48147240815625025	-0.5800050855805222
-0.48141137300000025	-0.5791956302266663
-0.48135033784375025	-0.5783088272572914
-0.48128930268750025	-0.5773754552670064
-0.48122826753125025	-0.5764016426771308
-0.48116723237500025	-0.5753658006901561
-0.48110619721875025	-0.5742285524992443
-0.48104516206250025	-0.5729511657221122
-0.48098412690625025	-0.5715139895711466
-0.48092309175000025	-0.5699262284120706
-0.48086205659375025	-0.5682223117346968
-0.48080102143750025	-0.5664463299072078
-0.48073998628125025	-0.5646316101375949
-0.48067895112500025	-0.5627848998955743
-0.48061791596875025	-0.5608826262935992
-0.48055688081250025	-0.5588812250362333
-0.48049584565625025	-0.5567370593032998
-0.48043481050000025	-0.5544269024580792
-0.48037377534375025	-0.5519595057037457
-0.48031274018750025	-0.5493727234490065
-0.48025170503125025	-0.5467171660720972
-0.48019066987500025	-0.5440334418094045
-0.48012963471875025	-0.5413332416704455
-0.48006859956250025	-0.5385931658865604
-0.48000756440625025	-0.5357644891081671
-0.47994652925000025	-0.5327948269741133
-0.47988549409375025	-0.5296522135020952
-0.47982445893750025	-0.5263406647724008
-0.47976342378125025	-0.5228997927883621
-0.47970238862500025	-0.5193881754691343
-0.47964135346875025	-0.5158576343717884
-0.47958031831250025	-0.512329813844355
-0.47951928315625025	-0.5087856853392689
-0.47945824800000025	-0.5051730699605163
-0.47939721284375025	-0.5014293174821468
-0.47933617768750025	-0.49750944715254225
-0.47927514253125025	-0.4934072751449114
-0.47921410737500025	-0.4891597341715333
-0.47915307221875025	-0.48483191048742375
-0.47909203706250025	-0.48048902826890333
-0.47903100190625025	-0.4761676190232957
-0.47896996675000025	-0.47185867778063423
-0.47890893159375025	-0.46751060935583594
-0.47884789643750025	-0.4630513029087866
-0.47878686128125025	-0.45842006540479857
-0.47872582612500025	-0.4535953366249077
-0.47866479096875025	-0.44860569301017345
-0.47860375581250025	-0.4435188604628522
-0.47854272065625025	-0.43841305285226323
-0.47848168550000025	-0.433342920048772
-0.47842065034375025	-0.42831507152692466
-0.47835961518750025	-0.42328428717316885
-0.47829858003125025	-0.4181726590425734
-0.47823754487500025	-0.4129036362288374
-0.47817650971875025	-0.40743623305921495
-0.47811547456250025	-0.4017844134666697
-0.47805443940625025	-0.39601267890052244
-0.47799340425000025	-0.390209137619694
-0.47793236909375025	-0.3844475096307569
-0.47787133393750025	-0.37875470906446557
-0.47781029878125025	-0.373098430688512
-0.47774926362500025	-0.36740059040968864
-0.47768822846875025	-0.36157121575582296
-0.47762719331250025	-0.3555482737807831
-0.47756615815625025	-0.34932598472906856
-0.47750512300000025	-0.3429588560161852
-0.47744408784375025	-0.3365392664940261
-0.47738305268750025	-0.33015809763988524
-0.47732201753125025	-0.32386527596155307
-0.47726098237500025	-0.31764747660107134
-0.47719994721875025	-0.3114332681657578
-0.47713891206250025	-0.3051239864698036
-0.47707787690625025	-0.298637114189127
-0.47701684175000025	-0.29194324945785205
-0.47695580659375025	-0.2850803507610968
-0.47689477143750025	-0.2781387382966938
-0.47683373628125025	-0.2712229089937443
-0.47677270112500025	-0.2644063722852356
-0.47671166596875025	-0.257699271026341
-0.47665063081250025	-0.25104342818840253
-0.47658959565625025	-0.24433745337164756
-0.47652856050000025	-0.23748112008479624
-0.47646752534375025	-0.23041978818531675
-0.47640649018750025	-0.22316957801125745
-0.47634545503125025	-0.2158118755063865
-0.47628441987500025	-0.2084590432074878
-0.47622338471875025	-0.20120615132713113
-0.47616234956250025	-0.1940896636760633
-0.47610131440625025	-0.18707111042713312
-0.47604027925000025	-0.1800533524837201
-0.47597924409375025	-0.17292298011100524
-0.47591820893750025	-0.16560051756291963
-0.47585717378125025	-0.15807627468785815
-0.47579613862500025	-0.150415992614124
-0.47573510346875025	-0.1427335347295916
-0.47567406831250025	-0.13514213001043063
-0.47561303315625025	-0.12770527640489893
-0.47555199800000025	-0.12040887294733124
-0.47549096284375025	-0.11316699338929433
-0.47542992768750025	-0.10585913559684558
-0.47536889253125025	-0.09838317855870983
-0.47530785737500025	-0.09070106775541138
-0.47524682221875025	-0.08285691479917819
-0.47518578706250025	-0.07495921330807476
-0.47512475190625025	-0.06713457392040419
-0.47506371675000025	-0.059472930264833176
-0.47500268159375025	-0.05198824156872772
-0.47494164643750025	-0.04461207794106867
-0.47488061128125025	-0.03722323050301082
-0.47481957612500025	-0.029700874917569724
-0.47475854096875025	-0.021978171495185096
-0.47469750581250025	-0.014072692080570232
-0.47463647065625025	-0.006080246567952505
-0.47457543550000025	0.0018655280085492169
-0.47451440034375025	0.009650724028559762
-0.47445336518750025	0.01723086300827677
-0.47439233003125025	0.024650640624595075
-0.47433129487500025	0.03202470191737267
-0.47427025971875025	0.03948758461373849
-0.47420922456250025	0.047134440554599456
-0.47414818940625025	0.05497825616976285
-0.47408715425000025	0.06294250932522906
-0.47402611909375025	0.07089311104687317
-0.47396508393750025	0.07869605796310154
-0.47390404878125025	0.08627560139042001
-0.47384301362500025	0.0936474587665153
-0.47378197846875025	0.10091238817218048
-0.47372094331250025	0.10821252571121752
-0.47365990815625025	0.11566906653953304
-0.47359887300000025	0.1233282894298033
-0.47353783784375025	0.13113974860256575
-0.47347680268750025	0.13897664846639568
-0.47341576753125025	0.1466899144760633
-0.47335473237500025	0.15417261893602044
-0.47329369721875025	0.16140676001830936
-0.47323266206250025	0.16847172017089942
-0.47317162690625025	0.1755101199433087
-0.47311059175000025	0.18266554190703557
-0.47304955659375025	0.1900191305643336
-0.47298852143750025	0.1975527425579107
-0.47292748628125025	0.2051551196395977
-0.47286645112500025	0.2126688785106465
-0.47280541596875025	0.21995814522217416
-0.47274438081250025	0.22696764832999156
-0.47268334565625025	0.23374744533578737
-0.47262231050000025	0.2404319194721346
-0.47256127534375025	0.24718156308101266
-0.47250024018750025	0.25411256313735087
-0.47243920503125025	0.2612448873651872
-0.47237816987500025	0.2684917942993236
-0.47231713471875025	0.27569580252496584
-0.47225609956250025	0.2826959607772541
-0.47219506440625025	0.28939753696540244
-0.47213402925000025	0.29581379963858423
-0.47207299409375025	0.30206117083483586
-0.47201195893750025	0.3083092344559171
-0.47195092378125025	0.3147069528648453
-0.47188988862500025	0.32131695525272275
-0.47182885346875025	0.32808656322035246
-0.47176781831250025	0.3348686819199836
-0.47170678315625025	0.3414841684122755
-0.47164574800000025	0.3477989843663686
-0.47158471284375025	0.35378262562702323
-0.47152367768750025	0.359522229294976
-0.47146264253125025	0.3651857891933256
-0.47140160737500025	0.37094978368813036
-0.47134057221875025	0.3769220962866901
-0.47127953706250025	0.3830936757249601
-0.47121850190625025	0.38934041428024924
-0.47115746675000025	0.3954750781340917
-0.47109643159375025	0.4013272885543482
-0.47103539643750025	0.4068172616549479
-0.47097436128125025	0.41199130864588823
-0.47091332612500025	0.41700302145894996
-0.47085229096875025	0.4220475663289465
-0.47079125581250025	0.42727718359642786
-0.47073022065625025	0.43273424845995456
-0.47066918550000025	0.43833101107749045
-0.47060815034375025	0.443885480224975
-0.47054711518750025	0.44919864985873675
-0.47048608003125025	0.45414007941277396
-0.47042504487500025	0.4587048470355758
-0.47036400971875025	0.463016860288989
-0.47030297456250025	0.46727648786764536
