Time	Frequency
-0.5000343302187531	-0.33025682116381533
-0.4999732950625031	-0.3235662138682919
-0.4999122599062531	-0.31681403983325096
-0.4998512247500031	-0.3100038487680017
-0.4997901895937531	-0.30313642326822104
-0.4997291544375031	-0.2962105715643755
-0.4996681192812531	-0.2892267725151454
-0.4996070841250031	-0.2821882571524012
-0.4995460489687531	-0.2750980586132351
-0.4994850138125031	-0.2679564569625184
-0.4994239786562531	-0.26076260708379084
-0.4993629435000031	-0.25351777967125444
-0.4993019083437531	-0.24622530877480173
-0.4992408731875031	-0.23888749463417938
-0.4991798380312531	-0.23150417571082182
-0.4991188028750031	-0.22407511863754243
-0.4990577677187531	-0.2166025092110611
-0.4989967325625031	-0.2090896491972615
-0.4989356974062531	-0.20153801343823147
-0.4988746622500031	-0.19394717696255617
-0.4988136270937531	-0.18631756963315665
-0.4987525919375031	-0.1786519243691433
-0.4986915567812531	-0.17095322193958798
-0.4986305216250031	-0.16322221177741053
-0.4985694864687531	-0.1554584666127501
-0.4985084513125031	-0.1476633817567587
-0.4984474161562531	-0.13984027306451044
-0.4983863810000031	-0.13199144014584183
-0.4983253458437531	-0.12411686433753771
-0.4982643106875031	-0.11621646995521752
-0.4982032755312531	-0.10829238073067508
-0.4981422403750031	-0.10034775394973666
-0.4980812052187531	-0.092384178090852
-0.4980201700625031	-0.08440170663130052
-0.4979591349062531	-0.0764012370137617
-0.4978980997500031	-0.06838542901199315
-0.4978370645937531	-0.060356792802617645
-0.4977760294375031	-0.05231593982954404
-0.4977149942812531	-0.04426283934569766
-0.4976539591250031	-0.036199240224796245
-0.4975929239687531	-0.02812839925208957
-0.4975318888125031	-0.0200523412913026
-0.4974708536562531	-0.011970932504295142
-0.4974098185000031	-0.003884459817335369
-0.4973487833437531	0.004204341234995947
-0.4972877481875031	0.012292196500256583
-0.4972267130312531	0.020378104616448147
-0.4971656778750031	0.028462525125510008
-0.4971046427187531	0.03654425649637849
-0.4970436075625031	0.04461994673350964
-0.4969825724062531	0.05268702223413644
-0.4969215372500031	0.06074550656544355
-0.4968605020937531	0.06879572804594355
-0.4967994669375031	0.07683534988983962
-0.4967384317812531	0.08486057494580189
-0.4966773966250031	0.09286975516383693
-0.4966163614687531	0.10086363482308157
-0.4965553263125031	0.10884179220441859
-0.4964942911562531	0.1168008794132138
-0.4964332560000031	0.12473750440061299
-0.4963722208437531	0.13265133551755973
-0.4963111856875031	0.14054344602531013
-0.4962501505312531	0.14841229270766715
-0.4961891153750031	0.15625368913364257
-0.4961280802187531	0.16406496058256598
-0.4960670450625031	0.1718468510704937
-0.4960060099062531	0.17960016280604
-0.4959449747500031	0.18732218896553798
-0.4958839395937531	0.19500854707721096
-0.4958229044375031	0.2026578199965321
-0.4957618692812531	0.2102717436979833
-0.4957008341250031	0.21785028488597918
-0.4956397989687531	0.2253892133838507
-0.4955787638125031	0.2328844036115609
-0.4955177286562531	0.24033625435463185
-0.4954566935000031	0.24774692256886532
-0.4953956583437531	0.25511457453514874
-0.4953346231875031	0.262433885952005
-0.4952735880312531	0.2697023351682012
-0.4952125528750031	0.2769223502941873
-0.4951515177187531	0.284095329372936
-0.4950904825625031	0.29121688051554817
-0.4950294474062531	0.29828148168890617
-0.4949684122500031	0.3052894203883869
-0.4949073770937531	0.31224448778106445
-0.4948463419375031	0.3191456598286605
-0.4947853067812531	0.3259863120175289
-0.4947242716250031	0.33276284814533025
-0.4946632364687531	0.3394787403101883
-0.4946022013125031	0.3461367919781282
-0.4945411661562531	0.35273220982595527
-0.4944801310000031	0.3592582735579921
-0.4944190958437531	0.36571548299121015
-0.4943580606875031	0.3721089097941256
-0.4942970255312531	0.3784377663020025
-0.4942359903750031	0.3846944558822669
-0.4941749552187531	0.3908750824259467
-0.4941139200625031	0.39698413907041474
-0.4940528849062531	0.4030252575001399
-0.4939918497500031	0.40899312613771704
-0.4939308145937531	0.41488024103455734
-0.4938697794375031	0.4206875581875058
-0.4938087442812531	0.42642119173446846
-0.4937477091250031	0.4320803815760906
-0.4936866739687531	0.43765677003956993
-0.4936256388125031	0.44314642155276257
-0.4935646036562531	0.4485547396906242
-0.4935035685000031	0.4538859063295587
-0.4934425333437531	0.4591341723388887
-0.4933814981875031	0.46429163154892444
-0.4933204630312531	0.46935968192770716
-0.4932594278750031	0.4743449920910096
-0.4931983927187531	0.47924672874691854
-0.4931373575625031	0.48405646864888313
-0.4930763224062531	0.4887707710483957
-0.4930152872500031	0.4933951984064855
-0.4929542520937531	0.49793330471698427
-0.4928932169375031	0.5023794004268325
-0.4928321817812531	0.5067269962279894
-0.4927711466250031	0.5109781004609937
-0.4927101114687531	0.5151378890005247
-0.4926490763125031	0.5192046800598296
-0.4925880411562531	0.5231721225755016
-0.4925270060000031	0.5270387755590413
-0.4924659708437531	0.5308084814044398
-0.4924049356875031	0.5344819693876535
-0.4923439005312531	0.5380549697247009
-0.4922828653750031	0.5415252725464168
-0.4922218302187531	0.5448950496414524
-0.4921607950625031	0.5481646725546349
-0.4920997599062531	0.5513306461081713
-0.4920387247500031	0.554391897996501
-0.4919776895937531	0.5573515745345649
-0.4919166544375031	0.5602094380463172
-0.4918556192812531	0.5629595306938591
-0.4917945841250031	0.5656000067829713
-0.4917335489687531	0.5681376112184331
-0.4916725138125031	0.570575553124889
-0.4916114786562531	0.5729047815051925
-0.4915504435000031	0.5751172492929265
-0.4914894083437531	0.5772209224741272
-0.4914283731875031	0.5792278481631804
-0.4913673380312531	0.5811316050937406
-0.4913063028750031	0.5829143086540224
-0.4912452677187531	0.5845764667058144
-0.4911842325625031	0.5861390868488215
-0.4911231974062531	0.5876087923068458
-0.4910621622500031	0.5889626966788853
-0.4910011270937531	0.5901838259740093
-0.4909400919375031	0.5912918323791291
-0.4908790567812531	0.5923133952384086
-0.4908180216250031	0.5932357462765739
-0.4907569864687531	0.5940230502040748
-0.4906959513125031	0.5946755959748767
-0.4906349161562531	0.5952337733681915
-0.4905738810000031	0.5957127417864918
-0.4905128458437531	0.5960728494480317
-0.4904518106875031	0.5962813940829496
-0.4903907755312531	0.5963695041147531
-0.4903297403750031	0.5963855891229711
-0.4902687052187531	0.5963143018086308
-0.4902076700625031	0.596096238375048
-0.4901466349062531	0.5957245893260829
-0.4900855997500031	0.5952615072727514
-0.4900245645937531	0.5947392761990956
-0.4899635294375031	0.5941035600390673
-0.4899024942812531	0.5932978469970405
-0.4898414591250031	0.5923580448038627
-0.4897804239687531	0.5913593210818373
-0.4897193888125031	0.590293846123928
-0.4896583536562531	0.5890788598531973
-0.4895973185000031	0.587689592193366
-0.4895362833437531	0.5862035904882222
-0.4894752481875031	0.5846784325239229
-0.4894142130312531	0.5830566824605381
-0.4893531778750031	0.5812558017825813
-0.4892921427187531	0.5793025936806061
-0.4892311075625031	0.5772934208633647
-0.4891700724062531	0.5752398824413659
-0.4891090372500031	0.5730486474492327
-0.4890480020937531	0.5706712272490047
-0.4889869669375031	0.5681835659123204
-0.4889259317812531	0.5656655284435554
-0.4888648966250031	0.5630730723239094
-0.4888038614687531	0.5603094364957033
-0.4887428263125031	0.5573812583576802
-0.4886817911562531	0.5543882166488316
-0.4886207560000031	0.5513635168758264
-0.4885597208437531	0.5482224299478609
-0.4884986856875031	0.5449001960564784
-0.4884376505312531	0.541455900886284
-0.4883766153750031	0.5379767494537393
-0.4883155802187531	0.5344394873075057
-0.4882545450625031	0.5307511924295559
-0.4881935099062531	0.5269001265307204
-0.4881324747500031	0.5229731344463727
-0.4880714395937531	0.5190154884175675
-0.4880104044375031	0.5149612823950852
-0.4879493692812531	0.5107431847135104
-0.4878883341250031	0.5064008946235713
-0.4878272989687531	0.5020154476538718
-0.4877662638125031	0.4975798448001085
-0.4877052286562531	0.4930145119371771
-0.4876441935000031	0.4882981325529359
-0.4875831583437531	0.48350108456454083
-0.4875221231875031	0.47867129560613186
-0.4874610880312531	0.47375977030365124
-0.4874000528750031	0.4687034844842265
-0.4873390177187531	0.4635280876322738
-0.4872779825625031	0.4583056344546818
-0.4872169474062531	0.45303944727113254
-0.4871559122500031	0.44766237067894393
-0.4870948770937531	0.4421477106718009
-0.4870338419375031	0.43655228346739916
-0.4869728067812531	0.4309249457917557
-0.4869117716250031	0.4252304798136194
-0.4868507364687531	0.41940971557281415
-0.4867897013125031	0.4134762411682516
-0.4867286661562531	0.40749465477568253
-0.4866676310000031	0.4014781408633331
-0.4866065958437531	0.39537043070552974
-0.4865455606875031	0.3891386954899476
-0.4864845255312531	0.38282700346191934
-0.4864234903750031	0.37648645292070726
-0.4863624552187531	0.3700958769720833
-0.4863014200625031	0.3635989559691367
-0.4862403849062531	0.3569959705143563
-0.4861793497500031	0.350343778286251
-0.4861183145937531	0.3436666518629105
-0.4860572794375031	0.33692099291667077
-0.4859962442812531	0.33006770315638184
-0.4859352091250031	0.32313529469483154
-0.4858741739687531	0.31617521211917415
-0.4858131388125031	0.30918271230961947
-0.4857521036562531	0.30210808589935073
-0.4856910685000031	0.2949377276569886
-0.4856300333437531	0.2877161565648086
-0.4855689981875031	0.2804767468708331
-0.4855079630312531	0.2731923789176397
-0.4854469278750031	0.26582197588533957
-0.4853858927187531	0.25837688750260523
-0.4853248575625031	0.25090337163559295
-0.4852638224062531	0.2434117704728911
-0.4852027872500031	0.23586420734821137
-0.4851417520937531	0.22823732213457343
-0.4850807169375031	0.22055975572918832
-0.4850196817812531	0.21286761796462497
-0.4849586466250031	0.20515070058026
-0.4848976114687531	0.19737290852917813
-0.4848365763125031	0.18953152430314124
-0.4847755411562531	0.1816619474044757
-0.4847145060000031	0.1737834122368975
-0.4846534708437531	0.1658724286070233
-0.4845924356875031	0.15790358184422726
-0.4845314005312531	0.14989114098308845
-0.4844703653750031	0.14186711164074298
-0.4844093302187531	0.1338331169389577
-0.4843482950625031	0.12576192192097332
-0.4842872599062531	0.11764350774329589
-0.4842262247500031	0.1095020055000058
-0.4841651895937531	0.10135890964727001
-0.4841041544375031	0.09320234175854766
-0.4840431192812531	0.08500965111817459
-0.4839820841250031	0.07678555807332713
-0.4839210489687531	0.06855573436286133
-0.4838600138125031	0.06032806061473732
-0.4837989786562531	0.05208358519298081
-0.4837379435000031	0.04380994495650033
-0.4836769083437531	0.03552299932541526
-0.4836158731875031	0.02724320915713931
-0.4835548380312531	0.018965787790882645
-0.4834938028750031	0.01067166307199369
-0.4834327677187531	0.0023604004695193716
-0.4833717325625031	-0.005947236555481357
-0.4833106974062531	-0.014240154614304683
-0.4832496622500031	-0.02253173266756591
-0.4831886270937531	-0.03083559171787828
-0.4831275919375031	-0.03914159519197117
-0.4830665567812531	-0.047429921709406374
-0.4830055216250031	-0.05570004253874327
-0.4829444864687531	-0.06396858377827408
-0.4828834513125031	-0.07224017934249435
-0.4828224161562531	-0.0804979887273575
-0.4827613810000031	-0.08872830997320816
-0.4827003458437531	-0.09693959050704033
-0.4826393106875031	-0.1051461544857929
-0.4825782755312531	-0.11334306734628136
-0.4825172403750031	-0.12151182333335055
-0.4824562052187531	-0.12964727526257452
-0.4823951700625031	-0.13776296077048408
-0.4823341349062531	-0.14586700592219884
-0.4822730997500031	-0.15394715570044
-0.4822120645937531	-0.16198806146717737
-0.4821510294375031	-0.1699929182882412
-0.4820899942812531	-0.17797553421273513
-0.4820289591250031	-0.18593607185741323
-0.4819679239687531	-0.1938588215509423
-0.4819068888125031	-0.20173479971755126
-0.4818458536562531	-0.20957314850763945
-0.4817848185000031	-0.2173839177568934
-0.4817237833437531	-0.22516005783223658
-0.4816627481875031	-0.232886673738439
-0.4816017130312531	-0.24056211834870916
-0.4815406778750031	-0.2481978003532552
-0.4814796427187531	-0.2557977911123392
-0.4814186075625031	-0.26335050661039605
-0.4813575724062531	-0.2708449225991201
-0.4812965372500031	-0.2782853315464499
-0.4812355020937531	-0.28568181319999597
-0.4811744669375031	-0.2930321556201185
-0.4811134317812531	-0.30032368655700703
-0.4810523966250031	-0.30755124589749133
-0.4809913614687531	-0.3147225896881511
-0.4809303263125031	-0.32184356234336425
-0.4808692911562531	-0.3289070559787357
-0.4808082560000031	-0.33590254316228485
-0.4807472208437531	-0.3428303935526271
-0.4806861856875031	-0.3496986366504362
-0.4806251505312531	-0.35650806874187213
-0.4805641153750031	-0.36324938482685043
-0.4805030802187531	-0.36991612076867453
-0.4804420450625031	-0.3765124065869412
-0.4803810099062531	-0.38304382883775334
-0.4803199747500031	-0.3895067146960451
-0.4802589395937531	-0.39589259063006776
-0.4801979044375031	-0.40219976034447946
-0.4801368692812531	-0.4084335288353459
-0.4800758341250031	-0.41459559286813996
-0.4800147989687531	-0.42067976834964366
-0.4799537638125031	-0.42668020864130707
-0.4798927286562531	-0.43259856958643844
-0.4798316935000031	-0.43843913636682036
-0.4797706583437531	-0.4442002461879565
-0.4797096231875031	-0.44987548922742343
-0.4796485880312531	-0.45546224035001664
-0.4795875528750031	-0.46096381988435997
-0.4795265177187531	-0.4663822224582185
-0.4794654825625031	-0.4717133657061127
-0.4794044474062531	-0.47695216785917727
-0.4793434122500031	-0.4820988848122847
-0.4792823770937531	-0.487156822015471
-0.4792213419375031	-0.4921255015913267
-0.4791603067812531	-0.4970000611437168
-0.4790992716250031	-0.501777527283657
-0.4790382364687531	-0.5064598974609906
-0.4789772013125031	-0.5110493124878217
-0.4789161661562531	-0.5155432190405097
-0.4788551310000031	-0.519937094304146
-0.4787940958437531	-0.5242301596382066
-0.4787330606875031	-0.528425139318137
-0.4786720255312531	-0.5325226474223027
-0.4786109903750031	-0.5365190164217098
-0.4785499552187531	-0.540410846960093
-0.4784889200625031	-0.5441990116531286
-0.4784278849062531	-0.5478859448153655
-0.4783668497500031	-0.5514707129150264
-0.4783058145937531	-0.5549494913870964
-0.4782447794375031	-0.5583203953449046
-0.4781837442812531	-0.5615851416847292
-0.4781227091250031	-0.5647452745888878
-0.4780616739687531	-0.5677988925001224
-0.4780006388125031	-0.5707427117305159
-0.4779396036562531	-0.5735761380253961
-0.4778785685000031	-0.5763011568486222
-0.4778175333437531	-0.5789183906564298
-0.4777564981875031	-0.5814253826776982
-0.4776954630312531	-0.5838195550162084
-0.4776344278750031	-0.5861012706414196
-0.4775733927187531	-0.588272463307654
-0.4775123575625031	-0.5903330336783452
-0.4774513224062531	-0.5922804293428579
-0.4773902872500031	-0.5941128912084399
-0.4773292520937531	-0.5958314315456086
-0.4772682169375031	-0.5974376603754877
-0.4772071817812531	-0.5989308192578274
-0.4771461466250031	-0.600308458366075
-0.4770851114687531	-0.6015696615262477
-0.4770240763125031	-0.6027159617319118
-0.4769630411562531	-0.603748569112829
-0.4769020060000031	-0.6046661322017899
-0.4768409708437531	-0.6054664866278842
-0.4767799356875031	-0.6061496697226173
-0.4767189005312531	-0.6067175372418662
-0.4766578653750031	-0.6071706218733569
-0.4765968302187531	-0.6075071023279811
-0.4765357950625031	-0.6077254616930914
-0.4764747599062531	-0.6078266911010303
-0.4764137247500031	-0.6078126007360747
-0.4763526895937531	-0.6076829029974913
-0.4762916544375031	-0.6074356459985905
-0.4762306192812531	-0.6070702680184777
-0.4761695841250031	-0.6065884500389843
-0.4761085489687531	-0.6059915001111971
-0.4760475138125031	-0.6052784409242388
-0.4759864786562531	-0.6044477409677148
-0.4759254435000031	-0.603499869507498
-0.4758644083437531	-0.6024366679574081
-0.4758033731875031	-0.6012586282008626
-0.4757423380312531	-0.599964403477729
-0.4756813028750031	-0.598553280779155
-0.4756202677187531	-0.5970266887848074
-0.4755592325625031	-0.59538633492329
-0.4754981974062531	-0.5936318788110472
-0.4754371622500031	-0.5917618501234734
-0.4753761270937531	-0.5897764585261674
-0.4753150919375031	-0.5876778412053163
-0.4752540567812531	-0.5854672334569616
-0.4751930216250031	-0.5831435583806391
-0.4751319864687531	-0.5807057542862256
-0.4750709513125031	-0.5781551269471669
-0.4750099161562531	-0.5754939580343978
-0.4749488810000031	-0.5727225684906838
-0.4748878458437531	-0.569839502382805
-0.4748268106875031	-0.5668446289694979
-0.4747657755312531	-0.5637403099094113
-0.4747047403750031	-0.5605286241074352
-0.4746437052187531	-0.5572089047439406
-0.4745826700625031	-0.5537796112080283
-0.4745216349062531	-0.5502417104828653
-0.4744605997500031	-0.5465981761087183
-0.4743995645937531	-0.5428503169379693
-0.4743385294375031	-0.5389967337085074
-0.4742774942812531	-0.5350365748398346
-0.4742164591250031	-0.5309720230229998
-0.4741554239687531	-0.5268061016421094
-0.4740943888125031	-0.5225390916855522
-0.4740333536562531	-0.5181691631728618
-0.4739723185000031	-0.5136964536304868
-0.4739112833437531	-0.5091242830762145
-0.4738502481875031	-0.5044553768379606
-0.4737892130312531	-0.4996888336443656
-0.4737281778750031	-0.4948227454305604
-0.4736671427187531	-0.48985861390153584
-0.4736061075625031	-0.4848005451008325
-0.4735450724062531	-0.479650191760921
-0.4734840372500031	-0.4744054471726484
-0.4734230020937531	-0.46906530784196415
-0.4733619669375031	-0.46363326067626837
-0.4733009317812531	-0.45811345014754595
-0.4732398966250031	-0.45250554878404664
-0.4731788614687531	-0.44680670345005497
-0.4731178263125031	-0.4410177813617182
-0.4730567911562531	-0.4351439966030346
-0.4729957560000031	-0.42918838221493744
-0.4729347208437531	-0.4231483424534595
-0.4728736856875031	-0.41702144456583234
-0.4728126505312531	-0.4108114751670527
-0.4727516153750031	-0.4045244831638815
-0.4726905802187531	-0.3981607236214586
-0.4726295450625031	-0.39171586959473265
-0.4725685099062531	-0.38519008899496693
-0.4725074747500031	-0.3785900380611768
-0.4724464395937531	-0.37191997234186197
-0.4723854044375031	-0.36517655821706707
-0.4723243692812531	-0.35835630727819884
-0.4722633341250031	-0.3514635960710447
-0.4722022989687531	-0.3445058246337601
-0.4721412638125031	-0.33748325331750656
-0.4720802286562531	-0.3303904449110515
-0.4720191935000031	-0.323227500354389
-0.4719581583437531	-0.31600243199437467
-0.4718971231875031	-0.3087202523427005
-0.4718360880312531	-0.3013767158916048
-0.4717750528750031	-0.29396742379234764
-0.4717140177187531	-0.28649756601332454
-0.4716529825625031	-0.2789758906927112
-0.4715919474062531	-0.2714024915345512
-0.4715309122500031	-0.26377085174644227
-0.4714698770937531	-0.25608103238947666
-0.4714088419375031	-0.24834212790150975
-0.4713478067812531	-0.24055975663343718
-0.4712867716250031	-0.23272913014750976
-0.4712257364687531	-0.22484531569699256
-0.4711647013125031	-0.21691390074929123
-0.4711036661562531	-0.2089442127146242
-0.4710426310000031	-0.2009362797339782
-0.4709815958437531	-0.19288342569041347
-0.4709205606875031	-0.18478607438167832
-0.4708595255312531	-0.17665347875939952
-0.4707984903750031	-0.16849070056861407
-0.4707374552187531	-0.1602929822723793
-0.4706764200625031	-0.1520566118643539
-0.4706153849062531	-0.14378746843224768
-0.4705543497500031	-0.13549335436894341
-0.4704933145937531	-0.1271738457274128
-0.4704322794375031	-0.11882433446823444
-0.4703712442812531	-0.11044642661695744
-0.4703102091250031	-0.10204711248000337
-0.4702491739687531	-0.093629260384776
-0.4701881388125031	-0.08519031053602487
-0.4701271036562531	-0.07673024548227247
-0.4700660685000031	-0.0682537827739802
-0.4700050333437531	-0.05976386554574143
-0.4699439981875031	-0.051259645566566724
-0.4698829630312531	-0.04274238468259187
-0.4698219278750031	-0.03421668468326691
-0.4697608927187531	-0.02568370729970655
-0.4696998575625031	-0.017140417565829544
-0.4696388224062531	-0.008588764545265458
-0.4695777872500031	-3.743201874313833e-05
