Time	Frequency
-0.5000267006874992	-0.319326618171444
-0.4999656655312492	-0.3143438520609481
-0.4999046303749992	-0.3093338684528419
-0.4998435952187492	-0.30426621270365795
-0.4997825600624992	-0.29913074532629297
-0.4997215249062492	-0.29395407714872523
-0.4996604897499992	-0.288754470094706
-0.4995994545937492	-0.2835133583089997
-0.4995384194374992	-0.27820932403945564
-0.4994773842812492	-0.27285501602163476
-0.4994163491249992	-0.267475833162232
-0.4993553139687492	-0.2620683428080854
-0.4992942788124992	-0.2566083384052178
-0.4992332436562492	-0.2510933946709232
-0.4991722084999992	-0.24554769511187974
-0.4991111733437492	-0.23998193759496875
-0.4990501381874992	-0.23437678882336024
-0.4989891030312492	-0.2287175077242561
-0.4989280678749992	-0.2230203779729771
-0.4988670327187492	-0.21730594791115124
-0.4988059975624992	-0.21156511836879338
-0.4987449624062492	-0.20577635540628672
-0.4986839272499992	-0.199944331164917
-0.4986228920937492	-0.19409320217668036
-0.4985618569374992	-0.1882260914095122
-0.4985008217812492	-0.1823211828368151
-0.4984397866249992	-0.17637129156128872
-0.4983787514687492	-0.17039777970844536
-0.4983177163124992	-0.1644145729216709
-0.4982566811562492	-0.1584054253120547
-0.4981956459999992	-0.15235412346638488
-0.4981346108437492	-0.1462743514959658
-0.4980735756874992	-0.14018684498843575
-0.4980125405312492	-0.1340844717893563
-0.4979515053749992	-0.12794669782906712
-0.4978904702187492	-0.12177732740784798
-0.4978294350624992	-0.11559891677290589
-0.4977683999062492	-0.10941445624649755
-0.4977073647499992	-0.10320417289719828
-0.4976463295937492	-0.0969622527898879
-0.4975852944374992	-0.090708148953062
-0.4975242592812492	-0.08445339133516419
-0.4974632241249992	-0.0781833130339157
-0.4974021889687492	-0.07188511894201485
-0.4973411538124992	-0.06557160996409636
-0.4972801186562492	-0.05925946796904073
-0.4972190834999992	-0.05294184959876366
-0.4971580483437492	-0.04660299648134929
-0.4970970131874992	-0.040247432491429536
-0.4970359780312492	-0.03389257326261625
-0.4969749428749992	-0.027539539758111062
-0.4969139077187492	-0.021173734398701526
-0.4968528725624992	-0.01479245963745529
-0.4967918374062492	-0.008410402141204233
-0.4967308022499992	-0.002034950678817963
-0.4966697670937492	0.004344267076156002
-0.4966087319374992	0.01073478289242604
-0.4965476967812492	0.017127183186154648
-0.4964866616249992	0.023510922983411238
-0.4964256264687492	0.02989068260918012
-0.4963645913124992	0.0362756481235094
-0.4963035561562492	0.04266221262862102
-0.4962425209999992	0.04903957066877816
-0.4961814858437492	0.05540669156864027
-0.4961204506874992	0.061771492266626565
-0.4960594155312492	0.06813540854441914
-0.4959983803749992	0.07449025193317825
-0.4959373452187492	0.08083112214778826
-0.4958763100624992	0.08716250042291929
-0.4958152749062492	0.09348846519441631
-0.4957542397499992	0.09980469565276935
-0.4956932045937492	0.10610481015593196
-0.4956321694374992	0.11238926633259742
-0.4955711342812492	0.11866255006415878
-0.4955100991249992	0.12492432408491581
-0.4954490639687492	0.1311689018500273
-0.4953880288124992	0.1373931152429462
-0.4953269936562492	0.14359966774954427
-0.4952659584999992	0.14979106356234917
-0.4952049233437492	0.15596414218161472
-0.4951438881874992	0.16211383672613486
-0.4950828530312492	0.1682400464387619
-0.4950218178749992	0.17434644809797215
-0.4949607827187492	0.1804329066149768
-0.4948997475624992	0.18649398446474066
-0.4948387124062492	0.19252651743684981
-0.4947776772499992	0.19853372637669078
-0.4947166420937492	0.2045183515328463
-0.4946556069374992	0.210476189444786
-0.4945945717812492	0.216401638541028
-0.4945335366249992	0.2222960967291108
-0.4944725014687492	0.22816425077304386
-0.4944114663124992	0.23400423476577295
-0.4943504311562492	0.23980912129242837
-0.4942893959999992	0.2455776149788428
-0.4942283608437492	0.2513150173527929
-0.4941673256874992	0.2570223499436202
-0.4941062905312492	0.26269288673869623
-0.4940452553749992	0.26832263052133754
-0.4939842202187492	0.27391613975327544
-0.4939231850624992	0.2794769280955483
-0.4938621499062492	0.2849995523769557
-0.4938011147499992	0.2904778705822311
-0.4937400795937492	0.29591466992416043
-0.4936790444374992	0.3013151414811972
-0.4936180092812492	0.30667597013278364
-0.4935569741249992	0.311989962493577
-0.4934959389687492	0.3172577906670078
-0.4934349038124992	0.32248528748048333
-0.4933738686562492	0.3276712888978796
-0.4933128334999992	0.3328083721112687
-0.4932517983437492	0.33789504781992385
-0.4931907631874992	0.3429369998742646
-0.4931297280312492	0.3479352451076302
-0.4930686928749992	0.35288305990984337
-0.4930076577187492	0.3577770896264648
-0.4929466225624992	0.36262197547147634
-0.4928855874062492	0.3674202577041301
-0.4928245522499992	0.3721665371975284
-0.4927635170937492	0.3768563926675059
-0.4927024819374992	0.38149306627884416
-0.4926414467812492	0.3860798135976523
-0.4925804116249992	0.39061269194138776
-0.4925193764687492	0.3950869609736707
-0.4924583413124992	0.39950459420491113
-0.4923973061562492	0.40386899922523
-0.4923362709999992	0.4081773910342666
-0.4922752358437492	0.4124251365080675
-0.4922142006874992	0.4166133328649707
-0.4921531655312492	0.4207452027714299
-0.4920921303749992	0.4248186571261562
-0.4920310952187492	0.4288293360298666
-0.4919700600624992	0.4327779301439399
-0.4919090249062492	0.43666757180842886
-0.4918479897499992	0.44049651277627416
-0.4917869545937492	0.4442603990385257
-0.4917259194374992	0.4479596928500004
-0.4916648842812492	0.45159765760812515
-0.4916038491249992	0.45517278805017036
-0.4915428139687492	0.4586805788746277
-0.4914817788124992	0.4621213160610047
-0.4914207436562492	0.465498623825544
-0.4913597084999992	0.46881134674593783
-0.4912986733437492	0.47205462181078284
-0.4912376381874992	0.47522840351145434
-0.4911766030312492	0.478336825999961
-0.4911155678749992	0.4813792348316622
-0.4910545327187492	0.484350258468938
-0.4909934975624992	0.48724923697758543
-0.4909324624062492	0.49008089773014235
-0.4908714272499992	0.49284544461091134
-0.4908103920937492	0.49553697856149564
-0.4907493569374992	0.49815388233527735
-0.4906883217812492	0.5007014548949397
-0.4906272866249992	0.5031811563276034
-0.4905662514687492	0.5055867854228209
-0.4905052163124992	0.5079154048184342
-0.4904441811562492	0.5101724527621065
-0.4903831459999992	0.5123608822214273
-0.4903221108437492	0.5144746572757859
-0.4902610756874992	0.5165093319865821
-0.4902000405312492	0.518470025247825
-0.4901390053749992	0.5203613351797458
-0.4900779702187492	0.5221778838032096
-0.4900169350624992	0.523913695790028
-0.4899558999062492	0.5255730921737539
-0.4898948647499992	0.5271622175386076
-0.4898338295937492	0.5286767904870943
-0.4897727944374992	0.5301094808488839
-0.4897117592812492	0.5314633731957998
-0.4896507241249992	0.5327458867728051
-0.4895896889687492	0.5339542893306476
-0.4895286538124992	0.5350802887203016
-0.4894676186562492	0.5361253223605359
-0.4894065834999992	0.53709758950549
-0.4893455483437492	0.5379962092684982
-0.4892845131874992	0.5388125076779525
-0.4892234780312492	0.5395461460353348
-0.4891624428749992	0.5402054997022766
-0.4891014077187492	0.5407914829286697
-0.4890403725624992	0.5412955738659682
-0.4889793374062492	0.5417158481046231
-0.4889183022499992	0.542060446497655
-0.4888572670937492	0.5423318277074723
-0.4887962319374992	0.5425219139624387
-0.4887351967812492	0.5426274401048012
-0.4886741616249992	0.5426561046082298
-0.4886131264687492	0.5426117031258912
-0.4885520913124992	0.5424867640499044
-0.4884910561562492	0.5422768772124714
-0.4884300209999992	0.5419891851222078
-0.4883689858437492	0.541628615747977
-0.4883079506874992	0.5411883511166593
-0.4882469155312492	0.5406630581072097
-0.4881858803749992	0.540059385974039
-0.4881248452187492	0.5393831850572157
-0.4880638100624992	0.5386280732325741
-0.4880027749062492	0.537787870041894
-0.4879417397499992	0.5368690191082421
-0.4878807045937492	0.5358784445215155
-0.4878196694374992	0.5348100154967707
-0.4877586342812492	0.5336564118295459
-0.4876975991249992	0.5324239013026831
-0.4876365639687492	0.5311207738584967
-0.4875755288124992	0.5297412013811192
-0.4875144936562492	0.5282764423609999
-0.4874534584999992	0.526732503294728
-0.4873924233437492	0.5251193780888235
-0.4873313881874992	0.5234316672056901
-0.4872703530312492	0.521658767018154
-0.4872093178749992	0.5198061756567678
-0.4871482827187492	0.5178861144794051
-0.4870872475624992	0.5158940972991117
-0.4870262124062492	0.5138171536289308
-0.4869651772499992	0.5116595606560337
-0.4869041420937492	0.5094361734221744
-0.4868431069374992	0.5071442885538412
-0.4867820717812492	0.5047683242102443
-0.4867210366249992	0.5023103490741083
-0.4866600014687492	0.49978784992794645
-0.4865989663124992	0.4972008988660855
-0.4865379311562492	0.49453144855495934
-0.4864768959999992	0.49177833027874773
-0.4864158608437492	0.4889614336121518
-0.4863548256874992	0.4860847980822516
-0.4862937905312492	0.48312841286676333
-0.4862327553749992	0.4800866655970308
-0.4861717202187492	0.4769810914881742
-0.4861106850624992	0.47382077601134887
-0.4860496499062492	0.4705845544573475
-0.4859886147499992	0.4672612888420935
-0.4859275795937492	0.4638731434769446
-0.4858665444374992	0.46043530969967583
-0.4858055092812492	0.4569269224139073
-0.4857444741249992	0.4533304907823298
-0.4856834389687492	0.44966707154856966
-0.4856224038124992	0.4459585546852068
-0.4855613686562492	0.44218616668132854
-0.4855003334999992	0.4383255393673928
-0.4854392983437492	0.43439464573730896
-0.4853782631874992	0.4304223737875407
-0.4853172280312492	0.4263942541007107
-0.4852561928749992	0.42227926829789847
-0.4851951577187492	0.4180901020746141
-0.4851341225624992	0.41386196384877977
-0.4850730874062492	0.40958687286516915
-0.4850120522499992	0.40522811436168926
-0.4849510170937492	0.4007907848551162
-0.4848899819374992	0.3963150937638935
-0.4848289467812492	0.391801773936817
-0.4847679116249992	0.38721015536816
-0.4847068764687492	0.38253581098451345
-0.4846458413124992	0.3778218275092411
-0.4845848061562492	0.37307921315264037
-0.4845237709999992	0.3682657209012668
-0.4844627358437492	0.3633661953280795
-0.4844017006874992	0.35842407548558614
-0.4843406655312492	0.3534615843093358
-0.4842796303749992	0.34843761556641023
-0.4842185952187492	0.3433256386751397
-0.4841575600624992	0.33816652640111095
-0.4840965249062492	0.33299396105825807
-0.4840354897499992	0.327770954351899
-0.4839744545937492	0.32245974815828377
-0.4839134194374992	0.31709571943055775
-0.4838523842812492	0.31172347999446787
-0.4837913491249992	0.3063129739722557
-0.4837303139687492	0.30081607501938684
-0.4836692788124992	0.2952598877912829
-0.4836082436562492	0.2896987676701737
-0.4835472084999992	0.284112342513116
-0.4834861733437492	0.2784436771494599
-0.4834251381874992	0.27270913286999443
-0.4833641030312492	0.26697104057208637
-0.4833030678749992	0.26122075182543536
-0.4832420327187492	0.25539420568302024
-0.4831809975624992	0.24949514777771706
-0.4831199624062492	0.24359230755906022
-0.4830589272499992	0.23769083799614144
-0.4829978920937492	0.23172122014776694
-0.4829368569374992	0.22567206837105733
-0.4828758217812492	0.21961644343374268
-0.4828147866249992	0.21357610232856866
-0.4827537514687492	0.20747866131779522
-0.4826927163124992	0.20129480791576845
-0.4826316811562492	0.19509898278221255
-0.4825706459999992	0.1889324375721875
-0.4825096108437492	0.18272333732905283
-0.4824485756874992	0.1764212204130866
-0.4823875405312492	0.17009741774861079
-0.4823265053749992	0.16381587830050276
-0.4822654702187492	0.15751114638249514
-0.4822044350624992	0.15110889174228645
-0.4821433999062492	0.14467028052649122
-0.4820823647499992	0.1382840782886631
-0.4820213295937492	0.1318997296164886
-0.4819602944374992	0.1254179605235267
-0.4818992592812492	0.11887950662671568
-0.4818382241249992	0.11239692555406348
-0.4817771889687492	0.10594606443732153
-0.4817161538124992	0.09940651730139513
-0.4816551186562492	0.09278664658477875
-0.4815940834999992	0.08621607812110718
-0.4815330483437492	0.07970889990775308
-0.4814720131874992	0.0731335405059249
-0.4814109780312492	0.0664550295129599
-0.4813499428749992	0.05980633244862821
-0.4812889077187492	0.053248465316287595
-0.4812278725624992	0.04665591626167544
-0.4811668374062492	0.039945261801284215
-0.4811058022499992	0.03323307763293317
-0.4810447670937492	0.026628052802008636
-0.4809837319374992	0.020031977644347936
-0.4809226967812492	0.013317397453096099
-0.4808616616249992	0.006562869837713415
-0.4808006264687492	-8.565304615255788e-05
-0.4807395913124992	-0.0066789206011174445
-0.4806785561562492	-0.013372052572824483
-0.4806175209999992	-0.02014107800018444
-0.4805564858437492	-0.02682394350797051
-0.4804954506874992	-0.03341249221688097
-0.4804344155312492	-0.04006525648005134
-0.4803733803749992	-0.046818486256801045
-0.4803123452187492	-0.05351984944109857
-0.4802513100624992	-0.06010287092063432
-0.4801902749062492	-0.06670358618466082
-0.4801292397499992	-0.07341138333749635
-0.4800682045937492	-0.08010777722638136
-0.4800071694374992	-0.08668106460947263
-0.4799461342812492	-0.0932242746632171
-0.4798850991249992	-0.09986222284294304
-0.4798240639687492	-0.10652615887465346
-0.4797630288124992	-0.11308006683522097
-0.4797019936562492	-0.11956315371567947
-0.4796409584999992	-0.1261127560830153
-0.4795799233437492	-0.13271528835485336
-0.4795188881874992	-0.1392339612347981
-0.4794578530312492	-0.1456541299359772
-0.4793968178749992	-0.1521028803027495
-0.4793357827187492	-0.15861691298968805
-0.4792747475624992	-0.16507968297704528
-0.4792137124062492	-0.17143187092490192
-0.4791526772499992	-0.1777718003214124
-0.4790916420937492	-0.18417359496906865
-0.4790306069374992	-0.19055626874888318
-0.4789695717812492	-0.19683158864368222
-0.4789085366249992	-0.20305748432474466
-0.4788475014687492	-0.20932771779549372
-0.4787864663124992	-0.21560453951417688
-0.4787254311562492	-0.22178984738743368
-0.4786643959999992	-0.22789772702881564
-0.4786033608437492	-0.23402214538769547
-0.4785423256874992	-0.24016770988184538
-0.4784812905312492	-0.2462453545416843
-0.4784202553749992	-0.2522303991140546
-0.4783592202187492	-0.25819949683250476
-0.4782981850624992	-0.2641906171541524
-0.4782371499062492	-0.27013891677480906
-0.4781761147499992	-0.27599334554551264
-0.4781150795937492	-0.2818014424992248
-0.4780540444374992	-0.2876196987235087
-0.4779930092812492	-0.2934152809886183
-0.4779319741249992	-0.29912701079077153
-0.4778709389687492	-0.3047696944490164
-0.4778099038124992	-0.3104016611459551
-0.4777488686562492	-0.3160214963009288
-0.4776878334999992	-0.3215738698179489
-0.4776267983437492	-0.3270454421720257
-0.4775657631874992	-0.33248233855265646
-0.4775047280312492	-0.3379067564642613
-0.4774436928749992	-0.34328059966027746
-0.4773826577187492	-0.3485725189427989
-0.4773216225624992	-0.35380799124140555
-0.4772605874062492	-0.3590210455765759
-0.4771995522499992	-0.364196070023668
-0.4771385170937492	-0.3692964269638257
-0.4770774819374992	-0.3743252105689751
-0.4770164467812492	-0.3793157039689526
-0.4769554116249992	-0.3842730924996981
-0.4768943764687492	-0.3891667473787584
-0.4768333413124992	-0.3939818449777865
-0.4767723061562492	-0.39874156934405786
-0.4767112709999992	-0.403465385077141
-0.4766502358437492	-0.40813583790865093
-0.4765892006874992	-0.4127281430900666
-0.4765281655312492	-0.4172505479631644
-0.4764671303749992	-0.42172813341323945
-0.4764060952187492	-0.42615913095893426
-0.4763450600624992	-0.43051750927610904
-0.4762840249062492	-0.43479629535975395
-0.4762229897499992	-0.4390178921982082
-0.4761619545937492	-0.4431944947995837
-0.4761009194374992	-0.4473063646538254
-0.4760398842812492	-0.451334804556979
-0.4759788491249992	-0.4552931178860565
-0.4759178139687492	-0.45920243477183836
-0.4758567788124992	-0.46305415074277834
-0.4757957436562492	-0.46682388112513895
-0.4757347084999992	-0.47051279361671355
-0.4756736733437492	-0.47414450839739125
-0.4756126381874992	-0.47772291911250964
-0.4755516030312492	-0.48122457742802544
-0.4754905678749992	-0.4846388671936597
-0.4754295327187492	-0.4879854820910829
-0.4753684975624992	-0.49127873909796577
-0.4753074624062492	-0.49450165411899927
-0.4752464272499992	-0.49763515831164246
-0.4751853920937492	-0.5006906649163348
-0.4751243569374992	-0.5036888192795571
-0.4750633217812492	-0.506622393573701
-0.4750022866249992	-0.5094686266825088
-0.4749412514687492	-0.5122285425355125
-0.4748802163124992	-0.5149238161869644
-0.4748191811562492	-0.5175576328669512
-0.4747581459999992	-0.5201089523716854
-0.4746971108437492	-0.5225692278979558
-0.4746360756874992	-0.524956137558355
-0.4745750405312492	-0.5272811958346336
-0.4745140053749992	-0.5295293688789594
-0.4744529702187492	-0.531685666623315
-0.4743919350624992	-0.5337604873081377
-0.4743308999062492	-0.535769807216959
-0.4742698647499992	-0.5377067490547529
-0.4742088295937492	-0.5395541360687448
-0.4741477944374992	-0.5413140991956663
-0.4740867592812492	-0.5430027402277616
-0.4740257241249992	-0.5446211579139038
-0.4739646889687492	-0.5461540843788242
-0.4739036538124992	-0.5475966376601686
-0.4738426186562492	-0.5489614679101235
-0.4737815834999992	-0.5502555285322009
-0.4737205483437492	-0.5514683533870508
-0.4736595131874992	-0.5525908217540453
-0.4735984780312492	-0.5536300987066043
-0.4735374428749992	-0.5545958912270282
-0.4734764077187492	-0.5554837031027773
-0.4734153725624992	-0.5562833640078747
-0.4733543374062492	-0.5569961588759123
-0.4732933022499992	-0.5576313010251956
-0.4732322670937492	-0.558189749751291
-0.4731712319374992	-0.558663342332178
-0.4731101967812492	-0.5590489246190926
-0.4730491616249992	-0.5593527511997446
-0.4729881264687492	-0.5595792243542443
-0.4729270913124992	-0.559723954180192
-0.4728660561562492	-0.559781638461413
-0.4728050209999992	-0.5597544964620544
-0.4727439858437492	-0.559647968412809
-0.4726829506874992	-0.5594618297884653
-0.4726219155312492	-0.5591910108092882
-0.4725608803749992	-0.5588339410155647
-0.4724998452187492	-0.558394847774557
-0.4724388100624992	-0.5578768267625515
-0.4723777749062492	-0.5572769908551052
-0.4723167397499992	-0.5565913150692569
-0.4722557045937492	-0.5558213421366351
-0.4721946694374992	-0.5549718465098549
-0.4721336342812492	-0.5540430445707508
-0.4720725991249992	-0.5530302214450044
-0.4720115639687492	-0.5519318262093316
-0.4719505288124992	-0.5507525562198685
-0.4718894936562492	-0.549495692118995
-0.4718284584999992	-0.5481574962853845
-0.4717674233437492	-0.5467338019619031
-0.4717063881874992	-0.5452277788467086
-0.4716453530312492	-0.543644947447929
-0.4715843178749992	-0.5419837034676214
-0.4715232827187492	-0.5402382864373912
-0.4714622475624992	-0.5384094361392503
-0.4714012124062492	-0.5365037258634802
-0.4713401772499992	-0.5345222993712584
-0.4712791420937492	-0.5324591026898635
-0.4712181069374992	-0.5303121868970095
-0.4711570717812492	-0.5280879042091785
-0.4710960366249992	-0.5257901031889913
-0.4710350014687492	-0.5234136428564213
-0.4709739663124992	-0.5209541678065394
-0.4709129311562492	-0.5184166033961823
-0.4708518959999992	-0.5158068947066102
-0.4707908608437492	-0.5131218983589407
-0.4707298256874992	-0.510355809891864
-0.4706687905312492	-0.5075114316260937
-0.4706077553749992	-0.5045957059948399
-0.4705467202187492	-0.5016077444976512
-0.4704856850624992	-0.4985412904326422
-0.4704246499062492	-0.4953969790217229
-0.4703636147499992	-0.49218189859682443
-0.4703025795937492	-0.48889740105710544
-0.4702415444374992	-0.4855375987110504
-0.4701805092812492	-0.48210113301292207
-0.4701194741249992	-0.47859440432024064
-0.4700584389687492	-0.47502056717038127
-0.4699974038124992	-0.47137486290890973
-0.4699363686562492	-0.46765457752764467
-0.4698753334999992	-0.4638647828301523
-0.4698142983437492	-0.4600096061853556
-0.4697532631874992	-0.4560857962013439
-0.4696922280312492	-0.4520901984817582
-0.4696311928749992	-0.44802657617068153
-0.4695701577187492	-0.4438992643341332
-0.4695091225624992	-0.43970620665702315
