Time	Frequency
-0.5000381446249946	-0.40274572248321555
-0.49997710946874463	-0.40689883921346165
-0.49991607431249463	-0.4109918783840544
-0.49985503915624463	-0.41505409473337646
-0.49979400399999463	-0.41907834789392623
-0.49973296884374463	-0.4230331254568592
-0.49967193368749463	-0.4269026149339744
-0.49961089853124463	-0.43070322241610315
-0.49954986337499463	-0.43445901185804753
-0.49948882821874463	-0.43817060205077135
-0.49942779306249463	-0.4418165080983459
-0.49936675790624463	-0.4453819006274909
-0.49930572274999463	-0.44887595077205805
-0.49924468759374463	-0.4523167976211842
-0.49918365243749463	-0.45570635920143177
-0.49912261728124463	-0.45902849123489703
-0.49906158212499463	-0.46227116206845714
-0.49900054696874463	-0.46544190461083645
-0.49893951181249463	-0.4685562514890877
-0.49887847665624463	-0.4716154811224769
-0.49881744149999463	-0.4746039970606304
-0.49875640634374463	-0.47750997323831496
-0.49869537118749463	-0.4803413740331096
-0.49863433603124463	-0.4831153018166736
-0.49857330087499463	-0.4858343151724109
-0.49851226571874463	-0.48848140339169116
-0.49845123056249463	-0.49104125132959225
-0.49839019540624463	-0.49352047798466986
-0.49832916024999463	-0.49593973778545525
-0.49826812509374463	-0.4983066974956041
-0.49820708993749463	-0.5006046011260469
-0.49814605478124463	-0.5028122538847516
-0.49808501962499463	-0.5049308664037544
-0.49802398446874463	-0.5069832154252167
-0.49796294931249463	-0.5089849979037965
-0.49790191415624463	-0.5109240316887151
-0.49784087899999463	-0.5127741851676421
-0.49777984384374463	-0.5145275729574564
-0.49771880868749463	-0.5162048014466477
-0.49765777353124463	-0.5178296105741322
-0.49759673837499463	-0.5193988422958019
-0.49753570321874463	-0.5208853406557402
-0.49747466806249463	-0.5222709498737718
-0.49741363290624463	-0.5235690151395348
-0.49735259774999463	-0.5248081040505885
-0.49729156259374463	-0.5259965665291441
-0.49723052743749463	-0.5271116696889991
-0.49716949228124463	-0.528127068894477
-0.49710845712499463	-0.5290450393563091
-0.49704742196874463	-0.5298936921082406
-0.49698638681249463	-0.5306923278564114
-0.49692535165624463	-0.5314274597680034
-0.49686431649999463	-0.532069143374554
-0.49680328134374463	-0.5326076013461806
-0.49674224618749463	-0.5330650375256558
-0.49668121103124463	-0.5334681686626059
-0.49662017587499463	-0.5338153647966691
-0.49655914071874463	-0.5340787187813737
-0.49649810556249463	-0.5342382855390088
-0.49643707040624463	-0.5343063282538412
-0.49637603524999463	-0.5343119641137589
-0.49631500009374463	-0.5342653462937962
-0.49625396493749463	-0.5341454270426114
-0.49619292978124463	-0.5339260534593118
-0.49613189462499463	-0.5336080084652791
-0.49607085946874463	-0.5332176777842509
-0.49600982431249463	-0.5327744189279171
-0.49594878915624463	-0.5322670358799243
-0.49588775399999463	-0.5316680171422794
-0.49582671884374463	-0.5309675076692357
-0.49576568368749463	-0.5301851306800416
-0.49570464853124463	-0.529345566155246
-0.49564361337499463	-0.5284483757783768
-0.49558257821874463	-0.5274691215905359
-0.49552154306249463	-0.5263898604419992
-0.49546050790624463	-0.525221106600249
-0.49539947274999463	-0.5239885324754935
-0.49533843759374463	-0.5227014100221994
-0.49527740243749463	-0.5213418007182773
-0.49521636728124463	-0.5198873177590865
-0.49515533212499463	-0.5183388834075082
-0.49509429696874463	-0.5167193052465452
-0.49503326181249463	-0.515045016562333
-0.49497222665624463	-0.5133062761484517
-0.49491119149999463	-0.5114799949383761
-0.49485015634374463	-0.509558746996004
-0.49478912118749463	-0.5075598931361525
-0.49472808603124463	-0.5055039490464354
-0.49466705087499463	-0.5033895396107791
-0.49460601571874463	-0.5011958970466439
-0.49454498056249463	-0.49890923253802494
-0.49448394540624463	-0.496540010399507
-0.49442291024999463	-0.4941099328188868
-0.49436187509374463	-0.4916252148352228
-0.49430083993749463	-0.48906955378044487
-0.49423980478124463	-0.48642521802607575
-0.49417876962499463	-0.4836955443757975
-0.49411773446874463	-0.48090087042238605
-0.49405669931249463	-0.4780534143314341
-0.49399566415624463	-0.4751426367041282
-0.49393462899999463	-0.4721491725872728
-0.49387359384374463	-0.46906964875020796
-0.49381255868749463	-0.4659212580510234
-0.49375152353124463	-0.462720562451506
-0.49369048837499463	-0.45946327691853167
-0.49362945321874463	-0.4561303403007865
-0.49356841806249463	-0.45271248513849477
-0.49350738290624463	-0.4492223925735976
-0.49344634774999463	-0.44567929619822605
-0.49338531259374463	-0.4420854328695932
-0.49332427743749463	-0.4384238796990174
-0.49326324228124463	-0.434680491140856
-0.49320220712499463	-0.43086232138269187
-0.49314117196874463	-0.42698939654336204
-0.49308013681249463	-0.4230702498935072
-0.49301910165624463	-0.41909186352669814
-0.49295806649999463	-0.41503657387788806
-0.49289703134374463	-0.41090488766518374
-0.49283599618749463	-0.4067157071565536
-0.49277496103124463	-0.40248351701909985
-0.49271392587499463	-0.3982009354775138
-0.49265289071874463	-0.39384855638979743
-0.49259185556249463	-0.3894199671932364
-0.49253082040624463	-0.3849306687204
-0.49246978524999463	-0.38039955844175394
-0.49240875009374463	-0.37582600889403095
-0.49234771493749463	-0.3711912708690853
-0.49228667978124463	-0.3664826368496761
-0.49222564462499463	-0.361710264041632
-0.49216460946874463	-0.3568955099491089
-0.49210357431249463	-0.3520451773773357
-0.49204253915624463	-0.34714378385890116
-0.49198150399999463	-0.3421736088127554
-0.49192046884374463	-0.33713766726599265
-0.49185943368749463	-0.3320569342486686
-0.49179839853124463	-0.32694510997477644
-0.49173736337499463	-0.3217923324269855
-0.49167632821874463	-0.31657825901797315
-0.49161529306249463	-0.31129839909937024
-0.49155425790624463	-0.3059708615230224
-0.49149322274999463	-0.3006148114009214
-0.49143218759374463	-0.2952273482350189
-0.49137115243749463	-0.2897878669674872
-0.49131011728124463	-0.2842847086259571
-0.49124908212499463	-0.27873086342790054
-0.49118804696874463	-0.2731489640575932
-0.49112701181249463	-0.26754402555797896
-0.49106597665624463	-0.261897926203609
-0.49100494149999463	-0.25619284710055995
-0.49094390634374463	-0.250434630265605
-0.49088287118749463	-0.24464676709540134
-0.49082183603124463	-0.23884221175763465
-0.49076080087499463	-0.23300807773783705
-0.49069976571874463	-0.2271225384968619
-0.49063873056249463	-0.22118311710599547
-0.49057769540624463	-0.21521109876496514
-0.49051666024999463	-0.20922623340812357
-0.49045562509374463	-0.20322297052041932
-0.49039458993749463	-0.19717813305458173
-0.49033355478124463	-0.19108090381763237
-0.49027251962499463	-0.18494768688804317
-0.49021148446874463	-0.17880297740969692
-0.49015044931249463	-0.17264982670906417
-0.49008941415624463	-0.16646679587253008
-0.49002837899999463	-0.1602356475541368
-0.48996734384374463	-0.15396548834512022
-0.48990630868749463	-0.1476829279512724
-0.48984527353124463	-0.1414000383946824
-0.48978423837499463	-0.13510002241922658
-0.48972320321874463	-0.1287589720269894
-0.48966216806249463	-0.12237701465303187
-0.48960113290624463	-0.11597975911446398
-0.48954009774999463	-0.10958761243901725
-0.48947906259374463	-0.10319112156208138
-0.48941802743749463	-0.0967635843685442
-0.48935699228124463	-0.09029556394544366
-0.48929595712499463	-0.08380820778751552
-0.48923492196874463	-0.07732835690471325
-0.48917388681249463	-0.07085609076588033
-0.48911285165624463	-0.06436533644229567
-0.48905181649999463	-0.057837361258029324
-0.48899078134374463	-0.05128568528232335
-0.48892974618749463	-0.044740907607370504
-0.48886871103124463	-0.03821368568251891
-0.48880767587499463	-0.0316820574861616
-0.48874664071874463	-0.02511964152896316
-0.48868560556249463	-0.018530036267006555
-0.48862457040624463	-0.011944157182065282
-0.48856353524999463	-0.005383042901021175
-0.48850250009374463	0.0011677108555567816
-0.48844146493749463	0.007739306613200631
-0.48838042978124463	0.0143394514884259
-0.48831939462499463	0.020940927395677943
-0.48825835946874463	0.027514037839011216
-0.48819732431249463	0.03406283076196384
-0.48813628915624463	0.040619530328455694
-0.48807525399999463	0.04720328273024623
-0.48801421884374463	0.05379442952533636
-0.48795318368749463	0.06035720554336187
-0.48789214853124463	0.06688334268003099
-0.48783111337499463	0.07340193196849362
-0.48777007821874463	0.0799423120449834
-0.48770904306249463	0.0864957736896818
-0.48764800790624463	0.09302441391563412
-0.48758697274999463	0.09950712891279176
-0.48752593759374463	0.10596552336595146
-0.48746490243749463	0.11243647408486337
-0.48740386728124463	0.1189247338525475
-0.48734283212499463	0.12539490395022837
-0.48728179696874463	0.13181390801384604
-0.48722076181249463	0.1381916746502472
-0.48715972665624463	0.1445684903286056
-0.48709869149999463	0.15096363787852896
-0.48703765634374463	0.15734928941375745
-0.48697662118749463	0.16368321676454778
-0.48691558603124463	0.16996057208160895
-0.48685455087499463	0.1762198925458611
-0.48679351571874463	0.18249442898751464
-0.48673248056249463	0.18876875446713634
-0.48667144540624463	0.19499573809793483
-0.48661041024999463	0.2011541157753217
-0.48654937509374463	0.2072749151722364
-0.48648833993749463	0.21340252941580665
-0.48642730478124463	0.21953784969613147
-0.48636626962499463	0.22563476017755396
-0.48630523446874463	0.23165593010989358
-0.48624419931249463	0.2376190882038059
-0.48618316415624463	0.2435750497633248
-0.48612212899999463	0.2495433217112425
-0.48606109384374463	0.25548543035913324
-0.48600005868749463	0.2613507684374627
-0.48593902353124463	0.26713908674382525
-0.48587798837499463	0.27290115444096724
-0.48581695321874463	0.27867502631822555
-0.48575591806249463	0.2844365226136141
-0.48569488290624463	0.2901268320756557
-0.48563384774999463	0.29572468032948007
-0.48557281259374463	0.3012732780054189
-0.48551177743749463	0.3068266243794424
-0.48545074228124463	0.31238053055109405
-0.48538970712499463	0.3178750787286567
-0.48532867196874463	0.32326759252856946
-0.48526763681249463	0.32858602763867956
-0.48520660165624463	0.3338947509141433
-0.48514556649999463	0.33921334469165404
-0.48508453134374463	0.344489561097554
-0.48502349618749463	0.3496621546767893
-0.48496246103124463	0.3547369667540491
-0.48490142587499463	0.35978060732805267
-0.48484039071874463	0.3648371997684692
-0.48477935556249463	0.3698710025627013
-0.48471832040624463	0.37480816385327387
-0.48465728524999463	0.3796278635124802
-0.48459625009374463	0.3843892412201509
-0.48453521493749463	0.38915818663570206
-0.48447417978124463	0.3939234414403877
-0.48441314462499463	0.39860760519613025
-0.48435210946874463	0.4031619691320877
-0.48429107431249463	0.40762799557041607
-0.48423003915624463	0.41208683246764705
-0.48416900399999463	0.416557226850319
-0.48410796884374463	0.42096915671753243
-0.48404693368749463	0.42524867600735317
-0.48398589853124463	0.4294101910194016
-0.48392486337499463	0.43354007388777693
-0.48386382821874463	0.43768915470952835
-0.48380279306249463	0.441806845376255
-0.48374175790624463	0.44580104760283296
-0.48368072274999463	0.44965210889195645
-0.48361968759374463	0.45343895064408396
-0.48355865243749463	0.457241934750042
-0.48349761728124463	0.4610410911780098
-0.48343658212499463	0.4647375117952971
-0.48337554696874463	0.4682745761481878
-0.48331451181249463	0.471709664797299
-0.48325347665624463	0.4751448472945735
-0.48319244149999463	0.4785993716642069
-0.48313140634374463	0.48198231890502663
-0.48307037118749463	0.4852027080858062
-0.48300933603124463	0.4882829736315188
-0.48294830087499463	0.4913336711818052
-0.48288726571874463	0.49441701815414024
-0.48282623056249463	0.4974668658556924
-0.48276519540624463	0.5003669952928784
-0.48270416024999463	0.5030944660344917
-0.48264312509374463	0.5057505833161962
-0.48258208993749463	0.5084374813434603
-0.48252105478124463	0.5111300565129837
-0.48246001962499463	0.5137029503141924
-0.48239898446874463	0.5160833800734057
-0.48233794931249463	0.5183429729364266
-0.48227691415624463	0.5206124061384525
-0.48221587899999463	0.5229200158958142
-0.48215484384374463	0.5251530589644094
-0.48209380868749463	0.527193262667758
-0.48203277353124463	0.5290631302560818
-0.48197173837499463	0.5309016829050075
-0.48191070321874463	0.5327950238319182
-0.48184966806249463	0.5346677987781586
-0.48178863290624463	0.5363716258425145
-0.48172759774999463	0.5378662380175586
-0.48166656259374463	0.5392717642266731
-0.48160552743749463	0.540724317513852
-0.48154449228124463	0.5422082840145498
-0.48148345712499463	0.5435715608656578
-0.48142242196874463	0.5447092034313162
-0.48136138681249463	0.545693216465819
-0.48130035165624463	0.5466877415669009
-0.48123931649999463	0.5477494154681568
-0.48117828134374463	0.5487556627375157
-0.48111724618749463	0.5495511946607802
-0.48105621103124463	0.5501370775746359
-0.48099517587499463	0.5506717472828541
-0.48093414071874463	0.5512799107398291
-0.48087310556249463	0.5519000257609293
-0.48081207040624463	0.55235687887265
-0.48075103524999463	0.5525732988119205
-0.48069000009374463	0.5526646199688038
-0.48062896493749463	0.5528000801041748
-0.48056792978124463	0.5529979970446909
-0.48050689462499463	0.5531029633502456
-0.48044585946874463	0.5529733178292715
-0.48038482431249463	0.5526521898866591
-0.48032378915624463	0.5523151809531881
-0.48026275399999463	0.5520583338581941
-0.48020171884374463	0.5517829662333387
-0.48014068368749463	0.5513157457980951
-0.48007964853124463	0.550617607100506
-0.48001861337499463	0.5498292074860798
-0.47995757821874463	0.5491000682525674
-0.47989654306249463	0.5484094711874988
-0.47983550790624463	0.5475942257654803
-0.47977447274999463	0.546546569572157
-0.47971343759374463	0.5453418603650978
-0.47965240243749463	0.5441445954038479
-0.47959136728124463	0.543010205928177
-0.47953033212499463	0.5418221124652401
-0.47946929696874463	0.5404356589406992
-0.47940826181249463	0.5388512785918533
-0.47934722665624463	0.5372094603793728
-0.47928619149999463	0.5356192323996539
-0.47922515634374463	0.5340300972260118
-0.47916412118749463	0.5322982983752703
-0.47910308603124463	0.5303613111659438
-0.47904205087499463	0.5283088636150481
-0.47898101571874463	0.5262703410504531
-0.47891998056249463	0.5242601000356564
-0.47885894540624463	0.5221661545962282
-0.47879791024999463	0.5198891386131462
-0.47873687509374463	0.517459593540126
-0.47867583993749463	0.5149955157938579
-0.47861480478124463	0.5125585908921907
-0.47855376962499463	0.5100848075847383
-0.47849273446874463	0.5074675964043706
-0.47843169931249463	0.5046865299941846
-0.47837066415624463	0.501826687968978
-0.47830962899999463	0.4989722560701696
-0.47824859384374463	0.496107798187926
-0.47818755868749463	0.49314341728666733
-0.47812652353124463	0.49002614072728
-0.47806548837499463	0.48680027549530064
-0.47800445321874463	0.48354888151419273
-0.47794341806249463	0.4802937175877807
-0.47788238290624463	0.47697475395954947
-0.47782134774999463	0.4735276133993247
-0.47776031259374463	0.4699601851451229
-0.47769927743749463	0.4663380773536819
-0.47763824228124463	0.46270329203436433
-0.47757720712499463	0.4590274826502399
-0.47751617196874463	0.45525209872935474
-0.47745513681249463	0.4513606119394279
-0.47739410165624463	0.44739466420273116
-0.47733306649999463	0.44340012562853764
-0.47727203134374463	0.4393733295282474
-0.47721099618749463	0.43527110238304445
-0.47714996103124463	0.43106655796837834
-0.47708892587499463	0.42677979816088335
-0.47702789071874463	0.42244951081792725
-0.47696685556249463	0.4180856583403108
-0.47690582040624463	0.41366189496024314
-0.47684478524999463	0.4091522700666785
-0.47678375009374463	0.40456300765575226
-0.47672271493749463	0.3999216241112676
-0.47666167978124463	0.39524157250084674
-0.47660064462499463	0.3905084781694125
-0.47653960946874463	0.3857024736594069
-0.47647857431249463	0.3808246813333645
-0.47641753915624463	0.3758939945321215
-0.47635650399999463	0.37092145245908753
-0.47629546884374463	0.36589746816313584
-0.47623443368749463	0.3608074148090959
-0.47617339853124463	0.35565294264710695
-0.47611236337499463	0.35045015095757914
-0.47605132821874463	0.3452078318891466
-0.47599029306249463	0.3399159879391964
-0.47592925790624463	0.3345605571360037
-0.47586822274999463	0.329144292825295
-0.47580718759374463	0.32368501420369145
-0.47574615243749463	0.31819280313041
-0.47568511728124463	0.31265647736465396
-0.47562408212499463	0.30705834673478327
-0.47556304696874463	0.3013989282494743
-0.47550201181249463	0.2956988388209178
-0.47544097665624463	0.28997389582034094
-0.47537994149999463	0.28421492929316045
-0.47531890634374463	0.2783992119302784
-0.47525787118749463	0.27252033197375697
-0.47519683603124463	0.2665985805234891
-0.47513580087499463	0.2606573973178616
-0.47507476571874463	0.25469467013532654
-0.47501373056249463	0.2486853724781273
-0.47495269540624463	0.24261337999134408
-0.47489166024999463	0.23649327886976745
-0.47483062509374463	0.23035426416944355
-0.47476958993749463	0.22420515259034235
-0.47470855478124463	0.21802391786469769
-0.47464751962499463	0.2117854973421873
-0.47458648446874463	0.20549402663088248
-0.47452544931249463	0.19917942222920643
-0.47446441415624463	0.19286191602905906
-0.47440337899999463	0.18652808084288497
-0.47434234384374463	0.1801481433241457
-0.47428130868749463	0.1737135958262571
-0.47422027353124463	0.16724899027902718
-0.47415923837499463	0.1607831992700128
-0.47409820321874463	0.1543151645099294
-0.47403716806249463	0.14781631036839754
-0.47397613290624463	0.141266810538374
-0.47391509774999463	0.13468105352826099
-0.47385406259374463	0.12809106160245434
-0.47379302743749463	0.12150841467102645
-0.47373199228124463	0.11491143261290716
-0.47367095712499463	0.10827311037643281
-0.47360992196874463	0.10159529956121452
-0.47354888681249463	0.0949073625379352
-0.47348785165624463	0.08823128144622053
-0.47342681649999463	0.08155613882863566
-0.47336578134374463	0.07485313191287528
-0.47330474618749463	0.06811225847121641
-0.47324371103124463	0.061355432099296385
-0.47318267587499463	0.05461034667147751
-0.47312164071874463	0.047877704631814816
-0.47306060556249463	0.041132077543532354
-0.47299957040624463	0.03435476739714577
-0.47293853524999463	0.027557809147693776
-0.47287750009374463	0.02076993739620085
-0.47281646493749463	0.01400244029106038
-0.47275542978124463	0.007236984174172017
-0.47269439462499463	0.000449816486382931
-0.47263335946874463	-0.0063579036758786575
-0.47257232431249463	-0.01316081442106965
-0.47251128915624463	-0.019939668237713672
-0.47245025399999463	-0.026703561838187482
-0.47238921884374463	-0.03347693940470233
-0.47232818368749463	-0.04026800881014971
-0.47226714853124463	-0.04705773650027431
-0.47220611337499463	-0.053822524900676044
-0.47214507821874463	-0.060562051856316836
-0.47208404306249463	-0.06729791811347752
-0.47202300790624463	-0.0740453013696556
-0.47196197274999463	-0.08079315431281096
-0.47190093759374463	-0.08751722189065603
-0.47183990243749463	-0.09420899827893796
-0.47177886728124463	-0.10088455638938644
-0.47171783212499463	-0.10756291818347825
-0.47165679696874463	-0.11424128829103546
-0.47159576181249463	-0.12089770770835272
-0.47153472665624463	-0.12751735895172145
-0.47147369149999463	-0.13410959168746572
-0.47141265634374463	-0.14069462902257746
-0.47135162118749463	-0.147276938290413
-0.47129058603124463	-0.15383869295857633
-0.47122955087499463	-0.16036115920861835
-0.47116851571874463	-0.16684684003628647
-0.47110748056249463	-0.17331473717125145
-0.47104644540624463	-0.17977514296907518
-0.47098541024999463	-0.18621569994306833
-0.47092437509374463	-0.19261589903950035
-0.47086333993749463	-0.19897164289841285
-0.47080230478124463	-0.20529909776750016
-0.47074126962499463	-0.21161307711067265
-0.47068023446874463	-0.21790716902221932
-0.47061919931249463	-0.22416059397797558
-0.47055816415624463	-0.2303631566184877
-0.47049712899999463	-0.2365268848343915
-0.47043609384374463	-0.24266968727345856
-0.47037505868749463	-0.24879165330273426
-0.47031402353124463	-0.25487381336400855
