Time	Frequency
-0.5000038126250104	-0.6274986560176243
-0.49994277746876037	-0.627698334641328
-0.49988174231251037	-0.6277629470258613
-0.49982070715626037	-0.627689554671236
-0.49975967200001037	-0.6274734746876235
-0.49969863684376037	-0.6271141950045725
-0.49963760168751037	-0.6266158877906054
-0.49957656653126037	-0.6259820382225117
-0.49951553137501037	-0.625211128290197
-0.49945449621876037	-0.6242988165013723
-0.49939346106251037	-0.623243674576308
-0.49933242590626037	-0.6220491071371755
-0.49927139075001037	-0.62071915586274
-0.49921035559376037	-0.6192536659487934
-0.49914932043751037	-0.6176489002446643
-0.49908828528126037	-0.6159026617684066
-0.49902725012501037	-0.6140173703405764
-0.49896621496876037	-0.6119973308369111
-0.49890517981251037	-0.6098437950571884
-0.49884414465626037	-0.6075539936892824
-0.49878310950001037	-0.6051252119895003
-0.49872207434376037	-0.6025587325942571
-0.49866103918751037	-0.5998587383023158
-0.49860000403126037	-0.5970276790644365
-0.49853896887501037	-0.5940639806815275
-0.49847793371876037	-0.5909648532530385
-0.49841689856251037	-0.5877305539275952
-0.49835586340626037	-0.5843647848884336
-0.49829482825001037	-0.5808708383377325
-0.49823379309376037	-0.5772483685982772
-0.49817275793751037	-0.5734947959196252
-0.49811172278126037	-0.5696095035335745
-0.49805068762501037	-0.5655955390460427
-0.49798965246876037	-0.5614567673169617
-0.49792861731251037	-0.5571941176636203
-0.49786758215626037	-0.5528056023354503
-0.49780654700001037	-0.548289974145751
-0.49774551184376037	-0.5436493832127328
-0.49768447668751037	-0.5388878079928456
-0.49762344153126037	-0.5340073465117801
-0.49756240637501037	-0.529006960326058
-0.49750137121876037	-0.5238851108534406
-0.49744033606251037	-0.5186429672231483
-0.49737930090626037	-0.5132842422509991
-0.49731826575001037	-0.5078119233101618
-0.49725723059376037	-0.5022259877864123
-0.49719619543751037	-0.49652494630496513
-0.49713516028126037	-0.4907092722621698
-0.49707412512501037	-0.4847823490998488
-0.49701308996876037	-0.47874774879788706
-0.49695205481251037	-0.47260638898555435
-0.49689101965626037	-0.46635709075693493
-0.49682998450001037	-0.4599996406024732
-0.49676894934376037	-0.45353661112401905
-0.49670791418751037	-0.44697188781974473
-0.49664687903126037	-0.440307672076634
-0.49658584387501037	-0.4335435663411855
-0.49652480871876037	-0.42667889725608693
-0.49646377356251037	-0.4197153715493409
-0.49640273840626037	-0.41265675667380314
-0.49634170325001037	-0.40550603682740327
-0.49628066809376037	-0.39826361552843154
-0.49621963293751037	-0.39092880426881077
-0.49615859778126037	-0.38350267126697735
-0.49609756262501037	-0.3759886692487099
-0.49603652746876037	-0.36839035322094327
-0.49597549231251037	-0.3607090350008018
-0.49591445715626037	-0.3529442037218995
-0.49585342200001037	-0.3450961992710548
-0.49579238684376037	-0.33716789388136126
-0.49573135168751037	-0.32916327767975767
-0.49567031653126037	-0.32108466708750655
-0.49560928137501037	-0.3129320558868265
-0.49554824621876037	-0.304705367975422
-0.49548721106251037	-0.29640675676201916
-0.49542617590626037	-0.288040168870289
-0.49536514075001037	-0.279608680303286
-0.49530410559376037	-0.2711128877511193
-0.49524307043751037	-0.26255247862354203
-0.49518203528126037	-0.2539290408992998
-0.49512100012501037	-0.24524649716501504
-0.49505996496876037	-0.2365085862808278
-0.49499892981251037	-0.22771656043291105
-0.49493789465626037	-0.21886995985006577
-0.49487685950001037	-0.2099695389145208
-0.49481582434376037	-0.20101876157031354
-0.49475478918751037	-0.19202194062223082
-0.49469375403126037	-0.1829813228582164
-0.49463271887501037	-0.17389683294626151
-0.49457168371876037	-0.1647687240581795
-0.49451064856251037	-0.1555997483224067
-0.49444961340626037	-0.14639422429186874
-0.49438857825001037	-0.13715520945990334
-0.49432754309376037	-0.12788323515543287
-0.49426650793751037	-0.11857816808219286
-0.49420547278126037	-0.10924194699794802
-0.49414443762501037	-0.09987879294505178
-0.49408340246876037	-0.09049254167776294
-0.49402236731251037	-0.08108432219371567
-0.49396133215626037	-0.07165358544239717
-0.49390029700001037	-0.06220146341580418
-0.49383926184376037	-0.05273220482217427
-0.49377822668751037	-0.043250562850928626
-0.49371719153126037	-0.033758342684582686
-0.49365615637501037	-0.024254692245096618
-0.49359512121876037	-0.014739913401530746
-0.49353408606251037	-0.005217865599992274
-0.49347305090626037	0.004306255906820736
-0.49341201575001037	0.013829940464093107
-0.49335098059376037	0.023353915614031474
-0.49328994543751037	0.03287849977751422
-0.49322891028126037	0.04240040571467036
-0.49316787512501037	0.051914137953698786
-0.49310683996876037	0.06141639007376884
-0.49304580481251037	0.07090773344725317
-0.49298476965626037	0.08038916654309973
-0.49292373450001037	0.08985789613928206
-0.49286269934376037	0.0993079904348992
-0.49280166418751037	0.10873533083438533
-0.49274062903126037	0.11814042028132549
-0.49267959387501037	0.12752513708881058
-0.49261855871876037	0.13688748106919266
-0.49255752356251037	0.1462212392732755
-0.49249648840626037	0.15552131648710005
-0.49243545325001037	0.16478790042771724
-0.49237441809376037	0.17402374087067757
-0.49231338293751037	0.18322772820460217
-0.49225234778126037	0.1923932099146315
-0.49219131262501037	0.2015138039642273
-0.49213027746876037	0.2105893830024594
-0.49206924231251037	0.21962394060737256
-0.49200820715626037	0.22861763360849902
-0.49194717200001037	0.2375634843254639
-0.49188613684376037	0.2464536186951423
-0.49182510168751037	0.25528726827227044
-0.49176406653126037	0.2640696909881034
-0.49170303137501037	0.2728026866421125
-0.49164199621876037	0.2814790153837932
-0.49158096106251037	0.29008881720485463
-0.49151992590626037	0.29863029439739514
-0.49145889075001037	0.30711031070442923
-0.49139785559376037	0.3155331414982358
-0.49133682043751037	0.3238916997983476
-0.49127578528126037	0.33217356113324925
-0.49121475012501037	0.34037494428834075
-0.49115371496876037	0.3485041386867241
-0.49109267981251037	0.3565686751540236
-0.49103164465626037	0.3645623893343192
-0.49097060950001037	0.3724701017317443
-0.49090957434376037	0.3802851071844958
-0.49084853918751037	0.3880167504760567
-0.49078750403126037	0.3956767378179091
-0.49072646887501037	0.40326087859983256
-0.49066543371876037	0.4107509330311444
-0.49060439856251037	0.41813592478915584
-0.49054336340626037	0.425425463912571
-0.49048232825001037	0.4326361567656931
-0.49042129309376037	0.43976732563308735
-0.49036025793751037	0.4467982194065338
-0.49029922278126037	0.4537123351672529
-0.49023818762501037	0.460518036231122
-0.49017715246876037	0.46723710116826067
-0.49011611731251037	0.47387412985504845
-0.49005508215626037	0.48040683622238944
-0.48999404700001037	0.48681206198044213
-0.48993301184376037	0.49309504544731847
-0.48987197668751037	0.49928261490181935
-0.48981094153126037	0.505386714896818
-0.48974990637501037	0.5113851833170223
-0.48968887121876037	0.5172470929230152
-0.48962783606251037	0.5229719182218133
-0.48956680090626037	0.5285907435505672
-0.48950576575001037	0.5341250602083405
-0.48944473059376037	0.5395554463605706
-0.48938369543751037	0.5448428798258073
-0.48932266028126037	0.5499779092151987
-0.48926162512501037	0.5549938336605118
-0.48920058996876037	0.559923699851448
-0.48913955481251037	0.5647546539897403
-0.48907851965626037	0.5694403404047986
-0.48901748450001037	0.5739587684770818
-0.48895644934376037	0.5783417658577927
-0.48889541418751037	0.5826349667485621
-0.48883437903126037	0.5868368633045378
-0.48877334387501037	0.5908964035128911
-0.48871230871876037	0.5947760542923906
-0.48865127356251037	0.5985010103203892
-0.48859023840626037	0.6021286630166592
-0.48852920325001037	0.6056737729397486
-0.48846816809376037	0.6090853339839143
-0.48840713293751037	0.6123086298027929
-0.48834609778126037	0.6153558325434599
-0.48828506262501037	0.6182928956736402
-0.48822402746876037	0.6211552344352231
-0.48816299231251037	0.6238988137988704
-0.48810195715626037	0.6264525401965393
-0.48804092200001037	0.6288087210876837
-0.48797988684376037	0.6310354883380556
-0.48791885168751037	0.6331912026295542
-0.48785781653126037	0.6352475491071015
-0.48779678137501037	0.6371215999354309
-0.48773574621876037	0.6387800588769373
-0.48767471106251037	0.640283759836854
-0.48761367590626037	0.6417124504040295
-0.48755264075001037	0.643062354055867
-0.48749160559376037	0.6442476003426885
-0.48743057043751037	0.645207251072305
-0.48736953528126037	0.6459837669182329
-0.48730850012501037	0.64667137086025
-0.48724746496876037	0.64729681712084
-0.48718642981251037	0.6477833760533785
-0.48712539465626037	0.648046042397157
-0.48706435950001037	0.6480992690174007
-0.48700332434376037	0.6480401852942121
-0.48694228918751037	0.6479266181317526
-0.48688125403126037	0.6477034144909769
-0.48682021887501037	0.6472710956898078
-0.48675918371876037	0.6466111396616201
-0.48669814856251037	0.6458097367731547
-0.48663711340626037	0.644949602604054
-0.48657607825001037	0.6440061730026656
-0.48651504309376037	0.6428790151769798
-0.48645400793751037	0.6415184712458029
-0.48639297278126037	0.6399877416183969
-0.48633193762501037	0.638382939580578
-0.48627090246876037	0.6367128726066363
-0.48620986731251037	0.6348897558962014
-0.48614883215626037	0.6328409108897196
-0.48608779700001037	0.6305996311816217
-0.48602676184376037	0.6282619266761734
-0.48596572668751037	0.625866005158837
-0.48590469153126037	0.6233467809612576
-0.48584365637501037	0.6206203400184808
-0.48578262121876037	0.6176895538767588
-0.48572158606251037	0.6146385573220066
-0.48566055090626037	0.611526327232908
-0.48559951575001037	0.6083151012602703
-0.48553848059376037	0.6049215570461657
-0.48547744543751037	0.6013228218927765
-0.48541641028126037	0.5975834726835239
-0.48535537512501037	0.593772869697714
-0.48529433996876037	0.5898798307082954
-0.48523330481251037	0.5858308697390878
-0.48517226965626037	0.5815851769228607
-0.48511123450001037	0.5771850864781972
-0.48505019934376037	0.5727010492254977
-0.48498916418751037	0.5681439682755904
-0.48492812903126037	0.5634554783403672
-0.48486709387501037	0.5585849353691139
-0.48480605871876037	0.5535533890041948
-0.48474502356251037	0.5484254221106761
-0.48468398840626037	0.5432280636701622
-0.48462295325001037	0.5379202828048575
-0.48456191809376037	0.5324488126112498
-0.48450088293751037	0.5268166295734809
-0.48443984778126037	0.5210780604252006
-0.48437881262501037	0.5152700568430818
-0.48431777746876037	0.5093684405934988
-0.48425674231251037	0.503322655231756
-0.48419570715626037	0.49712190551854923
-0.48413467200001037	0.49080847386741855
-0.48407363684376037	0.4844240195349795
-0.48401260168751037	0.4779591878917687
-0.48395156653126037	0.4713694559887284
-0.48389053137501037	0.4646343333219503
-0.48382949621876037	0.4577838376194142
-0.48376846106251037	0.4508605280076382
-0.48370742590626037	0.4438674543951521
-0.48364639075001037	0.43676798857543225
-0.48358535559376037	0.4295355601257588
-0.48352432043751037	0.4221885909804148
-0.48346328528126037	0.414767405909729
-0.48340225012501037	0.40728469588330096
-0.48334121496876037	0.3997128432409645
-0.48328017981251037	0.39202240765845503
-0.48321914465626037	0.3842212834668427
-0.48315810950001037	0.3763453910603311
-0.48309707434376037	0.36841464251667944
-0.48303603918751037	0.3604108318578947
-0.48297500403126037	0.3523042715499829
-0.48291396887501037	0.34409378707419347
-0.48285293371876037	0.33580936810081624
-0.48279189856251037	0.32747567190751753
-0.48273086340626037	0.3190836444467
-0.48266982825001037	0.31060549513164926
-0.48260879309376037	0.3020326507640344
-0.48254775793751037	0.29338817247015453
-0.48248672278126037	0.28469900266750514
-0.48242568762501037	0.27596446148030473
-0.48236465246876037	0.26716061218587317
-0.48230361731251037	0.2582736079800272
-0.48224258215626037	0.24931918367889708
-0.48218154700001037	0.2403244366586484
-0.48212051184376037	0.2312960523491039
-0.48205947668751037	0.22221518655975758
-0.48199844153126037	0.21306447136799717
-0.48193740637501037	0.20385217400187505
-0.48187637121876037	0.1946034251007954
-0.48181533606251037	0.1853308523267468
-0.48175430090626037	0.17602207049700092
-0.48169326575001037	0.16665883504085718
-0.48163223059376037	0.1572426018481076
-0.48157119543751037	0.14779441583665057
-0.48151016028126037	0.13833052006076121
-0.48144912512501037	0.1288450617774765
-0.48138808996876037	0.11932099472148905
-0.48132705481251037	0.10975447434357251
-0.48126601965626037	0.10016179427702794
-0.48120498450001037	0.09056088190232052
-0.48114394934376037	0.08095156371883656
-0.48108291418751037	0.07131932458235508
-0.48102187903126037	0.0616567987817653
-0.48096084387501037	0.05197536440049895
-0.48089980871876037	0.042292841581606413
-0.48083877356251037	0.03261372528269501
-0.48077773840626037	0.022926965346059886
-0.48071670325001037	0.013223206431457182
-0.48065566809376037	0.0035090091040552544
-0.48059463293751037	-0.00619937261225583
-0.48053359778126037	-0.015893795769193298
-0.48047256262501037	-0.025581075391888686
-0.48041152746876037	-0.03527105109229095
-0.48035049231251037	-0.04496153497116645
-0.48028945715626037	-0.054638910867955616
-0.48022842200001037	-0.06429291601509995
-0.48016738684376037	-0.07392649453992159
-0.48010635168751037	-0.08354868761587084
-0.48004531653126037	-0.09316034512676245
-0.47998428137501037	-0.10275078461449927
-0.47992324621876037	-0.11230895125103832
-0.47986221106251037	-0.12183445665810431
-0.47980117590626037	-0.1313347554333194
-0.47974014075001037	-0.14081270431436793
-0.47967910559376037	-0.15026046518678784
-0.47961807043751037	-0.1596670787486642
-0.47955703528126037	-0.16902970557049454
-0.47949600012501037	-0.17835417712387008
-0.47943496496876037	-0.18764454912100728
-0.47937392981251037	-0.19689541365221588
-0.47931289465626037	-0.20609649109509257
-0.47925185950001037	-0.2152430496071313
-0.47919082434376037	-0.22433890474565452
-0.47912978918751037	-0.23338861084093063
-0.47906875403126037	-0.24238904042643472
-0.47900771887501037	-0.25133103232962484
-0.47894668371876037	-0.2602086068735966
-0.47888564856251037	-0.2690237700239608
-0.47882461340626037	-0.2777811163986202
-0.47876357825001037	-0.28647939252753546
-0.47870254309376037	-0.2951107522411552
-0.47864150793751037	-0.3036684436237171
-0.47858047278126037	-0.3121527897925655
-0.47851943762501037	-0.3205679403875693
-0.47845840246876037	-0.32891400003840693
-0.47839736731251037	-0.33718462186556547
-0.47833633215626037	-0.34537281413362275
-0.47827529700001037	-0.3534773450068765
-0.47821426184376037	-0.36150167409300693
-0.47815322668751037	-0.36944707420358036
-0.47809219153126037	-0.37730882168257707
-0.47803115637501037	-0.3850800518749608
-0.47797012121876037	-0.39275817266829777
-0.47790908606251037	-0.4003457821336052
-0.47784805090626037	-0.407845024962948
-0.47778701575001037	-0.4152526410689381
-0.47772598059376037	-0.4225620378772495
-0.47766494543751037	-0.4297695336743595
-0.47760391028126037	-0.43687673244845787
-0.47754287512501037	-0.44388622030341846
-0.47748183996876037	-0.45079618222857626
-0.47742080481251037	-0.45760076291270824
-0.47735976965626037	-0.464295607148062
-0.47729873450001037	-0.4708813626466022
-0.47723769934376037	-0.4773607518937015
-0.47717666418751037	-0.48373314991914773
-0.47711562903126037	-0.4899935653381458
-0.47705459387501037	-0.49613713988601543
-0.47699355871876037	-0.5021633480152786
-0.47693252356251037	-0.5080747180077859
-0.47687148840626037	-0.513871865166433
-0.47681045325001037	-0.5195510854226397
-0.47674941809376037	-0.5251074156464762
-0.47668838293751037	-0.5305391993200587
-0.47662734778126037	-0.5358484352554173
-0.47656631262501037	-0.5410366012460853
-0.47650527746876037	-0.5461012805247415
-0.47644424231251037	-0.5510377488437883
-0.47638320715626037	-0.5558434380790179
-0.47632217200001037	-0.5605196752436811
-0.47626113684376037	-0.5650685346172354
-0.47620010168751037	-0.5694888351957992
-0.47613906653126037	-0.5737763345157448
-0.47607803137501037	-0.5779277707631195
-0.47601699621876037	-0.581943630345863
-0.47595596106251037	-0.5858262430547859
-0.47589492590626037	-0.5895756834412813
-0.47583389075001037	-0.5931885888979892
-0.47577285559376037	-0.5966612941539176
-0.47571182043751037	-0.5999933209348122
-0.47565078528126037	-0.6031868654728929
-0.47558975012501037	-0.6062430329478983
-0.47552871496876037	-0.6091595872761701
-0.47546767981251037	-0.6119329052912635
-0.47540664465626037	-0.6145615979183662
-0.47534560950001037	-0.6170473241754687
-0.47528457434376037	-0.6193918881650745
-0.47522353918751037	-0.621594290376903
-0.47516250403126037	-0.6236513222693859
-0.47510146887501037	-0.6255608827298894
-0.47504043371876037	-0.6273239279561718
-0.47497939856251037	-0.6289426707495541
-0.47491836340626037	-0.6304172861472033
-0.47485732825001037	-0.6317452421254931
-0.47479629309376037	-0.6329240232063391
-0.47473525793751037	-0.6339537861194809
-0.47467422278126037	-0.6348367268396501
-0.47461318762501037	-0.6355740427227032
-0.47455215246876037	-0.6361642163411523
-0.47449111731251037	-0.6366046746099058
-0.47443008215626037	-0.6368947513859845
-0.47436904700001037	-0.6370363084016628
-0.47430801184376037	-0.6370312842503862
-0.47424697668751037	-0.6368792190182548
-0.47418594153126037	-0.6365778150917428
-0.47412490637501037	-0.6361258201158838
-0.47406387121876037	-0.6355246204542424
-0.47400283606251037	-0.6347765793385982
-0.47394180090626037	-0.6338822347150785
-0.47388076575001037	-0.6328398362417543
-0.47381973059376037	-0.6316477495887348
-0.47375869543751037	-0.6303067244485908
-0.47369766028126037	-0.6288192379434531
-0.47363662512501037	-0.6271867509145598
-0.47357558996876037	-0.6254082912302775
-0.47351455481251037	-0.6234821275264079
-0.47345351965626037	-0.6214084258014867
-0.47339248450001037	-0.6191895536054969
-0.47333144934376037	-0.6168276485133457
-0.47327041418751037	-0.6143225149389429
-0.47320937903126037	-0.6116725156585232
-0.47314834387501037	-0.6088773289701835
-0.47308730871876037	-0.6059390924740978
-0.47302627356251037	-0.602860507959336
-0.47296523840626037	-0.5996422954676734
-0.47290420325001037	-0.5962831502795696
-0.47284316809376037	-0.5927822254424903
-0.47278213293751037	-0.5891411020834925
-0.47272109778126037	-0.5853628188490406
-0.47266006262501037	-0.5814491062676098
-0.47259902746876037	-0.5773992712683419
-0.47253799231251037	-0.5732121527256114
-0.47247695715626037	-0.5688886945600621
-0.47241592200001037	-0.5644319407704468
-0.47235488684376037	-0.5598444638266783
-0.47229385168751037	-0.5551263825852285
-0.47223281653126037	-0.5502764618014687
-0.47217178137501037	-0.5452950192520827
-0.47211074621876037	-0.5401849831710841
-0.47204971106251037	-0.5349496611602472
-0.47198867590626037	-0.5295899834517461
-0.47192764075001037	-0.5241047108927218
-0.47186660559376037	-0.5184934851077696
-0.47180557043751037	-0.5127589893028737
-0.47174453528126037	-0.506905288762673
-0.47168350012501037	-0.5009342654124844
-0.47162246496876037	-0.4948448032455385
-0.47156142981251037	-0.48863590178276034
-0.47150039465626037	-0.4823097560201294
-0.47143935950001037	-0.47587082632721056
-0.47137832434376037	-0.4693220034344273
-0.47131728918751037	-0.46266273804544855
-0.47125625403126037	-0.45589161399857636
-0.47119521887501037	-0.44901017497230383
-0.47113418371876037	-0.44202301704732533
-0.47107314856251037	-0.43493385666978807
-0.47101211340626037	-0.42774267902012447
-0.47095107825001037	-0.4204477870193158
-0.47089004309376037	-0.41305019622950945
-0.47082900793751037	-0.4055546849502874
-0.47076797278126037	-0.39796585508283233
-0.47070693762501037	-0.390284162499448
-0.47064590246876037	-0.38250739717403015
-0.47058486731251037	-0.3746359514272035
-0.47052383215626037	-0.366674886289035
-0.47046279700001037	-0.3586298087219656
-0.47040176184376037	-0.35050175630592134
-0.47034072668751037	-0.34228794984888145
-0.47027969153126037	-0.3339879003360133
-0.47021865637501037	-0.3256069042966835
