Time	Frequency
-0.500016285468746	-0.32026338976597396
-0.499955250312496	-0.31381824252516216
-0.499894215156246	-0.3073160158348183
-0.499833179999996	-0.30075579827181015
-0.499772144843746	-0.2941385229470289
-0.499711109687496	-0.2874667345403367
-0.499650074531246	-0.28074306717297376
-0.499589039374996	-0.27396898728856195
-0.499528004218746	-0.26714489394327234
-0.499466969062496	-0.2602712043813337
-0.499405933906246	-0.2533491231725251
-0.499344898749996	-0.24638035314861106
-0.499283863593746	-0.2393662681596768
-0.499222828437496	-0.23230759288286162
-0.499161793281246	-0.2252050182958682
-0.499100758124996	-0.2180601196870851
-0.499039722968746	-0.2108754001989924
-0.498978687812496	-0.20365310503368386
-0.498917652656246	-0.1963939396075105
-0.498856617499996	-0.18909714819010906
-0.498795582343746	-0.1817621981146704
-0.498734547187496	-0.1743907114704522
-0.498673512031246	-0.16698670999771845
-0.498612476874996	-0.15955450615254155
-0.498551441718746	-0.1520958280261244
-0.498490406562496	-0.1446088734220042
-0.498429371406246	-0.13709062536502895
-0.498368336249996	-0.1295407569867218
-0.498307301093746	-0.12196358645151881
-0.498246265937496	-0.11436597797798125
-0.498185230781246	-0.10675261672284449
-0.498124195624996	-0.09912265162710535
-0.498063160468746	-0.09147100491156754
-0.498002125312496	-0.08379375292783589
-0.497941090156246	-0.0760930554443419
-0.497880054999996	-0.06837703525135395
-0.497819019843746	-0.06065432050088544
-0.497757984687496	-0.05292764778610426
-0.497696949531246	-0.04519200102381251
-0.497635914374996	-0.0374395125530681
-0.497574879218746	-0.029667521247456776
-0.497513844062496	-0.021882689342414663
-0.497452808906246	-0.014097085574222984
-0.497391773749996	-0.006319120469227248
-0.497330738593746	0.0014529968476012399
-0.497269703437496	0.009229248985669741
-0.497208668281246	0.01701841604595478
-0.497147633124996	0.02481906806666846
-0.497086597968746	0.0326188391994323
-0.497025562812496	0.04040323558377615
-0.496964527656246	0.04816698769040067
-0.496903492499996	0.0559181169741138
-0.496842457343746	0.06367056698270572
-0.496781422187496	0.07143111311220268
-0.496720387031246	0.07919176878527345
-0.496659351874996	0.08693467772030239
-0.496598316718746	0.09464591606868925
-0.496537281562496	0.10232676631459454
-0.496476246406246	0.10999237484438498
-0.496415211249996	0.11765805058333076
-0.496354176093746	0.1253245825943965
-0.496293140937496	0.13297551125896628
-0.496232105781246	0.1405893923286667
-0.496171070624996	0.1481570847409015
-0.496110035468746	0.15568923354263361
-0.496049000312496	0.16320689747168274
-0.495987965156246	0.17072252416449069
-0.495926929999996	0.1782273917279444
-0.495865894843746	0.1856968972015851
-0.495804859687496	0.1931100154870986
-0.495743824531246	0.20046670447185824
-0.495682789374996	0.20778791747052794
-0.495621754218746	0.2150972688779471
-0.495560719062496	0.2223994223058105
-0.495499683906246	0.22967386857719538
-0.495438648749996	0.23689034461524083
-0.495377613593746	0.24403359080291254
-0.495316578437496	0.2511163016389647
-0.495255543281246	0.2581683818131387
-0.495194508124996	0.2652106604189688
-0.495133472968746	0.2722351439895395
-0.495072437812496	0.2792093860996438
-0.495011402656246	0.2861024356361517
-0.494950367499996	0.2929108223969012
-0.494889332343746	0.2996619169555596
-0.494828297187496	0.30639055542073546
-0.494767262031246	0.3131079067719702
-0.494706226874996	0.3197894152785816
-0.494645191718746	0.3263933854948608
-0.494584156562496	0.3328954923742485
-0.494523121406246	0.33930987212095187
-0.494462086249996	0.34567770870617737
-0.494401051093746	0.3520315949359015
-0.494340015937496	0.3583656146420943
-0.494278980781246	0.3646376240256059
-0.494217945624996	0.3708032567094272
-0.494156910468746	0.3768535148012284
-0.494095875312496	0.3828233757370187
-0.494034840156246	0.38876244623905604
-0.493973804999996	0.39469142610329266
-0.493912769843746	0.4005817127638595
-0.493851734687496	0.4063770283760319
-0.493790699531246	0.4120402417091329
-0.493729664374996	0.4175857640337873
-0.493668629218746	0.42306857129396586
-0.493607594062496	0.42853736697492684
-0.493546558906246	0.43399095006332966
-0.493485523749996	0.4393759415012552
-0.493424488593746	0.44462990046917245
-0.493363453437496	0.4497344636972186
-0.493302418281246	0.4547326527851333
-0.493241383124996	0.4596935243126105
-0.493180347968746	0.4646524520589975
-0.493119312812496	0.4695779338660566
-0.493058277656246	0.4743950483772138
-0.492997242499996	0.4790477639436524
-0.492936207343746	0.48354777570774043
-0.492875172187496	0.4879668343804321
-0.492814137031246	0.4923765525612283
-0.492753101874996	0.49678549174195874
-0.492692066718746	0.501128029077895
-0.492631031562496	0.5053170718284233
-0.492569996406246	0.5093178681287316
-0.492508961249996	0.5131799166659649
-0.492447926093746	0.5169974077125468
-0.492386890937496	0.5208291417655705
-0.492325855781246	0.5246453666876101
-0.492264820624996	0.5283487956914519
-0.492203785468746	0.5318549926981125
-0.492142750312496	0.5351652973727415
-0.492081715156246	0.5383689842176346
-0.492020679999996	0.5415696808851606
-0.491959644843746	0.5447961819815567
-0.491898609687496	0.5479738052961274
-0.491837574531246	0.5509835753121769
-0.491776539374996	0.5537621001845778
-0.491715504218746	0.5563579594608581
-0.491654469062496	0.5588943229507313
-0.491593433906246	0.5614660242596567
-0.491532398749996	0.5640566842980231
-0.491471363593746	0.5665477634705625
-0.491410328437496	0.5688154654435913
-0.491349293281246	0.5708359388427481
-0.491288258124996	0.5727090955128605
-0.491227222968746	0.574577673376061
-0.491166187812496	0.5765068686528892
-0.491105152656246	0.5784257949937573
-0.491044117499996	0.5801827341948383
-0.490983082343746	0.5816709647025803
-0.490922047187496	0.5829204858798719
-0.490861012031246	0.5840766296743364
-0.490799976874996	0.5852802825938433
-0.490738941718746	0.5865484247774302
-0.490677906562496	0.5877561477100003
-0.490616871406246	0.5887380465221205
-0.490555836249996	0.5894263754601694
-0.490494801093746	0.5899102433405597
-0.490433765937496	0.5903640867929999
-0.490372730781246	0.5909028552220137
-0.490311695624996	0.5914843259092918
-0.490250660468746	0.5919415588705986
-0.490189625312496	0.5921204670505789
-0.490128590156246	0.5920087279966881
-0.490067554999996	0.5917478660953757
-0.490006519843746	0.5915169400219711
-0.489945484687496	0.5913837439650335
-0.489884449531246	0.5912475355417143
-0.489823414374996	0.5909217468232556
-0.489762379218746	0.5902885153459861
-0.489701344062496	0.5893966330686616
-0.489640308906246	0.5884213141642746
-0.489579273749996	0.5875191631773672
-0.489518238593746	0.586698872273012
-0.489457203437496	0.5858148165582662
-0.489396168281246	0.584688288039504
-0.489335133124996	0.5832552278356753
-0.489274097968746	0.5816180361264226
-0.489213062812496	0.5799595388159986
-0.489152027656246	0.5783917534404306
-0.489090992499996	0.5768651143648689
-0.489029957343746	0.5752120801244117
-0.488968922187496	0.5732869980286796
-0.488907887031246	0.5710853496578492
-0.488846851874996	0.568744664869845
-0.488785816718746	0.5664288763609188
-0.488724781562496	0.5641937751441131
-0.488663746406246	0.5619444864819739
-0.488602711249996	0.5595175300535178
-0.488541676093746	0.5568167977824952
-0.488480640937496	0.5538904188061006
-0.488419605781246	0.5508872657055146
-0.488358570624996	0.5479324327583442
-0.488297535468746	0.5450262554838688
-0.488236500312496	0.542048811517445
-0.488175465156246	0.5388626375129141
-0.488114429999996	0.5354260894186659
-0.488053394843746	0.5318241320043559
-0.487992359687496	0.5281944217183623
-0.487931324531246	0.5246132185852472
-0.487870289374996	0.5210361601821645
-0.487809254218746	0.5173401470143715
-0.487748219062496	0.5134277993672349
-0.487687183906246	0.5093063947700337
-0.487626148749996	0.5050777975074455
-0.487565113593746	0.5008514785594519
-0.487504078437496	0.49665528185520297
-0.487443043281246	0.4924171012337765
-0.487382008124996	0.48802923156158584
-0.487320972968746	0.4834388360683403
-0.487259937812496	0.4786890864178025
-0.487198902656246	0.4738796375172219
-0.487137867499996	0.469082857329586
-0.487076832343746	0.46428669005618356
-0.487015797187496	0.45940964989605143
-0.486954762031246	0.4543719550873113
-0.486893726874996	0.4491615133010794
-0.486832691718746	0.4438408663676866
-0.486771656562496	0.4384925318940529
-0.486710621406246	0.4331509723370092
-0.486649586249996	0.42777782356195765
-0.486588551093746	0.4222983247865914
-0.486527515937496	0.4166656087998628
-0.486466480781246	0.41089841700882457
-0.486405445624996	0.4050626277673141
-0.486344410468746	0.3992150181180117
-0.486283375312496	0.3933578798310764
-0.486222340156246	0.38744131283574146
-0.486161304999996	0.38140845811150426
-0.486100269843746	0.375243760417262
-0.486039234687496	0.36898416705531734
-0.485978199531246	0.3626861538927709
-0.485917164374996	0.35637859994672705
-0.485856129218746	0.3500415202301321
-0.485795094062496	0.34362671749804713
-0.485734058906246	0.33710064904764075
-0.485673023749996	0.3304724218721086
-0.485611988593746	0.3237843832611565
-0.485550953437496	0.31707550849609384
-0.485489918281246	0.31034993478185496
-0.485428883124996	0.30357672257428814
-0.485367847968746	0.2967192035528367
-0.485306812812496	0.2897673641211484
-0.485245777656246	0.28274565344263475
-0.485184742499996	0.27569109512280116
-0.485123707343746	0.2686220678196377
-0.485062672187496	0.2615248137153704
-0.485001637031246	0.2543681572635414
-0.484940601874996	0.24713237264560603
-0.484879566718746	0.23982674640514293
-0.484818531562496	0.23248123317234953
-0.484757496406246	0.22512057974694655
-0.484696461249996	0.21774411531051527
-0.484635426093746	0.2103284901539974
-0.484574390937496	0.20285010112503285
-0.484513355781246	0.19530703337894634
-0.484452320624996	0.1877213151193073
-0.484391285468746	0.18012003900931384
-0.484330250312496	0.1725125494689213
-0.484269215156246	0.16488381547001862
-0.484208179999996	0.1572093382178105
-0.484147144843746	0.14947799797395336
-0.484086109687496	0.14170279443295927
-0.484025074531246	0.13391046353287145
-0.483964039374996	0.1261192459658551
-0.483903004218746	0.11832420645222318
-0.483841969062496	0.11050287278873702
-0.483780933906246	0.10263612131327862
-0.483719898749996	0.09472599631866713
-0.483658863593746	0.08679510078730764
-0.483597828437496	0.07886826455287164
-0.483536793281246	0.07095235994276915
-0.483475758124996	0.06303161181484612
-0.483414722968746	0.0550823748687404
-0.483353687812496	0.0470946319889709
-0.483292652656246	0.0390817508260383
-0.483231617499996	0.031070237129318203
-0.483170582343746	0.023078401974694872
-0.483109547187496	0.015102161017063223
-0.483048512031246	0.0071199067540852765
-0.482987476874996	-0.0008879013405065967
-0.482926441718746	-0.008921137383437068
-0.482865406562496	-0.01695918343454692
-0.482804371406246	-0.02497730417744595
-0.482743336249996	-0.03296613858478448
-0.482682301093746	-0.040937973990981195
-0.482621265937496	-0.048914908610985165
-0.482560230781246	-0.056909068528894165
-0.482499195624996	-0.06491149388675517
-0.482438160468746	-0.07289888134363362
-0.482377125312496	-0.08085212883736324
-0.482316090156246	-0.08877082558994728
-0.482255054999996	-0.09667181491294578
-0.482194019843746	-0.10457356800572534
-0.482132984687496	-0.11247967083138254
-0.482071949531246	-0.12037514026289815
-0.482010914374996	-0.1282383165827895
-0.481949879218746	-0.13605789352509234
-0.481888844062496	-0.14384066287125521
-0.481827808906246	-0.1516039431224311
-0.481766773749996	-0.15935966409947197
-0.481705738593746	-0.16710356904530066
-0.481644703437496	-0.17481818331229237
-0.481583668281246	-0.18248663206661092
-0.481522633124996	-0.19010547969764716
-0.481461597968746	-0.19768586181295117
-0.481400562812496	-0.20524242001910784
-0.481339527656246	-0.2127798164931188
-0.481278492499996	-0.22028819214332385
-0.481217457343746	-0.22775094569728463
-0.481156422187496	-0.23515771491056953
-0.481095387031246	-0.24251152993600059
-0.481034351874996	-0.24982454758979164
-0.480973316718746	-0.257106385482506
-0.480912281562496	-0.2643550410677825
-0.480851246406246	-0.2715579381601697
-0.480790211249996	-0.2787018388337929
-0.480729176093746	-0.28578288795810713
-0.480668140937496	-0.2928083250028398
-0.480607105781246	-0.2997888109327225
-0.480546070624996	-0.3067282459904188
-0.480485035468746	-0.3136196953668502
-0.480424000312496	-0.32045060148674104
-0.480362965156246	-0.3272125557723069
-0.480301929999996	-0.3339071440827711
-0.480240894843746	-0.34054311686470495
-0.480179859687496	-0.34712768743078154
-0.480118824531246	-0.3536594810208351
-0.480057789374996	-0.3601290189779054
-0.479996754218746	-0.36652604032319347
-0.479935719062496	-0.37284715952101843
-0.479874683906246	-0.3790974277139562
-0.479813648749996	-0.38528477998638977
-0.479752613593746	-0.3914122855664268
-0.479691578437496	-0.3974747723398108
-0.479630543281246	-0.4034625236186126
-0.479569508124996	-0.4093686966931441
-0.479508472968746	-0.41519406615513194
-0.479447437812496	-0.42094516237596213
-0.479386402656246	-0.42662761985516356
-0.479325367499996	-0.4322405529415246
-0.479264332343746	-0.43777667686033434
-0.479203297187496	-0.4432278236165931
-0.479142262031246	-0.4485909474486588
-0.479081226874996	-0.453869582517275
-0.479020191718746	-0.4590697832639334
-0.478959156562496	-0.46419415390293856
-0.478898121406246	-0.4692390207852586
-0.478837086249996	-0.47419700618573435
-0.478776051093746	-0.4790625941608422
-0.478715015937496	-0.48383584800696466
-0.478653980781246	-0.4885212595040595
-0.478592945624996	-0.4931229945261613
-0.478531910468746	-0.49764074811015474
-0.478470875312496	-0.5020696075985251
-0.478409840156246	-0.5064037299695933
-0.478348804999996	-0.5106405152322423
-0.478287769843746	-0.5147818111963165
-0.478226734687496	-0.5188314037443604
-0.478165699531246	-0.5227911525763157
-0.478104664374996	-0.5266590127012196
-0.478043629218746	-0.5304304140570314
-0.477982594062496	-0.5341016293530427
-0.477921558906246	-0.5376721479705312
-0.477860523749996	-0.5411441501598244
-0.477799488593746	-0.544519856350121
-0.477738453437496	-0.5477992139896473
-0.477677418281246	-0.550979781230373
-0.477616383124996	-0.554058594329106
-0.477555347968746	-0.5570341451133364
-0.477494312812496	-0.5599067928054484
-0.477433277656246	-0.5626775831356723
-0.477372242499996	-0.5653468166510934
-0.477311207343746	-0.5679136433042724
-0.477250172187496	-0.5703767647974961
-0.477189137031246	-0.5727352976797808
-0.477128101874996	-0.5749889049114791
-0.477067066718746	-0.5771372386680681
-0.477006031562496	-0.5791795533827513
-0.476944996406246	-0.5811151051522789
-0.476883961249996	-0.5829439020135311
-0.476822926093746	-0.5846667726476066
-0.476761890937496	-0.5862843521759598
-0.476700855781246	-0.5877958366391532
-0.476639820624996	-0.5891989018131137
-0.476578785468746	-0.5904912757867354
-0.476517750312496	-0.5916727656730998
-0.476456715156246	-0.5927457391956188
-0.476395679999996	-0.5937131898554029
-0.476334644843746	-0.594575773500197
-0.476273609687496	-0.5953305140372686
-0.476212574531246	-0.5959727551379583
-0.476151539374996	-0.596500066497449
-0.476090504218746	-0.5969147182126971
-0.476029469062496	-0.5972221758486257
-0.475968433906246	-0.5974264389354054
-0.475907398749996	-0.597526103507083
-0.475846363593746	-0.5975148844932227
-0.475785328437496	-0.5973866802043013
-0.475724293281246	-0.5971410753177469
-0.475663258124996	-0.5967843257129054
-0.475602222968746	-0.5963244730219123
-0.475541187812496	-0.5957643763089591
-0.475480152656246	-0.595098675538285
-0.475419117499996	-0.5943178207060834
-0.475358082343746	-0.5934162766073737
-0.475297047187496	-0.5923979294378309
-0.475236012031246	-0.5912735773734316
-0.475174976874996	-0.5900520707792747
-0.475113941718746	-0.5887324808925634
-0.475052906562496	-0.5873043193940136
-0.474991871406246	-0.585756232474737
-0.474930836249996	-0.5840861289101502
-0.474869801093746	-0.5823039249025324
-0.474808765937496	-0.5804239552143674
-0.474747730781246	-0.5784529512988349
-0.474686695624996	-0.5763838574536957
-0.474625660468746	-0.5742013777965674
-0.474564625312496	-0.5718951725740601
-0.474503590156246	-0.5694695873662619
-0.474442554999996	-0.5669411276242198
-0.474381519843746	-0.5643251205486899
-0.474320484687496	-0.5616225838297598
-0.474259449531246	-0.5588188303633964
-0.474198414374996	-0.5558958002277227
-0.474137379218746	-0.5528481326247162
-0.474076344062496	-0.5496890495018287
-0.474015308906246	-0.5464403049893233
-0.473954273749996	-0.5431141254800852
-0.473893238593746	-0.5397024817570266
-0.473832203437496	-0.53618347499079
-0.473771168281246	-0.5325402264898003
-0.473710133124996	-0.5287764506515003
-0.473649097968746	-0.5249149115915677
-0.473588062812496	-0.5209791737964566
-0.473527027656246	-0.5169736561748245
-0.473465992499996	-0.5128793329554029
-0.473404957343746	-0.5086697120020023
-0.473343922187496	-0.5043341854746318
-0.473282887031246	-0.4998887553756796
-0.473221851874996	-0.4953641823975346
-0.473160816718746	-0.49078066893100813
-0.473099781562496	-0.48613036439485324
-0.473038746406246	-0.48138340907218274
-0.472977711249996	-0.47651353290390674
-0.472916676093746	-0.47152191633634166
-0.472855640937496	-0.46643840908842565
-0.472794605781246	-0.4612977727503095
-0.472733570624996	-0.4561103470400015
-0.472672535468746	-0.4508525587663012
-0.472611500312496	-0.44548657397154856
-0.472550465156246	-0.4399933919926596
-0.472489429999996	-0.43439125763897085
-0.472428394843746	-0.42872254863974807
-0.472367359687496	-0.4230188928029572
-0.472306324531246	-0.417273872431972
-0.472245289374996	-0.41144756734691157
-0.472184254218746	-0.405500620602212
-0.472123219062496	-0.399429575142218
-0.472062183906246	-0.39327263586947625
-0.472001148749996	-0.3870793277286692
-0.471940113593746	-0.3808687687483836
-0.471879078437496	-0.3746124636664259
-0.471818043281246	-0.36825785277579276
-0.471757008124996	-0.3617740177573978
-0.471695972968746	-0.355180732035375
-0.471634937812496	-0.3485347261182279
-0.471573902656246	-0.34188305316148293
-0.471512867499996	-0.335222579822744
-0.471451832343746	-0.32850125020825705
-0.471390797187496	-0.32166214536328247
-0.471329762031246	-0.3146940138429511
-0.471268726874996	-0.30764444617571074
-0.471207691718746	-0.30058237542396454
-0.471146656562496	-0.29354013991761835
-0.471085621406246	-0.28648458282234834
-0.471024586249996	-0.27934383498912185
-0.470963551093746	-0.27206917927434837
-0.470902515937496	-0.2646797690131576
-0.470841480781246	-0.25725044478494075
-0.470780445624996	-0.24985050073184165
-0.470719410468746	-0.2424842904057736
-0.470658375312496	-0.23508543490493922
-0.470597340156246	-0.2275722515849492
-0.470536304999996	-0.21991917700177843
-0.470475269843746	-0.2121829059091389
-0.470414234687496	-0.20445840492593564
-0.470353199531246	-0.19679962037248488
-0.470292164374996	-0.18917188813726835
-0.470231129218746	-0.18147883356084427
-0.470170094062496	-0.173644100125544
-0.470109058906246	-0.16567972247797016
-0.470048023749996	-0.15768124300347497
-0.469986988593746	-0.14975031898521798
-0.469925953437496	-0.14190840753505696
-0.469864918281246	-0.134075697058582
-0.469803883124996	-0.12613645307167776
-0.469742847968746	-0.11803842348191107
-0.469681812812496	-0.1098421361376336
-0.469620777656246	-0.10167525676204986
-0.469559742499996	-0.09362709110237759
-0.469498707343746	-0.08567137837090537
-0.469437672187496	-0.07768488213953874
-0.469376637031246	-0.06955001223520328
-0.469315601874996	-0.061257209599027695
-0.469254566718746	-0.05291919549885647
-0.469193531562496	-0.04468098221877843
-0.469132496406246	-0.0365984812865432
-0.469071461249996	-0.028588447920762667
-0.469010426093746	-0.020495326771482268
-0.468949390937496	-0.01222228199777862
-0.468888355781246	-0.003817060485282103
-0.468827320624996	0.0045619957943375975
-0.468766285468746	0.012775138091328749
