Time	Frequency
-0.5000495894687447	0.3563448869806163
-0.49998855431249467	0.351178522065493
-0.49992751915624467	0.3459691759447281
-0.49986648399999467	0.340752054058115
-0.49980544884374467	0.335513016865338
-0.49974441368749467	0.3302005503947661
-0.49968337853124467	0.3247814174294322
-0.49962234337499467	0.3192809744912722
-0.49956130821874467	0.3137611764132193
-0.49950027306249467	0.3082552683591456
-0.49943923790624467	0.30272863085800855
-0.49937820274999467	0.29711218115981525
-0.49931716759374467	0.2913774494329939
-0.49925613243749467	0.2855729206358974
-0.49919509728124467	0.2797776462162578
-0.49913406212499467	0.27401702774137304
-0.49907302696874467	0.26823127981082184
-0.49901199181249467	0.26233560037117754
-0.49895095665624467	0.25631270469369083
-0.49888992149999467	0.2502380433955495
-0.49882888634374467	0.2442049246975201
-0.49876785118749467	0.23822464615434255
-0.49870681603124467	0.23220925662807812
-0.49864578087499467	0.226061380104758
-0.49858474571874467	0.2197804430276438
-0.49852371056249467	0.21347089713886078
-0.49846267540624467	0.207237036072565
-0.49840164024999467	0.2010711850565883
-0.49834060509374467	0.19485597343739453
-0.49827956993749467	0.18848519828719237
-0.49821853478124467	0.18197988624144287
-0.49815749962499467	0.1754741092343788
-0.49809646446874467	0.169078388970984
-0.49803542931249467	0.1627609043394629
-0.49797439415624467	0.15637509665913052
-0.49791335899999467	0.1498115495878987
-0.49785232384374467	0.1431176155761678
-0.49779128868749467	0.13645550595225792
-0.49773025353124467	0.12993621188758336
-0.49766921837499467	0.12350053393053276
-0.49760818321874467	0.1169756622710402
-0.49754714806249467	0.11025442969083055
-0.49748611290624467	0.10341207368089844
-0.49742507774999467	0.09663456735710783
-0.49736404259374467	0.09002765349541202
-0.49730300743749467	0.08350422867844316
-0.49724197228124467	0.0768710234880129
-0.49718093712499467	0.07002921309887433
-0.49711990196874467	0.06308147269094849
-0.49705886681249467	0.05623064432864812
-0.49699783165624467	0.049571231832585674
-0.49693679649999467	0.042989761918825815
-0.49687576134374467	0.03628034799048135
-0.49681472618749467	0.029358486238689047
-0.49675369103124467	0.022351539313797363
-0.49669265587499467	0.015470041943541811
-0.49663162071874467	0.008791313579355862
-0.49657058556249467	0.0021795372586143253
-0.49650955040624467	-0.0045736792638155065
-0.49644851524999467	-0.011533052373781284
-0.49638748009374467	-0.018551647992199743
-0.49632644493749467	-0.025421684621542786
-0.49626540978124467	-0.03208782784023255
-0.49620437462499467	-0.038702258394344886
-0.49614333946874467	-0.04546543986132262
-0.49608230431249467	-0.052418395406595396
-0.49602126915624467	-0.05940112780094294
-0.49596023399999467	-0.06621846514564726
-0.49589919884374467	-0.07284008393222731
-0.49583816368749467	-0.07942803183271084
-0.49577712853124467	-0.08616589194538431
-0.49571609337499467	-0.09306881657902275
-0.49565505821874467	-0.0999702446570534
-0.49559402306249467	-0.10669563880195955
-0.49553298790624467	-0.11324087929678489
-0.49547195274999467	-0.11977149587479975
-0.49541091759374467	-0.1264472655873991
-0.49534988243749467	-0.13325703115852341
-0.49528884728124467	-0.14003375218162542
-0.49522781212499467	-0.1466295155870676
-0.49516677696874467	-0.1530660681050654
-0.49510574181249467	-0.1595065992657748
-0.49504470665624467	-0.16608261506003322
-0.49498367149999467	-0.17275819278575308
-0.49492263634374467	-0.17937068330881548
-0.49486160118749467	-0.18580116992856519
-0.49480056603124467	-0.19209502297694292
-0.49473953087499467	-0.19840938344508832
-0.49467849571874467	-0.2048466332679103
-0.49461746056249467	-0.21134886433183853
-0.49455642540624467	-0.21776089805672166
-0.49449539024999467	-0.2239925955844839
-0.49443435509374467	-0.23010984498978657
-0.49437331993749467	-0.2362614587354401
-0.49431228478124467	-0.2425216999190664
-0.49425124962499467	-0.24881378130079237
-0.49419021446874467	-0.2549917611609191
-0.49412917931249467	-0.2609924682427184
-0.49406814415624467	-0.2668986256203206
-0.49400710899999467	-0.2728493998659763
-0.49394607384374467	-0.27889386654249315
-0.49388503868749467	-0.28494050746250665
-0.49382400353124467	-0.29085344235735283
-0.49376296837499467	-0.29659302423729467
-0.49370193321874467	-0.3022545664114909
-0.49364089806249467	-0.30796688980145437
-0.49357986290624467	-0.3137576414990393
-0.49351882774999467	-0.3195250870830656
-0.49345779259374467	-0.3251440116348764
-0.49339675743749467	-0.33059424161323175
-0.49333572228124467	-0.33597900787731916
-0.49327468712499467	-0.3414162641023647
-0.49321365196874467	-0.3469165764404822
-0.49315261681249467	-0.35237288296008223
-0.49309158165624467	-0.3576708031676857
-0.49303054649999467	-0.3628046782739303
-0.49296951134374467	-0.3678808204134686
-0.49290847618749467	-0.37300677364838486
-0.49284744103124467	-0.37818127903983956
-0.49278640587499467	-0.3832965506324734
-0.49272537071874467	-0.38824843477717796
-0.49266433556249467	-0.3930408640221371
-0.49260330040624467	-0.3977790160353192
-0.49254226524999467	-0.4025603793677694
-0.49248123009374467	-0.40737600536124474
-0.49242019493749467	-0.4121213260007067
-0.49235915978124467	-0.41670271792184777
-0.49229812462499467	-0.4211300581576564
-0.49223708946874467	-0.4255031748806326
-0.49217605431249467	-0.4299090116681632
-0.49211501915624467	-0.4343347514676786
-0.49205398399999467	-0.4386830279426966
-0.49199294884374467	-0.4428707254449887
-0.49193191368749467	-0.44691020045305785
-0.49187087853124467	-0.45089295457052936
-0.49180984337499467	-0.45489554365097207
-0.49174880821874467	-0.4589038958233266
-0.49168777306249467	-0.4628302812840018
-0.49162673790624467	-0.46660228574527096
-0.49156570274999467	-0.47023274089061967
-0.49150466759374467	-0.47380255451335485
-0.49144363243749467	-0.4773774657482044
-0.49138259728124467	-0.4809437485577005
-0.49132156212499467	-0.4844251371603534
-0.49126052696874467	-0.48776027942585043
-0.49119949181249467	-0.4909614275936514
-0.49113845665624467	-0.49409773023683556
-0.49107742149999467	-0.4972238314233669
-0.49101638634374467	-0.5003269244633801
-0.49095535118749467	-0.5033429174059352
-0.49089431603124467	-0.5062217461495461
-0.49083328087499467	-0.5089749106419722
-0.49077224571874467	-0.5116596861051658
-0.49071121056249467	-0.5143195474997418
-0.49065017540624467	-0.5169421821538116
-0.49058914024999467	-0.5194750877197335
-0.49052810509374467	-0.5218794631509361
-0.49046706993749467	-0.5241668002104473
-0.49040603478124467	-0.5263835087973298
-0.49034499962499467	-0.5285624134346155
-0.49028396446874467	-0.5306911136001381
-0.49022292931249467	-0.5327271815678739
-0.49016189415624467	-0.5346419725228553
-0.49010085899999467	-0.536447644478763
-0.49003982384374467	-0.5381817040075692
-0.48997878868749467	-0.5398674636491456
-0.48991775353124467	-0.541491541679308
-0.48985671837499467	-0.5430196746541364
-0.48979568321874467	-0.5444323402714996
-0.48973464806249467	-0.5457431170471012
-0.48967361290624467	-0.5469824793365081
-0.48961257774999467	-0.5481655856193295
-0.48955154259374467	-0.549277598548023
-0.48949050743749467	-0.5502903359404795
-0.48942947228124467	-0.5511916096270932
-0.48936843712499467	-0.5519967666912399
-0.48930740196874467	-0.5527314881374809
-0.48924636681249467	-0.5534046858764738
-0.48918533165624467	-0.5539997054467383
-0.48912429649999467	-0.5544922660538827
-0.48906326134374467	-0.5548758208977888
-0.48900222618749467	-0.555167888384669
-0.48894119103124467	-0.5553912406396577
-0.48888015587499467	-0.5555500078373603
-0.48881912071874467	-0.555625545794881
-0.48875808556249467	-0.555595982553395
-0.48869705040624467	-0.555458924151828
-0.48863601524999467	-0.5552338667604115
-0.48857498009374467	-0.5549419631378094
-0.48851394493749467	-0.5545841250341655
-0.48845290978124467	-0.5541400682155064
-0.48839187462499467	-0.5535892157002724
-0.48833083946874467	-0.5529318845581355
-0.48826980431249467	-0.552189032528711
-0.48820876915624467	-0.5513809336548534
-0.48814773399999467	-0.5505066338222143
-0.48808669884374467	-0.5495450661225432
-0.48802566368749467	-0.5484765776751971
-0.48796462853124467	-0.5473029328856619
-0.48790359337499467	-0.5460455518230436
-0.48784255821874467	-0.5447239309927528
-0.48778152306249467	-0.5433362026249693
-0.48772048790624467	-0.5418613917287114
-0.48765945274999467	-0.5402808604120642
-0.48759841759374467	-0.538597176053553
-0.48753738243749467	-0.5368314514109572
-0.48747634728124467	-0.5350021260890793
-0.48741531212499467	-0.5331068753992204
-0.48735427696874467	-0.5311257374794554
-0.48729324181249467	-0.5290417449691484
-0.48723220665624467	-0.5268579018008287
-0.48717117149999467	-0.5245937353112375
-0.48711013634374467	-0.5222656612951699
-0.48704910118749467	-0.5198712954623387
-0.48698806603124467	-0.5173930999076279
-0.48692703087499467	-0.5148168123014956
-0.48686599571874467	-0.5121455607693771
-0.48680496056249467	-0.5093959688901039
-0.48674392540624467	-0.5065812972220108
-0.48668289024999467	-0.5036991766609167
-0.48662185509374467	-0.5007356546373134
-0.48656081993749467	-0.4976802093448568
-0.48649978478124467	-0.49453606662862226
-0.48643874962499467	-0.49131613033377824
-0.48637771446874467	-0.4880298495057275
-0.48631667931249467	-0.4846749199025295
-0.48625564415624467	-0.4812416000252724
-0.48619460899999467	-0.47772376237022035
-0.48613357384374467	-0.47412465528690534
-0.48607253868749467	-0.4704525314404077
-0.48601150353124467	-0.4667122009558863
-0.48595046837499467	-0.4629016351118582
-0.48588943321874467	-0.4590162342505517
-0.48582839806249467	-0.4550548057202828
-0.48576736290624467	-0.4510203883967318
-0.48570632774999467	-0.4469161099166918
-0.48564529259374467	-0.44274190401532215
-0.48558425743749467	-0.4384961034033515
-0.48552322228124467	-0.43417943480818416
-0.48546218712499467	-0.42979569479851637
-0.48540115196874467	-0.42534767715543603
-0.48534011681249467	-0.4208333679483349
-0.48527908165624467	-0.41624798093825516
-0.48521804649999467	-0.4115905263059318
-0.48515701134374467	-0.40686709336395377
-0.48509597618749467	-0.402085904401462
-0.48503494103124467	-0.3972487289225256
-0.48497390587499467	-0.3923483793568966
-0.48491287071874467	-0.38737629193473155
-0.48485183556249467	-0.3823328372934498
-0.48479080040624467	-0.37722892046122103
-0.48472976524999467	-0.3720760789378161
-0.48466873009374467	-0.3668748189109756
-0.48460769493749467	-0.36161391870578896
-0.48454665978124467	-0.35628246353173604
-0.48448562462499467	-0.3508824267653973
-0.48442458946874467	-0.3454282677073682
-0.48436355431249467	-0.3399332055170889
-0.48430251915624467	-0.33439593100549964
-0.48424148399999467	-0.3288019912093843
-0.48418044884374467	-0.3231393883349631
-0.48411941368749467	-0.3174124727665845
-0.48405837853124467	-0.31163902583923425
-0.48399734337499467	-0.30583277702243716
-0.48393630821874467	-0.2999895468048281
-0.48387527306249467	-0.2940921398627307
-0.48381423790624467	-0.28812924521000605
-0.48375320274999467	-0.28210849814876165
-0.48369216759374467	-0.27604983811256545
-0.48363113243749467	-0.2699655923461146
-0.48357009728124467	-0.26384801928635987
-0.48350906212499467	-0.25767818525728853
-0.48344802696874467	-0.2514471421950909
-0.48338699181249467	-0.24516656307319054
-0.48332595665624467	-0.23885742313476577
-0.48326492149999467	-0.23252876409549997
-0.48320388634374467	-0.22616912247377413
-0.48314285118749467	-0.2197598551781491
-0.48308181603124467	-0.21329608596085398
-0.48302078087499467	-0.20679292326456172
-0.48295974571874467	-0.2002703337455453
-0.48289871056249467	-0.19373271930176028
-0.48283767540624467	-0.18716525571543507
-0.48277664024999467	-0.18055105920819234
-0.48271560509374467	-0.17389050943843046
-0.48265456993749467	-0.16720188700093225
-0.48259353478124467	-0.16050270137849257
-0.48253249962499467	-0.15379183834194998
-0.48247146446874467	-0.14705188119561421
-0.48241042931249467	-0.14026923766302785
-0.48234939415624467	-0.13345023137225073
-0.48228835899999467	-0.12661540931582901
-0.48222732384374467	-0.11977817111804857
-0.48216628868749467	-0.1129312025010278
-0.48210525353124467	-0.1060555838298101
-0.48204421837499467	-0.09914253672321312
-0.48198318321874467	-0.09220414143751807
-0.48192214806249467	-0.08526148901777372
-0.48186111290624467	-0.07832301029964366
-0.48180007774999467	-0.07137637803951302
-0.48173904259374467	-0.06440301422679671
-0.48167800743749467	-0.05739960414309229
-0.48161697228124467	-0.0503830343953808
-0.48155593712499467	-0.043373284156111296
-0.48149490196874467	-0.036372900715752235
-0.48143386681249467	-0.029365234906608775
-0.48137283165624467	-0.022333414588684083
-0.48131179649999467	-0.01527978828473571
-0.48125076134374467	-0.00822476993332088
-0.48118972618749467	-0.0011860906016481455
-0.48112869103124467	0.005839187235353547
-0.48106765587499467	0.012870301413842797
-0.48100662071874467	0.01992071084581143
-0.48094558556249467	0.026982332375456556
-0.48088455040624467	0.03403321500437294
-0.48082351524999467	0.04106027680384757
-0.48076248009374467	0.0480722483108051
-0.48070144493749467	0.05508872048432423
-0.48064040978124467	0.06211755979284192
-0.48057937462499467	0.06914537329221337
-0.48051833946874467	0.07615116324194464
-0.48045730431249467	0.08312802889965269
-0.48039626915624467	0.09008916450622989
-0.48033523399999467	0.09705195014345097
-0.48027419884374467	0.10401778725439427
-0.48021316368749467	0.11096963560786582
-0.48015212853124467	0.11788978206093935
-0.48009109337499467	0.12477809076681233
-0.48003005821874467	0.13165061243477233
-0.47996902306249467	0.1385204347945279
-0.47990798790624467	0.14538217130452394
-0.47984695274999467	0.1522171113050039
-0.47978591759374467	0.15901293829841512
-0.47972488243749467	0.16577594016260735
-0.47966384728124467	0.17252244126559985
-0.47960281212499467	0.17925925630696732
-0.47954177696874467	0.18597501274690378
-0.47948074181249467	0.19265209153985718
-0.47941970665624467	0.19928548404073793
-0.47935867149999467	0.2058869826999531
-0.47929763634374467	0.21247020184175477
-0.47923660118749467	0.21903386697531835
-0.47917556603124467	0.22556239654510468
-0.47911453087499467	0.23204274219561655
-0.47905349571874467	0.23847816067820404
-0.47899246056249467	0.24488324992434843
-0.47893142540624467	0.25126574865434925
-0.47887039024999467	0.2576161248562071
-0.47880935509374467	0.26391745361491803
-0.47874831993749467	0.2701643033193021
-0.47868728478124467	0.2763683767877378
-0.47862624962499467	0.28254367244268264
-0.47856521446874467	0.2886881739132911
-0.47850417931249467	0.2947842196355019
-0.47844314415624467	0.3008180992503291
-0.47838210899999467	0.30679609528376195
-0.47832107384374467	0.3127373081917322
-0.47826003868749467	0.3186502385593818
-0.47819900353124467	0.3245200721646595
-0.47813796837499467	0.3303230539991285
-0.47807693321874467	0.33605323293990685
-0.47801589806249467	0.3417305938579385
-0.47795486290624467	0.34737891534587695
-0.47789382774999467	0.3529965510341475
-0.47783279259374467	0.35855413628152966
-0.47777175743749467	0.3640251302470103
-0.47771072228124467	0.3694167277498416
-0.47764968712499467	0.3747644353579098
-0.47758865196874467	0.3800926522778287
-0.47752761681249467	0.38538381234418584
-0.47746658165624467	0.3905929488483734
-0.47740554649999467	0.3956956411868442
-0.47734451134374467	0.4007175451428086
-0.47728347618749467	0.40570950994423927
-0.47722244103124467	0.41069106843157216
-0.47716140587499467	0.41562384057589086
-0.47710037071874467	0.42044831285044304
-0.47703933556249467	0.4251482997005929
-0.47697830040624467	0.42977268319801964
-0.47691726524999467	0.43438587529174133
-0.47685623009374467	0.4389960659474047
-0.47679519493749467	0.4435398448684542
-0.47673415978124467	0.44794563327433484
-0.47667312462499467	0.45221190547258877
-0.47661208946874467	0.456414222716045
-0.47655105431249467	0.46062735106764374
-0.47649001915624467	0.4648417799580726
-0.47642898399999467	0.4689665161154465
-0.47636794884374467	0.4729219844848173
-0.47630691368749467	0.47672762462058466
-0.47624587853124467	0.4804874524840233
-0.47618484337499467	0.4842819150217363
-0.47612380821874467	0.48807759429161557
-0.47606277306249467	0.491754721626574
-0.47600173790624467	0.49523072754049
-0.47594070274999467	0.49855176938909185
-0.47587966759374467	0.5018507065095987
-0.47581863243749467	0.505208548479612
-0.47575759728124467	0.5085631327848117
-0.47569656212499467	0.5117665821832753
-0.47563552696874467	0.5147386426492114
-0.47557449181249467	0.5175563251787875
-0.47551345665624467	0.5203797419746494
-0.47545242149999467	0.5232847672439809
-0.47539138634374467	0.526176906835574
-0.47533035118749467	0.5288827296567137
-0.47526931603124467	0.5313301007285679
-0.47520828087499467	0.5336293007285396
-0.47514724571874467	0.5359640640393029
-0.47508621056249467	0.5383998150754034
-0.47502517540624467	0.5408089953370754
-0.47496414024999467	0.5429974344187166
-0.47490310509374467	0.5449060107012075
-0.47484206993749467	0.5466774208012645
-0.47478103478124467	0.5485128619389864
-0.47471999962499467	0.5504625261275685
-0.47465896446874467	0.5523681254012383
-0.47459792931249467	0.5540222550290052
-0.47453689415624467	0.5553834042965039
-0.47447585899999467	0.5566228625639267
-0.47441482384374467	0.5579505870749124
-0.47435378868749467	0.5593973074902049
-0.47429275353124467	0.5607793941084941
-0.47423171837499467	0.5618860817107696
-0.47417068321874467	0.5626972845435133
-0.47410964806249467	0.5634059484430434
-0.47404861290624467	0.5642199245476863
-0.47398757774999467	0.5651472857751423
-0.47392654259374467	0.565987389139102
-0.47386550743749467	0.566537426288091
-0.47380447228124467	0.5668010160431692
-0.47374343712499467	0.5669834393103262
-0.47368240196874467	0.5672792876197709
-0.47362136681249467	0.5676726956643329
-0.47356033165624467	0.5679558123786917
-0.47349929649999467	0.5679443076050235
-0.47343826134374467	0.5676659105307699
-0.47337722618749467	0.5673284791156983
-0.47331619103124467	0.5671038012222064
-0.47325515587499467	0.5669524131960627
-0.47319412071874467	0.5666685681190793
-0.47313308556249467	0.5660947388139607
-0.47307205040624467	0.5652818058392006
-0.47301101524999467	0.5644316742819488
-0.47294998009374467	0.5636864294468872
-0.47288894493749467	0.5629844591058427
-0.47282790978124467	0.5621296005565815
-0.47276687462499467	0.5609964699139877
-0.47270583946874467	0.559657142870508
-0.47264480431249467	0.5583011986098225
-0.47258376915624467	0.5570373885549332
-0.47252273399999467	0.5557845051587664
-0.47246169884374467	0.5543611663796455
-0.47240066368749467	0.5526760628579425
-0.47233962853124467	0.5508194568823127
-0.47227859337499467	0.5489645499719668
-0.47221755821874467	0.5471863015328505
-0.47215652306249467	0.5453872026950912
-0.47209548790624467	0.5434035518513346
-0.47203445274999467	0.5411772161992966
-0.47197341759374467	0.5388132933218284
-0.47191238243749467	0.5364670335839581
-0.47185134728124467	0.534181696168879
-0.47179031212499467	0.5318466936093716
-0.47172927696874467	0.5293164661924953
-0.47166824181249467	0.5265629783910157
-0.47160720665624467	0.5237028755618772
-0.47154617149999467	0.5208737233275099
-0.47148513634374467	0.5180908755632866
-0.47142410118749467	0.5152341080247671
-0.47136306603124467	0.5121753664751222
-0.47130203087499467	0.5089123673926922
-0.47124099571874467	0.5055695590557484
-0.47117996056249467	0.5022677538610488
-0.47111892540624467	0.49899942695426164
-0.47105789024999467	0.49563862575731205
-0.47099685509374467	0.492073340155618
-0.47093581993749467	0.48832170275597275
-0.47087478478124467	0.4845122017930301
-0.47081374962499467	0.48075047492159134
-0.47075271446874467	0.4770115349690962
-0.47069167931249467	0.47316764458069394
-0.47063064415624467	0.4691211957586462
-0.47056960899999467	0.464904864044548
-0.47050857384374467	0.4606470941834338
-0.47044753868749467	0.45644041173316086
-0.47038650353124467	0.4522484020026782
-0.47032546837499467	0.44794529846746894
