Time	Frequency
-0.5000343305624995	1.3210957788670524e-23
-0.49997329540624946	1.4302689197570163e-23
-0.49991226024999946	1.5377610328956538e-23
-0.49985122509374946	1.643088211797875e-23
-0.49979018993749946	1.7484583139289648e-23
-0.49972915478124946	1.8557977254147345e-23
-0.49966811962499946	1.9640541773462198e-23
-0.49960708446874946	2.0705169811425217e-23
-0.49954604931249946	2.1744748411287268e-23
-0.49948501415624946	2.2782443562058918e-23
-0.49942397899999946	2.3840633191424456e-23
-0.49936294384374946	2.4909925908615538e-23
-0.49930190868749946	2.5960864884430132e-23
-0.49924087353124946	2.698346554796577e-23
-0.49917983837499946	2.8001144428848385e-23
-0.49911880321874946	2.903938794784609e-23
-0.49905776806249946	3.0090901572989884e-23
-0.49899673290624946	3.1124614780176834e-23
-0.49893569774999946	3.212716271810168e-23
-0.49887466259374946	3.3121110805482195e-23
-0.49881362743749946	3.41347922458141e-23
-0.49875259228124946	3.516390365533062e-23
-0.49869155712499946	3.617672264935949e-23
-0.49863052196874946	3.7156355161327124e-23
-0.49856948681249946	3.812335135397354e-23
-0.49850845165624946	3.910809978575668e-23
-0.49844741649999946	4.0109911281377713e-23
-0.49838638134374946	4.109774733456101e-23
-0.49832534618749946	4.2051584993588236e-23
-0.49826431103124946	4.2988889092153146e-23
-0.49820327587499946	4.394088832747145e-23
-0.49814224071874946	4.491069643308268e-23
-0.49808120556249946	4.586928955817728e-23
-0.49802017040624946	4.679426622906476e-23
-0.49795913524999946	4.769924909115767e-23
-0.49789810009374946	4.8615039166452606e-23
-0.49783706493749946	4.954837388871394e-23
-0.49777602978124946	5.0473341888552245e-23
-0.49771499462499946	5.136613597782012e-23
-0.49765395946874946	5.2236203086050564e-23
-0.49759292431249946	5.311272675245322e-23
-0.49753188915624946	5.400549091901456e-23
-0.49747085399999946	5.489243937672297e-23
-0.49740981884374946	5.574950061345281e-23
-0.49734878368749946	5.658210436729174e-23
-0.49728774853124946	5.741685808565256e-23
-0.49722671337499946	5.826567907577353e-23
-0.49716567821874946	5.91105367568043e-23
-0.49710464306249946	5.992808619016812e-23
-0.49704360790624946	6.072028884377905e-23
-0.49698257274999946	6.151062943824692e-23
-0.49692153759374946	6.231233431330381e-23
-0.49686050243749946	6.311138928908384e-23
-0.49679946728124946	6.388591195495904e-23
-0.49673843212499946	6.46349035373087e-23
-0.49667739696874946	6.53783908456758e-23
-0.49661636181249946	6.613015185020766e-23
-0.49655532665624946	6.687993798676241e-23
-0.49649429149999946	6.760789465611071e-23
-0.49643325634374946	6.831074966820205e-23
-0.49637222118749946	6.900503817898609e-23
-0.49631118603124946	6.970439327771669e-23
-0.49625015087499946	7.040186627303145e-23
-0.49618911571874946	7.107997381338686e-23
-0.49612808056249946	7.17338349322474e-23
-0.49606704540624946	7.237660315613612e-23
-0.49600601024999946	7.30212138438808e-23
-0.49594497509374946	7.366356066041196e-23
-0.49588393993749946	7.428876982921887e-23
-0.49582290478124946	7.489093480990894e-23
-0.49576186962499946	7.547996533898883e-23
-0.49570083446874946	7.60676485585214e-23
-0.49563979931249946	7.665230560747329e-23
-0.49557876415624946	7.722182528819527e-23
-0.49551772899999946	7.776980709571377e-23
-0.49545669384374946	7.830314110383099e-23
-0.49539565868749946	7.883204033357046e-23
-0.49533462353124946	7.935670671172971e-23
-0.49527358837499946	7.986786974896254e-23
-0.49521255321874946	8.035923765560109e-23
-0.49515151806249946	8.083499585817685e-23
-0.49509048290624946	8.130341746612815e-23
-0.49502944774999946	8.176604442413287e-23
-0.49496841259374946	8.221643508215048e-23
-0.49490737743749946	8.264894917766878e-23
-0.49484634228124946	8.306548398128015e-23
-0.49478530712499946	8.347210650332611e-23
-0.49472427196874946	8.387104166657724e-23
-0.49466323681249946	8.425845692311626e-23
-0.49460220165624946	8.46299000088082e-23
-0.49454116649999946	8.49856118726658e-23
-0.49448013134374946	8.532935638273583e-23
-0.49441909618749946	8.566333661214771e-23
-0.49435806103124946	8.598593090657127e-23
-0.49429702587499946	8.629427465887348e-23
-0.49423599071874946	8.658762800998527e-23
-0.49417495556249946	8.686756414048301e-23
-0.49411392040624946	8.713567406138608e-23
-0.49405288524999946	8.739199114007233e-23
-0.49399185009374946	8.763542825569487e-23
-0.49393081493749946	8.786495812870268e-23
-0.49386977978124946	8.808027679677095e-23
-0.49380874462499946	8.828192557768564e-23
-0.49374770946874946	8.847096841819371e-23
-0.49368667431249946	8.864803273358535e-23
-0.49362563915624946	8.881235465628344e-23
-0.49356460399999946	8.896224823026417e-23
-0.49350356884374946	8.909704949818592e-23
-0.49344253368749946	8.921825275910208e-23
-0.49338149853124946	8.932791215920041e-23
-0.49332046337499946	8.942589045326609e-23
-0.49325942821874946	8.950964428163216e-23
-0.49319839306249946	8.95773415080268e-23
-0.49313735790624946	8.963044875023473e-23
-0.49307632274999946	8.967207574654292e-23
-0.49301528759374946	8.970286917078166e-23
-0.49295425243749946	8.971989694040357e-23
-0.49289321728124946	8.972034676246764e-23
-0.49283218212499946	8.970534943717688e-23
-0.49277114696874946	8.967868561422208e-23
-0.49271011181249946	8.964180270895392e-23
-0.49264907665624946	8.959173743110307e-23
-0.49258804149999946	8.95249376609449e-23
-0.49252700634374946	8.944204738364568e-23
-0.49246597118749946	8.934718149463302e-23
-0.49240493603124946	8.924248389785497e-23
-0.49234390087499946	8.912519934278965e-23
-0.49228286571874946	8.899128995074097e-23
-0.49222183056249946	8.884087240231117e-23
-0.49216079540624946	8.867816315139128e-23
-0.49209976024999946	8.850588480328307e-23
-0.49203872509374946	8.832159889802687e-23
-0.49197768993749946	8.812095735437566e-23
-0.49191665478124946	8.790357204928279e-23
-0.49185561962499946	8.767360940765375e-23
-0.49179458446874946	8.743425129866064e-23
-0.49173354931249946	8.718343973017924e-23
-0.49167251415624946	8.691666139394432e-23
-0.49161147899999946	8.663306273876779e-23
-0.49155044384374946	8.633666671227306e-23
-0.49148940868749946	8.603102539577173e-23
-0.49142837353124946	8.571448871765386e-23
-0.49136733837499946	8.538246842405617e-23
-0.49130630321874946	8.503366285692882e-23
-0.49124526806249946	8.467186869697741e-23
-0.49118423290624946	8.430094339318034e-23
-0.49112319774999946	8.391969839066845e-23
-0.49106216259374946	8.352358656623852e-23
-0.49100112743749946	8.311088741613919e-23
-0.49094009228124946	8.268505324489851e-23
-0.49087905712499946	8.225011180791696e-23
-0.49081802196874946	8.180536477366966e-23
-0.49075698681249946	8.134646429402278e-23
-0.49069595165624946	8.087134716425916e-23
-0.49063491649999946	8.038304046989186e-23
-0.49057388134374946	7.988563112761818e-23
-0.49051284618749946	7.937890959751631e-23
-0.49045181103124946	7.885884675703803e-23
-0.49039077587499946	7.832311116747166e-23
-0.49032974071874946	7.777419397569149e-23
-0.49026870556249946	7.72160862178036e-23
-0.49020767040624946	7.664907184083466e-23
-0.49014663524999946	7.606956910857694e-23
-0.49008560009374946	7.547509239007246e-23
-0.49002456493749946	7.486760932078806e-23
-0.48996352978124946	7.425089597688766e-23
-0.48990249462499946	7.362560685943569e-23
-0.48984145946874946	7.29886666073024e-23
-0.48978042431249946	7.23376066049166e-23
-0.48971938915624946	7.16739033800379e-23
-0.48965835399999946	7.100095695561654e-23
-0.48959731884374946	7.0319640007949e-23
-0.48953628368749946	6.962741905338195e-23
-0.48947524853124946	6.892201395909961e-23
-0.48941421337499946	6.820452105051456e-23
-0.48935317821874946	6.74779082620166e-23
-0.48929214306249946	6.674312032525445e-23
-0.48923110790624946	6.599808934646483e-23
-0.48917007274999946	6.524080383221882e-23
-0.48910903759374946	6.447211935670316e-23
-0.48904800243749946	6.369458349280718e-23
-0.48898696728124946	6.290908121254082e-23
-0.48892593212499946	6.211391752448791e-23
-0.48886489696874946	6.130741724367315e-23
-0.48880386181249946	6.049033702338092e-23
-0.48874282665624946	5.966484363602119e-23
-0.48868179149999946	5.883164858067691e-23
-0.48862075634374946	5.798930614602251e-23
-0.48855972118749946	5.713648053056067e-23
-0.48849868603124946	5.627392130399746e-23
-0.48843765087499946	5.540348914997991e-23
-0.48837661571874946	5.452571592707165e-23
-0.48831558056249946	5.36393240645053e-23
-0.48825454540624946	5.274327602263307e-23
-0.48819351024999946	5.183839058728707e-23
-0.48813247509374946	5.0926297314639684e-23
-0.48807143993749946	5.0007293789104116e-23
-0.48801040478124946	4.908015279018983e-23
-0.48794936962499946	4.8144100602485666e-23
-0.48788833446874946	4.7200110758888524e-23
-0.48782729931249946	4.624968914400482e-23
-0.48776626415624946	4.5292918981485185e-23
-0.48770522899999946	4.4328561980855706e-23
-0.48764419384374946	4.3356052218874357e-23
-0.48758315868749946	4.2376507975230153e-23
-0.48752212353124946	4.139131884959791e-23
-0.48746108837499946	4.0400347974853277e-23
-0.48740005321874946	3.940232372300994e-23
-0.48733901806249946	3.8396875562199883e-23
-0.48727798290624946	3.738531071430456e-23
-0.48721694774999946	3.636898342231241e-23
-0.48715591259374946	3.534756230309359e-23
-0.48709487743749946	3.4319693445055593e-23
-0.48703384228124946	3.3285141820128994e-23
-0.48697280712499946	3.224537182214134e-23
-0.48691177196874946	3.120171476808178e-23
-0.48685073681249946	3.0153673323577374e-23
-0.48678970165624946	2.909978517474578e-23
-0.48672866649999946	2.803991114118285e-23
-0.48666763134374946	2.697571814289495e-23
-0.48660659618749946	2.590858547381939e-23
-0.48654556103124946	2.483785884588324e-23
-0.48648452587499946	2.37619614454243e-23
-0.48642349071874946	2.2680836973074417e-23
-0.48636245556249946	2.159629200855474e-23
-0.48630142040624946	2.0509712756027374e-23
-0.48624038524999946	1.9420312095492258e-23
-0.48617935009374946	1.8326400624389196e-23
-0.48611831493749946	1.7227991549245008e-23
-0.48605727978124946	1.612708551038036e-23
-0.48599624462499946	1.5025139378272797e-23
-0.48593520946874946	1.3921230564279065e-23
-0.48587417431249946	1.2813519170581747e-23
-0.48581313915624946	1.1702027370282847e-23
-0.48575210399999946	1.0588900213810102e-23
-0.48569106884374946	9.475700555544732e-24
-0.48563003368749946	8.361419445409617e-24
-0.48556899853124946	7.244046079040293e-24
-0.48550796337499946	6.1236226466852866e-24
-0.48544692821874946	5.002499269247199e-24
-0.48538589306249946	3.882319819266458e-24
-0.48532485790624946	2.7619064637733167e-24
-0.48526382274999946	1.6390638279327344e-24
-0.48520278759374946	5.138841710780496e-25
-0.48514175243749946	-6.110586059998268e-25
-0.48508071728124946	-1.7340089443559513e-24
-0.48501968212499946	-2.856276990624453e-24
-0.48495864696874946	-3.9802375163691914e-24
-0.48489761181249946	-5.105792178690087e-24
-0.48483657665624946	-6.230231753304589e-24
-0.48477554149999946	-7.35175673302614e-24
-0.48471450634374946	-8.471774551305552e-24
-0.48465347118749946	-9.59272775274963e-24
-0.48459243603124946	-1.0714423649583979e-23
-0.48453140087499946	-1.183400192393357e-23
-0.48447036571874946	-1.2949679637330844e-23
-0.48440933056249946	-1.4063072371697203e-23
-0.48434829540624946	-1.5176763013855588e-23
-0.48428726024999946	-1.6290432745004182e-23
-0.48422622509374946	-1.7400982957862508e-23
-0.48416518993749946	-1.850659290402967e-23
-0.48410415478124946	-1.96090989834394e-23
-0.48404311962499946	-2.0711268264515991e-23
-0.48398208446874946	-2.181266630650593e-23
-0.48392104931249946	-2.2909940051808012e-23
-0.48386001415624946	-2.400124391446888e-23
-0.48379897899999946	-2.5088655633812835e-23
-0.48373794384374946	-2.617511039201672e-23
-0.48367690868749946	-2.726003236397317e-23
-0.48361587353124946	-2.833981214284499e-23
-0.48355483837499946	-2.941261564853147e-23
-0.48349380321874946	-3.048081485196793e-23
-0.48343276806249946	-3.154749293262286e-23
-0.48337173290624946	-3.261183729514035e-23
-0.48331069774999946	-3.366994754787902e-23
-0.48324966259374946	-3.472005187568311e-23
-0.48318862743749946	-3.576485722251817e-23
-0.48312759228124946	-3.680762053865825e-23
-0.48306655712499946	-3.7847310294339097e-23
-0.48300552196874946	-3.887971822547274e-23
-0.48294448681249946	-3.9903139001480736e-23
-0.48288345165624946	-4.092063652131216e-23
-0.48282241649999946	-4.1935580580685973e-23
-0.48276138134374946	-4.2946633529058033e-23
-0.48270034618749946	-4.394928490593743e-23
-0.48263931103124946	-4.4941958112111593e-23
-0.48257827587499946	-4.592814694512167e-23
-0.48251724071874946	-4.691139507318592e-23
-0.48245620556249946	-4.7890026695430983e-23
-0.48239517040624946	-4.885913339093256e-23
-0.48233413524999946	-4.981724388586533e-23
-0.48227310009374946	-5.076832359968401e-23
-0.48221206493749946	-5.17160868534453e-23
-0.48215102978124946	-5.26584745690752e-23
-0.48208999462499946	-5.359018706660295e-23
-0.48202895946874946	-5.450993859844119e-23
-0.48196792431249946	-5.542223426112395e-23
-0.48190688915624946	-5.6330938138612e-23
-0.48184585399999946	-5.723352253603604e-23
-0.48178481884374946	-5.812423129253586e-23
-0.48172378368749946	-5.90019816329054e-23
-0.48166274853124946	-5.987190674985408e-23
-0.48160171337499946	-6.073808390791552e-23
-0.48154067821874946	-6.159747382465942e-23
-0.48147964306249946	-6.244376686165373e-23
-0.48141860790624946	-6.327605776568309e-23
-0.48135757274999946	-6.410017171464211e-23
-0.48129653759374946	-6.492044113508359e-23
-0.48123550243749946	-6.573327991440901e-23
-0.48117446728124946	-6.653180061708244e-23
-0.48111343212499946	-6.731532961028006e-23
-0.48105239696874946	-6.809044264255369e-23
-0.48099136181249946	-6.886170348747174e-23
-0.48093032665624946	-6.962490325861406e-23
-0.48086929149999946	-7.037253106995213e-23
-0.48080825634374946	-7.110415718117533e-23
-0.48074722118749946	-7.18271610891377e-23
-0.48068618603124946	-7.254639902658444e-23
-0.48062515087499946	-7.325704058407312e-23
-0.48056411571874946	-7.39508800567485e-23
-0.48050308056249946	-7.462769172783564e-23
-0.48044204540624946	-7.529569501293878e-23
-0.48038101024999946	-7.596007330962838e-23
-0.48031997509374946	-7.661537110401385e-23
-0.48025893993749946	-7.72526730946535e-23
-0.48019790478124946	-7.787196394745984e-23
-0.48013686962499946	-7.848234589486121e-23
-0.48007583446874946	-7.908934173036189e-23
-0.48001479931249946	-7.968679711963886e-23
-0.47995376415624946	-8.026502488982812e-23
-0.47989272899999946	-8.082426400426735e-23
-0.47983169384374946	-8.137458095385946e-23
-0.47977065868749946	-8.192183570643764e-23
-0.47970962353124946	-8.245909080886851e-23
-0.47964858837499946	-8.297585273413892e-23
-0.47958755321874946	-8.347269518084857e-23
-0.47952651806249946	-8.396073765627632e-23
-0.47946548290624946	-8.444616833095122e-23
-0.47940444774999946	-8.492117407150945e-23
-0.47934341259374946	-8.537436840261143e-23
-0.47928237743749946	-8.580669518172018e-23
-0.47922134228124946	-8.623047301259194e-23
-0.47916030712499946	-8.665227058823282e-23
-0.47909927196874946	-8.70632625374159e-23
-0.47903823681249946	-8.745103292081107e-23
-0.47897720165624946	-8.781693620052448e-23
-0.47891616649999946	-8.817464564913465e-23
-0.47885513134374946	-8.853120224352335e-23
-0.47879409618749946	-8.887667044767168e-23
-0.47873306103124946	-8.919739661711061e-23
-0.47867202587499946	-8.949512050799987e-23
-0.47861099071874946	-8.978513212085158e-23
-0.47854995556249946	-9.007514637247718e-23
-0.47848892040624946	-9.035395163833836e-23
-0.47842788524999946	-9.060634348276464e-23
-0.47836685009374946	-9.083439654539701e-23
-0.47830581493749946	-9.105528166586594e-23
-0.47824477978124946	-9.127764400612266e-23
-0.47818374462499946	-9.148892042712407e-23
-0.47812270946874946	-9.167200879332757e-23
-0.47806167431249946	-9.182914462835214e-23
-0.47800063915624946	-9.19796547063752e-23
-0.47793960399999946	-9.213350866422357e-23
-0.47787856884374946	-9.227675979137778e-23
-0.47781753368749946	-9.238994379129696e-23
-0.47775649853124946	-9.247515028625666e-23
-0.47769546337499946	-9.255413447997182e-23
-0.47763442821874946	-9.263872665673432e-23
-0.47757339306249946	-9.271372973847673e-23
-0.47751235790624946	-9.275686158439963e-23
-0.47745132274999946	-9.276955875127078e-23
-0.47739028759374946	-9.277608071861192e-23
-0.47732925243749946	-9.279072775899362e-23
-0.47726821728124946	-9.279745774743091e-23
-0.47720718212499946	-9.277082587344312e-23
-0.47714614696874946	-9.271090219052089e-23
-0.47708511181249946	-9.264426620046065e-23
-0.47702407665624946	-9.258831548396763e-23
-0.47696304149999946	-9.252685418186631e-23
-0.47690200634374946	-9.24311416659977e-23
-0.47684097118749946	-9.229902893455005e-23
-0.47677993603124946	-9.215888442578358e-23
-0.47671890087499946	-9.203170532299063e-23
-0.47665786571874946	-9.190212543070287e-23
-0.47659683056249946	-9.173835333437997e-23
-0.47653579540624946	-9.153513262628445e-23
-0.47647476024999946	-9.132163997570055e-23
-0.47641372509374946	-9.112267620756934e-23
-0.47635268993749946	-9.092491381180452e-23
-0.47629165478124946	-9.069421385023454e-23
-0.47623061962499946	-9.042149641742052e-23
-0.47616958446874946	-9.013546648143967e-23
-0.47610854931249946	-8.986446859842828e-23
-0.47604751415624946	-8.95983583450687e-23
-0.47598647899999946	-8.93018289452546e-23
-0.47592544384374946	-8.896167805586749e-23
-0.47586440868749946	-8.86046522012498e-23
-0.47580337353124946	-8.826180572462222e-23
-0.47574233837499946	-8.792709772943733e-23
-0.47568130321874946	-8.756563187724419e-23
-0.47562026806249946	-8.716033425605229e-23
-0.47555923290624946	-8.673457781572185e-23
-0.47549819774999946	-8.632081129792286e-23
-0.47543716259374946	-8.591749383830707e-23
-0.47537612743749946	-8.549171958981718e-23
-0.47531509228124946	-8.502335983884869e-23
-0.47525405712499946	-8.453149532216044e-23
-0.47519302196874946	-8.404849327554465e-23
-0.47513198681249946	-8.357712465726013e-23
-0.47507095165624946	-8.308775796582602e-23
-0.47500991649999946	-8.255831031431058e-23
-0.47494888134374946	-8.200313666005547e-23
-0.47488784618749946	-8.145316188749176e-23
-0.47482681103124946	-8.091488111105658e-23
-0.47476577587499946	-8.036277541918542e-23
-0.47470474071874946	-7.977398906367927e-23
-0.47464370556249946	-7.915827244652268e-23
-0.47458267040624946	-7.854407186242705e-23
-0.47452163524999946	-7.794068273558415e-23
-0.47446060009374946	-7.732701835910614e-23
-0.47439956493749946	-7.668059192299308e-23
-0.47433852978124946	-7.600706430656573e-23
-0.47427749462499946	-7.533170443515506e-23
-0.47421645946874946	-7.466564597965005e-23
-0.47415542431249946	-7.399217211765909e-23
-0.47409438915624946	-7.328997591824178e-23
-0.47403335399999946	-7.256126247007496e-23
-0.47397231884374946	-7.182782061669535e-23
-0.47391128368749946	-7.110180198114795e-23
-0.47385024853124946	-7.037057231592106e-23
-0.47378921337499946	-6.961461870407268e-23
-0.47372817821874946	-6.88334175579537e-23
-0.47366714306249946	-6.804518973545571e-23
-0.47360610790624946	-6.726235591055984e-23
-0.47354507274999946	-6.647593766485143e-23
-0.47348403759374946	-6.566859761377466e-23
-0.47342300243749946	-6.483771736568534e-23
-0.47336196728124946	-6.399801600559571e-23
-0.47330093212499946	-6.316162060696618e-23
-0.47323989696874946	-6.232279918865614e-23
-0.47317886181249946	-6.146669985923154e-23
-0.47311782665624946	-6.058918462397007e-23
-0.47305679149999946	-5.970152657907282e-23
-0.47299575634374946	-5.881505372919679e-23
-0.47293472118749946	-5.792686070392472e-23
-0.47287368603124946	-5.702477246793005e-23
-0.47281265087499946	-5.610372458613734e-23
-0.47275161571874946	-5.517175963266774e-23
-0.47269058056249946	-5.423891380024712e-23
-0.47262954540624946	-5.330459209459566e-23
-0.47256851024999946	-5.235950479641991e-23
-0.47250747509374946	-5.139830772151303e-23
-0.47244643993749946	-5.042600430234137e-23
-0.47238540478124946	-4.945080520180453e-23
-0.47232436962499946	-4.84738363250977e-23
-0.47226333446874946	-4.748877724642778e-23
-0.47220229931249946	-4.6490671735288164e-23
-0.47214126415624946	-4.548194854394095e-23
-0.47208022899999946	-4.446867207074432e-23
