Time	Frequency
-0.5000123253437465	0.03171452613042167
-0.4999512901874965	0.025273904131073836
-0.4998902550312465	0.0187691488339604
-0.4998292198749965	0.01228210300514247
-0.4997681847187465	0.0058558294297360305
-0.4997071495624965	-0.0005692533620356817
-0.4996461144062465	-0.007055437875504308
-0.4995850792499965	-0.013568320926622942
-0.4995240440937465	-0.020034102249808918
-0.4994630089374965	-0.026456357182968036
-0.4994019737812465	-0.032905443104649754
-0.4993409386249965	-0.03940255985639299
-0.4992799034687465	-0.045886395222021405
-0.4992188683124965	-0.05231230406168285
-0.4991578331562465	-0.058721530725077964
-0.4990967979999965	-0.06517114850548136
-0.4990357628437465	-0.07164075620398837
-0.4989747276874965	-0.07806556566581296
-0.4989136925312465	-0.08443982488697759
-0.4988526573749965	-0.09082354698574814
-0.4987916222187465	-0.09724360517163269
-0.4987305870624965	-0.1036493635130592
-0.4986695519062465	-0.10999317790550794
-0.4986085167499965	-0.11630537339538463
-0.4985474815937465	-0.12264373046921762
-0.4984864464374965	-0.1289992711168169
-0.4984254112812465	-0.13530920925362275
-0.4983643761249965	-0.1415558407647286
-0.4983033409687465	-0.14779328224863422
-0.4982423058124965	-0.15405983988932878
-0.4981812706562465	-0.16031574652188832
-0.4981202354999965	-0.1665047877855894
-0.4980592003437465	-0.172641714558333
-0.4979981651874965	-0.1787872733665693
-0.4979371300312465	-0.18495093684017966
-0.4978760948749965	-0.19107499853662743
-0.4978150597187465	-0.19712415720609466
-0.4977540245624965	-0.2031390428559109
-0.4976929894062465	-0.2091705909267776
-0.4976319542499965	-0.21519924919549818
-0.4975709190937465	-0.2211649716680543
-0.4975098839374965	-0.22705960434220943
-0.4974488487812465	-0.2329371274658155
-0.4973878136249965	-0.23882751077284337
-0.4973267784687465	-0.24468973160976876
-0.4972657433124965	-0.2504755415353187
-0.4972047081562465	-0.25620251103065267
-0.4971436729999965	-0.26192364109668814
-0.4970826378437465	-0.26764354638259963
-0.4970216026874965	-0.27331174479136383
-0.4969605675312465	-0.2789007424812457
-0.4968995323749965	-0.28444593287798153
-0.4968384972187465	-0.28998750542897556
-0.4967774620624965	-0.2955075403208478
-0.4967164269062465	-0.30095898106530034
-0.4966553917499965	-0.3063378171410287
-0.4965943565937465	-0.3116857123320341
-0.4965333214374965	-0.3170225135234408
-0.4964722862812465	-0.3223157874910139
-0.4964112511249965	-0.32753218543945034
-0.4963502159687465	-0.3326874068711095
-0.4962891808124965	-0.3378180966317404
-0.4962281456562465	-0.3429231476294079
-0.4961671104999965	-0.34796647745446607
-0.4961060753437465	-0.35293358322315366
-0.4960450401874965	-0.3578514684967356
-0.4959840050312465	-0.362743157597169
-0.4959229698749965	-0.3675910184557623
-0.4958619347187465	-0.3723653713858215
-0.4958008995624965	-0.3770703181589468
-0.4957398644062465	-0.3817344380588633
-0.4956788292499965	-0.38636361016613585
-0.4956177940937465	-0.39093172235860424
-0.4955567589374965	-0.3954222547939056
-0.4954957237812465	-0.39985297364194183
-0.4954346886249965	-0.40424532089830856
-0.4953736534687465	-0.40858909160811724
-0.4953126183124965	-0.4128586369509686
-0.4952515831562465	-0.41705319427460635
-0.4951905479999965	-0.4211964154132783
-0.4951295128437465	-0.42529693438266336
-0.4950684776874965	-0.4293338405726799
-0.4950074425312465	-0.4332896638166781
-0.4949464073749965	-0.4371773343355714
-0.4948853722187465	-0.441018195458877
-0.4948243370624965	-0.44480677800657287
-0.4947633019062465	-0.4485187642624358
-0.4947022667499965	-0.45214905945543965
-0.4946412315937465	-0.4557189499472644
-0.4945801964374965	-0.45924118178700263
-0.4945191612812465	-0.4626988105151922
-0.4944581261249965	-0.46607136327756926
-0.4943970909687465	-0.4693665629309017
-0.4943360558124965	-0.4726071892408695
-0.4942750206562465	-0.4757941035010178
-0.4942139854999965	-0.4789041967468222
-0.4941529503437465	-0.48192622526799844
-0.4940919151874965	-0.4848776104722398
-0.4940308800312465	-0.48777603167646844
-0.4939698448749965	-0.4906110356209591
-0.4939088097187465	-0.49336010999535596
-0.4938477745624965	-0.4960233462081251
-0.4937867394062465	-0.4986222322306945
-0.4937257042499965	-0.5011651246599187
-0.4936646690937465	-0.5036338800103105
-0.4936036339374965	-0.5060120013941637
-0.4935425987812465	-0.5083095667718401
-0.4934815636249965	-0.5105463182748037
-0.4934205284687465	-0.512720294180952
-0.4933594933124965	-0.5148110240454459
-0.4932984581562465	-0.5168112407498485
-0.4932374229999965	-0.518737095603002
-0.4931763878437465	-0.5206018429194342
-0.4931153526874965	-0.522395034097129
-0.4930543175312465	-0.5240991543887897
-0.4929932823749965	-0.5257164879677819
-0.4929322472187465	-0.5272643120261021
-0.4928712120624965	-0.5287471810939766
-0.4928101769062465	-0.530150075689511
-0.4927491417499965	-0.5314620930181201
-0.4926881065937465	-0.5326927218328441
-0.4926270714374965	-0.5338558749560629
-0.4925660362812465	-0.5349478740312794
-0.4925050011249965	-0.5359537319066245
-0.4924439659687465	-0.536870601399678
-0.4923829308124965	-0.5377112431945351
-0.4923218956562465	-0.538483201884814
-0.4922608604999965	-0.5391771866076138
-0.4921998253437465	-0.5397821568627588
-0.4921387901874965	-0.540302347769124
-0.4920777550312465	-0.5407497172057788
-0.4920167198749965	-0.5411247876951428
-0.4919556847187465	-0.5414162791508663
-0.4918946495624965	-0.5416191762076442
-0.4918336144062465	-0.541742117037386
-0.4917725792499965	-0.5417931040849399
-0.4917115440937465	-0.5417669654294316
-0.4916505089374965	-0.5416540776655926
-0.4915894737812465	-0.541455637871942
-0.4915284386249965	-0.5411812275057581
-0.4914674034687465	-0.5408333443425306
-0.4914063683124965	-0.5404038397811151
-0.4913453331562465	-0.5398872830160659
-0.4912842979999965	-0.5392894287184941
-0.4912232628437465	-0.5386177427796638
-0.4911622276874965	-0.5378697049295311
-0.4911011925312465	-0.5370373193324676
-0.4910401573749965	-0.5361200405950682
-0.4909791222187465	-0.535125473067239
-0.4909180870624965	-0.5340572450202032
-0.4908570519062465	-0.5329096813307609
-0.4907960167499965	-0.5316773696110537
-0.4907349815937465	-0.5303638656148405
-0.4906739464374965	-0.5289758962539305
-0.4906129112812465	-0.527512891113906
-0.4905518761249965	-0.5259685078027758
-0.4904908409687465	-0.5243411706945024
-0.4904298058124965	-0.5226366442839135
-0.4903687706562465	-0.5208589977321408
-0.4903077354999965	-0.5190046989180939
-0.4902467003437465	-0.5170689159831896
-0.4901856651874965	-0.5150535194023456
-0.4901246300312465	-0.5129641827717151
-0.4900635948749965	-0.5108017295878469
-0.4900025597187465	-0.508561579708907
-0.4899415245624965	-0.5062416890522994
-0.4898804894062465	-0.5038460683819996
-0.4898194542499965	-0.5013786280165883
-0.4897584190937465	-0.498837564164834
-0.4896973839374965	-0.4962190677517387
-0.4896363487812465	-0.49352398316084445
-0.4895753136249965	-0.49075678157315206
-0.4895142784687465	-0.4879189336430294
-0.4894532433124965	-0.48500742429191374
-0.4893922081562465	-0.48202036974926155
-0.4893311729999965	-0.47896048054460494
-0.4892701378437465	-0.4758311440065955
-0.4892091026874965	-0.47263179135812483
-0.4891480675312465	-0.46935986596183105
-0.4890870323749965	-0.4660157398890013
-0.4890259972187465	-0.46260253593147843
-0.4889649620624965	-0.45912164215303203
-0.4889039269062465	-0.4555714612553599
-0.4888428917499965	-0.4519510174143379
-0.4887818565937465	-0.4482622190276787
-0.4887208214374965	-0.44450733250841235
-0.4886597862812465	-0.44068617863034576
-0.4885987511249965	-0.4367975816979839
-0.4885377159687465	-0.43284224834345975
-0.4884766808124965	-0.4288222746215874
-0.4884156456562465	-0.42473854618771095
-0.4883546104999965	-0.4205904709961083
-0.4882935753437465	-0.41637810095240024
-0.4882325401874965	-0.4121028807715402
-0.4881715050312465	-0.4077660170811494
-0.4881104698749965	-0.40336748172946996
-0.4880494347187465	-0.3989072915141967
-0.4879883995624965	-0.3943866670395572
-0.4879273644062465	-0.3898069399072945
-0.4878663292499965	-0.3851682480543321
-0.4878052940937465	-0.3804704906116939
-0.4877442589374965	-0.37571477157359306
-0.4876832237812465	-0.3709026593705944
-0.4876221886249965	-0.3660345536741238
-0.4875611534687465	-0.36111009515423065
-0.4875001183124965	-0.3561300945862868
-0.4874390831562465	-0.3510966112859868
-0.4873780479999965	-0.34601069213338814
-0.4873170128437465	-0.34087156575467814
-0.4872559776874965	-0.3356790571648291
-0.4871949425312465	-0.33043535981498523
-0.4871339073749965	-0.3251428455638568
-0.4870728722187465	-0.31980124563613194
-0.4870118370624965	-0.3144091438116821
-0.4869508019062465	-0.30896764931576143
-0.4868897667499965	-0.3034800732072114
-0.4868287315937465	-0.29794781769221856
-0.4867676964374965	-0.29236918012674235
-0.4867066612812465	-0.2867433925823622
-0.4866456261249965	-0.2810734585482115
-0.4865845909687465	-0.27536276331837267
-0.4865235558124965	-0.2696106845483963
-0.4864625206562465	-0.2638146560111251
-0.4864014854999965	-0.257975789366967
-0.4863404503437465	-0.2520987915194779
-0.4862794151874965	-0.24618580082845568
-0.4862183800312465	-0.24023408947154729
-0.4861573448749965	-0.23424174987897572
-0.4860963097187465	-0.22821235633973966
-0.4860352745624965	-0.2221507869677432
-0.4859742394062465	-0.21605660300342772
-0.4859132042499965	-0.20992587417221298
-0.4858521690937465	-0.2037590553927391
-0.4857911339374965	-0.19756220711806344
-0.4857300987812465	-0.19133883662065004
-0.4856690636249965	-0.18508523157162932
-0.4856080284687465	-0.17879763194301115
-0.4855469933124965	-0.17248012084222372
-0.4854859581562465	-0.16613987037466144
-0.4854249229999965	-0.15977686636457
-0.4853638878437465	-0.15338500402134134
-0.4853028526874965	-0.14696352170173527
-0.4852418175312465	-0.1405202920158548
-0.4851807823749965	-0.13406074109174967
-0.4851197472187465	-0.12758005285018542
-0.4850587120624965	-0.12107217247804948
-0.4849976769062465	-0.11454162971897529
-0.4849366417499965	-0.10799835265563132
-0.4848756065937465	-0.10144295394504292
-0.4848145714374965	-0.0948666630604346
-0.4847535362812465	-0.08826705794839808
-0.4846925011249965	-0.0816541928918155
-0.4846314659687465	-0.07503622150301133
-0.4845704308124965	-0.0684072281562186
-0.4845093956562465	-0.061757824851962045
-0.4844483604999965	-0.05509233844624199
-0.4843873253437465	-0.0484240915818842
-0.4843262901874965	-0.04175524990347347
-0.4842652550312465	-0.03507414690861012
-0.4842042198749965	-0.028375622549228607
-0.4841431847187465	-0.021671756828515062
-0.4840821495624965	-0.014974459097686896
-0.4840211144062465	-0.008277276964914097
-0.4839600792499965	-0.0015667646416073768
-0.4838990440937465	0.00515392865315944
-0.4838380089374965	0.01186776867901007
-0.4837769737812465	0.01856964668998024
-0.4837159386249965	0.02527381123553747
-0.4836549034687465	0.03198966948315503
-0.4835938683124965	0.03870426196388814
-0.4835328331562465	0.045400773039726845
-0.4834717979999965	0.05208450819909008
-0.4834107628437465	0.05877374882658244
-0.4833497276874965	0.06546855862318958
-0.4832886925312465	0.07214804457843717
-0.4832276573749965	0.0788021673463348
-0.4831666222187465	0.08544716387901471
-0.4831055870624965	0.09209835783017428
-0.4830445519062465	0.09874327427868725
-0.4829835167499965	0.10535923618487524
-0.4829224815937465	0.11194845952428371
-0.4828614464374965	0.11853393404352361
-0.4828004112812465	0.12512109201211188
-0.4827393761249965	0.13168646189561464
-0.4826783409687465	0.13821314952145053
-0.4826173058124965	0.14471715138191157
-0.4825562706562465	0.15122105979347833
-0.4824952354999965	0.1577159334482354
-0.4824342003437465	0.1641729302151876
-0.4823731651874965	0.17058775387379177
-0.4823121300312465	0.17698710161725906
-0.4822510948749965	0.18338506821577452
-0.4821900597187465	0.18975818505671554
-0.4821290245624965	0.19608032199379138
-0.4820679894062465	0.20236327761973286
-0.4820069542499965	0.20863773851110332
-0.4819459190937465	0.2149030162938588
-0.4818848839374965	0.22112521305991886
-0.4818238487812465	0.22728884361637985
-0.4817628136249965	0.23342120081982137
-0.4817017784687465	0.23954890443398488
-0.4816407433124965	0.2456534836458041
-0.4815797081562465	0.2516975017996303
-0.4815186729999965	0.25768235904938797
-0.4814576378437465	0.2636463566571689
-0.4813966026874965	0.2696035111836679
-0.4813355675312465	0.27551844738337006
-0.4812745323749965	0.28135919058581627
-0.4812134972187465	0.28714711370886864
-0.4811524620624965	0.29292405527933557
-0.4810914269062465	0.2986850566332459
-0.4810303917499965	0.30438244979525125
-0.4809693565937465	0.3099984251784056
-0.4809083214374965	0.31557375376463415
-0.4808472862812465	0.32114439699337166
-0.4807862511249965	0.32668223855697276
-0.4807252159687465	0.33213501422770214
-0.4806641808124965	0.33750730020256503
-0.4806031456562465	0.34285526583870796
-0.4805421104999965	0.34819842041805826
-0.4804810753437465	0.3534847546466016
-0.4804200401874965	0.35866847431759824
-0.4803590050312465	0.363782647990272
-0.4802979698749965	0.36888978247768506
-0.4802369347187465	0.3739819541356564
-0.4801758995624965	0.37898782502590844
-0.4801148644062465	0.3838820958929903
-0.4800538292499965	0.38872788682697845
-0.4799927940937465	0.39357958410972116
-0.4799317589374965	0.39839357275987225
-0.4798707237812465	0.40309099764715034
-0.4798096886249965	0.40768117093574785
-0.4797486534687465	0.41225085390257726
-0.4796876183124965	0.4168283812873151
-0.4796265831562465	0.4213335750390383
-0.4795655479999965	0.42569906681125486
-0.4795045128437465	0.4299780141148602
-0.4794434776874965	0.43426442042010527
-0.4793824425312465	0.4385436400508687
-0.4793214073749965	0.4427091556526151
-0.4792603722187465	0.44672730480266715
-0.4791993370624965	0.45069346024652984
-0.4791383019062465	0.45468462090448236
-0.4790772667499965	0.45863493173631936
-0.4790162315937465	0.46243387177755263
-0.4789551964374965	0.4660992828521247
-0.4788941612812465	0.4697524468998723
-0.4788331261249965	0.4734281963552842
-0.4787720909687465	0.47701650049889016
-0.4787110558124965	0.48043182441394533
-0.4786500206562465	0.48374770547034573
-0.4785889854999965	0.4870829394108464
-0.4785279503437465	0.49041459456995473
-0.4784669151874965	0.4936116665177826
-0.4784058800312465	0.4966388183117355
-0.4783448448749965	0.4996112115235004
-0.4782838097187465	0.5026138159256649
-0.4782227745624965	0.5055682270549434
-0.4781617394062465	0.5083552394561122
-0.4781007042499965	0.5110000015027192
-0.4780396690937465	0.5136301880938421
-0.4779786339374965	0.5162754134371078
-0.4779175987812465	0.5188228146264962
-0.4778565636249965	0.5211947378096878
-0.4777955284687465	0.5234672096901174
-0.4777344933124965	0.5257468536228596
-0.4776734581562465	0.5280045090699643
-0.4776124229999965	0.5301249410704513
-0.4775513878437465	0.5320877639720187
-0.4774903526874965	0.5339942175076839
-0.4774293175312465	0.5359046951263875
-0.4773682823749965	0.537746942641294
-0.4773072472187465	0.5394339799312458
-0.4772462120624965	0.5409989876115798
-0.4771851769062465	0.5425369927748981
-0.4771241417499965	0.5440536490708773
-0.4770631065937465	0.5454610817891997
-0.4770020714374965	0.5467195852226958
-0.4769410362812465	0.5478964651254005
-0.4768800011249965	0.5490544331053344
-0.4768189659687465	0.5501532073438192
-0.4767579308124965	0.5511180672220252
-0.4766968956562465	0.5519591744450613
-0.4766358604999965	0.5527510607425685
-0.4765748253437465	0.5535111597455534
-0.4765137901874965	0.5541742876065424
-0.4764527550312465	0.5546996892331312
-0.4763917198749965	0.5551351572856493
-0.4763306847187465	0.5555374178547434
-0.4762696495624965	0.5558806160952787
-0.4762086144062465	0.5560997422701693
-0.4761475792499965	0.5561960042404688
-0.4760865440937465	0.5562337424951561
-0.4760255089374965	0.5562358402254033
-0.4759644737812465	0.5561471468095841
-0.4759034386249965	0.5559237887510223
-0.4758424034687465	0.5556037435340286
-0.4757813683124965	0.5552456383431584
-0.4757203331562465	0.5548346556926818
-0.4756592979999965	0.554306266130501
-0.4755982628437465	0.553649415978893
-0.4755372276874965	0.5529243570186799
-0.4754761925312465	0.552166971817967
-0.4754151573749965	0.5513318658985372
-0.4753541222187465	0.5503643477306566
-0.4752930870624965	0.5492870381127222
-0.4752320519062465	0.5481643155222881
-0.4751710167499965	0.5470011960261137
-0.4751099815937465	0.5457359732025685
-0.4750489464374965	0.5443374109408112
-0.4749879112812465	0.5428534757062908
-0.4749268761249965	0.5413360998536154
-0.4748658409687465	0.5397607647309378
-0.4748048058124965	0.5380659927134593
-0.4747437706562465	0.5362494389030767
-0.4746827354999965	0.5343706807506597
-0.4746217003437465	0.5324583983058084
-0.4745606651874965	0.5304674529826418
-0.4744996300312465	0.528350675062071
-0.4744385948749965	0.526131663570211
-0.4743775597187465	0.5238667645954889
-0.4743165245624965	0.5215582125270392
-0.4742554894062465	0.519153236007928
-0.4741944542499965	0.5166273198831154
-0.4741334190937465	0.5140209143419737
-0.4740723839374965	0.5113753640683625
-0.4740113487812465	0.5086704341526972
-0.4739503136249965	0.50585886809318
-0.4738892784687465	0.5029404625685069
-0.4738282433124965	0.499960389153842
-0.4737672081562465	0.4969383322203873
-0.4737061729999965	0.4938406127425465
-0.4736451378437465	0.4906354734700172
-0.4735841026874965	0.4873421418207324
-0.4735230675312465	0.4839989341671345
-0.4734620323749965	0.4806040749327391
-0.4734009972187465	0.47712172818016235
-0.4733399620624965	0.47354008948666065
-0.4732789269062465	0.4698888637192494
-0.4732178917499965	0.4661914957771012
-0.4731568565937465	0.46243001004230666
-0.4730958214374965	0.45857636241647703
-0.4730347862812465	0.45463766281167534
-0.4729737511249965	0.45064390073811283
-0.4729127159687465	0.446600501755826
-0.4728516808124965	0.44248198309245096
-0.4727906456562465	0.4382746694797782
-0.4727296104999965	0.43399880374385114
-0.4726685753437465	0.42967597835289534
-0.4726075401874965	0.4252956689928567
-0.4725465050312465	0.4208340989358188
-0.4724854698749965	0.4162937298333779
-0.4724244347187465	0.41169972523644943
-0.4723633995624965	0.4070601487456384
-0.4723023644062465	0.4023543838705469
-0.4722413292499965	0.39756774376778514
-0.4721802940937465	0.3927161576813492
-0.4721192589374965	0.3878214829027113
-0.4720582237812465	0.3828774693219121
-0.4719971886249965	0.37786106010283715
-0.4719361534687465	0.3727706243060322
-0.4718751183124965	0.3676297714401348
-0.4718140831562465	0.362450852764344
-0.4717530479999965	0.3572164851825119
-0.4716920128437465	0.35190839093028203
-0.4716309776874965	0.34653764394324826
-0.4715699425312465	0.34112834261497654
-0.4715089073749965	0.3356807109285121
-0.4714478722187465	0.33017214581926896
-0.4713868370624965	0.3245942777922919
-0.4713258019062465	0.318967290545211
-0.4712647667499965	0.3133092429535686
-0.4712037315937465	0.3076090874333082
-0.4711426964374965	0.30184564306885825
-0.4710816612812465	0.29602219379497247
-0.4710206261249965	0.2901623461926985
-0.4709595909687465	0.28427428753999506
-0.4708985558124965	0.2783397835731569
-0.4708375206562465	0.27234441218084665
-0.4707764854999965	0.26630109813382846
-0.4707154503437465	0.26023075955042835
-0.4706544151874965	0.25413122573389163
-0.4705933800312465	0.24798277703202848
-0.4705323448749965	0.24178061264522765
-0.4704713097187465	0.23554313819191303
-0.4704102745624965	0.22928404164233795
-0.4703492394062465	0.22299278373641107
-0.4702882042499965	0.21665336209042887
-0.4702271690937465	0.21027066959821675
-0.4701661339374965	0.2038634897914299
-0.4701050987812465	0.19743644337957883
-0.4700440636249965	0.19097500342522516
-0.4699830284687465	0.184470281791295
-0.4699219933124965	0.17793401209131104
-0.4698609581562465	0.17138095139708673
-0.4697999229999965	0.16480748441844803
-0.4697388878437465	0.15819972083998035
-0.4696778526874965	0.15155698028744052
-0.4696168175312465	0.14489359894948511
-0.4695557823749965	0.1382175128700849
