Time	Frequency
-0.500007627687495	-4.6096597895350234e-23
-0.49994659253124496	-4.649699049678938e-23
-0.49988555737499496	-4.688744802127823e-23
-0.49982452221874496	-4.726766080717892e-23
-0.49976348706249496	-4.763725262636523e-23
-0.49970245190624496	-4.799614447892515e-23
-0.49964141674999496	-4.834455375818737e-23
-0.49958038159374496	-4.868261769351215e-23
-0.49951934643749496	-4.901011178087718e-23
-0.49945831128124496	-4.9326626411758376e-23
-0.49939727612499496	-4.9631984916159535e-23
-0.49933624096874496	-4.992637437360174e-23
-0.49927520581249496	-5.021001888254398e-23
-0.49921417065624496	-5.048280438073994e-23
-0.49915313549999496	-5.074433179475439e-23
-0.49909210034374496	-5.099433603757104e-23
-0.49903106518749496	-5.123294338972392e-23
-0.49897003003124496	-5.146044053751994e-23
-0.49890899487499496	-5.1676840947384724e-23
-0.49884795971874496	-5.188179200471598e-23
-0.49878692456249496	-5.207494623834308e-23
-0.49872588940624496	-5.225633822688751e-23
-0.49866485424999496	-5.24262906332248e-23
-0.49860381909374496	-5.258495463333251e-23
-0.49854278393749496	-5.273205626149223e-23
-0.49848174878124496	-5.2867178461874583e-23
-0.49842071362499496	-5.299023953164102e-23
-0.49835967846874496	-5.310156459046071e-23
-0.49829864331249496	-5.320144397178439e-23
-0.49823760815624496	-5.3289724772336e-23
-0.49817657299999496	-5.336595559726176e-23
-0.49811553784374496	-5.342991692389966e-23
-0.49805450268749496	-5.348187713405027e-23
-0.49799346753124496	-5.352224277707565e-23
-0.49793243237499496	-5.355102921458602e-23
-0.49787139721874496	-5.356781506180947e-23
-0.49781036206249496	-5.357224788363645e-23
-0.49774932690624496	-5.356447662757764e-23
-0.49768829174999496	-5.354496668855455e-23
-0.49762725659374496	-5.351391787945934e-23
-0.49756622143749496	-5.347100826169936e-23
-0.49750518628124496	-5.341579203909153e-23
-0.49744415112499496	-5.33482622594676e-23
-0.49738311596874496	-5.326887315775085e-23
-0.49732208081249496	-5.317798884690353e-23
-0.49726104565624496	-5.307544475438993e-23
-0.49720001049999496	-5.2960770892616e-23
-0.49713897534374496	-5.283380024289681e-23
-0.49707794018749496	-5.269490312669293e-23
-0.49701690503124496	-5.2544555382706114e-23
-0.49695586987499496	-5.238277829506697e-23
-0.49689483471874496	-5.2209147403487767e-23
-0.49683379956249496	-5.2023360173420143e-23
-0.49677276440624496	-5.182565629199944e-23
-0.49671172924999496	-5.1616565814350736e-23
-0.49665069409374496	-5.1396296453781827e-23
-0.49658965893749496	-5.11645246828055e-23
-0.49652862378124496	-5.0920855013232687e-23
-0.49646758862499496	-5.0665374162717924e-23
-0.49640655346874496	-5.0398606544315466e-23
-0.49634551831249496	-5.0120926425889483e-23
-0.49628448315624496	-4.98321584508643e-23
-0.49622344799999496	-4.9531865628531476e-23
-0.49616241284374496	-4.9219971784136915e-23
-0.49610137768749496	-4.889694258823124e-23
-0.49604034253124496	-4.856328915882167e-23
-0.49597930737499496	-4.8219008060954904e-23
-0.49591827221874496	-4.786366654620656e-23
-0.49585723706249496	-4.7497036379864187e-23
-0.49579620190624496	-4.7119477697122297e-23
-0.49573516674999496	-4.673158343918132e-23
-0.49567413159374496	-4.633353433262387e-23
-0.49561309643749496	-4.5924976411814096e-23
-0.49555206128124496	-4.550557305167225e-23
-0.49549102612499496	-4.5075545919376716e-23
-0.49542999096874496	-4.463551962765098e-23
-0.49536895581249496	-4.4185845751100764e-23
-0.49530792065624496	-4.3726260780004264e-23
-0.49524688549999496	-4.3256331549984334e-23
-0.49518585034374496	-4.2776137658885055e-23
-0.49512481518749496	-4.228631722016299e-23
-0.49506378003124496	-4.178739882563698e-23
-0.49500274487499496	-4.127926011575299e-23
-0.49494170971874496	-4.076140562678728e-23
-0.49488067456249496	-4.0233727708112734e-23
-0.49481963940624496	-3.9696795442485457e-23
-0.49475860424999496	-3.9151290316117694e-23
-0.49469756909374496	-3.859728778531869e-23
-0.49463653393749496	-3.803429689487028e-23
-0.49457549878124496	-3.74620259962342e-23
-0.49451446362499496	-3.688092384999166e-23
-0.49445342846874496	-3.629179344799038e-23
-0.49439239331249496	-3.569493344510196e-23
-0.49433135815624496	-3.508989902741875e-23
-0.49427032299999496	-3.4476214901710656e-23
-0.49420928784374496	-3.385415490149097e-23
-0.49414825268749496	-3.322459236052499e-23
-0.49408721753124496	-3.258807937416403e-23
-0.49402618237499496	-3.194430342389892e-23
-0.49396514721874496	-3.129263154545463e-23
-0.49390411206249496	-3.063308702079864e-23
-0.49384307690624496	-2.99665323163208e-23
-0.49378204174999496	-2.9293794860836625e-23
-0.49372100659374496	-2.861479514009444e-23
-0.49365997143749496	-2.7928791731660874e-23
-0.49359893628124496	-2.723549147312377e-23
-0.49353790112499496	-2.6535638446332755e-23
-0.49347686596874496	-2.583030163428203e-23
-0.49341583081249496	-2.511972170292225e-23
-0.49335479565624496	-2.440317115545696e-23
-0.49329376049999496	-2.368004166141202e-23
-0.49323272534374496	-2.29508229602061e-23
-0.49317169018749496	-2.2216733204034396e-23
-0.49311065503124496	-2.1478414417042104e-23
-0.49304961987499496	-2.0735297137539908e-23
-0.49298858471874496	-1.998647066959244e-23
-0.49292754956249496	-1.9232032175524446e-23
-0.49286651440624496	-1.8473222344851132e-23
-0.49280547924999496	-1.771111579534765e-23
-0.49274444409374496	-1.694546401227134e-23
-0.49268340893749496	-1.617516665324005e-23
-0.49262237378124496	-1.5399848169822575e-23
-0.49256133862499496	-1.4620587041168904e-23
-0.49250030346874496	-1.383883081831109e-23
-0.49243926831249496	-1.305479593836645e-23
-0.49237823315624496	-1.2267360663593488e-23
-0.49231719799999496	-1.1475645796094201e-23
-0.49225616284374496	-1.0680354740851377e-23
-0.49219512768749496	-9.883175999766631e-24
-0.49213409253124496	-9.084920349583967e-24
-0.49207305737499496	-8.284689450157974e-24
-0.49201202221874496	-7.48116942859458e-24
-0.49195098706249496	-6.674501669190167e-24
-0.49188995190624496	-5.866389194336968e-24
-0.49182891674999496	-5.058227811956378e-24
-0.49176788159374496	-4.249548706091051e-24
-0.49170684643749496	-3.43876579397597e-24
-0.49164581128124496	-2.6253719812590398e-24
-0.49158477612499496	-1.81085775670794e-24
-0.49152374096874496	-9.971393284749967e-25
-0.49146270581249496	-1.8438522243738085e-25
-0.49140167065624496	6.290334393527646e-25
-0.49134063549999496	1.4443257406471345e-24
-0.49127960034374496	2.2605099203969475e-24
-0.49121856518749496	3.075335205219655e-24
-0.49115753003124496	3.88784206036554e-24
-0.49109649487499496	4.699398290364869e-24
-0.49103545971874496	5.5118303682655184e-24
-0.49097442456249496	6.3248973661909195e-24
-0.49091338940624496	7.136286073522375e-24
-0.49085235424999496	7.944223028680619e-24
-0.49079131909374496	8.749502512090254e-24
-0.49073028393749496	9.554354902153287e-24
-0.49066924878124496	1.03594572491911e-23
-0.49060821362499496	1.1162785883999358e-23
-0.49054717846874496	1.1961835669473356e-23
-0.49048614331249496	1.2756538353246838e-23
-0.49042510815624496	1.3549217997542855e-23
-0.49036407299999496	1.434152017977312e-23
-0.49030303784374496	1.5132080852740264e-23
-0.49024200268749496	1.591790298717637e-23
-0.49018096753124496	1.669784633473518e-23
-0.49011993237499496	1.7473919600670213e-23
-0.49005889721874496	1.82486529559584e-23
-0.48999786206249496	1.9021702270482334e-23
-0.48993682690624496	1.9789940501806125e-23
-0.48987579174999496	2.0551062226870197e-23
-0.48981475659374496	2.130630599395017e-23
-0.48975372143749496	2.205883155680929e-23
-0.48969268628124496	2.280960876488509e-23
-0.48963165112499496	2.3555886875206427e-23
-0.48957061596874496	2.4294277389561008e-23
-0.48950958081249496	2.5024774214657567e-23
-0.48944854565624496	2.5750704042333067e-23
-0.48938751049999496	2.647448286390897e-23
-0.48932647534374496	2.719432602703539e-23
-0.48926544018749496	2.790609203705719e-23
-0.48920440503124496	2.860816791067256e-23
-0.48914336987499496	2.930340880762946e-23
-0.48908233471874496	2.999557171866998e-23
-0.48902129956249496	3.0684448840746954e-23
-0.48896026440624496	3.13657351067423e-23
-0.48889922924999496	3.20360226465552e-23
-0.48883819409374496	3.2696915519025464e-23
-0.48877715893749496	3.33530808533666e-23
-0.48871612378124496	3.400637772737435e-23
-0.48865508862499496	3.465320861521213e-23
-0.48859405346874496	3.52885604276381e-23
-0.48853301831249496	3.591200305408865e-23
-0.48847198315624496	3.6528258374531244e-23
-0.48841094799999496	3.7141391045797e-23
-0.48834991284374496	3.774955118445259e-23
-0.48828887768749496	3.83468180922329e-23
-0.48822784253124496	3.893018094345349e-23
-0.48816680737499496	3.9503239303233684e-23
-0.48810577221874496	4.0071891422933635e-23
-0.48804473706249496	4.063698055930582e-23
-0.48798370190624496	4.11928585413204e-23
-0.48792266674999496	4.173390493824554e-23
-0.48786163159374496	4.226129938524738e-23
-0.48780059643749496	4.2781710285579434e-23
-0.48773956128124496	4.329917579484299e-23
-0.48767852612499496	4.38098850584706e-23
-0.48761749096874496	4.4306392953767685e-23
-0.48755645581249496	4.478646025547661e-23
-0.48749542065624496	4.5255848412504104e-23
-0.48743438549999496	4.572143075964011e-23
-0.48737335034374496	4.61827148942379e-23
-0.48731231518749496	4.663207092773143e-23
-0.48725128003124496	4.706365815979567e-23
-0.48719024487499496	4.748044467888248e-23
-0.48712920971874496	4.7890729349484485e-23
-0.48706817456249496	4.82981118352048e-23
-0.48700713940624496	4.869691591879811e-23
-0.48694610424999496	4.9078730470418974e-23
-0.48688506909374496	4.944238343108847e-23
-0.48682403393749496	4.979536742106006e-23
-0.48676299878124496	5.014485945277729e-23
-0.48670196362499496	5.048900316487258e-23
-0.48664092846874496	5.0818944749344775e-23
-0.48657989331249496	5.11292813296401e-23
-0.48651885815624496	5.14244460403155e-23
-0.48645782299999496	5.1713359086631097e-23
-0.48639678784374496	5.1998714155249044e-23
-0.48633575268749496	5.2273701768069555e-23
-0.48627471753124496	5.2530066074000213e-23
-0.48621368237499496	5.2767843003331003e-23
-0.48615264721874496	5.299517397689356e-23
-0.48609161206249496	5.321850046870223e-23
-0.48603057690624496	5.343489436463515e-23
-0.48596954174999496	5.363560372453252e-23
-0.48590850659374496	5.381643934674377e-23
-0.48584747143749496	5.398257561890254e-23
-0.48578643628124496	5.414218981517595e-23
-0.48572540112499496	5.429670270187239e-23
-0.48566436596874496	5.443923400086035e-23
-0.48560333081249496	5.45628872241694e-23
-0.48554229565624496	5.466882171763834e-23
-0.48548126049999496	5.476460339401092e-23
-0.48542022534374496	5.48550737351455e-23
-0.48535919018749496	5.493672765581666e-23
-0.48529815503124496	5.500210085462545e-23
-0.48523711987499496	5.504865472078205e-23
-0.48517608471874496	5.508154449640141e-23
-0.48511504956249496	5.510724919100497e-23
-0.48505401440624496	5.51259084985563e-23
-0.48499297924999496	5.513141889033649e-23
-0.48493194409374496	5.511885225188601e-23
-0.48487090893749496	5.509017634458815e-23
-0.48480987378124496	5.50516363272806e-23
-0.48474883862499496	5.500624149899521e-23
-0.48468780346874496	5.495039782635877e-23
-0.48462676831249496	5.487844705413891e-23
-0.48456573315624496	5.478941292186553e-23
-0.48450469799999496	5.468793084078418e-23
-0.48444366284374496	5.457855288317264e-23
-0.48438262768749496	5.446044076447461e-23
-0.48432159253124496	5.432865530534561e-23
-0.48426055737499496	5.418018979322545e-23
-0.48419952221874496	5.401742293375173e-23
-0.48413848706249496	5.384507927549684e-23
-0.48407745190624496	5.3664607359816e-23
-0.48401641674999496	5.347270446400027e-23
-0.48395538159374496	5.326549214989092e-23
-0.48389434643749496	5.304314121191776e-23
-0.48383331128124496	5.280950105398565e-23
-0.48377227612499496	5.2567442343804076e-23
-0.48371124096874496	5.231561014297995e-23
-0.48365020581249496	5.2050315769700056e-23
-0.48358917065624496	5.177005774841502e-23
-0.48352813549999496	5.147721992115019e-23
-0.48346710034374496	5.11751211354071e-23
-0.48340606518749496	5.086414943953486e-23
-0.48334503003124496	5.054156397831707e-23
-0.48328399487499496	5.020497310614003e-23
-0.48322295971874496	4.985519464738241e-23
-0.48316192456249496	4.9495190321738833e-23
-0.48310088940624496	4.9126560028260975e-23
-0.48303985424999496	4.8747849538141675e-23
-0.48297881909374496	4.83565430445369e-23
-0.48291778393749496	4.795217620070801e-23
-0.48285674878124496	4.7536848188400283e-23
-0.48279571362499496	4.7112700045542696e-23
-0.48273467846874496	4.6679516357687656e-23
-0.48267364331249496	4.623524893999166e-23
-0.48261260815624496	4.577865020084635e-23
-0.48255157299999496	4.531079366458685e-23
-0.48249053784374496	4.4833777153202744e-23
-0.48242950268749496	4.43483231678119e-23
-0.48236846753124496	4.385316386948564e-23
-0.48230743237499496	4.3346794174724875e-23
-0.48224639721874496	4.2829372355954154e-23
-0.48218536206249496	4.2302544716161834e-23
-0.48212432690624496	4.176755045391068e-23
-0.48206329174999496	4.122394659534553e-23
-0.48200225659374496	4.0670394925289884e-23
-0.48194122143749496	4.0106431889461513e-23
-0.48188018628124496	3.9533082668117594e-23
-0.48181915112499496	3.895169904234664e-23
-0.48175811596874496	3.8362517980027033e-23
-0.48169708081249496	3.7764637354599624e-23
-0.48163604565624496	3.7157315723997084e-23
-0.48157501049999496	3.654097256066058e-23
-0.48151397534374496	3.591675212213016e-23
-0.48145294018749496	3.528529250930428e-23
-0.48139190503124496	3.464620846767286e-23
-0.48133086987499496	3.399880789557131e-23
-0.48126983471874496	3.334307968881622e-23
-0.48120879956249496	3.267979438059728e-23
-0.48114776440624496	3.200970933384191e-23
-0.48108672924999496	3.1332885687123724e-23
-0.48102569409374496	3.0648877560334554e-23
-0.48096465893749496	2.995747739902195e-23
-0.48090362378124496	2.9259099451161586e-23
-0.48084258862499496	2.8554403834266185e-23
-0.48078155346874496	2.784369323838223e-23
-0.48072051831249496	2.712680676551322e-23
-0.48065948315624496	2.640355567554012e-23
-0.48059844799999496	2.5674119140865807e-23
-0.48053741284374496	2.493896247988231e-23
-0.48047637768749496	2.419845767904467e-23
-0.48041534253124496	2.345268644052259e-23
-0.48035430737499496	2.27016034927178e-23
-0.48029327221874496	2.1945294672787267e-23
-0.48023223706249496	2.118402390136249e-23
-0.48017120190624496	2.0418083476395387e-23
-0.48011016674999496	1.9647669795722983e-23
-0.48004913159374496	1.887290395599643e-23
-0.47998809643749496	1.809392337868015e-23
-0.47992706128124496	1.7310909315144452e-23
-0.47986602612499496	1.6524040939228373e-23
-0.47980499096874496	1.5733488421491322e-23
-0.47974395581249496	1.4939460920561505e-23
-0.47968292065624496	1.4142200092505566e-23
-0.47962188549999496	1.334189679425269e-23
-0.47956085034374496	1.2538651042370281e-23
-0.47949981518749496	1.1732559650383505e-23
-0.47943878003124496	1.0923841243527544e-23
-0.47937774487499496	1.0112827143259375e-23
-0.47931670971874496	9.299790392207078e-24
-0.47925567456249496	8.484810978375173e-24
-0.47919463940624496	7.667881548647264e-24
-0.47913360424999496	6.849154615605118e-24
-0.47907256909374496	6.029010872712177e-24
-0.47901153393749496	5.207835167601355e-24
-0.47895049878124496	4.3857653428273154e-24
-0.47888946362499496	3.5627367159179194e-24
-0.47882842846874496	2.73878827788544e-24
-0.47876739331249496	1.9142577632501728e-24
-0.47870635815624496	1.0896111679921343e-24
-0.47864532299999496	2.651076465790123e-25
-0.47858428784374496	-5.592855745205136e-25
-0.47852325268749496	-1.383622566181865e-24
-0.47846221753124496	-2.2076776499520504e-24
-0.47840118237499496	-3.030982871060093e-24
-0.47834014721874496	-3.853174622858491e-24
-0.47827911206249496	-4.6742186959248124e-24
-0.47821807690624496	-5.494217313681974e-24
-0.47815704174999496	-6.3130429801568035e-24
-0.47809600659374496	-7.13026093270638e-24
-0.47803497143749496	-7.945433905062291e-24
-0.47797393628124496	-8.758433294044257e-24
-0.47791290112499496	-9.569364599494705e-24
-0.47785186596874496	-1.037819558194181e-23
-0.47779083081249496	-1.1184555732597422e-23
-0.47772979565624496	-1.1987958905929353e-23
-0.47766876049999496	-1.2788179008779944e-23
-0.47760772534374496	-1.3585311381953102e-23
-0.47754669018749496	-1.4379428181411947e-23
-0.47748565503124496	-1.5170253003774314e-23
-0.47742461987499496	-1.5957271142497117e-23
-0.47736358471874496	-1.6740145913237487e-23
-0.47730254956249496	-1.751891594071246e-23
-0.47724151440624496	-1.8293715578776038e-23
-0.47718047924999496	-1.9064369657378237e-23
-0.47711944409374496	-1.9830384349885884e-23
-0.47705840893749496	-2.0591348323850318e-23
-0.47699737378124496	-2.134722983931388e-23
-0.47693633862499496	-2.209819551045025e-23
-0.47687530346874496	-2.2844179433637036e-23
-0.47681426831249496	-2.358474089425081e-23
-0.47675323315624496	-2.4319396305649845e-23
-0.47669219799999496	-2.5048014716117537e-23
-0.47663116284374496	-2.577077555586076e-23
-0.47657012768749496	-2.648773263441328e-23
-0.47650909253124496	-2.719852527218253e-23
-0.47644805737499496	-2.7902608731771244e-23
-0.47638702221874496	-2.859973241335444e-23
-0.47632598706249496	-2.9290061945704026e-23
-0.47626495190624496	-2.997377418754303e-23
-0.47620391674999496	-3.0650628214929385e-23
-0.47614288159374496	-3.132005409850886e-23
-0.47608184643749496	-3.1981660067014795e-23
-0.47602081128124496	-3.2635536616134093e-23
-0.47595977612499496	-3.328196376947069e-23
-0.47589874096874496	-3.392086827795849e-23
-0.47583770581249496	-3.455171443496058e-23
-0.47577667065624496	-3.5173977667968786e-23
-0.47571563549999496	-3.5787617332345334e-23
-0.47565460034374496	-3.6392954764595536e-23
-0.47559356518749496	-3.6990096872708946e-23
-0.47553253003124496	-3.757862291354581e-23
-0.47547149487499496	-3.8157930177057034e-23
-0.47541045971874496	-3.872781138488276e-23
-0.47534942456249496	-3.9288546626585964e-23
-0.47528838940624496	-3.984038961834712e-23
-0.47522735424999496	-4.038308392261743e-23
-0.47516631909374496	-4.0916018314021024e-23
-0.47510528393749496	-4.1438830296897205e-23
-0.47504424878124496	-4.195170184462131e-23
-0.47498321362499496	-4.245498003279607e-23
-0.47492217846874496	-4.294859550176132e-23
-0.47486114331249496	-4.3431998591401724e-23
-0.47480010815624496	-4.390469506528017e-23
-0.47473907299999496	-4.436671997247466e-23
-0.47467803784374496	-4.481845715892525e-23
-0.47461700268749496	-4.5260024592438177e-23
-0.47455596753124496	-4.569099122315937e-23
-0.47449493237499496	-4.6110782994701313e-23
-0.47443389721874496	-4.6519274397917954e-23
-0.47437286206249496	-4.691682349736998e-23
-0.47431182690624496	-4.730370432551315e-23
-0.47425079174999496	-4.7679644520495233e-23
-0.47418975659374496	-4.8044046480128346e-23
-0.47412872143749496	-4.839662241875259e-23
-0.47406768628124496	-4.8737650150148837e-23
-0.47400665112499496	-4.9067521964332086e-23
-0.47394561596874496	-4.93861487737721e-23
-0.47388458081249496	-4.96929699900152e-23
-0.47382354565624496	-4.9987560027500336e-23
-0.47376251049999496	-5.0270071329585876e-23
-0.47370147534374496	-5.054095526935462e-23
-0.47364044018749496	-5.080030737313592e-23
-0.47357940503124496	-5.104766130778814e-23
-0.47351836987499496	-5.128249656081152e-23
-0.47345733471874496	-5.150482448435085e-23
-0.47339629956249496	-5.171511038184358e-23
-0.47333526440624496	-5.19136176968884e-23
-0.47327422924999496	-5.2099998068109077e-23
-0.47321319409374496	-5.2273659777709145e-23
-0.47315215893749496	-5.243446355215446e-23
-0.47309112378124496	-5.258285979436927e-23
-0.47303008862499496	-5.2719275599817486e-23
-0.47296905346874496	-5.284351898444636e-23
-0.47290801831249496	-5.295496382152452e-23
-0.47284698315624496	-5.30532989463914e-23
-0.47278594799999496	-5.313889872179256e-23
-0.47272491284374496	-5.321233078947362e-23
-0.47266387768749496	-5.327360594132924e-23
-0.47260284253124496	-5.332212204270756e-23
-0.47254180737499496	-5.33573951303852e-23
-0.47248077221874496	-5.337966726880402e-23
-0.47241973706249496	-5.338960768201598e-23
-0.47235870190624496	-5.338745762377454e-23
-0.47229766674999496	-5.337269690429468e-23
-0.47223663159374496	-5.334468036204627e-23
