Time	Frequency
-0.5000600811249996	-0.15098764459949654
-0.49999904596874956	-0.1365197728704197
-0.49993801081249956	-0.12189456492130597
-0.49987697565624956	-0.10712699914427108
-0.49981594049999956	-0.0922331898295198
-0.49975490534374956	-0.07722977598419667
-0.49969387018749956	-0.062132603810179876
-0.49963283503124956	-0.0469575375911138
-0.49957179987499956	-0.03172098971043929
-0.49951076471874956	-0.016439839940500384
-0.49944972956249956	-0.0011304910778662499
-0.49938869440624956	0.0141909076020422
-0.49932765924999956	0.029507570469176424
-0.49926662409374956	0.04480278436956778
-0.49920558893749956	0.0600604507901242
-0.49914455378124956	0.075263980312574
-0.49908351862499956	0.09039645013365066
-0.49902248346874956	0.10544189561939064
-0.49896144831249956	0.12038410408664577
-0.49890041315624956	0.13520659580197567
-0.49883937799999956	0.14989363519058516
-0.49877834284374956	0.16442924933236142
-0.49871730768749956	0.1787973311116685
-0.49865627253124956	0.19298238076277843
-0.49859523737499956	0.20696934983937493
-0.49853420221874956	0.22074307902417084
-0.49847316706249956	0.2342882353636308
-0.49841213190624956	0.24759003944439573
-0.49835109674999956	0.2606342319110706
-0.49829006159374956	0.27340668998070583
-0.49822902643749956	0.28589362389255696
-0.49816799128124956	0.298081148084672
-0.49810695612499956	0.30995576195886737
-0.49804592096874956	0.3215051561631478
-0.49798488581249956	0.33271642861970685
-0.49792385065624956	0.34357673200159944
-0.49786281549999956	0.35407518684603395
-0.49780178034374956	0.3642004197636204
-0.49774074518749956	0.37394014853362595
-0.49767971003124956	0.3832839591668024
-0.49761867487499956	0.3922227183502549
-0.49755763971874956	0.400746171040061
-0.49749660456249956	0.4088440537263136
-0.49743556940624956	0.4165081530801213
-0.49737453424999956	0.4237303981560648
-0.49731349909374956	0.43050211397468935
-0.49725246393749956	0.43681602296408534
-0.49719142878124956	0.4426655573482101
-0.49713039362499956	0.4480437596808146
-0.49706935846874956	0.45294458498957924
-0.49700832331249956	0.4573630050587567
-0.49694728815624956	0.461293869632664
-0.49688625299999956	0.46473259303864467
-0.49682521784374956	0.4676755186151559
-0.49676418268749956	0.47011924661608834
-0.49670314753124956	0.47206091382474585
-0.49664211237499956	0.473498283421019
-0.49658107721874956	0.47442960805194223
-0.49652004206249956	0.4748537764088134
-0.49645900690624956	0.4747701735363819
-0.49639797174999956	0.47417865303939893
-0.49633693659374956	0.47307970271903277
-0.49627590143749956	0.47147441513507765
-0.49621486628124956	0.4693643472277562
-0.49615383112499956	0.4667516327475438
-0.49609279596874956	0.46363897695072814
-0.49603176081249956	0.46002944531461193
-0.49597072565624956	0.455926882811656
-0.49590969049999956	0.45133581912269377
-0.49584865534374956	0.4462608247626823
-0.49578762018749956	0.4407071328203248
-0.49572658503124956	0.43468088989767506
-0.49566554987499956	0.4281884595388664
-0.49560451471874956	0.4212366155683862
-0.49554347956249956	0.4138328554365121
-0.49548244440624956	0.4059851049912428
-0.49542140924999956	0.3977015379074578
-0.49536037409374956	0.38899105048580335
-0.49529933893749956	0.3798634264904002
-0.49523830378124956	0.3703281774495295
-0.49517726862499956	0.36039490659878176
-0.49511623346874956	0.3500749038168408
-0.49505519831249956	0.3393797509952472
-0.49499416315624956	0.32832014283349775
-0.49493312799999956	0.3169078042566251
-0.49487209284374956	0.3051556870179396
-0.49481105768749956	0.29307648855610513
-0.49475002253124956	0.28068268522543305
-0.49468898737499956	0.2679876703696419
-0.49462795221874956	0.2550057592516583
-0.49456691706249956	0.24175067162289318
-0.49450588190624956	0.22823639842634116
-0.49444484674999956	0.21447775550955955
-0.49438381159374956	0.2004895581469467
-0.49432277643749956	0.18628748068611803
-0.49426174128124956	0.17188664673541384
-0.49420070612499956	0.15730174824487092
-0.49413967096874956	0.14254938145585175
-0.49407863581249956	0.1276459648858366
-0.49401760065624956	0.11260697083062483
-0.49395656549999956	0.09744885997956666
-0.49389553034374956	0.08218814097121836
-0.49383449518749956	0.06684105585257286
-0.49377346003124956	0.05142472667998356
-0.49371242487499956	0.03595600705491933
-0.49365138971874956	0.020451330985954926
-0.49359035456249956	0.004927573081782595
-0.49352931940624956	-0.010598628569064177
-0.49346828424999956	-0.02611004517300502
-0.49340724909374956	-0.041589184530136526
-0.49334621393749956	-0.05701992956135263
-0.49328517878124956	-0.0723859843901685
-0.49322414362499956	-0.08767006703033542
-0.49316310846874956	-0.1028550937389194
-0.49310207331249956	-0.11792463973537444
-0.49304103815624956	-0.13286279570900578
-0.49298000299999956	-0.1476532982738509
-0.49291896784374956	-0.1622796858650878
-0.49285793268749956	-0.17672600040225625
-0.49279689753124956	-0.1909761857300683
-0.49273586237499956	-0.20501485694814806
-0.49267482721874956	-0.21882748723807016
-0.49261379206249956	-0.23239855303085868
-0.49255275690624956	-0.2457124781735389
-0.49249172174999956	-0.25875481868136035
-0.49243068659374956	-0.27151191783739925
-0.49236965143749956	-0.2839704210719561
-0.49230861628124956	-0.29611569433523144
-0.49224758112499956	-0.30793379199895754
-0.49218654596874956	-0.3194129760230082
-0.49212551081249956	-0.33054073974038095
-0.49206447565624956	-0.3413041602899738
-0.49200344049999956	-0.351691611275813
-0.49194240534374956	-0.3616919549515247
-0.49188137018749956	-0.3712940708349049
-0.49182033503124956	-0.38048725490154134
-0.49175929987499956	-0.3892616197657746
-0.49169826471874956	-0.39760759826340136
-0.49163722956249956	-0.40551571587763147
-0.49157619440624956	-0.41297735540832026
-0.49151515924999956	-0.419984519765961
-0.49145412409374956	-0.4265292919120959
-0.49139308893749956	-0.43260438458163963
-0.49133205378124956	-0.43820319614466957
-0.49127101862499956	-0.4433195625815459
-0.49120998346874956	-0.44794784022514605
-0.49114894831249956	-0.4520828154601284
-0.49108791315624956	-0.4557198540262637
-0.49102687799999956	-0.4588549486088369
-0.49096584284374956	-0.46148468561629014
-0.49090480768749956	-0.46360616100147206
-0.49084377253124956	-0.46521680127173143
-0.49078273737499956	-0.4663147454268803
-0.49072170221874956	-0.4668989099922268
-0.49066066706249956	-0.466968580648599
-0.49059963190624956	-0.46652353727860874
-0.49053859674999956	-0.465564149573801
-0.49047756159374956	-0.4640914164914167
-0.49041652643749956	-0.46210701978326074
-0.49035549128124956	-0.45961300299010666
-0.49029445612499956	-0.45661193852673915
-0.49023342096874956	-0.4531072001937695
-0.49017238581249956	-0.44910249027482685
-0.49011135065624956	-0.4446020366869064
-0.49005031549999956	-0.4396109622330546
-0.48998928034374956	-0.43413461803413467
-0.48992824518749956	-0.42817875293116586
-0.48986721003124956	-0.4217499700110131
-0.48980617487499956	-0.4148553815778722
-0.48974513971874956	-0.4075024339676907
-0.48968410456249956	-0.399699028978126
-0.48962306940624956	-0.39145382792058403
-0.48956203424999956	-0.3827758936539358
-0.48950099909374956	-0.37367444527154686
-0.48943996393749956	-0.36415956166061136
-0.48937892878124956	-0.35424200806433703
-0.48931789362499956	-0.34393231832593874
-0.48925685846874956	-0.3332414092771688
-0.48919582331249956	-0.32218151742823664
-0.48913478815624956	-0.3107649839989739
-0.48907375299999956	-0.29900387382540694
-0.48901271784374956	-0.28691108369663637
-0.48895168268749956	-0.2744999672498898
-0.48889064753124956	-0.261784263980968
-0.48882961237499956	-0.24877817599448712
-0.48876857721874956	-0.23549560194552333
-0.48870754206249956	-0.22195087896039747
-0.48864650690624956	-0.20815949172638637
-0.48858547174999956	-0.19413684078413457
-0.48852443659374956	-0.17989769028082542
-0.48846340143749956	-0.1654575771917738
-0.48840236628124956	-0.15083298120041028
-0.48834133112499956	-0.13604016609360403
-0.48828029596874956	-0.12109511555193625
-0.48821926081249956	-0.10601392477667997
-0.48815822565624956	-0.09081348140514864
-0.48809719049999956	-0.07551102861977302
-0.48803615534374956	-0.060123315504270074
-0.48797512018749956	-0.04466695244302343
-0.48791408503124956	-0.029158730334826584
-0.48785304987499956	-0.013616460574663732
-0.48779201471874956	0.0019422189113377872
-0.48773097956249956	0.017501293671108486
-0.48766994440624956	0.03304353097312307
-0.48760890924999956	0.04855048756135752
-0.48754787409374956	0.06400566352017407
-0.48748683893749956	0.07939262797071665
-0.48742580378124956	0.09469341947358452
-0.48736476862499956	0.10989121726253878
-0.48730373346874956	0.12496958599224962
-0.48724269831249956	0.1399112738072507
-0.48718166315624956	0.154700250231827
-0.48712062799999956	0.16931993690380245
-0.48705959284374956	0.1837532279239024
-0.48699855768749956	0.19798516008233666
-0.48693752253124956	0.2120002611072218
-0.48687648737499956	0.2257817743660096
-0.48681545221874956	0.23931425129623873
-0.48675441706249956	0.2525835795988686
-0.48669338190624956	0.2655750534880761
-0.48663234674999956	0.2782734226058851
-0.48657131159374956	0.29066463343579274
-0.48651027643749956	0.3027351956917809
-0.48644924128124956	0.3144715027894572
-0.48638820612499956	0.32586020652578457
-0.48632717096874956	0.3368888203117816
-0.48626613581249956	0.34754532873352123
-0.48620510065624956	0.3578172094262541
-0.48614406549999956	0.3676926387385559
-0.48608303034374956	0.37716112190517653
-0.48602199518749956	0.38621243103099184
-0.48596096003124956	0.39483583226205016
-0.48589992487499956	0.4030211287184789
-0.48583888971874956	0.41075957071925145
-0.48577785456249956	0.4180426255714461
-0.48571681940624956	0.42486192891846447
-0.48565578424999956	0.4312096886701739
-0.48559474909374956	0.4370783713669882
-0.48553371393749956	0.44246143225021517
-0.48547267878124956	0.44735314320070796
-0.48541164362499956	0.4517476120546587
-0.48535060846874956	0.4556394567975406
-0.48528957331249956	0.4590244254606982
-0.48522853815624956	0.4618987002812803
-0.48516750299999956	0.464258738385445
-0.48510646784374956	0.4661016451787859
-0.48504543268749956	0.4674251801478909
-0.48498439753124956	0.46822773248704946
-0.48492336237499956	0.46850822777716394
-0.48486232721874956	0.46826605089557605
-0.48480129206249956	0.46750120790566235
-0.48474025690624956	0.46621440832449457
-0.48467922174999956	0.4644068753921345
-0.48461818659374956	0.4620803314408112
-0.48455715143749956	0.459237124335288
-0.48449611628124956	0.45588016896046063
-0.48443508112499956	0.452013015915582
-0.48437404596874956	0.4476398044809204
-0.48431301081249956	0.4427650615529445
-0.48425197565624956	0.43739383214833455
-0.48419094049999956	0.4315319942770049
-0.48412990534374956	0.425185988760985
-0.48406887018749956	0.41836253175911886
-0.48400783503124956	0.41106882517674775
-0.48394679987499956	0.40331269060479036
-0.48388576471874956	0.3951027933897547
-0.48382472956249956	0.38644808956907045
-0.48376369440624956	0.37735765992725584
-0.48370265924999956	0.3678415095512984
-0.48364162409374956	0.3579100612530717
-0.48358058893749956	0.347574013930515
-0.48351955378124956	0.3368447816042555
-0.48345851862499956	0.3257340839949482
-0.48339748346874956	0.3142540011421087
-0.48333644831249956	0.30241704452702645
-0.48327541315624956	0.29023613139639554
-0.48321437799999956	0.2777248740226017
-0.48315334284374956	0.26489690497854446
-0.48309230768749956	0.2517659331511849
-0.48303127253124956	0.23834675622398085
-0.48297023737499956	0.22465429698824366
-0.48290920221874956	0.21070316979359885
-0.48284816706249956	0.19650882176266504
-0.48278713190624956	0.18208701945384417
-0.48272609674999956	0.167453476807435
-0.48266506159374956	0.15262460411113984
-0.48260402643749956	0.13761676876960555
-0.48254299128124956	0.12244605144019735
-0.48248195612499956	0.10712922257990745
-0.48242092096874956	0.09168370021816116
-0.48235988581249956	0.07612671979084526
-0.48229885065624956	0.06047478693171811
-0.48223781549999956	0.044745038080614
-0.48217678034374956	0.02895563907940886
-0.48211574518749956	0.013124120327990018
-0.48205471003124956	-0.002732622545782596
-0.48199367487499956	-0.018597195197367324
-0.48193263971874956	-0.034451166815779186
-0.48187160456249956	-0.050276954021393004
-0.48181056940624956	-0.06605800977548143
-0.48174953424999956	-0.08177617772141559
-0.48168849909374956	-0.0974137851060582
-0.48162746393749956	-0.11295408973359808
-0.48156642878124956	-0.1283790154681781
-0.48150539362499956	-0.14367171320812358
-0.48144435846874956	-0.15881598206494787
-0.48138332331249956	-0.1737940763889656
-0.48132228815624956	-0.18858907656794488
-0.48126125299999956	-0.203185219306683
-0.48120021784374956	-0.2175661668078109
-0.48113918268749956	-0.23171558054698746
-0.48107814753124956	-0.24561759727343643
-0.48101711237499956	-0.25925685859417924
-0.48095607721874956	-0.2726184619874216
-0.48089504206249956	-0.2856870207631717
-0.48083400690624956	-0.2984478938321327
-0.48077297174999956	-0.3108872164822676
-0.48071193659374956	-0.3229906523896296
-0.48065090143749956	-0.3347446946527735
-0.48058986628124956	-0.34613652232953684
-0.48052883112499956	-0.35715312632060703
-0.48046779596874956	-0.36778188873518036
-0.48040676081249956	-0.37801105815532565
-0.48034572565624956	-0.3878293579222647
-0.48028469049999956	-0.3972255027080621
-0.48022365534374956	-0.4061888193433437
-0.48016262018749956	-0.41470933762359674
-0.48010158503124956	-0.4227773918222088
-0.48004054987499956	-0.43038390311938984
-0.47997951471874956	-0.43752024918374394
-0.47991847956249956	-0.44417818289600275
-0.47985744440624956	-0.45035016989478394
-0.47979640924999956	-0.45602936167167457
-0.47973537409374956	-0.4612092745416655
-0.47967433893749956	-0.46588372332449424
-0.47961330378124956	-0.4700472882725679
-0.47955226862499956	-0.47369544448649387
-0.47949123346874956	-0.47682398556326117
-0.47943019831249956	-0.479428993617632
-0.47936916315624956	-0.48150738945210625
-0.47930812799999956	-0.4830568060192716
-0.47924709284374956	-0.48407534247312084
-0.47918605768749956	-0.48456163640426053
-0.47912502253124956	-0.4845149103810381
-0.47906398737499956	-0.4839350554307506
-0.47900295221874956	-0.4828225574378468
-0.47894191706249956	-0.48117846407483256
-0.47888088190624956	-0.4790043992098952
-0.47881984674999956	-0.47630256340935634
-0.47875881159374956	-0.4730757800746156
-0.47869777643749956	-0.46932752417487683
-0.47863674128124956	-0.4650617879013602
-0.47857570612499956	-0.46028304432948003
-0.47851467096874956	-0.45499644772238584
-0.47845363581249956	-0.4492077449043662
-0.47839260065624956	-0.4429232199907067
-0.47833156549999956	-0.43614969482281735
-0.47827053034374956	-0.4288944916014287
-0.47820949518749956	-0.4211655289985438
-0.47814846003124956	-0.41297120482149746
-0.47808742487499956	-0.4043206115453547
-0.47802638971874956	-0.3952233091709685
-0.47796535456249956	-0.3856888478875081
-0.47790431940624956	-0.3757278851081518
-0.47784328424999956	-0.36535191379166937
-0.47778224909374956	-0.3545716864864256
-0.47772121393749956	-0.3433988413442015
-0.47766017878124956	-0.33184653583030904
-0.47759914362499956	-0.31992732019537745
-0.47753810846874956	-0.30765373579365896
-0.47747707331249956	-0.2950395480367852
-0.47741603815624956	-0.28209921574739955
-0.47735500299999956	-0.26884691063046734
-0.47729396784374956	-0.25529666727339445
-0.47723293268749956	-0.24146387584747211
-0.47717189753124956	-0.2273642405765569
-0.47711086237499956	-0.2130128037116271
-0.47704982721874956	-0.1984256373750148
-0.47698879206249956	-0.18361938464582572
-0.47692775690624956	-0.1686098491395378
-0.47686672174999956	-0.1534135520512774
-0.47680568659374956	-0.1380482316243151
-0.47674465143749956	-0.12253076663044433
-0.47668361628124956	-0.10687755380001876
-0.47662258112499956	-0.09110643263283602
-0.47656154596874956	-0.07523575601420693
-0.47650051081249956	-0.05928249972403997
-0.47643947565624956	-0.0432639494983411
-0.47637844049999956	-0.027198628732918038
-0.47631740534374956	-0.011104407633004906
-0.47625637018749956	0.005000851376287705
-0.47619533503124956	0.021099145678662015
-0.47613429987499956	0.03717282615563764
-0.47607326471874956	0.053203807513289125
-0.47601222956249956	0.06917399668058583
-0.47595119440624956	0.08506549775853416
-0.47589015924999956	0.10086073131416953
-0.47582912409374956	0.11654224825940639
-0.47576808893749956	0.13209239017447685
-0.47570705378124956	0.14749346966558785
-0.47564601862499956	0.16272829877488104
-0.47558498346874956	0.17778023282012792
-0.47552394831249956	0.19263217761688525
-0.47546291315624956	0.2072673348392749
-0.47540187799999956	0.22166964596521724
-0.47534084284374956	0.23582274669164627
-0.47527980768749956	0.2497104484152218
-0.47521877253124956	0.2633176657686201
-0.47515773737499956	0.27662934630883934
-0.47509670221874956	0.2896299397145216
-0.47503566706249956	0.3023047926795207
-0.47497463190624956	0.31464011562104127
-0.47491359674999956	0.32662197836051243
-0.47485256159374956	0.33823663434674495
-0.47479152643749956	0.3494712274423736
-0.47473049128124956	0.36031304416774934
-0.47466945612499956	0.3707496175625433
-0.47460842096874956	0.38076968255795945
-0.47454738581249956	0.3903618271069026
-0.47448635065624956	0.3995146362544163
-0.47442531549999956	0.408218263354806
-0.47436428034374956	0.4164631670161016
-0.47430324518749956	0.42423949958486423
-0.47424221003124956	0.4315384424865434
-0.47418117487499956	0.4383519915853001
-0.47412013971874956	0.44467237611195326
-0.47405910456249956	0.4504924162132384
-0.47399806940624956	0.4558053515453585
-0.47393703424999956	0.46060508671607714
-0.47387599909374956	0.46488642472899155
-0.47381496393749956	0.4686443569642092
-0.47375392878124956	0.4718743649132967
-0.47369289362499956	0.47457286908231455
-0.47363185846874956	0.4767368366536911
-0.47357082331249956	0.4783636399403102
-0.47350978815624956	0.4794512843754827
-0.47344875299999956	0.4799985545392196
-0.47338771784374956	0.4800047329138411
-0.47332668268749956	0.4794696415583393
-0.47326564753124956	0.47839382411194853
-0.47320461237499956	0.47677837039968457
-0.47314357721874956	0.47462503098919323
-0.47308254206249956	0.47193617602669913
-0.47302150690624956	0.4687145516792819
-0.47296047174999956	0.46496372557470556
-0.47289943659374956	0.4606880418560582
-0.47283840143749956	0.4558920337893825
-0.47277736628124956	0.4505809376774892
-0.47271633112499956	0.4447607725831321
-0.47265529596874956	0.43843785647210154
-0.47259426081249956	0.4316192839834247
-0.47253322565624956	0.4243128071646871
-0.47247219049999956	0.4165263692246547
-0.47241115534374956	0.40826852404567876
-0.47235012018749956	0.39954863776526994
-0.47228908503124956	0.3903765353448377
-0.47222804987499956	0.38076249798541045
-0.47216701471874956	0.3707171463679657
-0.47210597956249956	0.360251389074347
-0.47204494440624956	0.3493773551614125
-0.47198390924999956	0.33810760412842067
-0.47192287409374956	0.32645410550346016
-0.47186183893749956	0.31442981667463793
-0.47180080378124956	0.3020487704240423
-0.47173976862499956	0.2893247824602798
-0.47167873346874956	0.2762718567133619
-0.47161769831249956	0.262904797933266
-0.47155666315624956	0.2492387594355615
-0.47149562799999956	0.23528896261640392
-0.47143459284374956	0.22107098210507514
-0.47137355768749956	0.20660095386200159
-0.47131252253124956	0.19189542470085413
-0.47125148737499956	0.17697068896713736
-0.47119045221874956	0.16184335204620579
-0.47112941706249956	0.14653093791889077
-0.47106838190624956	0.13105043530690755
-0.47100734674999956	0.11541896513982357
-0.47094631159374956	0.09965505668422059
-0.47088527643749956	0.08377624092340911
-0.47082424128124956	0.06779944561421591
-0.47076320612499956	0.05174363776844627
-0.47070217096874956	0.035627448320194474
-0.47064113581249956	0.019468008474194907
-0.47058010065624956	0.003283710002838299
-0.47051906549999956	-0.012906242269937421
-0.47045803034374956	-0.029083946283590113
-0.47039699518749956	-0.04523173099853567
