Time	Frequency
-0.500037193218752	8.130872421043188e-24
-0.49997615806250195	8.063262753689686e-24
-0.49991512290625195	7.988710180709317e-24
-0.49985408775000195	7.907275189192256e-24
-0.49979305259375195	7.8190254313162e-24
-0.49973201743750195	7.724033016737811e-24
-0.49967098228125195	7.622374319738961e-24
-0.49960994712500195	7.51413407868419e-24
-0.49954891196875195	7.399405190352034e-24
-0.49948787681250195	7.278284038601368e-24
-0.49942684165625195	7.15086686246678e-24
-0.49936580650000195	7.017257811235719e-24
-0.49930477134375195	6.877575991653546e-24
-0.49924373618750195	6.731942384739929e-24
-0.49918270103125195	6.5804727680871414e-24
-0.49912166587500195	6.4232890577898806e-24
-0.49906063071875195	6.260528794711698e-24
-0.49899959556250195	6.0923395151967035e-24
-0.49893856040625195	5.918859486600811e-24
-0.49887752525000195	5.740222555324944e-24
-0.49881649009375195	5.556585534103507e-24
-0.49875545493750195	5.368116905200574e-24
-0.49869441978125195	5.174971069213605e-24
-0.49863338462500195	4.9773026418798875e-24
-0.49857234946875195	4.775284844403089e-24
-0.49851131431250195	4.569097542939113e-24
-0.49845027915625195	4.3589122197941505e-24
-0.49838924400000195	4.144901389841712e-24
-0.49832820884375195	3.927253099816575e-24
-0.49826717368750195	3.70615839314624e-24
-0.49820613853125195	3.481800568407682e-24
-0.49814510337500195	3.2543697584140357e-24
-0.49808406821875195	3.0240643047595026e-24
-0.49802303306250195	2.79108213013708e-24
-0.49796199790625195	2.5556217002399154e-24
-0.49790096275000195	2.317883639348837e-24
-0.49783992759375195	2.078072491191729e-24
-0.49777889243750195	1.8363957953809252e-24
-0.49771785728125195	1.5930607730473783e-24
-0.49765682212500195	1.3482760135222696e-24
-0.49759578696875195	1.1022513822687253e-24
-0.49753475181250195	8.551962895294252e-25
-0.49747371665625195	6.073272665266611e-25
-0.49741268150000195	3.588610648893724e-25
-0.49735164634375195	1.100049444806959e-25
-0.49729061118750195	-1.3902902188527635e-25
-0.49722957603125195	-3.880199412363036e-25
-0.49716854087500195	-6.367514125510707e-25
-0.49710750571875195	-8.85013184690567e-25
-0.49704647056250195	-1.1325920931270133e-24
-0.49698543540625195	-1.3792721476273257e-24
-0.49692440025000195	-1.6248403406661944e-24
-0.49686336509375195	-1.8690840433573315e-24
-0.49680232993750195	-2.1117914796971058e-24
-0.49674129478125195	-2.3527571810896345e-24
-0.49668025962500195	-2.5917709867337014e-24
-0.49661922446875195	-2.828619922147003e-24
-0.49655818931250195	-3.0631043579151887e-24
-0.49649715415625195	-3.295024436454776e-24
-0.49643611900000195	-3.524175452655934e-24
-0.49637508384375195	-3.7503588932245485e-24
-0.49631404868750195	-3.9733764646912846e-24
-0.49625301353125195	-4.193035076540463e-24
-0.49619197837500195	-4.409151580954264e-24
-0.49613094321875195	-4.621536149213722e-24
-0.49606990806250195	-4.829996174543003e-24
-0.49600887290625195	-5.034354175967956e-24
-0.49594783775000195	-5.234437947376297e-24
-0.49588680259375195	-5.43007168307381e-24
-0.49582576743750195	-5.6210837999962044e-24
-0.49576473228125195	-5.807306923296004e-24
-0.49570369712500195	-5.988579026288142e-24
-0.49564266196875195	-6.164747109232616e-24
-0.49558162681250195	-6.335656968651316e-24
-0.49552059165625195	-6.501152337838547e-24
-0.49545955650000195	-6.661093164002754e-24
-0.49539852134375195	-6.81534815268885e-24
-0.49533748618750195	-6.963776375188072e-24
-0.49527645103125195	-7.106242178825424e-24
-0.49521541587500195	-7.242626028629433e-24
-0.49515438071875195	-7.372813838125669e-24
-0.49509334556250195	-7.496691191188913e-24
-0.49503231040625195	-7.614144649923078e-24
-0.49497127525000195	-7.725070498226731e-24
-0.49491024009375195	-7.829376032961216e-24
-0.49484920493750195	-7.926969973337784e-24
-0.49478816978125195	-8.017766585977016e-24
-0.49472713462500195	-8.101687030965916e-24
-0.49466609946875195	-8.178653808210952e-24
-0.49460506431250195	-8.248599727026195e-24
-0.49454402915625195	-8.311467704411185e-24
-0.49448299400000195	-8.367202008040503e-24
-0.49442195884375195	-8.415751040030601e-24
-0.49436092368750195	-8.457070618338245e-24
-0.49429988853125195	-8.491125813038872e-24
-0.49423885337500195	-8.517888615349084e-24
-0.49417781821875195	-8.53733366647979e-24
-0.49411678306250195	-8.549441831864745e-24
-0.49405574790625195	-8.554202947882362e-24
-0.49399471275000195	-8.551613311465018e-24
-0.49393367759375195	-8.541674016401909e-24
-0.49387264243750195	-8.524392427582369e-24
-0.49381160728125195	-8.499783595429314e-24
-0.49375057212500195	-8.467869425843575e-24
-0.49368953696875195	-8.42867701558023e-24
-0.49362850181250195	-8.382238206731482e-24
-0.49356746665625195	-8.328592918381533e-24
-0.49350643150000195	-8.267789977445109e-24
-0.49344539634375195	-8.199883174523982e-24
-0.49338436118750195	-8.124928596133985e-24
-0.49332332603125195	-8.042987678322275e-24
-0.49326229087500195	-7.954135594289224e-24
-0.49320125571875195	-7.858454252805491e-24
-0.49314022056250195	-7.756021172986198e-24
-0.49307918540625195	-7.646922722123292e-24
-0.49301815025000195	-7.53125848316687e-24
-0.49295711509375195	-7.40912939809669e-24
-0.49289607993750195	-7.280640023085369e-24
-0.49283504478125195	-7.14590279008994e-24
-0.49277400962500195	-7.005036195934083e-24
-0.49271297446875195	-6.85816194903651e-24
-0.49265193931250195	-6.705406480048441e-24
-0.49259090415625195	-6.54690620559579e-24
-0.49252986900000195	-6.382801093475527e-24
-0.49246883384375195	-6.213231133666272e-24
-0.49240779868750195	-6.038343196767471e-24
-0.49234676353125195	-5.8582924960975486e-24
-0.49228572837500195	-5.67323816566473e-24
-0.49222469321875195	-5.483340624811356e-24
-0.49216365806250195	-5.288765179421043e-24
-0.49210262290625195	-5.0896823377038094e-24
-0.49204158775000195	-4.886266302286647e-24
-0.49198055259375195	-4.678695933572789e-24
-0.49191951743750195	-4.467153648556271e-24
-0.49185848228125195	-4.251824925395463e-24
-0.49179744712500195	-4.032897753827264e-24
-0.49173641196875195	-3.810561157836e-24
-0.49167537681250195	-3.5850119855009635e-24
-0.49161434165625195	-3.356454463488732e-24
-0.49155330650000195	-3.1250848819369867e-24
-0.49149227134375195	-2.8910987959039822e-24
-0.49143123618750195	-2.6547065469569716e-24
-0.49137020103125195	-2.4161239881796964e-24
-0.49130916587500195	-2.1755561786783223e-24
-0.49124813071875195	-1.9332058700655446e-24
-0.49118709556250195	-1.689290238734399e-24
-0.49112606040625195	-1.444030192875152e-24
-0.49106502525000195	-1.1976401085896284e-24
-0.49100399009375195	-9.503311904448614e-25
-0.49094295493750195	-7.023195741176395e-25
-0.49088191978125195	-4.53829910790361e-25
-0.49082088462500195	-2.0508104211851607e-25
-0.49075984946875195	4.3713238649505445e-26
-0.49069881431250195	2.923316571533267e-25
-0.49063777915625195	5.405535144027291e-25
-0.49057674400000195	7.881619071818777e-25
-0.49051570884375195	1.0349392018127324e-24
-0.49045467368750195	1.2806669869479822e-24
-0.49039363853125195	1.5251260275849457e-24
-0.49033260337500195	1.76810349347744e-24
-0.49027156821875195	2.0093884353752202e-24
-0.49021053306250195	2.248763312837394e-24
-0.49014949790625195	2.486014670359467e-24
-0.49008846275000195	2.7209368073117188e-24
-0.49002742759375195	2.9533236023576687e-24
-0.48996639243750195	3.1829679147786303e-24
-0.48990535728125195	3.4096662774869714e-24
-0.48984432212500195	3.633219334497659e-24
-0.48978328696875195	3.853427075787813e-24
-0.48972225181250195	4.0700954563707425e-24
-0.48966121665625195	4.283038402320513e-24
-0.48960018150000195	4.492063706800002e-24
-0.48953914634375195	4.69698198472036e-24
-0.48947811118750195	4.897614623324984e-24
-0.48941707603125195	5.0937856519472254e-24
-0.48935604087500195	5.28532425344448e-24
-0.48929500571875195	5.472058195333492e-24
-0.48923397056250195	5.6538148571258345e-24
-0.48917293540625195	5.8304366415114026e-24
-0.48911190025000195	6.0017750565934865e-24
-0.48905086509375195	6.167675312182729e-24
-0.48898982993750195	6.327981187458855e-24
-0.48892879478125195	6.482552868141359e-24
-0.48886775962500195	6.631261094087741e-24
-0.48880672446875195	6.773969992770279e-24
-0.48874568931250195	6.910548261935907e-24
-0.48868465415625195	7.04087731407096e-24
-0.48862361900000195	7.164841506335393e-24
-0.48856258384375195	7.28233078025974e-24
-0.48850154868750195	7.393240456587188e-24
-0.48844051353125195	7.497468842987701e-24
-0.48837947837500195	7.594924258395524e-24
-0.48831844321875195	7.685521915092711e-24
-0.48825740806250195	7.769179759217971e-24
-0.48819637290625195	7.84582072929564e-24
-0.48813533775000195	7.915376241110872e-24
-0.48807430259375195	7.977786631849118e-24
-0.48801326743750195	8.032995049274942e-24
-0.48795223228125195	8.080949718270495e-24
-0.48789119712500195	8.121608263787892e-24
-0.48783016196875195	8.154934397493816e-24
-0.48776912681250195	8.180897154675657e-24
-0.48770809165625195	8.199472815270885e-24
-0.48764705650000195	8.21064433241514e-24
-0.48758602134375195	8.214400128614115e-24
-0.48752498618750195	8.21073623614957e-24
-0.48746395103125195	8.19965603046589e-24
-0.48740291587500195	8.181167628901414e-24
-0.48734188071875195	8.155285886847484e-24
-0.48728084556250195	8.122033937734345e-24
-0.48721981040625195	8.081441036282781e-24
-0.48715877525000195	8.033541296866805e-24
-0.48709774009375195	7.97837583435042e-24
-0.48703670493750195	7.915994194905279e-24
-0.48697566978125195	7.846450864273568e-24
-0.48691463462500195	7.76980559204436e-24
-0.48685359946875195	7.686127277414001e-24
-0.48679256431250195	7.595489602628434e-24
-0.48673152915625195	7.497969599281633e-24
-0.48667049400000195	7.393654139189766e-24
-0.48660945884375195	7.282638494615697e-24
-0.48654842368750195	7.16501997053212e-24
-0.48648738853125195	7.040898851080589e-24
-0.48642635337500195	6.910384767929712e-24
-0.48636531821875195	6.773596808044896e-24
-0.48630428306250195	6.630656347740301e-24
-0.48624324790625195	6.4816876064092345e-24
-0.48618221275000195	6.3268229359157695e-24
-0.48612117759375195	6.1661989480961305e-24
-0.48606014243750195	5.9999574491027406e-24
-0.48599910728125195	5.8282506460914266e-24
-0.48593807212500195	5.6512300980251944e-24
-0.48587703696875195	5.469046684497943e-24
-0.48581600181250195	5.281865633731817e-24
-0.48575496665625195	5.08985631658665e-24
-0.48569393150000195	4.893187240060908e-24
-0.48563289634375195	4.692036507178269e-24
-0.48557186118750195	4.486578837965374e-24
-0.48551082603125195	4.276991204014041e-24
-0.48544979087500195	4.063471797630817e-24
-0.48538875571875195	3.8462155829766334e-24
-0.48532772056250195	3.625402487876937e-24
-0.48526668540625195	3.4012261574018385e-24
-0.48520565025000195	3.1738981867935472e-24
-0.48514461509375195	2.9436251474120374e-24
-0.48508357993750195	2.7106052027749872e-24
-0.48502254478125195	2.4750412265556407e-24
-0.48496150962500195	2.237146694531174e-24
-0.48490047446875195	1.997142085807752e-24
-0.48483943931250195	1.755242272756924e-24
-0.48477840415625195	1.511652742191367e-24
-0.48471736900000195	1.2665908816751692e-24
-0.48465633384375195	1.0202889146773547e-24
-0.48459529868750195	7.729652102387762e-25
-0.48453426353125195	5.248312126819724e-25
-0.48447322837500195	2.761141546297672e-25
-0.48441219321875195	2.704044511736714e-26
-0.48435115806250195	-2.221689612781952e-25
-0.48429012290625195	-4.7128894333555385e-25
-0.48422908775000195	-7.200985214996613e-25
-0.48416805259375195	-9.683740956059366e-25
-0.48410701743750195	-1.215887667842064e-24
-0.48404598228125195	-1.46242061036674e-24
-0.48398494712500195	-1.7077542964193427e-24
-0.48392391196875195	-1.9516623322846535e-24
-0.48386287681250195	-2.1939229009973588e-24
-0.48380184165625195	-2.4343250598940037e-24
-0.48374080650000195	-2.6726520874917296e-24
-0.48367977134375195	-2.908679280687514e-24
-0.48361873618750195	-3.142200793651698e-24
-0.48355770103125195	-3.373012796110661e-24
-0.48349666587500195	-3.6008930259922736e-24
-0.48343563071875195	-3.825634837622705e-24
-0.48337459556250195	-4.047048204204278e-24
-0.48331356040625195	-4.2649305407525406e-24
-0.48325252525000195	-4.479075486297987e-24
-0.48319149009375195	-4.6892892665801815e-24
-0.48313045493750195	-4.895385074087835e-24
-0.48306941978125195	-5.097177735471326e-24
-0.48300838462500195	-5.294486653017631e-24
-0.48294734946875195	-5.4871268665114866e-24
-0.48288631431250195	-5.674914274778258e-24
-0.48282527915625195	-5.857687189881961e-24
-0.48276424400000195	-6.035288393881089e-24
-0.48270320884375195	-6.2075463414913816e-24
-0.48264217368750195	-6.37429582380918e-24
-0.48258113853125195	-6.535390026418602e-24
-0.48252010337500195	-6.690686274875899e-24
-0.48245906821875195	-6.840039321321722e-24
-0.48239803306250195	-6.98331101631424e-24
-0.48233699790625195	-7.120368839719036e-24
-0.48227596275000195	-7.251084175741858e-24
-0.48221492759375195	-7.375337689176316e-24
-0.48215389243750195	-7.493017053698884e-24
-0.48209285728125195	-7.60401369576295e-24
-0.48203182212500195	-7.708219517096881e-24
-0.48197078696875195	-7.805535181406585e-24
-0.48190975181250195	-7.895875175836882e-24
-0.48184871665625195	-7.979154161081959e-24
-0.48178768150000195	-8.055289610591645e-24
-0.48172664634375195	-8.124210858530716e-24
-0.48166561118750195	-8.18585212327999e-24
-0.48160457603125195	-8.240152147727013e-24
-0.48154354087500195	-8.287059010954935e-24
-0.48148250571875195	-8.32652692348249e-24
-0.48142147056250195	-8.358515051935168e-24
-0.48136043540625195	-8.382989667492333e-24
-0.48129940025000195	-8.399924451707067e-24
-0.48123836509375195	-8.40930015888807e-24
-0.48117732993750195	-8.411103689563776e-24
-0.48111629478125195	-8.405328420428815e-24
-0.48105525962500195	-8.39197468977755e-24
-0.48099422446875195	-8.371049787018554e-24
-0.48093318931250195	-8.342567951918957e-24
-0.48087215415625195	-8.30654962542947e-24
-0.48081111900000195	-8.263022568257443e-24
-0.48075008384375195	-8.212021659746708e-24
-0.48068904868750195	-8.153587091380276e-24
-0.48062801353125195	-8.087765463421003e-24
-0.48056697837500195	-8.014611856219675e-24
-0.48050594321875195	-7.934189590481236e-24
-0.48044490806250195	-7.84656425601146e-24
-0.48038387290625195	-7.751805519944184e-24
-0.48032283775000195	-7.649998183709716e-24
-0.48026180259375195	-7.541232496323212e-24
-0.48020076743750195	-7.425594471259135e-24
-0.48013973228125195	-7.303182250719542e-24
-0.48007869712500195	-7.174107731156719e-24
-0.48001766196875195	-7.038480390452928e-24
-0.47995662681250195	-6.896412684879195e-24
-0.47989559165625195	-6.748031295274441e-24
-0.47983455650000195	-6.5934661345126335e-24
-0.47977352134375195	-6.432847093179461e-24
-0.47971248618750195	-6.266316228276297e-24
-0.47965145103125195	-6.094022086316636e-24
-0.47959041587500195	-5.916111002540281e-24
-0.47952938071875195	-5.7327358073271084e-24
-0.47946834556250195	-5.54406089918395e-24
-0.47940731040625195	-5.350254254109537e-24
-0.47934627525000195	-5.151482941572018e-24
-0.47928524009375195	-4.947917152949904e-24
-0.47922420493750195	-4.7397388253973546e-24
-0.47916316978125195	-4.5271363613383914e-24
-0.47910213462500195	-4.310290793752879e-24
-0.47904109946875195	-4.089390798152577e-24
-0.47898006431250195	-3.864639438798269e-24
-0.47891902915625195	-3.6362324032449046e-24
-0.47885799400000195	-3.404363374234573e-24
-0.47879695884375195	-3.169243459479092e-24
-0.47873592368750195	-2.9310861063137777e-24
-0.47867488853125195	-2.6900943770882293e-24
-0.47861385337500195	-2.446481633373601e-24
-0.47855281821875195	-2.200469090384624e-24
-0.47849178306250195	-1.9522684976833368e-24
-0.47843074790625195	-1.7021004554989696e-24
-0.47836971275000195	-1.4501957567520328e-24
-0.47830867759375195	-1.196773071019589e-24
-0.47824764243750195	-9.420522022125632e-25
-0.47818660728125195	-6.862635542495316e-25
-0.47812557212500195	-4.296340361787676e-25
-0.47806453696875195	-1.723956649998026e-25
-0.47800350181250195	8.521730890584685e-26
-0.47794246665625195	3.429893002331755e-25
-0.47788143150000195	6.006948769682455e-25
-0.47782039634375195	8.580838708268716e-25
-0.47775936118750195	1.114926280337731e-24
-0.47769832603125195	1.3710101889015077e-24
-0.47763729087500195	1.626107115202003e-24
-0.47757625571875195	1.8799770720352404e-24
-0.47751522056250195	2.132388761293469e-24
-0.47745418540625195	2.383127698204987e-24
-0.47739315025000195	2.6319718548922625e-24
-0.47733211509375195	2.8786875977443065e-24
-0.47727107993750195	3.1230586878406193e-24
-0.47721004478125195	3.364870310508549e-24
-0.47714900962500195	3.603896701990519e-24
-0.47708797446875195	3.839925514008297e-24
-0.47702693931250195	4.072752762084099e-24
-0.47696590415625195	4.302163748935763e-24
-0.47690486900000195	4.527946384045137e-24
-0.47684383384375195	4.7499047303016616e-24
-0.47678279868750195	4.9678399218404984e-24
-0.47672176353125195	5.181550001754399e-24
-0.47666072837500195	5.3908454598875734e-24
-0.47659969321875195	5.595538153919883e-24
-0.47653865806250195	5.7954415526506234e-24
-0.47647762290625195	5.990375504413852e-24
-0.47641658775000195	6.1801634397352706e-24
-0.47635555259375195	6.364636302499066e-24
-0.47629451743750195	6.543624391327712e-24
-0.47623348228125195	6.716962692236082e-24
-0.47617244712500195	6.884500426021373e-24
-0.47611141196875195	7.046085130745084e-24
-0.47605037681250195	7.201562832179021e-24
-0.47598934165625195	7.35079434406695e-24
-0.47592830650000195	7.493650465248649e-24
-0.47586727134375195	7.629998262746898e-24
-0.47580623618750195	7.759706684833293e-24
-0.47574520103125195	7.882659619604692e-24
-0.47568416587500195	7.99875035066955e-24
-0.47562313071875195	8.107870233466804e-24
-0.47556209556250195	8.209914373189434e-24
-0.47550106040625195	8.30478979848673e-24
-0.47544002525000195	8.392411530225636e-24
-0.47537899009375195	8.472699050968864e-24
-0.47531795493750195	8.545575734018972e-24
-0.47525691978125195	8.610971838649786e-24
-0.47519588462500195	8.668827824203992e-24
-0.47513484946875195	8.719089862669878e-24
-0.47507381431250195	8.761709174094797e-24
-0.47501277915625195	8.796644591381685e-24
-0.47495174400000195	8.82386170115657e-24
-0.47489070884375195	8.843333122925219e-24
-0.47482967368750195	8.855038934984592e-24
-0.47476863853125195	8.858966182358544e-24
-0.47470760337500195	8.85510782866821e-24
-0.47464656821875195	8.843463650030461e-24
-0.47458553306250195	8.824042078053372e-24
-0.47452449790625195	8.796858426328237e-24
-0.47446346275000195	8.761932876160549e-24
-0.47440242759375195	8.719292696046674e-24
-0.47434139243750195	8.668975335691946e-24
-0.47428035728125195	8.611024660484294e-24
-0.47421932212500195	8.545486238559144e-24
-0.47415828696875195	8.472414668262752e-24
-0.47409725181250195	8.391876989219263e-24
-0.47403621665625195	8.303943445975038e-24
-0.47397518150000195	8.208686650716281e-24
-0.47391414634375195	8.106187973282943e-24
-0.47385311118750195	7.996538955070079e-24
-0.47379207603125195	7.879837995340216e-24
-0.47373104087500195	7.756185980772646e-24
-0.47367000571875195	7.62568721880087e-24
-0.47360897056250195	7.488456396248943e-24
-0.47354793540625195	7.34461955080436e-24
-0.47348690025000195	7.194304421938085e-24
-0.47342586509375195	7.037636246181964e-24
-0.47336482993750195	6.874751570582329e-24
-0.47330379478125195	6.70580377846861e-24
-0.47324275962500195	6.530942825261402e-24
-0.47318172446875195	6.350314141480637e-24
-0.47312068931250195	6.164077279047438e-24
-0.47305965415625195	5.972404945242428e-24
-0.47299861900000195	5.775470378289637e-24
-0.47293758384375195	5.573441037158419e-24
-0.47287654868750195	5.366491165497385e-24
-0.47281551353125195	5.154812345009417e-24
-0.47275447837500195	4.9385969981509645e-24
-0.47269344321875195	4.718033532619571e-24
-0.47263240806250195	4.493316299120183e-24
-0.47257137290625195	4.26464158955676e-24
-0.47251033775000195	4.03221740244451e-24
-0.47244930259375195	3.796261131857866e-24
-0.47238826743750195	3.556975183420601e-24
-0.47232723228125195	3.3145631260054005e-24
-0.47226619712500195	3.0692499007016315e-24
-0.47220516196875195	2.8212626955644376e-24
-0.47214412681250195	2.5708180940764055e-24
