Time	Frequency
-0.50002384175	0.28543032620428127
-0.49996280659375003	0.2943865213976187
-0.49990177143750003	0.30309166187909925
-0.49984073628125003	0.3115379983378232
-0.49977970112500003	0.31971786379973127
-0.49971866596875003	0.3276241468378741
-0.49965763081250003	0.33524999350360635
-0.49959659565625003	0.3425884167563264
-0.49953556050000003	0.34963281186481787
-0.49947452534375003	0.356377048512034
-0.49941349018750003	0.3628151163391788
-0.49935245503125003	0.368941261450236
-0.49929141987500003	0.37474991328312895
-0.49923038471875003	0.38023574388608283
-0.49916934956250003	0.3853939857646258
-0.49910831440625003	0.3902200992671835
-0.49904727925000003	0.39470950673494165
-0.49898624409375003	0.39885801837886087
-0.49892520893750003	0.4026620187351181
-0.49886417378125003	0.40611808171530883
-0.49880313862500003	0.40922291832847574
-0.49874210346875003	0.4119736128170898
-0.49868106831250003	0.4143675713361533
-0.49862003315625003	0.4164025507513694
-0.49855899800000003	0.4180766472841384
-0.49849796284375003	0.41938815108400573
-0.49843692768750003	0.42033569364887274
-0.49837589253125003	0.4209182939754282
-0.49831485737500003	0.42113523241260076
-0.49825382221875003	0.4209861177260132
-0.49819278706250003	0.4204708946847594
-0.49813175190625003	0.4195897949771086
-0.49807071675000003	0.4183433818689762
-0.49800968159375003	0.41673253319988846
-0.49794864643750003	0.414758440176297
-0.49788761128125003	0.4124226384869011
-0.49782657612500003	0.40972695989620694
-0.49776554096875003	0.40667352740969814
-0.49770450581250003	0.4032647883404315
-0.49764347065625003	0.39950350934932194
-0.49758243550000003	0.39539278552762813
-0.49752140034375003	0.3909359928333392
-0.49746036518750003	0.3861367685574213
-0.49739933003125003	0.3809991201174835
-0.49733829487500003	0.37552734055742537
-0.49727725971875003	0.36972595231899497
-0.49721622456250003	0.36359981780641715
-0.49715518940625003	0.35715407770615565
-0.49709415425000003	0.35039419549817574
-0.49703311909375003	0.3433258950108945
-0.49697208393750003	0.33595497808371305
-0.49691104878125003	0.32828767500187306
-0.49685001362500003	0.32033074234701703
-0.49678897846875003	0.3120908385609873
-0.49672794331250003	0.3035747049950446
-0.49666690815625003	0.29478973631714384
-0.49660587300000003	0.2857435261749938
-0.49654483784375003	0.2764436682909485
-0.49648380268750003	0.2668981172416635
-0.49642276753125003	0.2571150308074043
-0.49636173237500003	0.24710263560330203
-0.49630069721875003	0.23686959589431347
-0.49623966206250003	0.22642485421942754
-0.49617862690625003	0.21577714852010257
-0.49611759175000003	0.20493547218198863
-0.49605655659375003	0.19390934506780125
-0.49599552143750003	0.18270824978630934
-0.49593448628125003	0.17134167067481368
-0.49587345112500003	0.15981945277947684
-0.49581241596875003	0.1481515160072524
-0.49575138081250003	0.1363478056575489
-0.49569034565625003	0.12441850744471694
-0.49562931050000003	0.1123740050690609
-0.49556827534375003	0.10022475145416844
-0.49550724018750003	0.08798092957242121
-0.49544620503125003	0.07565305475360071
-0.49538516987500003	0.06325226217463567
-0.49532413471875003	0.05078910261138653
-0.49526309956250003	0.03827392773499749
-0.49520206440625003	0.02571778846513271
-0.49514102925000003	0.013131757335484313
-0.49507999409375003	0.0005266359257614366
-0.49501895893750003	-0.01208676565323415
-0.49495792378125003	-0.024697558624129725
-0.49489688862500003	-0.03729479354803455
-0.49483585346875003	-0.04986748878972439
-0.49477481831250003	-0.06240464550285295
-0.49471378315625003	-0.07489540497803175
-0.49465274800000003	-0.08732915387953742
-0.49459171284375003	-0.0996951318560049
-0.49453067768750003	-0.11198226035615534
-0.49446964253125003	-0.12417982126187653
-0.49440860737500003	-0.13627754989384183
-0.49434757221875003	-0.14826493141255503
-0.49428653706250003	-0.16013128194302706
-0.49422550190625003	-0.17186625703258607
-0.49416446675000003	-0.18345981925878116
-0.49410343159375003	-0.19490187249610907
-0.49404239643750003	-0.20618225874045598
-0.49398136128125003	-0.2172912497280165
-0.49392032612500003	-0.2282192610148129
-0.49385929096875003	-0.23895652658222832
-0.49379825581250003	-0.2494937270754813
-0.49373722065625003	-0.25982183994258945
-0.49367618550000003	-0.2699317160108521
-0.49361515034375003	-0.27981439230091293
-0.49355411518750003	-0.2894613055628556
-0.49349308003125003	-0.2988641590562387
-0.49343204487500003	-0.3080145839657975
-0.49337100971875003	-0.31690444274844126
-0.49330997456250003	-0.32552610059614706
-0.49324893940625003	-0.3338720145339854
-0.49318790425000003	-0.3419347932712144
-0.49312686909375003	-0.3497073150381498
-0.49306583393750003	-0.3571827028266743
-0.49300479878125003	-0.3643544897621016
-0.49294376362500003	-0.3712164648672037
-0.49288272846875003	-0.3777624097871406
-0.49282169331250003	-0.383986394438438
-0.49276065815625003	-0.38988311989015123
-0.49269962300000003	-0.39544755104435647
-0.49263858784375003	-0.4006745840411933
-0.49257755268750003	-0.405559388325254
-0.49251651753125003	-0.41009776659562364
-0.49245548237500003	-0.4142858747104598
-0.49239444721875003	-0.41811988788424054
-0.49233341206250003	-0.4215962329157429
-0.49227237690625003	-0.4247118120029853
-0.49221134175000003	-0.4274639375433667
-0.49215030659375003	-0.4298501825119404
-0.49208927143750003	-0.43186828659888193
-0.49202823628125003	-0.4335163249618692
-0.49196720112500003	-0.4347928437410447
-0.49190616596875003	-0.4356967149593724
-0.49184513081250003	-0.4362270360665984
-0.49178409565625003	-0.436383211069251
-0.49172306050000003	-0.4361650214667768
-0.49166202534375003	-0.43557259301932433
-0.49160099018750003	-0.4346063764021505
-0.49153995503125003	-0.433267137400492
-0.49147891987500003	-0.4315559311622505
-0.49141788471875003	-0.4294741721723958
-0.49135684956250003	-0.42702361549784745
-0.49129581440625003	-0.42420629518243974
-0.49123477925000003	-0.4210246165256706
-0.49117374409375003	-0.41748130954729645
-0.49111270893750003	-0.4135793451151415
-0.49105167378125003	-0.4093220254716175
-0.49099063862500003	-0.404713023770561
-0.49092960346875003	-0.39975636176159274
-0.49086856831250003	-0.3944562778323254
-0.49080753315625003	-0.38881722017383585
-0.49074649800000003	-0.3828441048541526
-0.49068546284375003	-0.376542180606869
-0.49062442768750003	-0.36991679168632097
-0.49056339253125003	-0.3629736415414473
-0.49050235737500003	-0.3557188628607396
-0.49044132221875003	-0.3481586864491712
-0.49038028706250003	-0.3402995086767495
-0.49031925190625003	-0.3321482506050222
-0.49025821675000003	-0.32371218933947227
-0.49019718159375003	-0.3149985251577138
-0.49013614643750003	-0.3060145717044329
-0.49007511128125003	-0.2967682879532284
-0.49001407612500003	-0.28726796233668916
-0.48995304096875003	-0.27752172519130885
-0.48989200581250003	-0.2675379282812603
-0.48983097065625003	-0.25732529833072737
-0.48976993550000003	-0.24689280588331658
-0.48970890034375003	-0.2362496092702015
-0.48964786518750003	-0.22540494712301082
-0.48958683003125003	-0.21436821402791384
-0.48952579487500003	-0.20314900933073693
-0.48946475971875003	-0.19175731042161284
-0.48940372456250003	-0.18020310207293158
-0.48934268940625003	-0.16849612958765567
-0.48928165425000003	-0.15664676802840544
-0.48922061909375003	-0.14466576071248358
-0.48915958393750003	-0.13256334273469547
-0.48909854878125003	-0.12034984443939087
-0.48903751362500003	-0.10803609895656632
-0.48897647846875003	-0.0956330760794629
-0.48891544331250003	-0.08315170197651217
-0.48885440815625003	-0.07060273157618838
-0.48879337300000003	-0.057996996927225736
-0.48873233784375003	-0.04534569933274234
-0.48867130268750003	-0.03266017215369712
-0.48861026753125003	-0.019951418130479057
-0.48854923237500003	-0.007230366198144549
-0.48848819721875003	0.005491676947686575
-0.48842716206250003	0.01820342720480534
-0.48836612690625003	0.030893742935844105
-0.48830509175000003	0.04355159562487304
-0.48824405659375003	0.056165904151390916
-0.48818302143750003	0.0687253137011829
-0.48812198628125003	0.0812188332863011
-0.48806095112500003	0.09363576820212823
-0.48799991596875003	0.10596505114564955
-0.48793888081250003	0.11819557225513126
-0.48787784565625003	0.1303166859734399
-0.48781681050000003	0.14231792972519966
-0.48775577534375003	0.15418867933756425
-0.48769474018750003	0.1659183328826911
-0.48763370503125003	0.17749643049515357
-0.48757266987500003	0.18891288829935096
-0.48751163471875003	0.2001578823212897
-0.48745059956250003	0.2112213254575
-0.48738956440625003	0.2220932939381658
-0.48732852925000003	0.2327642265099583
-0.48726749409375003	0.2432247365928695
-0.48720645893750003	0.25346578991544627
-0.48714542378125003	0.2634782730866541
-0.48708438862500003	0.2732530237062346
-0.48702335346875003	0.28278149932089036
-0.48696231831250003	0.29205552333376855
-0.48690128315625003	0.3010668470073682
-0.48684024800000003	0.30980736443571977
-0.48677921284375003	0.3182692306634282
-0.48671817768750003	0.32644496249876487
-0.48665714253125003	0.3343276021018864
-0.48659610737500003	0.3419101830724271
-0.48653507221875003	0.3491855977285786
-0.48647403706250003	0.35614737506898186
-0.48641300190625003	0.3627896879438064
-0.48635196675000003	0.3691066629785215
-0.48629093159375003	0.3750924216654259
-0.48622989643750003	0.38074159809058983
-0.48616886128125003	0.38604933311158673
-0.48610782612500003	0.39101094664549835
-0.48604679096875003	0.3956219239592418
-0.48598575581250003	0.39987814097933316
-0.48592472065625003	0.40377584616337836
-0.48586368550000003	0.40731152089805095
-0.48580265034375003	0.41048198552985715
-0.48574161518750003	0.4132844678291519
-0.48568058003125003	0.4157164572162859
-0.48561954487500003	0.41777569003143883
-0.48555850971875003	0.41946030372889365
-0.48549747456250003	0.42076883991734915
-0.48543643940625003	0.42170011313436606
-0.48537540425000003	0.42225321296306034
-0.48531436909375003	0.4224276052436144
-0.48525333393750003	0.422223126198223
-0.48519229878125003	0.4216399347886433
-0.48513126362500003	0.42067850868606904
-0.48507022846875003	0.4193396498171793
-0.48500919331250003	0.41762451630281144
-0.48494815815625003	0.4155346145423756
-0.48488712300000003	0.41307174485164017
-0.48482608784375003	0.41023804518882834
-0.48476505268750003	0.40703604484262035
-0.48470401753125003	0.40346856051669294
-0.48464298237500003	0.3995386451803903
-0.48458194721875003	0.3952497775838223
-0.48452091206250003	0.39060585039268786
-0.48445987690625003	0.3856108786582533
-0.48439884175000003	0.3802691943249461
-0.48433780659375003	0.3745856224308508
-0.48427677143750003	0.3685651728965592
-0.48421573628125003	0.362213133267875
-0.48415470112500003	0.35553516759634
-0.48409366596875003	0.34853713161257294
-0.48403263081250003	0.3412252557621405
-0.48397159565625003	0.333606077123153
-0.48391056050000003	0.32568623448515216
-0.48384952534375003	0.3174728118326693
-0.48378849018750003	0.30897318532235474
-0.48372745503125003	0.300194762862271
-0.48366641987500003	0.29114535929185176
-0.48360538471875003	0.2818331182078125
-0.48354434956250003	0.27226624181522785
-0.48348331440625003	0.262453225498295
-0.48342227925000003	0.25240287219350027
-0.48336124409375003	0.24212404383058467
-0.48330020893750003	0.23162588457902467
-0.48323917378125003	0.22091784985290344
-0.48317813862500003	0.21000943984715476
-0.48311710346875003	0.19891029763897883
-0.48305606831250003	0.18763031469033098
-0.48299503315625003	0.1761796796647627
-0.48293399800000003	0.16456862750714865
-0.48287296284375003	0.1528073268681882
-0.48281192768750003	0.14090630868402415
-0.48275089253125003	0.12887635119987031
-0.48268985737500003	0.11672817378905057
-0.48262882221875003	0.1044726050239857
-0.48256778706250003	0.09212054930303747
-0.48250675190625003	0.07968294928274468
-0.48244571675000003	0.06717112282271646
-0.48238468159375003	0.054596439198115576
-0.48232364643750003	0.041969855252278435
-0.48226261128125003	0.029302581397155344
-0.48220157612500003	0.016606192116843967
-0.48214054096875003	0.003892099429430659
-0.48207950581250003	-0.008828289675678046
-0.48201847065625003	-0.021543658758101096
-0.48195743550000003	-0.03424273234062637
-0.48189640034375003	-0.046913954914076426
-0.48183536518750003	-0.05954584691032426
-0.48177433003125003	-0.07212711009597887
-0.48171329487500003	-0.08464649370604158
-0.48165225971875003	-0.09709281352158852
-0.48159122456250003	-0.10945480879292198
-0.48153018940625003	-0.12172128158703134
-0.48146915425000003	-0.13388116093218985
-0.48140811909375003	-0.14592352327163052
-0.48134708393750003	-0.15783762045194574
-0.48128604878125003	-0.16961268717454261
-0.48122501362500003	-0.18123801523392646
-0.48116397846875003	-0.19270304888284323
-0.48110294331250003	-0.20399744896149516
-0.48104190815625003	-0.21511112362891463
-0.48098087300000003	-0.22603407889117982
-0.48091983784375003	-0.23675627784963782
-0.48085880268750003	-0.24726786631161812
-0.48079776753125003	-0.25755949108474885
-0.48073673237500003	-0.2676219289810012
-0.48067569721875003	-0.2774459298202975
-0.48061466206250003	-0.28702252946494766
-0.48055362690625003	-0.2963429778611765
-0.48049259175000003	-0.30539881615073455
-0.48043155659375003	-0.3141819502691027
-0.48037052143750003	-0.32268429471091903
-0.48030948628125003	-0.33089793017143326
-0.48024845112500003	-0.3388154272375725
-0.48018741596875003	-0.34642960594602523
-0.48012638081250003	-0.35373350801753406
-0.48006534565625003	-0.36072042088337736
-0.48000431050000003	-0.3673837353569447
-0.47994327534375003	-0.3737173425801592
-0.47988224018750003	-0.37971565910364885
-0.47982120503125003	-0.3853730734524323
-0.47976016987500003	-0.390684115937181
-0.47969913471875003	-0.3956438653525673
-0.47963809956250003	-0.4002478595174777
-0.47957706440625003	-0.40449180377669797
-0.47951602925000003	-0.4083716022031387
-0.47945499409375003	-0.4118835710487432
-0.47939395893750003	-0.4150244092183667
-0.47933292378125003	-0.41779112034249977
-0.47927188862500003	-0.42018101165613664
-0.47921085346875003	-0.42219176089561433
-0.47914981831250003	-0.423821367356598
-0.47908878315625003	-0.42506812286390067
-0.47902774800000003	-0.42593073057816294
-0.47896671284375003	-0.4264082551857278
-0.47890567768750003	-0.4265000339368323
-0.47884464253125003	-0.4262057625357913
-0.47878360737500003	-0.42552552417078005
-0.47872257221875003	-0.4244597148658996
-0.47866153706250003	-0.42300906958714646
-0.47860050190625003	-0.42117470820861413
-0.47853946675000003	-0.4189580862310294
-0.47847843159375003	-0.41636093624199294
-0.47841739643750003	-0.41338536704251927
-0.47835636128125003	-0.4100339351632469
-0.47829532612500003	-0.4063093955983113
-0.47823429096875003	-0.4022147902937206
-0.47817325581250003	-0.39775372767095973
-0.47811222065625003	-0.39293002678171574
-0.47805118550000003	-0.3877476601202162
-0.47799015034375003	-0.3822111197582262
-0.47792911518750003	-0.37632526213477
-0.47786808003125003	-0.3700951454694209
-0.47780704487500003	-0.3635261854082725
-0.47774600971875003	-0.3566240371154342
-0.47768497456250003	-0.3493945629764825
-0.47762393940625003	-0.3418442230224431
-0.47756290425000003	-0.33397981571906415
-0.47750186909375003	-0.32580799642722
-0.47744083393750003	-0.3173356850706481
-0.47737979878125003	-0.3085705181461338
-0.47731876362500003	-0.29952043696989716
-0.47725772846875003	-0.29019321418217725
-0.47719669331250003	-0.2805968554614704
-0.47713565815625003	-0.2707398709229044
-0.47707462300000003	-0.26063116915056206
-0.47701358784375003	-0.2502797283680844
-0.47695255268750003	-0.23969434989103885
-0.47689151753125003	-0.22888435807922186
-0.47683048237500003	-0.21785965577821473
-0.47676944721875003	-0.20662999844426608
-0.47670841206250003	-0.19520512044302582
-0.47664737690625003	-0.18359507294453123
-0.47658634175000003	-0.17181023629362718
-0.47652530659375003	-0.15986130049006003
-0.47646427143750003	-0.1477588087070041
-0.47640323628125003	-0.13551320843553546
-0.47634220112500003	-0.12313554907498839
-0.47628116596875003	-0.11063700803922757
-0.47622013081250003	-0.09802858701174945
-0.47615909565625003	-0.08532155981178109
-0.47609806050000003	-0.07252719070509941
-0.47603702534375003	-0.05965677914605228
-0.47597599018750003	-0.0467220219533167
-0.47591495503125003	-0.03373451660110624
-0.47585391987500003	-0.020705660216728226
-0.47579288471875003	-0.007647142884828475
-0.47573184956250003	0.005429337220450139
-0.47567081440625003	0.01851214190072614
-0.47560977925000003	0.0315893850562707
-0.47554874409375003	0.04464932965247081
-0.47548770893750003	0.057680569743157155
-0.47542667378125003	0.07067142863217252
-0.47536563862500003	0.08360992711437445
-0.47530460346875003	0.09648451425536421
-0.47524356831250003	0.10928379392281846
-0.47518253315625003	0.12199622418496332
-0.47512149800000003	0.1346104781889855
-0.47506046284375003	0.14711511144015796
-0.47499942768750003	0.15949871269998347
-0.47493839253125003	0.17175024931623806
-0.47487735737500003	0.18385879527603272
-0.47481632221875003	0.1958135145842612
-0.47475528706250003	0.20760346606050928
-0.47469425190625003	0.2192178713526795
-0.47463321675000003	0.2306464226935955
-0.47457218159375003	0.2418788236399779
-0.47451114643750003	0.25290495975897226
-0.47445011128125003	0.2637148551712919
-0.47438907612500003	0.27429848173743854
-0.47432804096875003	0.28464637490696937
-0.47426700581250003	0.29474941023409146
-0.47420597065625003	0.3045982427614897
-0.47414493550000003	0.31418379325692075
-0.47408390034375003	0.3234975188548621
-0.47402286518750003	0.3325310037759439
-0.47396183003125003	0.34127587728029124
-0.47390079487500003	0.3497242020025794
-0.47383975971875003	0.3578684888006883
-0.47377872456250003	0.3657011377686889
-0.47371768940625003	0.37321478316059487
-0.47365665425000003	0.3804028397369049
-0.47359561909375003	0.38725884734572824
-0.47353458393750003	0.39377624871404426
-0.47347354878125003	0.39994900124892657
-0.47341251362500003	0.4057716293576715
-0.47335147846875003	0.41123876951369864
-0.47329044331250003	0.41634524665289485
-0.47322940815625003	0.42108636071168104
-0.47316837300000003	0.42545776174484917
-0.47310733784375003	0.42945534625006304
-0.47304630268750003	0.4330753541382507
-0.47298526753125003	0.4363144178478175
-0.47292423237500003	0.43916947409942475
-0.47286319721875003	0.4416377814888574
-0.47280216206250003	0.44371698334992815
-0.47274112690625003	0.44540506248997425
-0.47268009175000003	0.44670034090651134
-0.47261905659375003	0.4476015045774796
-0.47255802143750003	0.44810758998060246
-0.47249698628125003	0.4482179821218062
-0.47243595112500003	0.4479324188615367
-0.47237491596875003	0.44725099349045316
-0.47231388081250003	0.4461741924102742
-0.47225284565625003	0.44470285425502615
-0.47219181050000003	0.4428380825007092
-0.47213077534375003	0.44058136913200885
-0.47206974018750003	0.43793466457866065
-0.47200870503125003	0.43490022875754025
-0.47194766987500003	0.43148060427768326
-0.47188663471875003	0.42767864132884764
-0.47182559956250003	0.4234975972405528
-0.47176456440625003	0.41894122812090123
-0.47170352925000003	0.4140134933948926
-0.47164249409375003	0.40871851842886786
-0.47158145893750003	0.4030609506297057
-0.47152042378125003	0.39704584270532595
-0.47145938862500003	0.3906784185510097
-0.47139835346875003	0.3839642590554377
-0.47133731831250003	0.3769093119368135
-0.47127628315625003	0.3695197217320467
-0.47121524800000003	0.36180201351782776
-0.47115421284375003	0.3537630960354454
-0.47109317768750003	0.3454100031898809
-0.47103214253125003	0.3367500793393702
-0.47097110737500003	0.3277911574084086
-0.47091007221875003	0.31854115147824585
-0.47084903706250003	0.30900808748564385
-0.47078800190625003	0.29920050503615064
-0.47072696675000003	0.28912726378590986
-0.47066593159375003	0.27879741897149113
-0.47060489643750003	0.2682199781003037
-0.47054386128125003	0.25740409200709585
-0.47048282612500003	0.24635975750921918
-0.47042179096875003	0.23509708981945965
-0.47036075581250003	0.22362579955321893
