Time	Frequency
-0.5000467296562476	-0.2090216590196203
-0.49998569449999763	-0.1936741537834208
-0.49992465934374763	-0.17809613647696584
-0.49986362418749763	-0.16230603878208782
-0.49980258903124763	-0.1463233224306835
-0.49974155387499763	-0.13016776749410489
-0.49968051871874763	-0.11385855914320368
-0.49961948356249763	-0.09741565467009457
-0.49955844840624763	-0.08085922109984169
-0.49949741324999763	-0.06420900762797106
-0.49943637809374763	-0.0474855833117746
-0.49937534293749763	-0.03070967020938541
-0.49931430778124763	-0.013901251687439106
-0.49925327262499763	0.0029194047713580864
-0.49919223746874763	0.01973141009648197
-0.49913120231249763	0.036514249379544686
-0.49907016715624763	0.05324764947168209
-0.49900913199999763	0.06991102233006405
-0.49894809684374763	0.0864840575375913
-0.49888706168749763	0.10294668254565893
-0.49882602653124763	0.11927878998532193
-0.49876499137499763	0.13546036194349156
-0.49870395621874763	0.15147140651826127
-0.49864292106249763	0.16729243687793816
-0.49858188590624763	0.1829044379454566
-0.49852085074999763	0.19828818133716553
-0.49845981559374763	0.21342462246315694
-0.49839878043749763	0.22829535599323714
-0.49833774528124763	0.24288215337618013
-0.49827671012499763	0.2571671090460186
-0.49821567496874763	0.27113294311414615
-0.49815463981249763	0.2847624108590842
-0.49809360465624763	0.29803851786037167
-0.49803256949999763	0.3109452306626457
-0.49797153434374763	0.3234668453152206
-0.49791049918749763	0.3355876964597312
-0.49784946403124763	0.3472928840485062
-0.49778842887499763	0.35856821910216125
-0.49772739371874763	0.3693997843964817
-0.49766635856249763	0.37977407360391785
-0.49760532340624763	0.38967831180673207
-0.49754428824999763	0.39910040445640094
-0.49748325309374763	0.40802878613730226
-0.49742221793749763	0.41645231315024783
-0.49736118278124763	0.42436039101281225
-0.49730014762499763	0.43174336312236583
-0.49723911246874763	0.438592259116381
-0.49717807731249763	0.4448984296618508
-0.49711704215624763	0.4506538403551812
-0.49705600699999763	0.4558514292500248
-0.49699497184374763	0.4604848616682471
-0.49693393668749763	0.4645482031260815
-0.49687290153124763	0.46803622773439946
-0.49681186637499763	0.47094458483868107
-0.49675083121874763	0.47326963071127554
-0.49668979606249763	0.4750083559375386
-0.49662876090624763	0.47615839320441844
-0.49656772574999763	0.47671816601639955
-0.49650669059374763	0.47668689923818575
-0.49644565543749763	0.4760644792108699
-0.49638462028124763	0.47485145998211564
-0.49632358512499763	0.47304916453033274
-0.49626254996874763	0.4706596238771868
-0.49620151481249763	0.4676855728000118
-0.49614047965624763	0.464130606951559
-0.49607944449999763	0.4599989130429641
-0.49601840934374763	0.4552951950001109
-0.49595737418749763	0.4500250889277856
-0.49589633903124763	0.4441950689570914
-0.49583530387499763	0.43781212224446187
-0.49577426871874763	0.43088374542007973
-0.49571323356249763	0.4234181799177483
-0.49565219840624763	0.4154245529335713
-0.49559116324999763	0.4069126542135626
-0.49553012809374763	0.3978927319155009
-0.49546909293749763	0.3883755224246938
-0.49540805778124763	0.3783723471957119
-0.49534702262499763	0.36789553731135294
-0.49528598746874763	0.3569582319979693
-0.49522495231249763	0.3455733846111516
-0.49516391715624763	0.33375439494737014
-0.49510288199999763	0.32151593183388266
-0.49504184684374763	0.30887310157683207
-0.49498081168749763	0.2958412191012422
-0.49491977653124763	0.28243601995911755
-0.49485874137499763	0.26867365832197765
-0.49479770621874763	0.2545712411865295
-0.49473667106249763	0.24014611532109684
-0.49467563590624763	0.22541529792061005
-0.49461460074999763	0.21039693615089286
-0.49455356559374763	0.19510993998014897
-0.49449253043749763	0.17957270059488642
-0.49443149528124763	0.1638038002501617
-0.49437046012499763	0.14782267528793014
-0.49430942496874763	0.13164934129818964
-0.49424838981249763	0.11530355095041114
-0.49418735465624763	0.09880478632433849
-0.49412631949999763	0.08217339613455758
-0.49406528434374763	0.06543026311153485
-0.49400424918749763	0.04859573881123204
-0.49394321403124763	0.031690165555299465
-0.49388217887499763	0.014734459892008892
-0.49382114371874763	-0.0022503828198155887
-0.49376010856249763	-0.01924359146149419
-0.49369907340624763	-0.03622430370372971
-0.49363803824999763	-0.05317154601702245
-0.49357700309374763	-0.07006452726912933
-0.49351596793749763	-0.08688246795480202
-0.49345493278124763	-0.10360467489617367
-0.49339389762499763	-0.12021052609138577
-0.49333286246874763	-0.13667914467066702
-0.49327182731249763	-0.1529904208303924
-0.49321079215624763	-0.16912489326203434
-0.49314975699999763	-0.18506216776944404
-0.49308872184374763	-0.20078192775338363
-0.49302768668749763	-0.2162651383228612
-0.49296665153124763	-0.23149304939107532
-0.49290561637499763	-0.2464466553124242
-0.49284458121874763	-0.2611071689551992
-0.49278354606249763	-0.275456309167178
-0.49272251090624763	-0.2894764383245258
-0.49266147574999763	-0.3031503693635017
-0.49260044059374763	-0.3164609003217563
-0.49253940543749763	-0.3293913173916623
-0.49247837028124763	-0.34192573341325805
-0.49241733512499763	-0.3540485124852288
-0.49235629996874763	-0.365744382209345
-0.49229526481249763	-0.37699878985718105
-0.49223422965624763	-0.38779773600260814
-0.49217319449999763	-0.3981276824177544
-0.49211215934374763	-0.40797562115491315
-0.49205112418749763	-0.41732911897390823
-0.49199008903124763	-0.4261764919850652
-0.49192905387499763	-0.43450658165638073
-0.49186801871874763	-0.4423086950710424
-0.49180698356249763	-0.4495732085126993
-0.49174594840624763	-0.45629097876178987
-0.49168491324999763	-0.46245295827183003
-0.49162387809374763	-0.4680513421897954
-0.49156284293749763	-0.47307938115235476
-0.49150180778124763	-0.4775304204192514
-0.49144077262499763	-0.4813983615228772
-0.49137973746874763	-0.48467820281645596
-0.49131870231249763	-0.48736573863844107
-0.49125766715624763	-0.4894573129676625
-0.49119663199999763	-0.4909499434930518
-0.49113559684374763	-0.49184142088386457
-0.49107456168749763	-0.4921302925362826
-0.49101352653124763	-0.4918158912131889
-0.49095249137499763	-0.49089829355455666
-0.49089145621874763	-0.4893782459159307
-0.49083042106249763	-0.4872572074057662
-0.49076938590624763	-0.4845374169799541
-0.49070835074999763	-0.4812219299213213
-0.49064731559374763	-0.47731454017040004
-0.49058628043749763	-0.4728195871497129
-0.49052524528124763	-0.46774210740529515
-0.49046421012499763	-0.4620881382417671
-0.49040317496874763	-0.45586446803122743
-0.49034213981249763	-0.44907824309079886
-0.49028110465624763	-0.4417371991026857
-0.49022006949999763	-0.4338501900372474
-0.49015903434374763	-0.42542685250391504
-0.49009799918749763	-0.41647704869677676
-0.49003696403124763	-0.4070111958696829
-0.48997592887499763	-0.3970406704217939
-0.48991489371874763	-0.38657765517205034
-0.48985385856249763	-0.3756346602468688
-0.48979282340624763	-0.3642246922050603
-0.48973178824999763	-0.35236146606071134
-0.48967075309374763	-0.3400590993182316
-0.48960971793749763	-0.32733264782586624
-0.48954868278124763	-0.3141978659780963
-0.48948764762499763	-0.30067011493011814
-0.48942661246874763	-0.286765341945238
-0.48936557731249763	-0.2725009146120891
-0.48930454215624763	-0.25789441266679014
-0.48924350699999763	-0.2429632780898768
-0.48918247184374763	-0.22772536394097476
-0.48912143668749763	-0.21219904510193088
-0.48906040153124763	-0.19640350166451578
-0.48899936637499763	-0.1803582087942667
-0.48893833121874763	-0.164082397562453
-0.48887729606249763	-0.14759569199455802
-0.48881626090624763	-0.13091817466394184
-0.48875522574999763	-0.11407036903526638
-0.48869419059374763	-0.09707298824507726
-0.48863315543749763	-0.07994640192935187
-0.48857212028124763	-0.06271152190410731
-0.48851108512499763	-0.0453897161142013
-0.48845004996874763	-0.028001871638823603
-0.48838901481249763	-0.010569197115427573
-0.48832797965624763	0.006886752822214816
-0.48826694449999763	0.024344890685884545
-0.48820590934374763	0.04178371413757068
-0.48814487418749763	0.0591815138970497
-0.48808383903124763	0.07651752872127005
-0.48802280387499763	0.093770757330786
-0.48796176871874763	0.11091936846583586
-0.48790073356249763	0.12794214946082277
-0.48783969840624763	0.14481884390663924
-0.48777866324999763	0.16152892791518944
-0.48771762809374763	0.1780512731766446
-0.48765659293749763	0.19436550825536683
-0.48759555778124763	0.21045213331026452
-0.48753452262499763	0.22629111036429828
-0.48747348746874763	0.24186268931496951
-0.48741245231249763	0.2571482203267482
-0.48735141715624763	0.27212869461043193
-0.48729038199999763	0.2867852778855605
-0.48722934684374763	0.3011002513903049
-0.48716831168749763	0.31505608589182876
-0.48710727653124763	0.32863542009756774
-0.48704624137499763	0.34182137458201123
-0.48698520621874763	0.3545977203798924
-0.48692417106249763	0.3669488199813572
-0.48686313590624763	0.37885926477845466
-0.48680210074999763	0.39031437555600046
-0.48674106559374763	0.4013000510974617
-0.48668003043749763	0.4118024093204878
-0.48661899528124763	0.42180860155324057
-0.48655796012499763	0.431306473468527
-0.48649692496874763	0.44028390667953515
-0.48643588981249763	0.44872968135667535
-0.48637485465624763	0.4566335424997361
-0.48631381949999763	0.4639855733899095
-0.48625278434374763	0.47077657608287216
-0.48619174918749763	0.476998137644316
-0.48613071403124763	0.48264231367455307
-0.48606967887499763	0.4877021038219171
-0.48600864371874763	0.4921713714898011
-0.48594760856249763	0.4960442788823574
-0.48588657340624763	0.4993158113914254
-0.48582553824999763	0.5019820166761166
-0.48576450309374763	0.5040394980714338
-0.48570346793749763	0.5054854863309004
-0.48564243278124763	0.5063180746442805
-0.48558139762499763	0.5065361313341016
-0.48552036246874763	0.5061392567372618
-0.48545932731249763	0.5051278263776781
-0.48539829215624763	0.5035029712836449
-0.48533725699999763	0.5012665324456784
-0.48527622184374763	0.4984210694576394
-0.48521518668749763	0.4949700351730837
-0.48515415153124763	0.49091767792739155
-0.48509311637499763	0.48626871437502733
-0.48503208121874763	0.48102870162872385
-0.48497104606249763	0.4752041454960175
-0.48491001090624763	0.4688020044231926
-0.48484897574999763	0.46183003584567067
-0.48478794059374763	0.4542968879938912
-0.48472690543749763	0.4462116534800023
-0.48466587028124763	0.4375841124880289
-0.48460483512499763	0.4284247714874383
-0.48454379996874763	0.4187448723542701
-0.48448276481249763	0.4085565144953023
-0.48442172965624763	0.39787215133301
-0.48436069449999763	0.386704422918598
-0.48429965934374763	0.37506699992858206
-0.48423862418749763	0.3629747727929387
-0.48417758903124763	0.3504425391728516
-0.48411655387499763	0.33748515119439076
-0.48405551871874763	0.3241186662962853
-0.48399448356249763	0.31035978362111155
-0.48393344840624763	0.2962254486788322
-0.48387241324999763	0.28173283589863357
-0.48381137809374763	0.2668995730091602
-0.48375034293749763	0.2517444854997175
-0.48368930778124763	0.23628626327967606
-0.48362827262499763	0.22054319974148928
-0.48356723746874763	0.20453511660938142
-0.48350620231249763	0.18828222097673683
-0.48344516715624763	0.17180406507221135
-0.48338413199999763	0.1551209297908554
-0.48332309684374763	0.13825362947483094
-0.48326206168749763	0.12122290180780357
-0.48320102653124763	0.10404984222427975
-0.48313999137499763	0.08675579285770732
-0.48307895621874763	0.06936192747117992
-0.48301792106249763	0.051889557740239185
-0.48295688590624763	0.03436057868394011
-0.48289585074999763	0.016796966999276134
-0.48283481559374763	-0.0007798710147278152
-0.48277378043749763	-0.018348576449792063
-0.48271274528124763	-0.035887011673266106
-0.48265171012499763	-0.05337298607061149
-0.48259067496874763	-0.07078537248444954
-0.48252963981249763	-0.0881029378051011
-0.48246860465624763	-0.10530365548122979
-0.48240756949999763	-0.12236618826109344
-0.48234653434374763	-0.1392695968863257
-0.48228549918749763	-0.1559927373676113
-0.48222446403124763	-0.17251518987098052
-0.48216342887499763	-0.18881650516767579
-0.48210239371874763	-0.204875788694038
-0.48204135856249763	-0.2206733764019268
-0.48198032340624763	-0.23619020755604453
-0.48191928824999763	-0.2514064967155825
-0.48185825309374763	-0.26630316858447317
-0.48179721793749763	-0.28086216861284735
-0.48173618278124763	-0.2950653847772924
-0.48167514762499763	-0.30889481363752913
-0.48161411246874763	-0.3223331684027488
-0.48155307731249763	-0.33536413068480486
-0.48149204215624763	-0.3479716470526447
-0.48143100699999763	-0.36013959062704803
-0.48136997184374763	-0.371852720187885
-0.48130893668749763	-0.38309679155268284
-0.48124790153124763	-0.39385775277151447
-0.48118686637499763	-0.4041220488349795
-0.48112583121874763	-0.4138770445470769
-0.48106479606249763	-0.4231105728120082
-0.48100376090624763	-0.4318109450179711
-0.48094272574999763	-0.4399673235683955
-0.48088169059374763	-0.44756974143223577
-0.48082065543749763	-0.4546087185829153
-0.48075962028124763	-0.4610752396963652
-0.48069858512499763	-0.4669612402197986
-0.48063754996874763	-0.4722595330578885
-0.48057651481249763	-0.476963489680732
-0.48051547965624763	-0.4810671360268001
-0.48045444449999763	-0.48456531227886535
-0.48039340934374763	-0.4874536703090458
-0.48033237418749763	-0.48972864634739594
-0.48027133903124763	-0.491387381996831
-0.48021030387499763	-0.4924277127408955
-0.48014926871874763	-0.49284832202572765
-0.48008823356249763	-0.49264873785719265
-0.48002719840624763	-0.49182919548673093
-0.47996616324999763	-0.49039064765322354
-0.47990512809374763	-0.48833486795692754
-0.47984409293749763	-0.48566445607846553
-0.47978305778124763	-0.48238275374213546
-0.47972202262499763	-0.4784938167237677
-0.47966098746874763	-0.4740024413348975
-0.47959995231249763	-0.4689142721750406
-0.47953891715624763	-0.46323571361716215
-0.47947788199999763	-0.45697381993078
-0.47941684684374763	-0.4501364348266144
-0.47935581168749763	-0.4427320196623018
-0.47929477653124763	-0.43476984163349647
-0.47923374137499763	-0.42626004964709624
-0.47917270621874763	-0.4172131261622943
-0.47911167106249763	-0.40764030841444004
-0.47905063590624763	-0.39755376309677887
-0.47898960074999763	-0.38696613363434623
-0.47892856559374763	-0.37589064819082363
-0.47886753043749763	-0.364341018590319
-0.47880649528124763	-0.3523317090370734
-0.47874546012499763	-0.33987811702360704
-0.47868442496874763	-0.3269958423403059
-0.47862338981249763	-0.31370077052544104
-0.47856235465624763	-0.30000955874422397
-0.47850131949999763	-0.28593943443437925
-0.47844028434374763	-0.27150827046845616
-0.47837924918749763	-0.25673438329570575
-0.47831821403124763	-0.24163594558963084
-0.47825717887499763	-0.22623168372769165
-0.47819614371874763	-0.21054136587353162
-0.47813510856249763	-0.19458494866024836
-0.47807407340624763	-0.17838224508276468
-0.47801303824999763	-0.16195344747349164
-0.47795200309374763	-0.14531945600506455
-0.47789096793749763	-0.12850114004355623
-0.47782993278124763	-0.11151956617044578
-0.47776889762499763	-0.09439669111216242
-0.47770786246874763	-0.0771536963841716
-0.47764682731249763	-0.05981174464375501
-0.47758579215624763	-0.04239355715032655
-0.47752475699999763	-0.024921128606821094
-0.47746372184374763	-0.007415932251451218
-0.47740268668749763	0.010099661403901457
-0.47734165153124763	0.027603429751810654
-0.47728061637499763	0.04507340871527017
-0.47721958121874763	0.06248748124783492
-0.47715854606249763	0.07982348402632738
-0.47709751090624763	0.09705962770520205
-0.47703647574999763	0.11417425726876508
-0.47697544059374763	0.13114540889104725
-0.47691440543749763	0.14795151198815842
-0.47685337028124763	0.16457164126593868
-0.47679233512499763	0.1809847227628466
-0.47673129996874763	0.1971695236376572
-0.47667026481249763	0.21310562409770575
-0.47660922965624763	0.2287731433989244
-0.47654819449999763	0.24415193031914015
-0.47648715934374763	0.25922226349570604
-0.47642612418749763	0.27396523742080275
-0.47636508903124763	0.28836206251481844
-0.47630405387499763	0.3023942065723668
-0.47624301871874763	0.31604389269959693
-0.47618198356249763	0.32929386091817764
-0.47612094840624763	0.3421270867953838
-0.47605991324999763	0.3545269745781995
-0.47599887809374763	0.36647774609189054
-0.47593784293749763	0.37796435290880914
-0.47587680778124763	0.3889719855157511
-0.47581577262499763	0.3994863077726247
-0.47575473746874763	0.4094938813092957
-0.47569370231249763	0.41898183150748863
-0.47563266715624763	0.42793805013238967
-0.47557163199999763	0.4363510488049497
-0.47551059684374763	0.44420956652013804
-0.47544956168749763	0.45150351966180235
-0.47538852653124763	0.458223781631928
-0.47532749137499763	0.46436131767391853
-0.47526645621874763	0.4699078960773772
-0.47520542106249763	0.47485649055219736
-0.47514438590624763	0.4792006061731805
-0.47508335074999763	0.48293423656550943
-0.47502231559374763	0.4860524346010679
-0.47496128043749763	0.4885510677563067
-0.47490024528124763	0.4904265457271462
-0.47483921012499763	0.49167616400452757
-0.47477817496874763	0.4922981064760148
-0.47471713981249763	0.4922912739786994
-0.47465610465624763	0.4916553281713189
-0.47459506949999763	0.4903907063808093
-0.47453403434374763	0.4884986815962843
-0.47447299918749763	0.48598139270753743
-0.47441196403124763	0.48284167273428763
-0.47435092887499763	0.47908311358909955
-0.47428989371874763	0.47471019335682685
-0.47422885856249763	0.469728085406909
-0.47416782340624763	0.46414272044217114
-0.47410678824999763	0.45796086527995
-0.47404575309374763	0.4511900467688031
-0.47398471793749763	0.44383855427891017
-0.47392368278124763	0.4359152927264049
-0.47386264762499763	0.42742984709236465
-0.47380161246874763	0.41839263863629433
-0.47374057731249763	0.40881495978165433
-0.47367954215624763	0.3987087910900175
-0.47361850699999763	0.3880863628476907
-0.47355747184374763	0.37696043659556444
-0.47349643668749763	0.3653450530003274
-0.47343540153124763	0.35325512434966716
-0.47337436637499763	0.34070544476832204
-0.47331333121874763	0.3277111031359385
-0.47325229606249763	0.31428830091800075
-0.47319126090624763	0.3004541622010305
-0.47313022574999763	0.28622624575745526
-0.47306919059374763	0.2716218478017758
-0.47300815543749763	0.25665860588371103
-0.47294712028124763	0.24135587235874423
-0.47288608512499763	0.22573329959169405
-0.47282504996874763	0.20980976847282332
-0.47276401481249763	0.19360487538574553
-0.47270297965624763	0.17713944068979756
-0.47264194449999763	0.16043443986898276
-0.47258090934374763	0.1435102335604832
-0.47251987418749763	0.1263879018364641
-0.47245883903124763	0.10908965832852345
-0.47239780387499763	0.09163711427947582
-0.47233676871874763	0.07405162586864185
-0.47227573356249763	0.0563555337727279
-0.47221469840624763	0.03857156763799708
-0.47215366324999763	0.02072192048465353
-0.47209262809374763	0.002828893936301852
-0.47203159293749763	-0.015084815779196153
-0.47197055778124763	-0.03299687438924853
-0.47190952262499763	-0.05088446158445031
-0.47184848746874763	-0.06872443609654028
-0.47178745231249763	-0.08649477509239359
-0.47172641715624763	-0.10417345695965943
-0.47166538199999763	-0.12173772343444782
-0.47160434684374763	-0.13916506977271584
-0.47154331168749763	-0.15643340298572994
-0.47148227653124763	-0.17352100308810905
-0.47142124137499763	-0.19040654986467687
-0.47136020621874763	-0.20706851354602937
-0.47129917106249763	-0.2234853184389549
-0.47123813590624763	-0.23963619556043453
-0.47117710074999763	-0.2555007902864182
-0.47111606559374763	-0.27105897785093014
-0.47105503043749763	-0.28629100167613664
-0.47099399528124763	-0.3011772218004205
-0.47093296012499763	-0.3156986185063703
-0.47087192496874763	-0.3298368591115572
-0.47081088981249763	-0.34357392445857554
-0.47074985465624763	-0.3568921659116802
-0.47068881949999763	-0.3697744753098876
-0.47062778434374763	-0.3822043509296359
-0.47056674918749763	-0.39416599158314514
-0.47050571403124763	-0.4056441650840961
-0.47044467887499763	-0.4166238177946377
-0.47038364371874763	-0.42709072610255006
