Time	Frequency
-0.5000136270625006	0.5370370567178406
-0.49995259190625063	0.5386896434129677
-0.49989155675000063	0.5395243160330296
-0.49983052159375063	0.5395460770080911
-0.49976948643750063	0.538747025653042
-0.49970845128125063	0.5371369942944318
-0.49964741612500063	0.5347110667460916
-0.49958638096875063	0.5314784895052241
-0.49952534581250063	0.5274424849590741
-0.49946431065625063	0.5226074246657508
-0.49940327550000063	0.5169861541441023
-0.49934224034375063	0.510580075723596
-0.49928120518750063	0.5034076150158657
-0.49922017003125063	0.4954721420418423
-0.49915913487500063	0.4867919070889175
-0.49909809971875063	0.477377211648261
-0.49903706456250063	0.467242716511399
-0.49897602940625063	0.4564078850391841
-0.49891499425000063	0.4448827788725546
-0.49885395909375063	0.43269369153672793
-0.49879292393750063	0.4198511346043452
-0.49873188878125063	0.40638239615043337
-0.49867085362500063	0.3923036231531929
-0.49860981846875063	0.3776372894794923
-0.49854878331250063	0.3624097475420053
-0.49848774815625063	0.34663881396920776
-0.49842671300000063	0.3303558818249512
-0.49836567784375063	0.3135780990193344
-0.49830464268750063	0.2963398870675928
-0.49824360753125063	0.27866196394286386
-0.49818257237500063	0.2605738261290834
-0.49812153721875063	0.24210526242401292
-0.49806050206250063	0.22328035328796075
-0.49799946690625063	0.2041355182981642
-0.49793843175000063	0.18469164431852014
-0.49787739659375063	0.1649870596831527
-0.49781636143750063	0.14504638691836866
-0.49775532628125063	0.12490452900874141
-0.49769429112500063	0.10459197306737436
-0.49763325596875063	0.08413646580753756
-0.49757222081250063	0.06357715943624428
-0.49751118565625063	0.0429375088705775
-0.49745015050000063	0.02225772518015432
-0.49738911534375063	0.0015628639370444076
-0.49732808018750063	-0.019109893973725946
-0.49726704503125063	-0.03973000439746248
-0.49720600987500063	-0.06026793237359811
-0.49714497471875063	-0.08068538475943256
-0.49708393956250063	-0.10095923327614699
-0.49702290440625063	-0.12104996486368051
-0.49696186925000063	-0.1409324461425157
-0.49690083409375063	-0.16057004005550177
-0.49683979893750063	-0.1799363904479672
-0.49677876378125063	-0.19900226261583726
-0.49671772862500063	-0.21773240079454784
-0.49665669346875063	-0.2361044802708459
-0.49659565831250063	-0.25408234233107246
-0.49653462315625063	-0.27164654733666055
-0.49647358800000063	-0.28876246242423204
-0.49641255284375063	-0.30540718500310077
-0.49635151768750063	-0.32155460451998524
-0.49629048253125063	-0.3371764331627597
-0.49622944737500063	-0.3522545081209396
-0.49616841221875063	-0.36675706597098523
-0.49610737706250063	-0.38067013237464914
-0.49604634190625063	-0.3939645375097171
-0.49598530675000063	-0.4066244434399853
-0.49592427159375063	-0.41862854550843
-0.49586323643750063	-0.42995621883230395
-0.49580220128125063	-0.4405947150340424
-0.49574116612500063	-0.4505199248517987
-0.49568013096875063	-0.45972513591981196
-0.49561909581250063	-0.46818766179920257
-0.49555806065625063	-0.47590035775225703
-0.49549702550000063	-0.4828482754565953
-0.49543599034375063	-0.48901983815341116
-0.49537495518750063	-0.4944093742201715
-0.49531392003125063	-0.49900161756880757
-0.49525288487500063	-0.502797936672022
-0.49519184971875063	-0.5057838486550629
-0.49513081456250063	-0.5079614110207398
-0.49506977940625063	-0.5093229468755359
-0.49500874425000063	-0.5098672200824983
-0.49494770909375063	-0.5095961934835344
-0.49488667393750063	-0.5085042389960907
-0.49482563878125063	-0.5066009385316274
-0.49476460362500063	-0.5038804927602797
-0.49470356846875063	-0.5003550040693848
-0.49464253331250063	-0.49602463649160905
-0.49458149815625063	-0.49089806942533193
-0.49452046300000063	-0.4849846886876015
-0.49445942784375063	-0.47828884183008497
-0.49439839268750063	-0.470828618791682
-0.49433735753125063	-0.46260704746308245
-0.49427632237500063	-0.4536448529149164
-0.49421528721875063	-0.443949487202093
-0.49415425206250063	-0.4335401163983116
-0.49409321690625063	-0.4224333225564997
-0.49403218175000063	-0.41064176015499965
-0.49397114659375063	-0.398190784040938
-0.49391011143750063	-0.3850922719018944
-0.49384907628125063	-0.371374841567619
-0.49378804112500063	-0.35705248393466554
-0.49372700596875063	-0.3421523674539707
-0.49366597081250063	-0.3266967228007075
-0.49360493565625063	-0.3107074994652073
-0.49354390050000063	-0.2942153539554107
-0.49348286534375063	-0.2772380374814323
-0.49342183018750063	-0.2598110080011071
-0.49336079503125063	-0.24195356829724837
-0.49329975987500063	-0.2236997122407722
-0.49323872471875063	-0.20507599506403945
-0.49317768956250063	-0.1861098766968831
-0.49311665440625063	-0.16683555597492436
-0.49305561925000063	-0.1472766329426699
-0.49299458409375063	-0.12747260449208328
-0.49293354893750063	-0.10744605520610201
-0.49287251378125063	-0.08723513374318302
-0.49281147862500063	-0.06686788974807566
-0.49275044346875063	-0.046376529889270664
-0.49268940831250063	-0.025796767911171255
-0.49262837315625063	-0.005155165478345405
-0.49256733800000063	0.015507477343628437
-0.49250630284375063	0.03616806792591348
-0.49244526768750063	0.05678594855834166
-0.49238423253125063	0.07733316827707531
-0.49232319737500063	0.09777600597519093
-0.49226216221875063	0.1180797334239897
-0.49220112706250063	0.13821802022515334
-0.49214009190625063	0.1581511090195521
-0.49207905675000063	0.17785579653160316
-0.49201802159375063	0.19729286505084973
-0.49195698643750063	0.21643754308445384
-0.49189595128125063	0.23525660517450472
-0.49183491612500063	0.25371922603076974
-0.49177388096875063	0.2718002593262299
-0.49171284581250063	0.2894637597568344
-0.49165181065625063	0.30669039349225885
-0.49159077550000063	0.3234441688503085
-0.49152974034375063	0.33970491273141684
-0.49146870518750063	0.355442693072921
-0.49140767003125063	0.370632912454621
-0.49134663487500063	0.38525398034773733
-0.49128559971875063	0.39927631181603684
-0.49122456456250063	0.41268603579642915
-0.49116352940625063	0.425452557952687
-0.49110249425000063	0.43756236704173856
-0.49104145909375063	0.44899091532684965
-0.49098042393750063	0.45972173172718145
-0.49091938878125063	0.46973913993107946
-0.49085835362500063	0.4790217319237698
-0.49079731846875063	0.48756129554630384
-0.49073628331250063	0.49533510577725187
-0.49067524815625063	0.5023392821713651
-0.49061421300000063	0.5085554802386838
-0.49055317784375063	0.5139759756785055
-0.49049214268750063	0.5185922847891226
-0.49043110753125063	0.5223926790714788
-0.49037007237500063	0.5253771474506713
-0.49030903721875063	0.5275316834968237
-0.49024800206250063	0.5288608083525332
-0.49018696690625063	0.5293544813339707
-0.49012593175000063	0.5290157397085274
-0.49006489659375063	0.5278433444388254
-0.49000386143750063	0.5258355487756383
-0.48994282628125063	0.52300073022601
-0.48988179112500063	0.5193345374542556
-0.48982075596875063	0.5148507527096395
-0.48975972081250063	0.5095476205841201
-0.48969868565625063	0.5034381687047326
-0.48963765050000063	0.4965290994348273
-0.48957661534375063	0.4888292713406528
-0.48951558018750063	0.4803546852714192
-0.48945454503125063	0.4711102330348513
-0.48939350987500063	0.46111833128005325
-0.48933247471875063	0.45038572657414544
-0.48927143956250063	0.43893531839955746
-0.48921040440625063	0.42678051301555386
-0.48914936925000063	0.4139394665082279
-0.48908833409375063	0.4004352265553606
-0.48902729893750063	0.38628159408572826
-0.48896626378125063	0.37150897242737524
-0.48890522862500063	0.3561313370423392
-0.48884419346875063	0.3401786062842085
-0.48878315831250063	0.3236701205003893
-0.48872212315625063	0.30663366057411146
-0.48866108800000063	0.2890976793104148
-0.48860005284375063	0.27108245991794033
-0.48853901768750063	0.2526238829610529
-0.48847798253125063	0.23374161475042546
-0.48841694737500063	0.214472456090179
-0.48835591221875063	0.19484090210150348
-0.48829487706250063	0.1748798780749818
-0.48823384190625063	0.15462029329495824
-0.48817280675000063	0.13408887652289467
-0.48811177159375063	0.1133253422145727
-0.48805073643750063	0.09235337092478742
-0.48798970128125063	0.07121306410433467
-0.48792866612500063	0.0499302864340199
-0.48786763096875063	0.028542574085592236
-0.48780659581250063	0.007082287600603549
-0.48774556065625063	-0.014420455597475328
-0.48768452550000063	-0.035925730171681845
-0.48762349034375063	-0.057408821541490816
-0.48756245518750063	-0.07882735716477564
-0.48750142003125063	-0.10015576834344146
-0.48744038487500063	-0.12135596059263218
-0.48737934971875063	-0.142396299482047
-0.48731831456250063	-0.1632455624315248
-0.48725727940625063	-0.18386676465741017
-0.48719624425000063	-0.20423606215076123
-0.48713520909375063	-0.22431158733728518
-0.48707417393750063	-0.24407019059751497
-0.48701313878125063	-0.2634755040182369
-0.48695210362500063	-0.2825005213800901
-0.48689106846875063	-0.3011160740459347
-0.48683003331250063	-0.3192879873386634
-0.48676899815625063	-0.3369949436139522
-0.48670796300000063	-0.35420150450230403
-0.48664692784375063	-0.37088920504493933
-0.48658589268750063	-0.3870239289195591
-0.48652485753125063	-0.4025850716946467
-0.48646382237500063	-0.41754797311175873
-0.48640278721875063	-0.43188553883911457
-0.48634175206250063	-0.4455813018493176
-0.48628071690625063	-0.4586059051391528
-0.48621968175000063	-0.47094755178680864
-0.48615864659375063	-0.4825787925422606
-0.48609761143750063	-0.4934867478462274
-0.48603657628125063	-0.5036519123679144
-0.48597554112500063	-0.5130568692154766
-0.48591450596875063	-0.5216918564420407
-0.48585347081250063	-0.5295349953301142
-0.48579243565625063	-0.5365828740384485
-0.48573140050000063	-0.5428161486353302
-0.48567036534375063	-0.5482309929101896
-0.48560933018750063	-0.5528151946657467
-0.48554829503125063	-0.5565612182389846
-0.48548725987500063	-0.5594668852145436
-0.48542622471875063	-0.5615205556712775
-0.48536518956250063	-0.5627271642082342
-0.48530415440625063	-0.563075878166942
-0.48524311925000063	-0.5625733554423693
-0.48518208409375063	-0.5612152720762937
-0.48512104893750063	-0.5590047218501567
-0.48506001378125063	-0.5559475308694845
-0.48499897862500063	-0.5520422180740481
-0.48493794346875063	-0.5473026644467183
-0.48487690831250063	-0.5417272712976284
-0.48481587315625063	-0.5353326776010928
-0.48475483800000063	-0.5281225768891287
-0.48469380284375063	-0.520110469563606
-0.48463276768750063	-0.5113098666714249
-0.48457173253125063	-0.5017297016882981
-0.48451069737500063	-0.49139224135155185
-0.48444966221875063	-0.4803042294733896
-0.48438862706250063	-0.46849139135175194
-0.48432759190625063	-0.45596537936132436
-0.48426655675000063	-0.4427493006074517
-0.48420552159375063	-0.42886343888932477
-0.48414448643750063	-0.41432573695802016
-0.48408345128125063	-0.39916523408303634
-0.48402241612500063	-0.38339705842793437
-0.48396138096875063	-0.3670544004429693
-0.48390034581250063	-0.3501551811585741
-0.48383931065625063	-0.3327309508457795
-0.48377827550000063	-0.31480644220660137
-0.48371724034375063	-0.2964074493413004
-0.48365620518750063	-0.2775691153162477
-0.48359517003125063	-0.2583121444993152
-0.48353413487500063	-0.238675034611332
-0.48347309971875063	-0.21868071601032096
-0.48341206456250063	-0.19836622319223068
-0.48335102940625063	-0.17776010048446966
-0.48328999425000063	-0.15689418092030163
-0.48322895909375063	-0.13580527874330875
-0.48316792393750063	-0.11451834304538396
-0.48310688878125063	-0.09307584351395233
-0.48304585362500063	-0.07150309106931808
-0.48298481846875063	-0.049840148419555974
-0.48292378331250063	-0.028116519038438183
-0.48286274815625063	-0.00636694982857435
-0.48280171300000063	0.015371428127991846
-0.48274067784375063	0.037070758891546436
-0.48267964268750063	0.058688891790010335
-0.48261860753125063	0.08020138399216331
-0.48255757237500063	0.10156684731118072
-0.48249653721875063	0.12275666782817862
-0.48243550206250063	0.14373537942602563
-0.48237446690625063	0.16446929963566193
-0.48231343175000063	0.18493168386118583
-0.48225239659375063	0.20508181296950515
-0.48219136143750063	0.22489701672067333
-0.48213032628125063	0.24433833588832235
-0.48206929112500063	0.2633816460701002
-0.48200825596875063	0.2819941791594841
-0.48194722081250063	0.3001466355051821
-0.48188618565625063	0.3178137665045456
-0.48182515050000063	0.33496109118078127
-0.48176411534375063	0.3515715502760456
-0.48170308018750063	0.3676097447281442
-0.48164204503125063	0.38305765698248867
-0.48158100987500063	0.39788708169450343
-0.48151997471875063	0.4120756112282663
-0.48145893956250063	0.42560385668160766
-0.48139790440625063	0.43844493044334704
-0.48133686925000063	0.45058698342250203
-0.48127583409375063	0.4620018473071424
-0.48121479893750063	0.4726800771026821
-0.48115376378125063	0.4825993934819331
-0.48109272862500063	0.4917466348575463
-0.48103169346875063	0.5001090926120161
-0.48097065831250063	0.5076687206303185
-0.48090962315625063	0.5144217282304181
-0.48084858800000063	0.5203487296871265
-0.48078755284375063	0.5254489385854659
-0.48072651768750063	0.5297080067673186
-0.48066548253125063	0.5331233897331862
-0.48060444737500063	0.5356898597875139
-0.48054341221875063	0.5373996726916026
-0.48048237706250063	0.5382573888129442
-0.48042134190625063	0.5382533235653207
-0.48036030675000063	0.5373966817222182
-0.48029927159375063	0.5356815466482374
-0.48023823643750063	0.533115725531092
-0.48017720128125063	0.5297022448183546
-0.48011616612500063	0.5254445158439488
-0.48005513096875063	0.5203553854568022
-0.47999409581250063	0.5144348111457365
-0.47993306065625063	0.5077015918676615
-0.47987202550000063	0.5001588404152275
-0.47981099034375063	0.4918246010164529
-0.47974995518750063	0.4827092778027681
-0.47968892003125063	0.47282694581399226
-0.47962788487500063	0.46219849829841897
-0.47956684971875063	0.4508335054187829
-0.47950581456250063	0.4387589995216816
-0.47944477940625063	0.4259856517774219
-0.47938374425000063	0.4125414089863393
-0.47932270909375063	0.398443992088071
-0.47926167393750063	0.3837162666029263
-0.47920063878125063	0.3683851983513882
-0.47913960362500063	0.3524689863561851
-0.47907856846875063	0.33600189392944974
-0.47901753331250063	0.3190015622045437
-0.47895649815625063	0.3015033891360614
-0.47889546300000063	0.28352951965047907
-0.47883442784375063	0.26511050416712084
-0.47877339268750063	0.24627930780245003
-0.47871235753125063	0.22706016593182787
-0.47865132237500063	0.2074910810474031
-0.47859028721875063	0.18759567925431694
-0.47852925206250063	0.16741405739689866
-0.47846821690625063	0.14697149623157438
-0.47840718175000063	0.12630526199637726
-0.47834614659375063	0.10544929947514207
-0.47828511143750063	0.0844319493293956
-0.47822407628125063	0.06329425999002405
-0.47816304112500063	0.04206175666446971
-0.47810200596875063	0.02077815779388988
-0.47804097081250063	-0.0005298868055673594
-0.47797993565625063	-0.021824560852050083
-0.47791890050000063	-0.043071842404512194
-0.47785786534375063	-0.0642396940224415
-0.47779683018750063	-0.08528799695861865
-0.47773579503125063	-0.10619213520776404
-0.47767475987500063	-0.1269089980222206
-0.47761372471875063	-0.14741234523338154
-0.47755268956250063	-0.16766399531120438
-0.47749165440625063	-0.1876335930100077
-0.47743061925000063	-0.20729040414444014
-0.47736958409375063	-0.22659782728076508
-0.47730854893750063	-0.24553173371378392
-0.47724751378125063	-0.26405239998038127
-0.47718647862500063	-0.28213934708310134
-0.47712544346875063	-0.2997563075924008
-0.47706440831250063	-0.3168777507411242
-0.47700337315625063	-0.3334761889027514
-0.47694233800000063	-0.34952132197737923
-0.47688130284375063	-0.3649941436837958
-0.47682026768750063	-0.37985987953077865
-0.47675923253125063	-0.3941035700310872
-0.47669819737500063	-0.4076950102981636
-0.47663716221875063	-0.42061662437388375
-0.47657612706250063	-0.4328458343356312
-0.47651509190625063	-0.4443600086172516
-0.47645405675000063	-0.45514659895579834
-0.47639302159375063	-0.46517968165239004
-0.47633198643750063	-0.4744515934208366
-0.47627095128125063	-0.4829385771220263
-0.47620991612500063	-0.49063304751152903
-0.47614888096875063	-0.4975197334590324
-0.47608784581250063	-0.5035854679755493
-0.47602681065625063	-0.5088251046818012
-0.47596577550000063	-0.5132222959405913
-0.47590474034375063	-0.5167786183270608
-0.47584370518750063	-0.5194790740151867
-0.47578267003125063	-0.5213258666744688
-0.47572163487500063	-0.5223116880291491
-0.47566059971875063	-0.5224346985285988
-0.47559956456250063	-0.5216979875070644
-0.47553852940625063	-0.5200953207271368
-0.47547749425000063	-0.517637683615543
-0.47541645909375063	-0.5143196475346618
-0.47535542393750063	-0.5101537797795972
-0.47529438878125063	-0.5051411060427665
-0.47523335362500063	-0.4992909709072383
-0.47517231846875063	-0.4926146564415882
-0.47511128331250063	-0.4851165302813039
-0.47505024815625063	-0.4768166685328832
-0.47498921300000063	-0.4677187773285117
-0.47492817784375063	-0.4578454656419231
-0.47486714268750063	-0.4472060670201373
-0.47480610753125063	-0.4358198318144283
-0.47474507237500063	-0.42370582528084694
-0.47468403721875063	-0.4108791642860579
-0.47462300206250063	-0.39736707787843145
-0.47456196690625063	-0.3831813264404852
-0.47450093175000063	-0.3683535923946565
-0.47443989659375063	-0.3529009351235592
-0.47437886143750063	-0.33685190854476205
-0.47431782628125063	-0.32023059376925056
-0.47425679112500063	-0.3030605663389316
-0.47419575596875063	-0.28537618934697684
-0.47413472081250063	-0.26719659648086125
-0.47407368565625063	-0.24855956578927985
-0.47401265050000063	-0.22948723395490334
-0.47395161534375063	-0.2100160028068032
-0.47389058018750063	-0.19017429097145935
-0.47382954503125063	-0.1699916370007075
-0.47376850987500063	-0.14950624855642072
-0.47370747471875063	-0.12874318928576925
-0.47364643956250063	-0.10774482160818993
-0.47358540440625063	-0.08653553707797003
-0.47352436925000063	-0.06515595707316447
-0.47346333409375063	-0.04363772543313057
-0.47340229893750063	-0.02201490958259551
-0.47334126378125063	-0.00032582269932329
-0.47328022862500063	0.021401955772506535
-0.47321919346875063	0.043123841144991557
-0.47315815831250063	0.06481381884752593
-0.47309712315625063	0.08643025540235943
-0.47303608800000063	0.1079427572762675
-0.47297505284375063	0.12931495417775124
-0.47291401768750063	0.15050997873621672
-0.47285298253125063	0.17149999820479145
-0.47279194737500063	0.1922423684366662
-0.47273091221875063	0.2127128400485555
-0.47266987706250063	0.23286979892917392
-0.47260884190625063	0.25268634646571136
-0.47254780675000063	0.27212826911223664
-0.47248677159375063	0.29116275971873656
-0.47242573643750063	0.30976375241701604
-0.47236470128125063	0.32789275099884957
-0.47230366612500063	0.34552945109457583
-0.47224263096875063	0.3626368647171857
-0.47218159581250063	0.3791940947285365
-0.47212056065625063	0.39516985506241414
-0.47205952550000063	0.41053765941659676
-0.47199849034375063	0.42527644361242406
-0.47193745518750063	0.43935560257408995
-0.47187642003125063	0.4527606331468813
-0.47181538487500063	0.4654598619441604
-0.47175434971875063	0.4774401855576707
-0.47169331456250063	0.48867697004490995
-0.47163227940625063	0.4991532380339377
-0.47157124425000063	0.5088537247246896
-0.47151020909375063	0.5177560626219765
-0.47144917393750063	0.5258540257546662
-0.47138813878125063	0.5331246136595661
-0.47132710362500063	0.5395639247719624
-0.47126606846875063	0.545154864325923
-0.47120503331250063	0.5498904568213666
-0.47114399815625063	0.5537634089724002
-0.47108296300000063	0.5567621601616445
-0.47102192784375063	0.5588889154453112
-0.47096089268750063	0.5601302691882525
-0.47089985753125063	0.56049241471401
-0.47083882237500063	0.5599668668233551
-0.47077778721875063	0.5585580966555552
-0.47071675206250063	0.5562670878189321
-0.47065571690625063	0.5530931455636148
-0.47059468175000063	0.5490476911164971
-0.47053364659375063	0.5441275348607806
-0.47047261143750063	0.5383489984577051
-0.47041157628125063	0.5317126340479136
-0.47035054112500063	0.5242337708336657
-0.47028950596875063	0.5159219094344113
