Time	Frequency
-0.5000221983437498	-7.190484534819093e-24
-0.49996116318749984	-7.080238863372212e-24
-0.49990012803124984	-6.963605936020481e-24
-0.49983909287499984	-6.840691173784465e-24
-0.49977805771874984	-6.711602512206034e-24
-0.49971702256249984	-6.576445864710339e-24
-0.49965598740624984	-6.435342068537736e-24
-0.49959495224999984	-6.2884208734327474e-24
-0.49953391709374984	-6.135805955369859e-24
-0.49947288193749984	-5.977628985948775e-24
-0.49941184678124984	-5.8140299175575115e-24
-0.49935081162499984	-5.645151593537043e-24
-0.49928977646874984	-5.471150189950057e-24
-0.49922874131249984	-5.29217826839435e-24
-0.49916770615624984	-5.108376503375115e-24
-0.49910667099999984	-4.919914235019365e-24
-0.49904563584374984	-4.7269778434983016e-24
-0.49898460068749984	-4.529721210135402e-24
-0.49892356553124984	-4.328306532507233e-24
-0.49886253037499984	-4.122929822347573e-24
-0.49880149521874984	-3.913772535674749e-24
-0.49874046006249984	-3.701008493384226e-24
-0.49867942490624984	-3.484831910029887e-24
-0.49861838974999984	-3.265440698076716e-24
-0.49855735459374984	-3.0430217058438095e-24
-0.49849631943749984	-2.8177661958414754e-24
-0.49843528428124984	-2.5898814905611804e-24
-0.49837424912499984	-2.3595757400117457e-24
-0.49831321396874984	-2.127051799355646e-24
-0.49825217881249984	-1.892507457905719e-24
-0.49819114365624984	-1.6561440573603548e-24
-0.49813010849999984	-1.4181858282622635e-24
-0.49806907334374984	-1.178857334807545e-24
-0.49800803818749984	-9.383543707673727e-25
-0.49794700303124984	-6.9687573949247605e-25
-0.49788596787499984	-4.546559891427784e-25
-0.49782493271874984	-2.11922522943253e-25
-0.49776389756249984	3.1128882349113743e-26
-0.49770286240624984	2.742824330008724e-25
-0.49764182724999984	5.173044872029534e-25
-0.49758079209374984	7.599861786044623e-25
-0.49751975693749984	1.0021223267936833e-24
-0.49745872178124984	1.2434852443337533e-24
-0.49739768662499984	1.4838487095241459e-24
-0.49733665146874984	1.7230110569150675e-24
-0.49727561631249984	1.960768933755821e-24
-0.49721458115624984	2.1968955860102393e-24
-0.49715354599999984	2.431170999161947e-24
-0.49709251084374984	2.663395168776173e-24
-0.49703147568749984	2.8933694091220358e-24
-0.49697044053124984	3.120882523592101e-24
-0.49690940537499984	3.345717241906487e-24
-0.49684837021874984	3.567677650831959e-24
-0.49678733506249984	3.786577781605863e-24
-0.49672629990624984	4.002212543772749e-24
-0.49666526474999984	4.214377697543866e-24
-0.49660422959374984	4.422893583468349e-24
-0.49654319443749984	4.6275805512015206e-24
-0.49648215928124984	4.828239786168926e-24
-0.49642112412499984	5.024687007907455e-24
-0.49636008896874984	5.2167605010404355e-24
-0.49629905381249984	5.404285812878279e-24
-0.49623801865624984	5.587083101272718e-24
-0.49617698349999984	5.764990707210781e-24
-0.49611594834374984	5.937852296502319e-24
-0.49605491318749984	6.105509319632435e-24
-0.49599387803124984	6.267809579602265e-24
-0.49593284287499984	6.4246079963757375e-24
-0.49587180771874984	6.5757610510611604e-24
-0.49581077256249984	6.721129443639543e-24
-0.49574973740624984	6.860584416528274e-24
-0.49568870224999984	6.994001072947554e-24
-0.49562766709374984	7.12125492713282e-24
-0.49556663193749984	7.242228967435372e-24
-0.49550559678124984	7.356814437504196e-24
-0.49544456162499984	7.464907315865982e-24
-0.49538352646874984	7.566410164837508e-24
-0.49532249131249984	7.661229433548853e-24
-0.49526145615624984	7.74927379644936e-24
-0.49520042099999984	7.830463422232396e-24
-0.49513938584374984	7.904728621477358e-24
-0.49507835068749984	7.972000013462615e-24
-0.49501731553124984	8.032210229796498e-24
-0.49495628037499984	8.085302426849457e-24
-0.49489524521874984	8.13123097142984e-24
-0.49483421006249984	8.169954259057748e-24
-0.49477317490624984	8.201432314874833e-24
-0.49471213974999984	8.225631969423954e-24
-0.49465110459374984	8.242531264662784e-24
-0.49459006943749984	8.252115526137024e-24
-0.49452903428124984	8.254372621677988e-24
-0.49446799912499984	8.249296103612787e-24
-0.49440696396874984	8.236888181470266e-24
-0.49434592881249984	8.217159417814429e-24
-0.49428489365624984	8.190126813088699e-24
-0.49422385849999984	8.155810028853021e-24
-0.49416282334374984	8.114234776817048e-24
-0.49410178818749984	8.065439407030707e-24
-0.49404075303124984	8.009468323184577e-24
-0.49397971787499984	7.94636543992779e-24
-0.49391868271874984	7.87618362125319e-24
-0.49385764756249984	7.798986323101525e-24
-0.49379661240624984	7.714840427893874e-24
-0.49373557724999984	7.623820470926131e-24
-0.49367454209374984	7.526005278033746e-24
-0.49361350693749984	7.421476274793358e-24
-0.49355247178124984	7.310328651065169e-24
-0.49349143662499984	7.19266403592323e-24
-0.49343040146874984	7.068580271229568e-24
-0.49336936631249984	6.93818574215862e-24
-0.49330833115624984	6.801603186892855e-24
-0.49324729599999984	6.65894787740731e-24
-0.49318626084374984	6.510339725175853e-24
-0.49312522568749984	6.355922212728969e-24
-0.49306419053124984	6.195833184810437e-24
-0.49300315537499984	6.030202695621772e-24
-0.49294212021874984	5.859179009344992e-24
-0.49288108506249984	5.6829229818307016e-24
-0.49282004990624984	5.501592078832549e-24
-0.49275901474999984	5.3153411351203295e-24
-0.49269797959374984	5.124333516477087e-24
-0.49263694443749984	4.9287412862316294e-24
-0.49257590928124984	4.728744412807101e-24
-0.49251487412499984	4.524523057404447e-24
-0.49245383896874984	4.316251369533516e-24
-0.49239280381249984	4.10411420219292e-24
-0.49233176865624984	3.888303624581817e-24
-0.49227073349999984	3.669014120811635e-24
-0.49220969834374984	3.4464507582292126e-24
-0.49214866318749984	3.220805275097442e-24
-0.49208762803124984	2.9922608689603772e-24
-0.49202659287499984	2.761038013636452e-24
-0.49196555771874984	2.5273636153773753e-24
-0.49190452256249984	2.2914279481415586e-24
-0.49184348740624984	2.0534283179567693e-24
-0.49178245224999984	1.8135903170034906e-24
-0.49172141709374984	1.572141043035639e-24
-0.49166038193749984	1.3292927008444499e-24
-0.49159934678124984	1.0852516542733633e-24
-0.49153831162499984	8.40239262211814e-25
-0.49147727646874984	5.944827903004951e-25
-0.49141624131249984	3.4820259188460185e-25
-0.49135520615624984	1.0161799809225462e-25
-0.49129417099999984	-1.450491148992603e-25
-0.49123313584374984	-3.9157827990811254e-25
-0.49117210068749984	-6.377495563432256e-25
-0.49111106553124984	-8.833350735084183e-25
-0.49105003037499984	-1.1281118024425807e-24
-0.49098899521874984	-1.371869573613555e-24
-0.49092796006249984	-1.6143857221152039e-24
-0.49086692490624984	-1.8554314450467665e-24
-0.49080588974999984	-2.0947987951273744e-24
-0.49074485459374984	-2.3322758369452363e-24
-0.49068381943749984	-2.5676362148971446e-24
-0.49062278428124984	-2.8006704831329052e-24
-0.49056174912499984	-3.031176703395403e-24
-0.49050071396874984	-3.258940731294614e-24
-0.49043967881249984	-3.483752955023447e-24
-0.49037864365624984	-3.70541524574661e-24
-0.49031760849999984	-3.923726329226032e-24
-0.49025657334374984	-4.138486541684485e-24
-0.49019553818749984	-4.349504160913573e-24
-0.49013450303124984	-4.556584779037324e-24
-0.49007346787499984	-4.759542525307935e-24
-0.49001243271874984	-4.958197431727443e-24
-0.48995139756249984	-5.1523620832575955e-24
-0.48989036240624984	-5.341860691478251e-24
-0.48982932724999984	-5.5265274800330934e-24
-0.48976829209374984	-5.706192061043578e-24
-0.48970725693749984	-5.880689274475816e-24
-0.48964622178124984	-6.049862192765096e-24
-0.48958518662499984	-6.21355404768302e-24
-0.48952415146874984	-6.371616897550472e-24
-0.48946311631249984	-6.523913697000382e-24
-0.48940208115624984	-6.670299433280022e-24
-0.48934104599999984	-6.810633777702193e-24
-0.48928001084374984	-6.944799354378161e-24
-0.48921897568749984	-7.072676172937815e-24
-0.48915794053124984	-7.194136527435324e-24
-0.48909690537499984	-7.309070678700817e-24
-0.48903587021874984	-7.417380712757742e-24
-0.48897483506249984	-7.518965641651026e-24
-0.48891379990624984	-7.61372799435859e-24
-0.48885276474999984	-7.701580754770788e-24
-0.48879172959374984	-7.782445819597817e-24
-0.48873069443749984	-7.856249209050481e-24
-0.48866965928124984	-7.922921085314685e-24
-0.48860862412499984	-7.982398856880438e-24
-0.48854758896874984	-8.034628386389676e-24
-0.48848655381249984	-8.079561577344343e-24
-0.48842551865624984	-8.117154478753432e-24
-0.48836448349999984	-8.147372102683323e-24
-0.48830344834374984	-8.170187548841272e-24
-0.48824241318749984	-8.185577229429504e-24
-0.48818137803124984	-8.193524478912146e-24
-0.48812034287499984	-8.194021661538733e-24
-0.48805930771874984	-8.187067619506983e-24
-0.48799827256249984	-8.172667251475846e-24
-0.48793723740624984	-8.150831096671961e-24
-0.48787620224999984	-8.121576446321157e-24
-0.48781516709374984	-8.084930103153122e-24
-0.48775413193749984	-8.040925231568596e-24
-0.48769309678124984	-7.989598241355602e-24
-0.48763206162499984	-7.930992932381432e-24
-0.48757102646874984	-7.865162416771358e-24
-0.48750999131249984	-7.792166136817698e-24
-0.48744895615624984	-7.712069849727165e-24
-0.48738792099999984	-7.624942714325152e-24
-0.48732688584374984	-7.530858973411856e-24
-0.48726585068749984	-7.429907602171205e-24
-0.48720481553124984	-7.322182180567615e-24
-0.48714378037499984	-7.207773658174735e-24
-0.48708274521874984	-7.086782418945496e-24
-0.48702171006249984	-6.95931988300999e-24
-0.48696067490624984	-6.825505180014612e-24
-0.48689963974999984	-6.685457222648852e-24
-0.48683860459374984	-6.539294981642081e-24
-0.48677756943749984	-6.387152275739197e-24
-0.48671653428124984	-6.229172357735662e-24
-0.48665549912499984	-6.065497384442715e-24
-0.48659446396874984	-5.896270358885955e-24
-0.48653342881249984	-5.721640517178885e-24
-0.48647239365624984	-5.5417718251032164e-24
-0.48641135849999984	-5.356833020344419e-24
-0.48635032334374984	-5.166982205751931e-24
-0.48628928818749984	-4.9723861169865855e-24
-0.48622825303124984	-4.773232427171746e-24
-0.48616721787499984	-4.56970274934403e-24
-0.48610618271874984	-4.3619704922399846e-24
-0.48604514756249984	-4.150227276168706e-24
-0.48598411240624984	-3.934673505315436e-24
-0.48592307724999984	-3.715499321036401e-24
-0.48586204209374984	-3.492898272684203e-24
-0.48580100693749984	-3.2670782880486075e-24
-0.48573997178124984	-3.0382479399525933e-24
-0.48567893662499984	-2.8066103549953976e-24
-0.48561790146874984	-2.5723753331710818e-24
-0.48555686631249984	-2.335757382108208e-24
-0.48549583115624984	-2.0969724448470224e-24
-0.48543479599999984	-1.8562409901897444e-24
-0.48537376084374984	-1.6137786418592228e-24
-0.48531272568749984	-1.3698011468379748e-24
-0.48525169053124984	-1.1245370412314494e-24
-0.48519065537499984	-8.782170649825355e-25
-0.48512962021874984	-6.3105884355227335e-25
-0.48506858506249984	-3.832786120934334e-25
-0.48500754990624984	-1.3510908522466813e-25
-0.48494651474999984	1.1321327881997635e-25
-0.48488547959374984	3.614636489852418e-25
-0.48482444443749984	6.094258846825999e-25
-0.48476340928124984	8.568765175211117e-25
-0.48470237412499984	1.103575294839908e-24
-0.48464133896874984	1.3492942731297651e-24
-0.48458030381249984	1.5938212012674106e-24
-0.48451926865624984	1.8369299269930618e-24
-0.48445823349999984	2.078392508188507e-24
-0.48439719834374984	2.3179881536314045e-24
-0.48433616318749984	2.555499077519725e-24
-0.48427512803124984	2.790711001788938e-24
-0.48421409287499984	3.0234014283116046e-24
-0.48415305771874984	3.253353564242195e-24
-0.48409202256249984	3.480368000115719e-24
-0.48403098740624984	3.704236695385347e-24
-0.48396995224999984	3.924737765685696e-24
-0.48390891709374984	4.141671523731924e-24
-0.48384788193749984	4.3548559036908004e-24
-0.48378684678124984	4.564084838467888e-24
-0.48372581162499984	4.7691540262686155e-24
-0.48366477646874984	4.969886451666188e-24
-0.48360374131249984	5.166098895943006e-24
-0.48354270615624984	5.357601349413255e-24
-0.48348167099999984	5.544219128537171e-24
-0.48342063584374984	5.7257880170262256e-24
-0.48335960068749984	5.9021355557375866e-24
-0.48329856553124984	6.073086712230918e-24
-0.48323753037499984	6.238491221509357e-24
-0.48317649521874984	6.398207719166603e-24
-0.48311546006249984	6.552079744344643e-24
-0.48305442490624984	6.699954064563472e-24
-0.48299338974999984	6.841695986488364e-24
-0.48293235459374984	6.977183196883024e-24
-0.48287131943749984	7.106290482296089e-24
-0.48281028428124984	7.228888947552452e-24
-0.48274924912499984	7.344861726747818e-24
-0.48268821396874984	7.454104260154993e-24
-0.48262717881249984	7.55651616432653e-24
-0.48256614365624984	7.652000362644681e-24
-0.48250510849999984	7.740465232200382e-24
-0.48244407334374984	7.821826788048955e-24
-0.48238303818749984	7.896007245110147e-24
-0.48232200303124984	7.962936263020265e-24
-0.48226096787499984	8.022551526198371e-24
-0.48219993271874984	8.074795485706117e-24
-0.48213889756249984	8.119616428950423e-24
-0.48207786240624984	8.15696882603611e-24
-0.48201682724999984	8.186815775788533e-24
-0.48195579209374984	8.209130173824841e-24
-0.48189475693749984	8.223888106538192e-24
-0.48183372178124984	8.231070049338662e-24
-0.48177268662499984	8.230666894190314e-24
-0.48171165146874984	8.222678173755319e-24
-0.48165061631249984	8.20710833438614e-24
-0.48158958115624984	8.183966938762099e-24
-0.48152854599999984	8.153271656234169e-24
-0.48146751084374984	8.115049141399326e-24
-0.48140647568749984	8.069332360018366e-24
-0.48134544053124984	8.016158445988386e-24
-0.48128440537499984	7.955571724709013e-24
-0.48122337021874984	7.887627638980663e-24
-0.48116233506249984	7.812387047315706e-24
-0.48110129990624984	7.72991169654354e-24
-0.48104026474999984	7.640272913325321e-24
-0.48097922959374984	7.543555772398166e-24
-0.48091819443749984	7.439847463069768e-24
-0.48085715928124984	7.329232552433403e-24
-0.48079612412499984	7.211809271654619e-24
-0.48073508896874984	7.087691443034376e-24
-0.48067405381249984	6.956988289405644e-24
-0.48061301865624984	6.819809956294464e-24
-0.48055198349999984	6.676282685224999e-24
-0.48049094834374984	6.5265375251837824e-24
-0.48042991318749984	6.370709603882508e-24
-0.48036887803124984	6.208941536270869e-24
-0.48030784287499984	6.041371900905275e-24
-0.48024680771874984	5.868150777724281e-24
-0.48018577256249984	5.6894462344432664e-24
-0.48012473740624984	5.5054181831897796e-24
-0.48006370224999984	5.3162242841810735e-24
-0.48000266709374984	5.1220372164529e-24
-0.47994163193749984	4.923036434586971e-24
-0.47988059678124984	4.719405574441472e-24
-0.47981956162499984	4.511331296160381e-24
-0.47975852646874984	4.298995347710544e-24
-0.47969749131249984	4.082585779999177e-24
-0.47963645615624984	3.862309337691566e-24
-0.47957542099999984	3.6383710189648306e-24
-0.47951438584374984	3.4109670025198405e-24
-0.47945335068749984	3.1803051510339876e-24
-0.47939231553124984	2.9465939837565397e-24
-0.47933128037499984	2.710043165205901e-24
-0.47927024521874984	2.4708819836826664e-24
-0.47920921006249984	2.229330814290697e-24
-0.47914817490624984	1.985592115702305e-24
-0.47908713974999984	1.7398879103599374e-24
-0.47902610459374984	1.4924612080351712e-24
-0.47896506943749984	1.2435386600931575e-24
-0.47890403428124984	9.933319564732665e-25
-0.47884299912499984	7.4207295123651085e-25
-0.47878196396874984	4.900038569860042e-25
-0.47872092881249984	2.373498053114937e-25
-0.47865989365624984	-1.5666610047341696e-26
-0.47859885849999984	-2.6880207982563277e-25
-0.47853782334374984	-5.218169952345247e-25
-0.47847678818749984	-7.744979419965384e-25
-0.47841575303124984	-1.0266127686171932e-24
-0.47835471787499984	-1.2779097034039713e-24
-0.47829368271874984	-1.5281640159725215e-24
-0.47823264756249984	-1.7771590225349733e-24
-0.47817161240624984	-2.0246598059044905e-24
-0.47811057724999984	-2.2704303873677036e-24
-0.47804954209374984	-2.5142490133767794e-24
-0.47798850693749984	-2.755892278122342e-24
-0.47792747178124984	-2.9951341059370806e-24
-0.47786643662499984	-3.2317591909672746e-24
-0.47780540146874984	-3.465548746781168e-24
-0.47774436631249984	-3.696280728792232e-24
-0.47768333115624984	-3.923743109975537e-24
-0.47762229599999984	-4.14772928102706e-24
-0.47756126084374984	-4.3680317501848444e-24
-0.47750022568749984	-4.584446318948615e-24
-0.47743919053124984	-4.796771612955584e-24
-0.47737815537499984	-5.00480835998438e-24
-0.47731712021874984	-5.2083681344617986e-24
-0.47725608506249984	-5.4072621742585914e-24
-0.47719504990624984	-5.601301164613608e-24
-0.47713401474999984	-5.790308594706919e-24
-0.47707297959374984	-5.974108398786624e-24
-0.47701194443749984	-6.152529491092767e-24
-0.47695090928124984	-6.325408056120472e-24
-0.47688987412499984	-6.492576466726671e-24
-0.47682883896874984	-6.653880404424163e-24
-0.47676780381249984	-6.809177461420928e-24
-0.47670676865624984	-6.95831842936098e-24
-0.47664573349999984	-7.101157780517214e-24
-0.47658469834374984	-7.237565545294572e-24
-0.47652366318749984	-7.367417658466287e-24
-0.47646262803124984	-7.490588811210832e-24
-0.47640159287499984	-7.606962489529646e-24
-0.47634055771874984	-7.716432145111104e-24
-0.47627952256249984	-7.818892190017086e-24
-0.47621848740624984	-7.914244594279087e-24
-0.47615745224999984	-8.002401874828659e-24
-0.47609641709374984	-8.083279515924197e-24
-0.47603538193749984	-8.156799669348202e-24
-0.47597434678124984	-8.22289332029781e-24
-0.47591331162499984	-8.281495601114038e-24
-0.47585227646874984	-8.332549292383677e-24
-0.47579124131249984	-8.376006359166787e-24
-0.47573020615624984	-8.411824096268067e-24
-0.47566917099999984	-8.439966330048015e-24
-0.47560813584374984	-8.46040409997369e-24
-0.47554710068749984	-8.473115480300745e-24
-0.47548606553124984	-8.478086769582213e-24
-0.47542503037499984	-8.475311072781584e-24
-0.47536399521874984	-8.464787921887634e-24
-0.47530296006249984	-8.44652400773397e-24
-0.47524192490624984	-8.420533102369722e-24
-0.47518088974999984	-8.386837027219276e-24
-0.47511985459374984	-8.345464568906799e-24
-0.47505881943749984	-8.296451017523959e-24
-0.47499778428124984	-8.239838857325702e-24
-0.47493674912499984	-8.175676019686427e-24
-0.47487571396874984	-8.104020550459727e-24
-0.47481467881249984	-8.024939116037345e-24
-0.47475364365624984	-7.938497638533184e-24
-0.47469260849999984	-7.844771417980426e-24
-0.47463157334374984	-7.743849676915593e-24
-0.47457053818749984	-7.635823346674042e-24
-0.47450950303124984	-7.520786532324731e-24
-0.47444846787499984	-7.398842427767979e-24
-0.47438743271874984	-7.270101908752027e-24
-0.47432639756249984	-7.134682262775476e-24
-0.47426536240624984	-6.992709325382845e-24
-0.47420432724999984	-6.8443099185304e-24
-0.47414329209374984	-6.689612163157608e-24
-0.47408225693749984	-6.5287619834926995e-24
-0.47402122178124984	-6.361911039445897e-24
-0.47396018662499984	-6.18920657286767e-24
-0.47389915146874984	-6.0108041407828125e-24
-0.47383811631249984	-5.826866368352048e-24
-0.47377708115624984	-5.637563308067651e-24
-0.47371604599999984	-5.443071672453466e-24
-0.47365501084374984	-5.24356682121883e-24
-0.47359397568749984	-5.039227409191983e-24
-0.47353294053124984	-4.830240237858281e-24
-0.47347190537499984	-4.6168019439352376e-24
-0.47341087021874984	-4.399112790722915e-24
-0.47334983506249984	-4.177363562723848e-24
-0.47328879990624984	-3.951753997814424e-24
-0.47322776474999984	-3.722501494446457e-24
-0.47316672959374984	-3.48981531966837e-24
-0.47310569443749984	-3.253905984897578e-24
-0.47304465928124984	-3.0149933245991424e-24
-0.47298362412499984	-2.773292690541115e-24
-0.47292258896874984	-2.5290255803852706e-24
-0.47286155381249984	-2.2824255569384865e-24
-0.47280051865624984	-2.0337240816624157e-24
-0.47273948349999984	-1.7831336502593313e-24
-0.47267844834374984	-1.5308800266919485e-24
-0.47261741318749984	-1.2772225921927333e-24
-0.47255637803124984	-1.022392842411237e-24
-0.47249534287499984	-7.666033554583963e-25
-0.47243430771874984	-5.1009679009440775e-25
-0.47237327256249984	-2.531198365294158e-25
-0.47231223740624984	4.0878176865549064e-27
-0.47225120224999984	2.61291762339185e-25
-0.47219016709374984	5.18264666525977e-25
