Time	Frequency
-0.5000174528749994	-0.4087983670504482
-0.49995641771874944	-0.4018725193981315
-0.49989538256249944	-0.3944983332311836
-0.49983434740624944	-0.38668387481391137
-0.49977331224999944	-0.37843763935008135
-0.49971227709374944	-0.36976828924787586
-0.49965124193749944	-0.3606850902178705
-0.49959020678124944	-0.35119811786939303
-0.49952917162499944	-0.3413176078587301
-0.49946813646874944	-0.33105393610514466
-0.49940710131249944	-0.3204185178144833
-0.49934606615624944	-0.3094231633236071
-0.49928503099999944	-0.29807924194236735
-0.49922399584374944	-0.28639886921708846
-0.49916296068749944	-0.27439530238853926
-0.49910192553124944	-0.26208178939827365
-0.49904089037499944	-0.2494712783430226
-0.49897985521874944	-0.23657731201422827
-0.49891882006249944	-0.22341407270193
-0.49885778490624944	-0.2099959513081838
-0.49879674974999944	-0.19633794732928977
-0.49873571459374944	-0.182454867016777
-0.49867467943749944	-0.16836102262531405
-0.49861364428124944	-0.15407201327249917
-0.49855260912499944	-0.13960447783473567
-0.49849157396874944	-0.12497399400316975
-0.49843053881249944	-0.11019542575071148
-0.49836950365624944	-0.09528515076937652
-0.49830846849999944	-0.08026042872136661
-0.49824743334374944	-0.06513749095972748
-0.49818639818749944	-0.04993257487864298
-0.49812536303124944	-0.0346623196011878
-0.49806432787499944	-0.01934297806255574
-0.49800329271874944	-0.003991886952264043
-0.49794225756249944	0.011373215106153021
-0.49788122240624944	0.026736535081252323
-0.49782018724999944	0.04208180323555614
-0.49775915209374944	0.05739110905902296
-0.49769811693749944	0.07264766422964575
-0.49763708178124944	0.08783502740356473
-0.49757604662499944	0.1029362505069899
-0.49751501146874944	0.11793515519233252
-0.49745397631249944	0.13281517379657856
-0.49739294115624944	0.14755932954153084
-0.49733190599999944	0.1621514421286458
-0.49727087084374944	0.17657587383350884
-0.49720983568749944	0.19081704773981487
-0.49714880053124944	0.20485863834872636
-0.49708776537499944	0.21868467780881404
-0.49702673021874944	0.2322804211370876
-0.49696569506249944	0.24563114805791308
-0.49690465990624944	0.25872199867646944
-0.49684362474999944	0.27153803517323805
-0.49678258959374944	0.28406506559507705
-0.49672155443749944	0.2962895544011501
-0.49666051928124944	0.3081975925681365
-0.49659948412499944	0.31977617688800747
-0.49653844896874944	0.33101277300378934
-0.49647741381249944	0.34189424474456354
-0.49641637865624944	0.35240836685722426
-0.49635534349999944	0.3625439704477663
-0.49629430834374944	0.372289699848592
-0.49623327318749944	0.38163430407561555
-0.49617223803124944	0.39056748028627186
-0.49611120287499944	0.3990793767740846
-0.49605016771874944	0.407160154512637
-0.49598913256249944	0.4148007428414066
-0.49592809740624944	0.4219928596443394
-0.49586706224999944	0.4287281905241872
-0.49580602709374944	0.43499888411828697
-0.49574499193749944	0.44079806521248543
-0.49568395678124944	0.44611913247910057
-0.49562292162499944	0.4509559593898483
-0.49556188646874944	0.45530305166641244
-0.49550085131249944	0.4591551230002115
-0.49543981615624944	0.4625077900854
-0.49537878099999944	0.4653574490662029
-0.49531774584374944	0.467700489011822
-0.49525671068749944	0.4695338614607088
-0.49519567553124944	0.47085543595322044
-0.49513464037499944	0.4716636272331649
-0.49507360521874944	0.47195724032365277
-0.49501257006249944	0.47173560537468057
-0.49495153490624944	0.4709986593805824
-0.49489049974999944	0.4697469720299966
-0.49482946459374944	0.46798176868696706
-0.49476842943749944	0.4657046523973736
-0.49470739428124944	0.46291773511134127
-0.49464635912499944	0.4596239358313768
-0.49458532396874944	0.45582659066671766
-0.49452428881249944	0.4515295313994437
-0.49446325365624944	0.4467373255432108
-0.49440221849999944	0.4414548821576677
-0.49434118334374944	0.43568772617310475
-0.49428014818749944	0.4294420272758514
-0.49421911303124944	0.4227242108561994
-0.49415807787499944	0.415541574672591
-0.49409704271874944	0.40790187811518924
-0.49403600756249944	0.3998127973736636
-0.49397497240624944	0.39128318883462315
-0.49391393724999944	0.3823225806361969
-0.49385290209374944	0.37294008375147625
-0.49379186693749944	0.3631457618172293
-0.49373083178124944	0.35295039671592165
-0.49366979662499944	0.3423647525215773
-0.49360876146874944	0.33140054747608644
-0.49354772631249944	0.3200695321435544
-0.49348669115624944	0.3083833141823601
-0.49342565599999944	0.29635492379954015
-0.49336462084374944	0.28399806136513694
-0.49330358568749944	0.2713255572264572
-0.49324255053124944	0.2583504123307654
-0.49318151537499944	0.24508743325914237
-0.49312048021874944	0.23155150371178992
-0.49305944506249944	0.21775650270854954
-0.49299840990624944	0.20371747904230483
-0.49293737474999944	0.18945011154755162
-0.49287633959374944	0.17496943548303967
-0.49281530443749944	0.16029154712694774
-0.49275426928124944	0.14543280494798594
-0.49269323412499944	0.13040858611769998
-0.49263219896874944	0.11523525545552117
-0.49257116381249944	0.09993004959775521
-0.49251012865624944	0.08450966337900671
-0.49244909349999944	0.06899047166202091
-0.49238805834374944	0.05338917465992009
-0.49232702318749944	0.03772342777094396
-0.49226598803124944	0.022010491447525368
-0.49220495287499944	0.006266783565499093
-0.49214391771874944	-0.00949004887082022
-0.49208288256249944	-0.025242393378822343
-0.49202184740624944	-0.04097369942334155
-0.49196081224999944	-0.056666440653658466
-0.49189977709374944	-0.07230301427219064
-0.49183874193749944	-0.08786683222133733
-0.49177770678124944	-0.10334093865939364
-0.49171667162499944	-0.11870794370694347
-0.49165563646874944	-0.13395068401180035
-0.49159460131249944	-0.14905277506781553
-0.49153356615624944	-0.16399835056884035
-0.49147253099999944	-0.1787703228666524
-0.49141149584374944	-0.19335173247080176
-0.49135046068749944	-0.2077275565854678
-0.49128942553124944	-0.22188202722666703
-0.49122839037499944	-0.23579877538859828
-0.49116735521874944	-0.24946317129548118
-0.49110632006249944	-0.26286017100084375
-0.49104528490624944	-0.27597421508991177
-0.49098424974999944	-0.2887915810465526
-0.49092321459374944	-0.3012983551302307
-0.49086217943749944	-0.31347992681808384
-0.49080114428124944	-0.3253232674882029
-0.49074010912499944	-0.33681552285887434
-0.49067907396874944	-0.3479436068074461
-0.49061803881249944	-0.3586954939249608
-0.49055700365624944	-0.36905922497445337
-0.49049596849999944	-0.3790230749497765
-0.49043493334374944	-0.38857630474480587
-0.49037389818749944	-0.3977085234819442
-0.49031286303124944	-0.4064092816806442
-0.49025182787499944	-0.41466875300906186
-0.49019079271874944	-0.42247814116495624
-0.49012975756249944	-0.4298287926959558
-0.49006872240624944	-0.4367123516093951
-0.49000768724999944	-0.4431212497798853
-0.48994665209374944	-0.44904823721453024
-0.48988561693749944	-0.4544866874997603
-0.48982458178124944	-0.4594308306122242
-0.48976354662499944	-0.4638750653157896
-0.48970251146874944	-0.46781402653534004
-0.48964147631249944	-0.4712434852303579
-0.48958044115624944	-0.47415991389599826
-0.48951940599999944	-0.47655974225375053
-0.48945837084374944	-0.478440119401292
-0.48939733568749944	-0.4797990767405057
-0.48933630053124944	-0.4806350290362863
-0.48927526537499944	-0.4809469389893151
-0.48921423021874944	-0.48073435184421426
-0.48915319506249944	-0.47999744308193226
-0.48909215990624944	-0.47873704908230835
-0.48903112474999944	-0.47695434483865984
-0.48897008959374944	-0.4746511748391009
-0.48890905443749944	-0.4718302585128163
-0.48884801928124944	-0.46849450241574364
-0.48878698412499944	-0.46464732846115675
-0.48872594896874944	-0.4602931281178621
-0.48866491381249944	-0.45543670631887195
-0.48860387865624944	-0.45008329848243794
-0.48854284349999944	-0.44423858776435576
-0.48848180834374944	-0.437908899834218
-0.48842077318749944	-0.4311015336537418
-0.48835973803124944	-0.4238239983557418
-0.48829870287499944	-0.41608392979578346
-0.48823766771874944	-0.4078896519123077
-0.48817663256249944	-0.3992504241469388
-0.48811559740624944	-0.390176220403065
-0.48805456224999944	-0.3806766874366409
-0.48799352709374944	-0.3707617314861188
-0.48793249193749944	-0.3604426153897761
-0.48787145678124944	-0.34973110466308266
-0.48781042162499944	-0.338638977426798
-0.48774938646874944	-0.3271781375072051
-0.48768835131249944	-0.3153608972394501
-0.48762731615624944	-0.30320074100439104
-0.48756628099999944	-0.29071152571672737
-0.48750524584374944	-0.2779066391814937
-0.48744421068749944	-0.26479993581629124
-0.48738317553124944	-0.2514060076953447
-0.48732214037499944	-0.23773997120096813
-0.48726110521874944	-0.22381707658177954
-0.48720007006249944	-0.20965245038485336
-0.48713903490624944	-0.1952616418392558
-0.48707799974999944	-0.1806606642177216
-0.48701696459374944	-0.16586581221252797
-0.48695592943749944	-0.1508935076764807
-0.48689489428124944	-0.13576061368729803
-0.48683385912499944	-0.12048360957865879
-0.48677282396874944	-0.10507857847772331
-0.48671178881249944	-0.0895637194575114
-0.48665075365624944	-0.07395718019347731
-0.48658971849999944	-0.05827451621510383
-0.48652868334374944	-0.04253259945695367
-0.48646764818749944	-0.026750832021402007
-0.48640661303124944	-0.010946921628272497
-0.48634557787499944	0.0048632484132004545
-0.48628454271874944	0.020661887491390397
-0.48622350756249944	0.03643033747254828
-0.48616247240624944	0.05215152613843468
-0.48610143724999944	0.06780809662595991
-0.48604040209374944	0.08338241497725568
-0.48597936693749944	0.09885774971979856
-0.48591833178124944	0.11421617014233028
-0.48585729662499944	0.12944008630411905
-0.48579626146874944	0.1445140048188809
-0.48573522631249944	0.1594207405296854
-0.48567419115624944	0.17414219411152923
-0.48561315599999944	0.18866298086692795
-0.48555212084374944	0.20296774648778176
-0.48549108568749944	0.21703950191028026
-0.48543005053124944	0.23086245464400235
-0.48536901537499944	0.2444214253906687
-0.48530798021874944	0.2577010231426712
-0.48524694506249944	0.2706870930023154
-0.48518590990624944	0.283364836870491
-0.48512487474999944	0.29571924584612536
-0.48506383959374944	0.30773727436440107
-0.48500280443749944	0.3194056403540248
-0.48494176928124944	0.330710732508193
-0.48488073412499944	0.34164016506293915
-0.48481969896874944	0.35218163480994347
-0.48475866381249944	0.36232306470054365
-0.48469762865624944	0.37205353444320477
-0.48463659349999944	0.3813620374301422
-0.48457555834374944	0.39023757751045085
-0.48451452318749944	0.39867058673351885
-0.48445348803124944	0.4066519029621299
-0.48439245287499944	0.4141720387870198
-0.48433141771874944	0.4212223987274755
-0.48427038256249944	0.4277954315877193
-0.48420934740624944	0.43388368973797764
-0.48414831224999944	0.4394800677919814
-0.48408727709374944	0.444578358233544
-0.48402624193749944	0.44917276839124837
-0.48396520678124944	0.4532579711115248
-0.48390417162499944	0.45682943721106356
-0.48384313646874944	0.45988310486516265
-0.48378210131249944	0.46241539082618294
-0.48372106615624944	0.4644233943369923
-0.48366003099999944	0.4659047941051024
-0.48359899584374944	0.46685781658083714
-0.48353796068749944	0.4672813222480373
-0.48347692553124944	0.4671747749434843
-0.48341589037499944	0.46653819263964696
-0.48335485521874944	0.46537216783862273
-0.48329382006249944	0.46367788599323206
-0.48323278490624944	0.46145719269483026
-0.48317174974999944	0.4587125810252704
-0.48311071459374944	0.4554469447274846
-0.48304967943749944	0.45166373508443186
-0.48298864428124944	0.44736726988327125
-0.48292760912499944	0.4425622337777424
-0.48286657396874944	0.43725383977414906
-0.48280553881249944	0.43144821505874514
-0.48274450365624944	0.4251515986012936
-0.48268346849999944	0.4183705997429949
-0.48262243334374944	0.41111315709236157
-0.48256139818749944	0.4033877114848101
-0.48250036303124944	0.3952022489499366
-0.48243932787499944	0.3865656513813628
-0.48237829271874944	0.3774881375123077
-0.48231725756249944	0.36797973279524665
-0.48225622240624944	0.35805069977475606
-0.48219518724999944	0.34771224617172153
-0.48213415209374944	0.3369761813954037
-0.48207311693749944	0.3258544289150912
-0.48201208178124944	0.31435873323803015
-0.48195104662499944	0.30250236296411215
-0.48189001146874944	0.2902994169554511
-0.48182897631249944	0.2777627224780384
-0.48176794115624944	0.26490586412432504
-0.48170690599999944	0.2517437650170581
-0.48164587084374944	0.2382915283632084
-0.48158483568749944	0.2245641167877743
-0.48152380053124944	0.21057629660316593
-0.48146276537499944	0.1963439664198967
-0.48140173021874944	0.1818835838090277
-0.48134069506249944	0.16721117289105292
-0.48127965990624944	0.15234297459135768
-0.48121862474999944	0.13729573274552423
-0.48115758959374944	0.12208662822031859
-0.48109655443749944	0.10673266865136394
-0.48103551928124944	0.0912507785947144
-0.48097448412499944	0.07565864264799602
-0.48091344896874944	0.05997422254422267
-0.48085241381249944	0.04421480260609971
-0.48079137865624944	0.028397675829975096
-0.48073034349999944	0.012541095518378594
-0.48066930834374944	-0.0033365811589776795
-0.48060827318749944	-0.01921794209897256
-0.48054723803124944	-0.03508530966506818
-0.48048620287499944	-0.05092026818612697
-0.48042516771874944	-0.06670519847650529
-0.48036413256249944	-0.08242238742090581
-0.48030309740624944	-0.0980534625860649
-0.48024206224999944	-0.11358117880178402
-0.48018102709374944	-0.12898845184559513
-0.48011999193749944	-0.14425710260743616
-0.48005895678124944	-0.1593696407587501
-0.47999792162499944	-0.17430957064319194
-0.47993688646874944	-0.18906009017402822
-0.47987585131249944	-0.2036040441369
-0.47981481615624944	-0.21792446243180186
-0.47975378099999944	-0.23200563437157412
-0.47969274584374944	-0.24583219917699042
-0.47963171068749944	-0.25938753821445304
-0.47957067553124944	-0.2726558115695815
-0.47950964037499944	-0.28562279646386557
-0.47944860521874944	-0.2982740157482906
-0.47938757006249944	-0.3105941603647127
-0.47932653490624944	-0.32256877826902214
-0.47926549974999944	-0.33418539278269427
-0.47920446459374944	-0.34543083964255206
-0.47914342943749944	-0.35629088255043856
-0.47908239428124944	-0.36675343254075665
-0.47902135912499944	-0.37680746703744844
-0.47896032396874944	-0.38644086340698225
-0.47889928881249944	-0.3956421771312592
-0.47883825365624944	-0.40440118525515106
-0.47877721849999944	-0.41270770187143285
-0.47871618334374944	-0.42055208180550874
-0.47865514818749944	-0.42792539379228384
-0.47859411303124944	-0.4348189388879727
-0.47853307787499944	-0.44122462022967923
-0.47847204271874944	-0.4471350729226943
-0.47841100756249944	-0.4525433994643179
-0.47834997240624944	-0.4574431751181984
-0.47828893724999944	-0.4618285436879896
-0.47822790209374944	-0.465694311334583
-0.47816686693749944	-0.469035946899475
-0.47810583178124944	-0.47184940659166674
-0.47804479662499944	-0.47413111131367464
-0.47798376146874944	-0.47587818448534075
-0.47792272631249944	-0.4770884569174524
-0.47786169115624944	-0.477760305790537
-0.47780065599999944	-0.4778926497418501
-0.47773962084374944	-0.47748500911336983
-0.47767858568749944	-0.4765375463298742
-0.47761755053124944	-0.47505108555963
-0.47755651537499944	-0.47302705348083773
-0.47749548021874944	-0.4704673502123221
-0.47743444506249944	-0.4673745049230821
-0.47737340990624944	-0.4637518751188479
-0.47731237474999944	-0.4596033259536101
-0.47725133959374944	-0.4549330086782588
-0.47719030443749944	-0.44974587283842266
-0.47712926928124944	-0.4440477340216743
-0.47706823412499944	-0.43784471525464436
-0.47700719896874944	-0.43114338529805646
-0.47694616381249944	-0.42395101205597086
-0.47688512865624944	-0.4162754819272251
-0.47682409349999944	-0.4081252368345981
-0.47676305834374944	-0.3995092032931021
-0.47670202318749944	-0.3904368471226767
-0.47664098803124944	-0.38091802696002447
-0.47657995287499944	-0.3709631212466208
-0.47651891771874944	-0.3605833785682286
-0.47645788256249944	-0.3497904057530699
-0.47639684740624944	-0.3385958232073915
-0.47633581224999944	-0.3270117510336384
-0.47627477709374944	-0.3150513418096753
-0.47621374193749944	-0.3027283897839015
-0.47615270678124944	-0.2900561367889216
-0.47609167162499944	-0.2770480797595075
-0.47603063646874944	-0.2637191946178883
-0.47596960131249944	-0.25008464608992986
-0.47590856615624944	-0.23615944433751596
-0.47584753099999944	-0.2219590471579609
-0.47578649584374944	-0.20749894507155534
-0.47572546068749944	-0.1927953376219789
-0.47566442553124944	-0.17786527206081734
-0.47560339037499944	-0.16272534600623811
-0.47554235521874944	-0.14739201459657802
-0.47548132006249944	-0.1318824315663247
-0.47542028490624944	-0.11621410240932731
-0.47535924974999944	-0.10040480132157842
-0.47529821459374944	-0.08447241624664201
-0.47523717943749944	-0.06843439754795559
-0.47517614428124944	-0.052308421596571814
-0.47511510912499944	-0.03611318046821986
-0.47505407396874944	-0.019867248485065627
-0.47499303881249944	-0.0035880926556961434
-0.47493200365624944	0.01270627336971584
-0.47487096849999944	0.0289966997145438
-0.47480993334374944	0.04526461702909033
-0.47474889818749944	0.06149216768542756
-0.47468786303124944	0.07766168337391464
-0.47462682787499944	0.09375478281451316
-0.47456579271874944	0.1097521710884247
-0.47450475756249944	0.12563598079344937
-0.47444372240624944	0.14138954664733017
-0.47438268724999944	0.15699492225206813
-0.47432165209374944	0.17243339792601542
-0.47426061693749944	0.18768753297619128
-0.47419958178124944	0.20274098592210762
-0.47413854662499944	0.21757680290863435
-0.47407751146874944	0.23217743266881538
-0.47401647631249944	0.24652620228179767
-0.47395544115624944	0.26060763448503527
-0.47389440599999944	0.2744058788988139
-0.47383337084374944	0.28790427781594535
-0.47377233568749944	0.30108781385299177
-0.47371130053124944	0.313942508776985
-0.47365026537499944	0.32645283555764565
-0.47358923021874944	0.33860421721444744
-0.47352819506249944	0.35038386143124073
-0.47346715990624944	0.3617780226329059
-0.47340612474999944	0.3727732618418556
-0.47334508959374944	0.3833573867031142
-0.47328405443749944	0.3935182579990774
-0.47322301928124944	0.40324444434048573
-0.47316198412499944	0.4125249412394135
-0.47310094896874944	0.4213485878059706
-0.47303991381249944	0.42970538371707545
-0.47297887865624944	0.4375862790970675
-0.47291784349999944	0.444982001503066
-0.47285680834374944	0.4518837823863801
-0.47279577318749944	0.4582838623095801
-0.47273473803124944	0.4641748515798163
-0.47267370287499944	0.4695498569361133
-0.47261266771874944	0.4744028578726242
-0.47255163256249944	0.47872820014961237
-0.47249059740624944	0.4825205331900843
-0.47242956224999944	0.4857755503056756
-0.47236852709374944	0.4884896739564889
-0.47230749193749944	0.49065944149970786
-0.47224645678124944	0.4922821523995066
-0.47218542162499944	0.4933560183423574
-0.47212438646874944	0.49387961704357775
-0.47206335131249944	0.4938521063200991
-0.47200231615624944	0.49327341240128747
-0.47194128099999944	0.4921440634529033
-0.47188024584374944	0.49046517059405764
-0.47181921068749944	0.48823842238711146
-0.47175817553124944	0.4854662071299935
-0.47169714037499944	0.4821515695118423
-0.47163610521874944	0.4782980268677045
-0.47157507006249944	0.4739097847345009
-0.47151403490624944	0.46899177192280267
-0.47145299974999944	0.46354933619404853
-0.47139196459374944	0.4575884165961129
-0.47133092943749944	0.45111576950404914
-0.47126989428124944	0.44413844902029326
-0.47120885912499944	0.43666418530839973
-0.47114782396874944	0.42870168490013755
-0.47108678881249944	0.4202595356794678
-0.47102575365624944	0.411346902681661
-0.47096471849999944	0.40197403408081833
-0.47090368334374944	0.39215158082480867
-0.47084264818749944	0.3818906997517727
-0.47078161303124944	0.3712024256454001
-0.47072057787499944	0.36009855482568154
-0.47065954271874944	0.3485922375188486
-0.47059850756249944	0.33669626967281013
-0.47053747240624944	0.32442381342499726
-0.47047643724999944	0.3117888358914831
-0.47041540209374944	0.2988052847791353
-0.47035436693749944	0.28548808608917947
