Time	Frequency
-0.5000192117500006	-0.3734973040200859
-0.49995817659375064	-0.3802288356820774
-0.49989714143750064	-0.3866204771778913
-0.49983610628125064	-0.39266578482406694
-0.49977507112500064	-0.3983589568837099
-0.49971403596875064	-0.4036947444528255
-0.49965300081250064	-0.4086685411299833
-0.49959196565625064	-0.4132756033319426
-0.49953093050000064	-0.41751113680982804
-0.49946989534375064	-0.42137122865259047
-0.49940886018750064	-0.4248525258163309
-0.49934782503125064	-0.42795160566052415
-0.49928678987500064	-0.43066525405462647
-0.49922575471875064	-0.43299097166953926
-0.49916471956250064	-0.4349266131418374
-0.49910368440625064	-0.4364701320323176
-0.49904264925000064	-0.4376198840474304
-0.49898161409375064	-0.4383747621782412
-0.49892057893750064	-0.43873399116402945
-0.49885954378125064	-0.4386969911847519
-0.49879850862500064	-0.4382636182934086
-0.49873747346875064	-0.43743416579539607
-0.49867643831250064	-0.4362092202820979
-0.49861540315625064	-0.43458975082948376
-0.49855436800000064	-0.4325770923478188
-0.49849333284375064	-0.43017291776207156
-0.49843229768750064	-0.4273792720373571
-0.49837126253125064	-0.4241984889270979
-0.49831022737500064	-0.42063342080250277
-0.49824919221875064	-0.41668724346025426
-0.49818815706250064	-0.4123631966046582
-0.49812712190625064	-0.4076651873763855
-0.49806608675000064	-0.40259745876918657
-0.49800505159375064	-0.3971643617433039
-0.49794401643750064	-0.39137082004826135
-0.49788298128125064	-0.38522193381044495
-0.49782194612500064	-0.3787231054069212
-0.49776091096875064	-0.37188034385665947
-0.49769987581250064	-0.3646996854013925
-0.49763884065625064	-0.3571873970173414
-0.49757780550000064	-0.34935042203194033
-0.49751677034375064	-0.3411958180003745
-0.49745573518750064	-0.3327307531495333
-0.49739470003125064	-0.3239628799251586
-0.49733366487500064	-0.31490018829074123
-0.49727262971875064	-0.30555090731839757
-0.49721159456250064	-0.2959233499322468
-0.49715055940625064	-0.28602613054956677
-0.49708952425000064	-0.2758683406926744
-0.49702848909375064	-0.2654591444387263
-0.49696745393750064	-0.2548080509758114
-0.49690641878125064	-0.24392467419892608
-0.49684538362500064	-0.23281851861540198
-0.49678434846875064	-0.22150003776687707
-0.49672331331250064	-0.2099797960870286
-0.49666227815625064	-0.19826758057527413
-0.49660124300000064	-0.18637402301282302
-0.49654020784375064	-0.17431073744136819
-0.49647917268750064	-0.1620883319165819
-0.49641813753125064	-0.14971720946906383
-0.49635710237500064	-0.13720933139629
-0.49629606721875064	-0.12457634411470625
-0.49623503206250064	-0.11182920150324016
-0.49617399690625064	-0.09897960821750798
-0.49611296175000064	-0.08603931299545639
-0.49605192659375064	-0.07302023774372703
-0.49599089143750064	-0.05993443121159938
-0.49592985628125064	-0.04679335320203026
-0.49586882112500064	-0.03360922630200272
-0.49580778596875064	-0.020394467115675136
-0.49574675081250064	-0.007160275334045742
-0.49568571565625064	0.0060807349479243
-0.49562468050000064	0.019315394174778427
-0.49556364534375064	0.032533222775981446
-0.49550261018750064	0.04572255778072996
-0.49544157503125064	0.05886932458049101
-0.49538053987500064	0.07196188688554286
-0.49531950471875064	0.08498965368779915
-0.49525846956250064	0.09793997154245197
-0.49519743440625064	0.11080047378625268
-0.49513639925000064	0.12355982468470941
-0.49507536409375064	0.13620622025446227
-0.49501432893750064	0.1487279671930775
-0.49495329378125064	0.1611138425426629
-0.49489225862500064	0.17335238454696023
-0.49483122346875064	0.18543212455925862
-0.49477018831250064	0.19734197621060143
-0.49470915315625064	0.20907123218982762
-0.49464811800000064	0.22060912649916797
-0.49458708284375064	0.23194480580904833
-0.49452604768750064	0.24306790361963349
-0.49446501253125064	0.25396811444601575
-0.49440397737500064	0.2646356510606865
-0.49434294221875064	0.2750608304559463
-0.49428190706250064	0.28523322469476564
-0.49422087190625064	0.2951438875934044
-0.49415983675000064	0.30478443042538833
-0.49409880159375064	0.31414507989577695
-0.49403776643750064	0.3232169563585221
-0.49397673128125064	0.3319924516562858
-0.49391569612500064	0.3404633932574725
-0.49385466096875064	0.3486213362360642
-0.49379362581250064	0.35645906483072154
-0.49373259065625064	0.3639697246787961
-0.49367155550000064	0.37114580436273376
-0.49361052034375064	0.37798064328050957
-0.49354948518750064	0.38446837265897765
-0.49348845003125064	0.3906027671985042
-0.49342741487500064	0.3963778369169796
-0.49336637971875064	0.40178851393682485
-0.49330534456250064	0.40682994488444324
-0.49324430940625064	0.41149704536730597
-0.49318327425000064	0.41578545980464915
-0.49312223909375064	0.41969154341341514
-0.49306120393750064	0.42321154310325293
-0.49300016878125064	0.4263419628607095
-0.49293913362500064	0.4290799468991795
-0.49287809846875064	0.4314229618847076
-0.49281706331250064	0.43336883560882156
-0.49275602815625064	0.4349157468419568
-0.49269499300000064	0.4360620818202081
-0.49263395784375064	0.43680672848003654
-0.49257292268750064	0.4371490638932846
-0.49251188753125064	0.43708874111796114
-0.49245085237500064	0.43662569101294063
-0.49238981721875064	0.4357602419417897
-0.49232878206250064	0.43449318897811734
-0.49226774690625064	0.43282568302424385
-0.49220671175000064	0.4307592462005095
-0.49214567659375064	0.42829572290789064
-0.49208464143750064	0.42543718174354445
-0.49202360628125064	0.42218625033891394
-0.49196257112500064	0.4185461833278184
-0.49190153596875064	0.4145201778410247
-0.49184050081250064	0.4101115555517243
-0.49177946565625064	0.405324583860124
-0.49171843050000064	0.40016383687462903
-0.49165739534375064	0.394633875477916
-0.49159636018750064	0.3887398070012168
-0.49153532503125064	0.38248689701988076
-0.49147428987500064	0.375880858649363
-0.49141325471875064	0.36892809292601564
-0.49135221956250064	0.3616349542230265
-0.49129118440625064	0.35400794003964225
-0.49123014925000064	0.3460538861271187
-0.49116911409375064	0.337780293125829
-0.49110807893750064	0.3291953466508803
-0.49104704378125064	0.32030657985428784
-0.49098600862500064	0.31112159344200496
-0.49092497346875064	0.3016494051461145
-0.49086393831250064	0.2918990106537309
-0.49080290315625064	0.2818791154102342
-0.49074186800000064	0.2715991602311851
-0.49068083284375064	0.2610684397020388
-0.49061979768750064	0.2502963162325041
-0.49055876253125064	0.2392934024550054
-0.49049772737500064	0.2280702971194669
-0.49043669221875064	0.2166365178679056
-0.49037565706250064	0.2050023442730896
-0.49031462190625064	0.1931795178957765
-0.49025358675000064	0.18117900137834744
-0.49019255159375064	0.16901123189440287
-0.49013151643750064	0.15668769329994678
-0.49007048128125064	0.1442200386640252
-0.49000944612500064	0.13161985569023318
-0.48994841096875064	0.11889883707576775
-0.48988737581250064	0.10606860509989505
-0.48982634065625064	0.09314108440194675
-0.48976530550000064	0.08012828575834817
-0.48970427034375064	0.06704261637667981
-0.48964323518750064	0.05389643339170223
-0.48958220003125064	0.040701267971829526
-0.48952116487500064	0.027469378480114538
-0.48946012971875064	0.014213703654599308
-0.48939909456250064	0.0009464812468370115
-0.48933805940625064	-0.012320054224355259
-0.48927702425000064	-0.02557346941565697
-0.48921598909375064	-0.03880182660057251
-0.48915495393750064	-0.051992637039529825
-0.48909391878125064	-0.06513290865930534
-0.48903288362500064	-0.07821069088254869
-0.48897184846875064	-0.09121429659419722
-0.48891081331250064	-0.10413148580986092
-0.48884977815625064	-0.11694967298054401
-0.48878874300000064	-0.12965674807561642
-0.48872770784375064	-0.14224149740413558
-0.48866667268750064	-0.15469209338964715
-0.48860563753125064	-0.16699635343829639
-0.48854460237500064	-0.1791429646770287
-0.48848356721875064	-0.19112070066552092
-0.48842253206250064	-0.20291816620371367
-0.48836149690625064	-0.2145244976034997
-0.48830046175000064	-0.22592873890086715
-0.48823942659375064	-0.23711982139451054
-0.48817839143750064	-0.2480875627499625
-0.48811735628125064	-0.2588218187478907
-0.48805632112500064	-0.2693122675212065
-0.48799528596875064	-0.2795489759137879
-0.48793425081250064	-0.28952224149163536
-0.48787321565625064	-0.2992229678124174
-0.48781218050000064	-0.30864199033931816
-0.48775114534375064	-0.31777003880343496
-0.48769011018750064	-0.32659870321365453
-0.48762907503125064	-0.3351198537529789
-0.48756803987500064	-0.34332523398198744
-0.48750700471875064	-0.3512069632777177
-0.48744596956250064	-0.358757685600041
-0.48738493440625064	-0.3659702724960791
-0.48732389925000064	-0.3728379236604299
-0.48726286409375064	-0.3793539903760225
-0.48720182893750064	-0.3855120838834012
-0.48714079378125064	-0.3913066908422599
-0.48707975862500064	-0.3967322930306237
-0.48701872346875064	-0.401783257338266
-0.48695768831250064	-0.4064549278604475
-0.48689665315625064	-0.4107430594813344
-0.48683561800000064	-0.4146433251158642
-0.48677458284375064	-0.4181518314146459
-0.48671354768750064	-0.4212651973036833
-0.48665251253125064	-0.4239805138129541
-0.48659147737500064	-0.4262951165165392
-0.48653044221875064	-0.4282065111581103
-0.48646940706250064	-0.42971276992207436
-0.48640837190625064	-0.4308124893817818
-0.48634733675000064	-0.4315045040793293
-0.48628630159375064	-0.43178791428974944
-0.48622526643750064	-0.4316622690182124
-0.48616423128125064	-0.43112760696651875
-0.48610319612500064	-0.43018433421086566
-0.48604216096875064	-0.4288331230884781
-0.48598112581250064	-0.42707504519923717
-0.48592009065625064	-0.4249116446438656
-0.48585905550000064	-0.42234478649480983
-0.48579802034375064	-0.4193767310221729
-0.48573698518750064	-0.4160101282533603
-0.48567595003125064	-0.41224792351079387
-0.48561491487500064	-0.40809346458676765
-0.48555387971875064	-0.4035505560793458
-0.48549284456250064	-0.39862337597951625
-0.48543180940625064	-0.39331629387896205
-0.48537077425000064	-0.38763401417394205
-0.48530973909375064	-0.38158184538556533
-0.48524870393750064	-0.37516543250987605
-0.48518766878125064	-0.3683905446657064
-0.48512663362500064	-0.3612632462677309
-0.48506559846875064	-0.3537901096157649
-0.48500456331250064	-0.3459782037463396
-0.48494352815625064	-0.3378346223717414
-0.48488249300000064	-0.3293667450133952
-0.48482145784375064	-0.32058250725057025
-0.48476042268750064	-0.3114898778963458
-0.48469938753125064	-0.3020972887725963
-0.48463835237500064	-0.29241368374715315
-0.48457731721875064	-0.28244780312264023
-0.48451628206250064	-0.27220858069524007
-0.48445524690625064	-0.26170575427983916
-0.48439421175000064	-0.2509495183664781
-0.48433317659375064	-0.23994947002804534
-0.48427214143750064	-0.2287151537802909
-0.48421110628125064	-0.2172577555961867
-0.48415007112500064	-0.2055883621262655
-0.48408903596875064	-0.19371693729589906
-0.48402800081250064	-0.1816546124452594
-0.48396696565625064	-0.16941308360529617
-0.48390593050000064	-0.15700338769888159
-0.48384489534375064	-0.14443710371472887
-0.48378386018750064	-0.13172644381681753
-0.48372282503125064	-0.1188829025428169
-0.48366178987500064	-0.10591790129621564
-0.48360075471875064	-0.09284400383483937
-0.48353971956250064	-0.07967397671550415
-0.48347868440625064	-0.06642000023506693
-0.48341764925000064	-0.05309365275579249
-0.48335661409375064	-0.03970725088250575
-0.48329557893750064	-0.026274415626926728
-0.48323454378125064	-0.012807928541861743
-0.48317350862500064	0.0006806046077800993
-0.48311247346875064	0.014179034037552059
-0.48305143831250064	0.027673808535607743
-0.48299040315625064	0.04115127990567141
-0.48292936800000064	0.05459986798706512
-0.48286833284375064	0.06800814889719288
-0.48280729768750064	0.08136227123796774
-0.48274626253125064	0.09464882937678211
-0.48268522737500064	0.10785623536703029
-0.48262419221875064	0.12097249101629987
-0.48256315706250064	0.1339851519242008
-0.48250212190625064	0.14688152891347342
-0.48244108675000064	0.15964909872494867
-0.48238005159375064	0.17227634007838466
-0.48231901643750064	0.18475171917815886
-0.48225798128125064	0.19706325479215822
-0.48219694612500064	0.2091988476506901
-0.48213591096875064	0.2211470282821344
-0.48207487581250064	0.2328971378210229
-0.48201384065625064	0.24443782704077882
-0.48195280550000064	0.2557579089559577
-0.48189177034375064	0.26684701563541413
-0.48183073518750064	0.277694281671215
-0.48176970003125064	0.2882894240846581
-0.48170866487500064	0.2986229735301264
-0.48164762971875064	0.3086847671020592
-0.48158659456250064	0.3184647002021874
-0.48152555940625064	0.3279540190313231
-0.48146452425000064	0.3371441737511696
-0.48140348909375064	0.34602563569685585
-0.48134245393750064	0.3545897247727337
-0.48128141878125064	0.3628290105610737
-0.48122038362500064	0.3707354550802428
-0.48115934846875064	0.37830117668209795
-0.48109831331250064	0.38551916828073657
-0.48103727815625064	0.39238238786759255
-0.48097624300000064	0.3988841236247582
-0.48091520784375064	0.4050183801994977
-0.48085417268750064	0.41077927008362364
-0.48079313753125064	0.41616096503718913
-0.48073210237500064	0.4211582466461391
-0.48067106721875064	0.4257664559480162
-0.48061003206250064	0.4299810144529743
-0.48054899690625064	0.4337977202620728
-0.48048796175000064	0.43721300069929536
-0.48042692659375064	0.4402233316806997
-0.48036589143750064	0.4428255672312788
-0.48030485628125064	0.4450173549335744
-0.48024382112500064	0.4467964505062649
-0.48018278596875064	0.44816083296941606
-0.48012175081250064	0.4491090857188655
-0.48006071565625064	0.44964018365095526
-0.47999968050000064	0.44975345642647263
-0.47993864534375064	0.44944861002593917
-0.47987761018750064	0.4487257354717334
-0.47981657503125064	0.4475853070161916
-0.47975553987500064	0.4460282335393801
-0.47969450471875064	0.44405585218669946
-0.47963346956250064	0.44166979793280664
-0.47957243440625064	0.4388720959050601
-0.47951139925000064	0.4356652489659886
-0.47945036409375064	0.43205207825736164
-0.47938932893750064	0.42803582364043286
-0.47932829378125064	0.42362012247590414
-0.47926725862500064	0.4188088105813252
-0.47920622346875064	0.413606303696301
-0.47914518831250064	0.4080175127954464
-0.47908415315625064	0.4020473419277734
-0.47902311800000064	0.3957011355002099
-0.47896208284375064	0.38898486751121586
-0.47890104768750064	0.3819047461924267
-0.47884001253125064	0.3744672588017113
-0.47877897737500064	0.36667903261630747
-0.47871794221875064	0.35854717100462713
-0.47865690706250064	0.35007966267927765
-0.47859587190625064	0.34128437787111476
-0.47853483675000064	0.3321687139944057
-0.47847380159375064	0.32274106635981575
-0.47841276643750064	0.31301108877105316
-0.47835173128125064	0.3029878390819871
-0.47829069612500064	0.2926796466766771
-0.47822966096875064	0.2820960377596625
-0.47816862581250064	0.2712477371615185
-0.47810759065625064	0.2601448410687839
-0.47804655550000064	0.24879703446400817
-0.47798552034375064	0.23721500227293724
-0.47792448518750064	0.22540976486885475
-0.47786345003125064	0.2133921959877046
-0.47780241487500064	0.20117362662497265
-0.47774137971875064	0.1887655841647083
-0.47768034456250064	0.17617944246890405
-0.47761930940625064	0.16342663156305764
-0.47755827425000064	0.15051949303244178
-0.47749723909375064	0.13747063882848698
-0.47743620393750064	0.1242914985322155
-0.47737516878125064	0.11099406348466605
-0.47731413362500064	0.09759166393093473
-0.47725309846875064	0.0840968664832632
-0.47719206331250064	0.07052183552203736
-0.47713102815625064	0.05687941386110906
-0.47706999300000064	0.04318233001660888
-0.47700895784375064	0.029443528185994175
-0.47694792268750064	0.01567636797981646
-0.47688688753125064	0.0018935471510172406
-0.47682585237500064	-0.0118926574924732
-0.47676481721875064	-0.02566900394753314
-0.47670378206250064	-0.03942160555852997
-0.47664274690625064	-0.05313806646318611
-0.47658171175000064	-0.06680622464296979
-0.47652067659375064	-0.08041245439546797
-0.47645964143750064	-0.09394376448310834
-0.47639860628125064	-0.10738777218724732
-0.47633757112500064	-0.1207317643572284
-0.47627653596875064	-0.1339632392603571
-0.47621550081250064	-0.14706944925396143
-0.47615446565625064	-0.16003797164450748
-0.47609343050000064	-0.17285701192236394
-0.47603239534375064	-0.1855141166924644
-0.47597136018750064	-0.1979971047299223
-0.47591032503125064	-0.21029484374789273
-0.47584928987500064	-0.22239536162362267
-0.47578825471875064	-0.23428648562275334
-0.47572721956250064	-0.24595788656824896
-0.47566618440625064	-0.2573990175888999
-0.47560514925000064	-0.2685977194297688
-0.47554411409375064	-0.2795432084453088
-0.47548307893750064	-0.2902264676692896
-0.47542204378125064	-0.3006372217863672
-0.47536100862500064	-0.310764578405052
-0.47529997346875064	-0.3205991008293396
-0.47523893831250064	-0.3301319568702548
-0.47517790315625064	-0.339354117968367
-0.47511686800000064	-0.3482565829614902
-0.47505583284375064	-0.35683075217587723
-0.47499479768750064	-0.36506848315485896
-0.47493376253125064	-0.3729619998860671
-0.47487272737500064	-0.3805040620514687
-0.47481169221875064	-0.3876872285732183
-0.47475065706250064	-0.3945043212717536
-0.47468962190625064	-0.40094927801595404
-0.47462858675000064	-0.40701589268633237
-0.47456755159375064	-0.4126980895783059
-0.47450651643750064	-0.4179906728747121
-0.47444548128125064	-0.42288853683551864
-0.47438444612500064	-0.4273867722876464
-0.47432341096875064	-0.43148114623309
-0.47426237581250064	-0.4351678791341079
-0.47420134065625064	-0.43844332710087097
-0.47414030550000064	-0.44130417402713
-0.47407927034375064	-0.4437476375709383
-0.47401823518750064	-0.445771461448361
-0.47395720003125064	-0.447373725886491
-0.47389616487500064	-0.448552690641998
-0.47383512971875064	-0.44930710496848614
-0.47377409456250064	-0.44963627165157555
-0.47371305940625064	-0.44953985022057985
-0.47365202425000064	-0.4490178305666925
-0.47359098909375064	-0.44807060514529573
-0.47352995393750064	-0.4466989890928131
-0.47346891878125064	-0.4449041897003306
-0.47340788362500064	-0.44268789364351946
-0.47334684846875064	-0.4400521866891982
-0.47328581331250064	-0.4369994384372189
-0.47322477815625064	-0.43353240295496964
-0.47316374300000064	-0.4296542763831047
-0.47310270784375064	-0.42536884845687206
-0.47304167268750064	-0.4206802238336323
-0.47298063753125064	-0.41559246191230703
-0.47291960237500064	-0.4101102619485887
-0.47285856721875064	-0.4042391307236553
-0.47279753206250064	-0.3979846191290764
-0.47273649690625064	-0.3913523117153604
-0.47267546175000064	-0.38434838780060854
-0.47261442659375064	-0.3769797264289321
-0.47255339143750064	-0.3692532519537674
-0.47249235628125064	-0.36117607639199756
-0.47243132112500064	-0.35275602575855264
-0.47237028596875064	-0.344000941036029
-0.47230925081250064	-0.3349189818387208
-0.47224821565625064	-0.3255188888219485
-0.47218718050000064	-0.31580961174664307
-0.47212614534375064	-0.3058005591359635
-0.47206511018750064	-0.2955007011961159
-0.47200407503125064	-0.28491954065517233
-0.47194303987500064	-0.27406817014793206
-0.47188200471875064	-0.26295671539905874
-0.47182096956250064	-0.2515946724392542
-0.47175993440625064	-0.23999329641183534
-0.47169889925000064	-0.22816439878150613
-0.47163786409375064	-0.21611877121267867
-0.47157682893750064	-0.2038671879994976
-0.47151579378125064	-0.19142174352070243
-0.47145475862500064	-0.1787948964496272
-0.47139372346875064	-0.16599824653878878
-0.47133268831250064	-0.15304343783157706
-0.47127165315625064	-0.13994316510401167
-0.47121061800000064	-0.1267104320767828
-0.47114958284375064	-0.11335745227245314
-0.47108854768750064	-0.09989658315488127
-0.47102751253125064	-0.08634124220922151
-0.47096647737500064	-0.07270435960671046
-0.47090544221875064	-0.05899822805184981
-0.47084440706250064	-0.04523652613702249
-0.47078337190625064	-0.03143311589063316
-0.47072233675000064	-0.017600040669721977
-0.47066130159375064	-0.0037500161755422623
-0.47060026643750064	0.010102190182479128
-0.47053923128125064	0.023943207442364164
-0.47047819612500064	0.03776128019839384
-0.47041716096875064	0.05154290066667944
