Time	Frequency
-0.5000219344374983	0.46339888186850714
-0.4999608992812483	0.45422770890717756
-0.4998998641249983	0.4443525885169342
-0.4998388289687483	0.43378828035709177
-0.4997777938124983	0.42255123119222193
-0.4997167586562483	0.41065895288353166
-0.4996557234999983	0.3981292145052973
-0.4995946883437483	0.38498106779008545
-0.4995336531874983	0.37123485222034974
-0.4994726180312483	0.35691146830212866
-0.4994115828749983	0.342033195546359
-0.4993505477187483	0.32662276865958556
-0.4992895125624983	0.31070320826878056
-0.4992284774062483	0.2942992700095027
-0.4991674422499983	0.2774363199889663
-0.4991064070937483	0.26014010063374643
-0.4990453719374983	0.24243726456761788
-0.4989843367812483	0.22435470142253747
-0.4989233016249983	0.205919987587213
-0.4988622664687483	0.1871619070738562
-0.4988012313124983	0.1681094349304102
-0.4987401961562483	0.14879134673223562
-0.4986791609999983	0.12923731634783403
-0.4986181258437483	0.10947785949384208
-0.4985570906874983	0.0895431945107439
-0.4984960555312483	0.06946373393616491
-0.4984350203749983	0.04927054384023006
-0.4983739852187483	0.02899516416042732
-0.4983129500624983	0.008668534018093175
-0.4982519149062483	-0.011678603074108557
-0.4981908797499983	-0.03201453776739241
-0.4981298445937483	-0.05230727249449339
-0.4980688094374983	-0.07252554218018445
-0.4980077742812483	-0.09263884226571352
-0.4979467391249983	-0.1126163757367367
-0.4978857039687483	-0.13242667508031317
-0.4978246688124983	-0.15203855488920928
-0.4977636336562483	-0.17142212463917017
-0.4977025984999983	-0.19054805973811223
-0.4976415633437483	-0.20938637295053558
-0.4975805281874983	-0.227907326884928
-0.4975194930312483	-0.2460824388863734
-0.4974584578749983	-0.2638841983493763
-0.4973974227187483	-0.2812846443128852
-0.4973363875624983	-0.2982559133929024
-0.4972753524062483	-0.3147723683072625
-0.4972143172499983	-0.3308088069087979
-0.4971532820937483	-0.34633937178926644
-0.4970922469374983	-0.3613400467177662
-0.4970312117812483	-0.37578800085623826
-0.4969701766249983	-0.38965998373165456
-0.4969091414687483	-0.40293441741610414
-0.4968481063124983	-0.4155911654890118
-0.4967870711562483	-0.42760981194751196
-0.4967260359999983	-0.43897124095717693
-0.4966650008437483	-0.4496582723008397
-0.4966039656874983	-0.45965394079965743
-0.4965429305312483	-0.46894200373469874
-0.4964818953749983	-0.4775080080508366
-0.4964208602187483	-0.48533862320843485
-0.4963598250624983	-0.49242113566011425
-0.4962987899062483	-0.49874413026831377
-0.4962377547499983	-0.504297520779255
-0.4961767195937483	-0.5090723524616569
-0.4961156844374983	-0.5130609187637123
-0.4960546492812483	-0.5162565857551317
-0.4959936141249983	-0.5186538011491502
-0.4959325789687483	-0.5202484731528578
-0.4958715438124983	-0.5210378325622192
-0.4958105086562483	-0.5210201600908574
-0.4957494734999983	-0.5201949396877898
-0.4956884383437483	-0.5185629985819169
-0.4956274031874983	-0.5161263597639751
-0.4955663680312483	-0.5128882970712949
-0.4955053328749983	-0.5088533972868075
-0.4954442977187483	-0.5040273788964151
-0.4953832625624983	-0.49841715660836167
-0.4953222274062483	-0.4920308614675452
-0.4952611922499983	-0.48487793434767607
-0.4952001570937483	-0.47696902968562943
-0.4951391219374983	-0.46831575203190373
-0.4950780867812483	-0.45893088982738167
-0.4950170516249983	-0.4488284719644565
-0.4949560164687483	-0.438023632072705
-0.4948949813124983	-0.4265328761697183
-0.4948339461562483	-0.41437334841092416
-0.4947729109999983	-0.4015628790693125
-0.4947118758437483	-0.38812089743199757
-0.4946508406874983	-0.37406812133640926
-0.4945898055312483	-0.3594260224592596
-0.4945287703749983	-0.3442164158106725
-0.4944677352187483	-0.328461627733822
-0.4944067000624983	-0.31218601614284686
-0.4943456649062483	-0.29541515289636355
-0.4942846297499983	-0.2781741960983308
-0.4942235945937483	-0.26048863953145596
-0.4941625594374983	-0.24238549884321176
-0.4941015242812483	-0.22389275743706163
-0.4940404891249983	-0.20503869641929962
-0.4939794539687483	-0.18585227086641282
-0.4939184188124983	-0.1663624886081009
-0.4938573836562483	-0.1465984692219549
-0.4937963484999983	-0.12659103618230153
-0.4937353133437483	-0.10637127702900835
-0.4936742781874983	-0.08596954463249554
-0.4936132430312483	-0.06541719169045887
-0.4935522078749983	-0.04474583835695392
-0.4934911727187483	-0.023986878017804483
-0.4934301375624983	-0.003172392025031911
-0.4933691024062483	0.017665601510229473
-0.4933080672499983	0.03849512164880123
-0.4932470320937483	0.059284126089123285
-0.4931859969374983	0.0800009049747691
-0.4931249617812483	0.10061343927783607
-0.4930639266249983	0.1210899399987858
-0.4930028914687483	0.14139876805802623
-0.4929418563124983	0.16150860309845272
-0.4928808211562483	0.1813888828180524
-0.4928197859999983	0.20100872998098618
-0.4927587508437483	0.220337400214552
-0.4926977156874983	0.2393452831339454
-0.4926366805312483	0.2580033194676868
-0.4925756453749983	0.2762826954380163
-0.4925146102187483	0.29415459300786345
-0.4924535750624983	0.31159126288159733
-0.4923925399062483	0.32856616487010476
-0.4923315047499983	0.34505291766441953
-0.4922704695937483	0.36102587103723266
-0.4922094344374983	0.37646008868692743
-0.4921483992812483	0.3913314078101656
-0.4920873641249983	0.4056168797212615
-0.4920263289687483	0.41929425545134075
-0.4919652938124983	0.4323422778610981
-0.4919042586562483	0.4447405976594648
-0.4918432234999983	0.4564694771026728
-0.4917821883437483	0.46751053667769993
-0.4917211531874983	0.4778468518417582
-0.4916601180312483	0.48746215611714516
-0.4915990828749983	0.496340997920271
-0.4915380477187483	0.504469320757818
-0.4914770125624983	0.5118343911626626
-0.4914159774062483	0.5184246284092803
-0.4913549422499983	0.5242294030767886
-0.4912939070937483	0.5292392830991621
-0.4912328719374983	0.533446218556939
-0.4911718367812483	0.536843404229146
-0.4911108016249983	0.5394251694285329
-0.4910497664687483	0.5411871147946276
-0.4909887313124983	0.5421261243486697
-0.4909276961562483	0.5422403690282398
-0.4908666609999983	0.5415292458987409
-0.4908056258437483	0.5399934705840718
-0.4907445906874983	0.5376349283526012
-0.4906835555312483	0.5344568259291155
-0.4906225203749983	0.5304637241608229
-0.4905614852187483	0.5256613224562026
-0.4905004500624983	0.5200566176128396
-0.4904394149062483	0.513657905457362
-0.4903783797499983	0.5064744283243157
-0.4903173445937483	0.4985168853472726
-0.4902563094374983	0.48979739651853815
-0.4901952742812483	0.48032887022339993
-0.4901342391249983	0.47012533890798935
-0.4900732039687483	0.459202230191614
-0.4900121688124983	0.44757598312465136
-0.4899511336562483	0.4352642375374158
-0.4898900984999983	0.42228568026203783
-0.4898290633437483	0.40865968819949894
-0.4897680281874983	0.39440681978767106
-0.4897069930312483	0.37954882023395564
-0.4896459578749983	0.36410856640650696
-0.4895849227187483	0.3481095718950959
-0.4895238875624983	0.3315754433832721
-0.4894628524062483	0.314531350376005
-0.4894018172499983	0.29700418859933364
-0.4893407820937483	0.2790205171372532
-0.4892797469374983	0.2606069111037219
-0.4892187117812483	0.24179173057245987
-0.4891576766249983	0.22260453834013114
-0.4890966414687483	0.20307412852575307
-0.4890356063124983	0.1832297866878504
-0.4889745711562483	0.16310254098523633
-0.4889135359999983	0.14272340099749456
-0.4888525008437483	0.12212323967873157
-0.4887914656874983	0.10133344801652734
-0.4887304305312483	0.0803858219221796
-0.4886693953749983	0.0593129786089215
-0.4886083602187483	0.038147143255436326
-0.4885473250624983	0.016920437123216236
-0.4884862899062483	-0.004334295443391567
-0.4884252547499983	-0.025584488255211327
-0.4883642195937483	-0.04679743560763799
-0.4883031844374983	-0.06794035214925641
-0.4882421492812483	-0.08898123477312235
-0.4881811141249983	-0.10988764240924577
-0.4881200789687483	-0.1306268914645176
-0.4880590438124983	-0.15116716911550024
-0.4879980086562483	-0.17147719008211515
-0.4879369734999983	-0.19152574862627827
-0.4878759383437483	-0.21128178357581126
-0.4878149031874983	-0.23071489358877786
-0.4877538680312483	-0.24979493345518466
-0.4876928328749983	-0.26849225206661576
-0.4876317977187483	-0.28677856579141225
-0.4875707625624983	-0.30462594984198915
-0.4875097274062483	-0.3220063271750411
-0.4874486922499983	-0.3388925543120676
-0.4873876570937483	-0.3552588467782661
-0.4873266219374983	-0.3710802807300977
-0.4872655867812483	-0.3863322294903757
-0.4872045516249983	-0.4009909825300836
-0.4871435164687483	-0.4150339652586786
-0.4870824813124983	-0.4284393696330836
-0.4870214461562483	-0.4411864349912296
-0.4869604109999983	-0.45325565440039106
-0.4868993758437483	-0.4646282776437465
-0.4868383406874983	-0.4752866307891297
-0.4867773055312483	-0.48521422077775717
-0.4867162703749983	-0.49439557245493887
-0.4866552352187483	-0.5028165901862209
-0.4865942000624983	-0.5104643113533467
-0.4865331649062483	-0.5173266188048721
-0.4864721297499983	-0.5233928922842368
-0.4864110945937483	-0.5286539350356395
-0.4863500594374983	-0.5331014855682433
-0.4862890242812483	-0.5367284638421208
-0.4862279891249983	-0.5395293022013687
-0.4861669539687483	-0.5414997063491229
-0.4861059188124983	-0.5426365574387103
-0.4860448836562483	-0.5429380330820887
-0.4859838484999983	-0.5424036444507234
-0.4859228133437483	-0.5410342042135001
-0.4858617781874983	-0.5388317755307395
-0.4858007430312483	-0.5357997146942964
-0.4857397078749983	-0.531942719788402
-0.4856786727187483	-0.5272668694768888
-0.4856176375624983	-0.5217793385346493
-0.4855566024062483	-0.5154883675163024
-0.4854955672499983	-0.508403787864402
-0.4854345320937483	-0.5005368732401352
-0.4853734969374983	-0.49189967077071584
-0.4853124617812483	-0.48250531550550096
-0.4852514266249983	-0.47236841298177207
-0.4851903914687483	-0.46150505738510417
-0.4851293563124983	-0.44993198906310844
-0.4850683211562483	-0.43766670967887555
-0.4850072859999983	-0.42472853601678606
-0.4849462508437483	-0.41113796082585563
-0.4848852156874983	-0.3969157386354019
-0.4848241805312483	-0.38208374962305075
-0.4847631453749983	-0.36666524304410325
-0.4847021102187483	-0.3506843250371874
-0.4846410750624983	-0.3341658631095836
-0.4845800399062483	-0.3171353246368759
-0.4845190047499983	-0.2996190775363149
-0.4844579695937483	-0.2816447955528398
-0.4843969344374983	-0.2632403672816851
-0.4843358992812483	-0.24443409678720635
-0.4842748641249983	-0.22525554272358841
-0.4842138289687483	-0.20573457250498256
-0.4841527938124983	-0.18590152523660913
-0.4840917586562483	-0.16578743792616668
-0.4840307234999983	-0.14542331128546584
-0.4839696883437483	-0.12484114501544852
-0.4839086531874983	-0.10407330395849908
-0.4838476180312483	-0.08315152673258112
-0.4837865828749983	-0.06210876886784498
-0.4837255477187483	-0.040978245981768295
-0.4836645125624983	-0.01979234474062452
-0.4836034774062483	0.0014157289002124872
-0.4835424422499983	0.02261263591381434
-0.4834814070937483	0.04376563790882743
-0.4834203719374983	0.0648413724519622
-0.4833593367812483	0.08580683978965009
-0.4832983016249983	0.10662959791220868
-0.4832372664687483	0.12727692644274435
-0.4831762313124983	0.14771671549602072
-0.4831151961562483	0.16791704038620975
-0.4830541609999983	0.18784585428180475
-0.4829931258437483	0.20747215571342065
-0.4829320906874983	0.22676544730342973
-0.4828710555312483	0.2456955467264314
-0.4828100203749983	0.2642328415371119
-0.4827489852187483	0.2823480635147748
-0.4826879500624983	0.3000125902841493
-0.4826269149062483	0.3171991508734624
-0.4825658797499983	0.3338810881752674
-0.4825048445937483	0.35003187141845765
-0.4824438094374983	0.36562596230381417
-0.4823827742812483	0.38063900007998264
-0.4823217391249983	0.39504770909159886
-0.4822607039687483	0.40882955840181734
-0.4821996688124983	0.4219624137105359
-0.4821386336562483	0.43442560343542314
-0.4820775984999983	0.44620012872595494
-0.4820165633437483	0.45726735572856786
-0.4819555281874983	0.46760932088031254
-0.4818944930312483	0.4772099563735309
-0.4818334578749983	0.4860545181413656
-0.4817724227187483	0.49412881492291677
-0.4817113875624983	0.5014200498561532
-0.4816503524062483	0.5079167955867138
-0.4815893172499983	0.5136086396647456
-0.4815282820937483	0.5184866103149728
-0.4814672469374983	0.5225431474528405
-0.4814062117812483	0.5257717252789124
-0.4813451766249983	0.5281670624062341
-0.4812841414687483	0.5297253168874801
-0.4812231063124983	0.5304440830904777
-0.4811620711562483	0.5303220972517708
-0.4811010359999983	0.5293593835461472
-0.4810400008437483	0.5275574006277852
-0.4809789656874983	0.5249189441350344
-0.4809179305312483	0.5214480097288285
-0.4808568953749983	0.5171499241183131
-0.4807958602187483	0.5120314028633712
-0.4807348250624983	0.506100389853798
-0.4806737899062483	0.4993660417435745
-0.4806127547499983	0.491838967683672
-0.4805517195937483	0.4835309668668144
-0.4804906844374983	0.4744548266183355
-0.4804296492812483	0.46462462252692516
-0.4803686141249983	0.4540560049964947
-0.4803075789687483	0.44276572905677714
-0.4802465438124983	0.43077110543532676
-0.4801855086562483	0.41809066390601946
-0.4801244734999983	0.4047446611388129
-0.4800634383437483	0.39075432446417213
-0.4800024031874983	0.37614128150074705
-0.4799413680312483	0.3609281861073101
-0.4798803328749983	0.3451392558599153
-0.4798192977187483	0.3287994649589023
-0.4797582625624983	0.31193419852835746
-0.4796972274062483	0.29456996312980344
-0.4796361922499983	0.2767342221822654
-0.4795751570937483	0.2584550450980734
-0.4795141219374983	0.23976117318806492
-0.4794530867812483	0.22068212157201234
-0.4793920516249983	0.20124773950718453
-0.4793310164687483	0.18148855235298872
-0.4792699813124983	0.16143591014397407
-0.4792089461562483	0.1411218117801901
-0.4791479109999983	0.12057812033404387
-0.4790868758437483	0.09983655939374256
-0.4790258406874983	0.07893020682740998
-0.4789648055312483	0.05789254770486334
-0.4789037703749983	0.03675665963011506
-0.4788427352187483	0.015555750788843884
-0.4787817000624983	-0.005676898462129077
-0.4787206649062483	-0.026907126776684814
-0.4786596297499983	-0.0481015421204971
-0.4785985945937483	-0.06922739752452127
-0.4785375594374983	-0.09025022921133616
-0.4784765242812483	-0.1111362744359628
-0.4784154891249983	-0.13185364375406086
-0.4783544539687483	-0.15236967530532924
-0.4782934188124983	-0.17265104756414848
-0.4782323836562483	-0.19266525037379967
-0.4781713484999983	-0.2123807248886651
-0.4781103133437483	-0.23176675094997565
-0.4780492781874983	-0.2507926526574577
-0.4779882430312483	-0.2694275663368354
-0.4779272078749983	-0.2876414232227443
-0.4778661727187483	-0.30540558918724453
-0.4778051375624983	-0.32269237262138145
-0.4777441024062483	-0.3394740236160175
-0.4776830672499983	-0.355723178600634
-0.4776220320937483	-0.3714140525724441
-0.4775609969374983	-0.38652169097581046
-0.4774999617812483	-0.40102187508347775
-0.4774389266249983	-0.4148917310769239
-0.4773778914687483	-0.42810888393391267
-0.4773168563124983	-0.44065149583918384
-0.4772558211562483	-0.45249962210264527
-0.4771947859999983	-0.463634734714764
-0.4771337508437483	-0.47403886059818146
-0.4770727156874983	-0.48369466739918754
-0.4770116805312483	-0.4925863794380254
-0.4769506453749983	-0.5006999713973534
-0.4768896102187483	-0.5080223062786057
-0.4768285750624983	-0.5145411832874378
-0.4767675399062483	-0.520245911625627
-0.4767065047499983	-0.5251270370654648
-0.4766454695937483	-0.5291764143441482
-0.4765844344374983	-0.5323872899283935
-0.4765233992812483	-0.5347541104285355
-0.4764623641249983	-0.536272673906417
-0.4764013289687483	-0.5369401826604843
-0.4763402938124983	-0.5367551263805603
-0.4762792586562483	-0.5357173086864682
-0.4762182234999983	-0.5338279430810613
-0.4761571883437483	-0.5310896002826783
-0.4760961531874983	-0.5275061673344983
-0.4760351180312483	-0.5230828245370736
-0.4759740828749983	-0.5178261036467037
-0.4759130477187483	-0.5117438489312208
-0.4758520125624983	-0.5048453480623092
-0.4757909774062483	-0.4971411670957479
-0.4757299422499983	-0.48864277516765037
-0.4756689070937483	-0.47936300764464057
-0.4756078719374983	-0.4693166740070583
-0.4755468367812483	-0.4585192795724727
-0.4754858016249983	-0.4469868517956077
-0.4754247664687483	-0.434737283603517
-0.4753637313124983	-0.4217900896031322
-0.4753026961562483	-0.40816542013881285
-0.4752416609999983	-0.3938839889291353
-0.4751806258437483	-0.37896759407642044
-0.4751195906874983	-0.36344006146652363
-0.4750585555312483	-0.3473262310750539
-0.4749975203749983	-0.33065051447728777
-0.4749364852187483	-0.31343836339839637
-0.4748754500624983	-0.29571736961396433
-0.4748144149062483	-0.2775156112196035
-0.4747533797499983	-0.25886124319218484
-0.4746923445937483	-0.23978328265836182
-0.4746313094374983	-0.220311805965181
-0.4745702742812483	-0.20047748080719888
-0.4745092391249983	-0.18031114872258105
-0.4744482039687483	-0.15984462012476416
-0.4743871688124983	-0.1391104170090991
-0.4743261336562483	-0.11814100837053138
-0.4742650984999983	-0.09696918933965597
-0.4742040633437483	-0.07562810180165937
-0.4741430281874983	-0.054151479602070104
-0.4740819930312483	-0.03257354655032249
-0.4740209578749983	-0.010928521905906008
-0.4739599227187483	0.01074962548046182
-0.4738988875624983	0.032427528438337246
-0.4738378524062483	0.05407077621863342
-0.4737768172499983	0.07564390152226044
-0.4737157820937483	0.09711301097247728
-0.4736547469374983	0.11844525642936944
-0.4735937117812483	0.13960660124451196
-0.4735326766249983	0.16056305071391316
-0.4734716414687483	0.18128143423338716
-0.4734106063124983	0.20172891278150584
-0.4733495711562483	0.2218731979385994
-0.4732885359999983	0.24168227016427882
-0.4732275008437483	0.2611247632047407
-0.4731664656874983	0.28016996063502847
-0.4731054305312483	0.2987870672965047
-0.4730443953749983	0.31694631989349975
-0.4729833602187483	0.33461936683421195
-0.4729223250624983	0.35177822032017514
-0.4728612899062483	0.3683949774629983
-0.4728002547499983	0.3844430692872318
-0.4727392195937483	0.3998972891447846
-0.4726781844374983	0.4147327193509236
-0.4726171492812483	0.4289253954250534
-0.4725561141249983	0.442452940214861
-0.4724950789687483	0.4552937509949792
-0.4724340438124983	0.46742677218969375
-0.4723730086562483	0.47883255663108515
-0.4723119734999983	0.4894931212683648
-0.4722509383437483	0.4993910003776798
-0.4721899031874983	0.5085099609535475
-0.4721288680312483	0.5168355967671524
-0.4720678328749983	0.5243544869239933
-0.4720067977187483	0.5310540222563886
-0.4719457625624983	0.5369230985885955
-0.4718847274062483	0.5419523749310649
-0.4718236922499983	0.5461336140617707
-0.4717626570937483	0.5494596338061444
-0.4717016219374983	0.5519246795723245
-0.4716405867812483	0.5535245310881571
-0.4715795516249983	0.5542563388651432
-0.4715185164687483	0.5541185556491547
-0.4714574813124983	0.5531109164896041
-0.4713964461562483	0.5512346667674354
-0.4713354109999983	0.5484924238637354
-0.4712743758437483	0.5448880922979511
-0.4712133406874983	0.5404268896753712
-0.4711523055312483	0.5351155511373774
-0.4710912703749983	0.5289622831013474
-0.4710302352187483	0.5219763398547557
-0.4709692000624983	0.5141681431082685
-0.4709081649062483	0.5055499160249042
-0.4708471297499983	0.49613504920189794
-0.4707860945937483	0.48593778509713054
-0.4707250594374983	0.47497407767557864
-0.4706640242812483	0.46326112176420065
-0.4706029891249983	0.4508168112008301
-0.4705419539687483	0.4376604860284846
-0.4704809188124983	0.4238128013954185
-0.4704198836562483	0.4092954363284038
-0.4703588484999983	0.39413117759002886
-0.4702978133437483	0.3783434536188916
-0.4702367781874983	0.3619567681706116
-0.4701757430312483	0.3449971111669086
-0.4701147078749983	0.3274914076994399
-0.4700536727187483	0.3094668442368082
-0.4699926375624983	0.2909513966412141
-0.4699316024062483	0.2719743115605192
-0.4698705672499983	0.25256541112430236
-0.4698095320937483	0.2327553503808128
-0.4697484969374983	0.2125758625913109
-0.4696874617812483	0.19205821822756575
-0.4696264266249983	0.17123388860226257
-0.4695653914687483	0.15013622108157423
