Time	Frequency
-0.5000347643750018	-2.731577522371607e-24
-0.49997372921875183	-2.9613414565577294e-24
-0.49991269406250183	-3.1887033362350216e-24
-0.49985165890625183	-3.413453102448367e-24
-0.49979062375000183	-3.635384539869632e-24
-0.49972958859375183	-3.854314753665818e-24
-0.49966855343750183	-4.070054951052099e-24
-0.49960751828125183	-4.282402261663472e-24
-0.49954648312500183	-4.491169599297952e-24
-0.49948544796875183	-4.6961785094286706e-24
-0.49942441281250183	-4.897244454918904e-24
-0.49936337765625183	-5.0941900569930046e-24
-0.49930234250000183	-5.286842176142817e-24
-0.49924130734375183	-5.4750258374960565e-24
-0.49918027218750183	-5.658574170942763e-24
-0.49911923703125183	-5.8373264592415855e-24
-0.49905820187500183	-6.01112532644265e-24
-0.49899716671875183	-6.179814792755683e-24
-0.49893613156250183	-6.343239561306103e-24
-0.49887509640625183	-6.50125679885396e-24
-0.49881406125000183	-6.653728733877427e-24
-0.49875302609375183	-6.800515347949624e-24
-0.49869199093750183	-6.941487185886369e-24
-0.49863095578125183	-7.076517064680578e-24
-0.49856992062500183	-7.205479424654384e-24
-0.49850888546875183	-7.328263199553694e-24
-0.49844785031250183	-7.444758674908376e-24
-0.49838681515625183	-7.554857424127087e-24
-0.49832578000000183	-7.65846175749614e-24
-0.49826474484375183	-7.755475407956547e-24
-0.49820370968750183	-7.845808496004852e-24
-0.49814267453125183	-7.929383429192591e-24
-0.49808163937500183	-8.00612330394979e-24
-0.49802060421875183	-8.075954463467967e-24
-0.49795956906250183	-8.138812287990722e-24
-0.49789853390625183	-8.194637545396154e-24
-0.49783749875000183	-8.243380122477076e-24
-0.49777646359375183	-8.284995065959462e-24
-0.49771542843750183	-8.319439574140995e-24
-0.49765439328125183	-8.346679556393855e-24
-0.49759335812500183	-8.36668740290865e-24
-0.49753232296875183	-8.379442984047246e-24
-0.49747128781250183	-8.384933744868274e-24
-0.49741025265625183	-8.383148832621264e-24
-0.49734921750000183	-8.374083777365018e-24
-0.49728818234375183	-8.35774519517383e-24
-0.49722714718750183	-8.334145911738212e-24
-0.49716611203125183	-8.303301468109865e-24
-0.49710507687500183	-8.265233056917497e-24
-0.49704404171875183	-8.219970967732536e-24
-0.49698300656250183	-8.167553475752825e-24
-0.49692197140625183	-8.108023604452793e-24
-0.49686093625000183	-8.04142757733428e-24
-0.49679990109375183	-7.96781844755045e-24
-0.49673886593750183	-7.887259435290799e-24
-0.49667783078125183	-7.799820444153444e-24
-0.49661679562500183	-7.705573100207855e-24
-0.49655576046875183	-7.604592478499826e-24
-0.49649472531250183	-7.496965624710409e-24
-0.49643369015625183	-7.382787225589074e-24
-0.49637265500000183	-7.262151478272466e-24
-0.49631161984375183	-7.135160649819218e-24
-0.49625058468750183	-7.001923504918046e-24
-0.49618954953125183	-6.862551263351126e-24
-0.49612851437500183	-6.717165296081367e-24
-0.49606747921875183	-6.565891440454182e-24
-0.49600644406250183	-6.408857663477555e-24
-0.49594540890625183	-6.246199089100967e-24
-0.49588437375000183	-6.078053145376669e-24
-0.49582333859375183	-5.904563495784448e-24
-0.49576230343750183	-5.7258868009590375e-24
-0.49570126828125183	-5.542177292531514e-24
-0.49564023312500183	-5.353581242010092e-24
-0.49557919796875183	-5.160264006397842e-24
-0.49551816281250183	-4.96240651439259e-24
-0.49545712765625183	-4.7601749448427686e-24
-0.49539609250000183	-4.553732779944039e-24
-0.49533505734375183	-4.34326194958104e-24
-0.49527402218750183	-4.1289545327976765e-24
-0.49521298703125183	-3.910995831599676e-24
-0.49515195187500183	-3.68956541283027e-24
-0.49509091671875183	-3.464858255584137e-24
-0.49502988156250183	-3.237074808520749e-24
-0.49496884640625183	-3.006407293582362e-24
-0.49490781125000183	-2.7730591741495962e-24
-0.49484677609375183	-2.537237139426044e-24
-0.49478574093750183	-2.2991411844358068e-24
-0.49472470578125183	-2.0589763220506485e-24
-0.49466367062500183	-1.8169541340512725e-24
-0.49460263546875183	-1.5732919563328428e-24
-0.49454160031250183	-1.3282011904829034e-24
-0.49448056515625183	-1.0818867857608947e-24
-0.49441953000000183	-8.345628231555294e-25
-0.49435849484375183	-5.864554850581465e-25
-0.49429745968750183	-3.3778639176894873e-25
-0.49423642453125183	-8.875826732659622e-26
-0.49417538937500183	1.6041330355292313e-25
-0.49411435421875183	4.0949580206047203e-25
-0.49405331906250183	6.582769468837448e-25
-0.49399228390625183	9.065410164103606e-25
-0.49393124875000183	1.1540658822506717e-24
-0.49387021359375183	1.4006477928491134e-24
-0.49380917843750183	1.6460617284072963e-24
-0.49374814328125183	1.8900779367070546e-24
-0.49368710812500183	2.1325018367338554e-24
-0.49362607296875183	2.373125926199863e-24
-0.49356503781250183	2.6117237024090867e-24
-0.49350400265625183	2.848083666984407e-24
-0.49344296750000183	3.0820055491366034e-24
-0.49338193234375183	3.3132919448142216e-24
-0.49332089718750183	3.5417330652601516e-24
-0.49325986203125183	3.767115063823216e-24
-0.49319882687500183	3.989247696752815e-24
-0.49313779171875183	4.207950830838254e-24
-0.49307675656250183	4.423025083167685e-24
-0.49301572140625183	4.6342624038409046e-24
-0.49295468625000183	4.841484543006712e-24
-0.49289365109375183	5.0445277538046494e-24
-0.49283261593750183	5.243202763466195e-24
-0.49277158078125183	5.4373237105165764e-24
-0.49271054562500183	5.626727077368648e-24
-0.49264951046875183	5.8112461180997546e-24
-0.49258847531250183	5.990719687498267e-24
-0.49252744015625183	6.164991451058635e-24
-0.49246640500000183	6.333899049457721e-24
-0.49240536984375183	6.497297257084642e-24
-0.49234433468750183	6.655045049569477e-24
-0.49228329953125183	6.806995730083659e-24
-0.49222226437500183	6.953022561780998e-24
-0.49216122921875183	7.092998046378149e-24
-0.49210019406250183	7.226786457399614e-24
-0.49203915890625183	7.354272949135799e-24
-0.49197812375000183	7.475352815004681e-24
-0.49191708859375183	7.589916925723836e-24
-0.49185605343750183	7.697857825394191e-24
-0.49179501828125183	7.799076461046496e-24
-0.49173398312500183	7.89349049936582e-24
-0.49167294796875183	7.981020474328172e-24
-0.49161191281250183	8.061579264366848e-24
-0.49155087765625183	8.135092836681705e-24
-0.49148984250000183	8.201503249783222e-24
-0.49142880734375183	8.260752030616899e-24
-0.49136777218750183	8.312781327591687e-24
-0.49130673703125183	8.357543637516863e-24
-0.49124570187500183	8.39500148619257e-24
-0.49118466671875183	8.425122415925327e-24
-0.49112363156250183	8.44787800788458e-24
-0.49106259640625183	8.463245685326656e-24
-0.49100156125000183	8.47121158149589e-24
-0.49094052609375183	8.471769777997814e-24
-0.49087949093750183	8.464918820622836e-24
-0.49081845578125183	8.45066299091944e-24
-0.49075742062500183	8.429014732613695e-24
-0.49069638546875183	8.399992778955659e-24
-0.49063535031250183	8.363621385095224e-24
-0.49057431515625183	8.319932747846087e-24
-0.49051328000000183	8.268965725004898e-24
-0.49045224484375183	8.21076415883733e-24
-0.49039120968750183	8.145377856915323e-24
-0.49033017453125183	8.072863821017696e-24
-0.49026913937500183	7.993288900971653e-24
-0.49020810421875183	7.906722754281185e-24
-0.49014706906250183	7.813235755586373e-24
-0.49008603390625183	7.712914420613216e-24
-0.49002499875000183	7.605851428397509e-24
-0.48996396359375183	7.492133882095567e-24
-0.48990292843750183	7.371862369892585e-24
-0.48984189328125183	7.245148218788869e-24
-0.48978085812500183	7.112102427133326e-24
-0.48971982296875183	6.972839417988856e-24
-0.48965878781250183	6.82748000693645e-24
-0.48959775265625183	6.676158593107292e-24
-0.48953671750000183	6.5190112317193585e-24
-0.48947568234375183	6.3561689412310196e-24
-0.48941464718750183	6.187776283095851e-24
-0.48935361203125183	6.013989399094812e-24
-0.48929257687500183	5.834960781244408e-24
-0.48923154171875183	5.650842580122512e-24
-0.48917050656250183	5.461802347922585e-24
-0.48910947140625183	5.268012422495227e-24
-0.48904843625000183	5.069637055655546e-24
-0.48898740109375183	4.8668517796380514e-24
-0.48892636593750183	4.6598438998405886e-24
-0.48886533078125183	4.448797118330359e-24
-0.48880429562500183	4.233891620096645e-24
-0.48874326046875183	4.0153181320758e-24
-0.48868222531250183	3.7932791913620916e-24
-0.48862119015625183	3.567969917913578e-24
-0.48856015500000183	3.3395847341020346e-24
-0.48849911984375183	3.108331971691711e-24
-0.48843808468750183	2.874419991191367e-24
-0.48837704953125183	2.6380467951378352e-24
-0.48831601437500183	2.3994268893162076e-24
-0.48825497921875183	2.1587884855855086e-24
-0.48819394406250183	1.9163290452031667e-24
-0.48813290890625183	1.6722526663213197e-24
-0.48807187375000183	1.426803197463722e-24
-0.48801083859375183	1.1802003703508382e-24
-0.48794980343750183	9.326401771220325e-25
-0.48788876828125183	6.843492418355272e-25
-0.48782773312500183	4.355643880967175e-25
-0.48776669796875183	1.8650460042937445e-25
-0.48770566281250183	-6.261735726147079e-26
-0.48764462765625183	-3.1158282033792137e-25
-0.48758359250000183	-5.601587553701355e-25
-0.48752255734375183	-8.081162808316167e-25
-0.48746152218750183	-1.055246293397197e-24
-0.48740048703125183	-1.3013341902733124e-24
-0.48733945187500183	-1.5461477206214475e-24
-0.48727841671875183	-1.789459537535939e-24
-0.48721738156250183	-2.0310663597083227e-24
-0.48715634640625183	-2.2707605582980996e-24
-0.48709531125000183	-2.5083098034006684e-24
-0.48703427609375183	-2.7434970414876286e-24
-0.48697324093750183	-2.976126745683407e-24
-0.48691220578125183	-3.2059897545971475e-24
-0.48685117062500183	-3.43287378320243e-24
-0.48679013546875183	-3.6565760462081305e-24
-0.48672910031250183	-3.87689007966192e-24
-0.48666806515625183	-4.093626939561393e-24
-0.48660703000000183	-4.306601432684699e-24
-0.48654599484375183	-4.515601388193587e-24
-0.48648495968750183	-4.72043788166719e-24
-0.48642392453125183	-4.920949270004265e-24
-0.48636288937500183	-5.116948474667535e-24
-0.48630185421875183	-5.308242889838267e-24
-0.48624081906250183	-5.4946682870586266e-24
-0.48617978390625183	-5.6760666629435204e-24
-0.48611874875000183	-5.852266776602411e-24
-0.48605771359375183	-6.023108238319926e-24
-0.48599667843750183	-6.1884429970270214e-24
-0.48593564328125183	-6.348113420381461e-24
-0.48587460812500183	-6.501976481377839e-24
-0.48581357296875183	-6.64990467873646e-24
-0.48575253781250183	-6.791757118230605e-24
-0.48569150265625183	-6.927398159968858e-24
-0.48563046750000183	-7.056710910438245e-24
-0.48556943234375183	-7.179582367957576e-24
-0.48550839718750183	-7.295898187849692e-24
-0.48544736203125183	-7.405550537793862e-24
-0.48538632687500183	-7.508441035562371e-24
-0.48532529171875183	-7.604475098305022e-24
-0.48526425656250183	-7.693566698365479e-24
-0.48520322140625183	-7.775636912195348e-24
-0.48514218625000183	-7.85060671141547e-24
-0.48508115109375183	-7.918406424237097e-24
-0.48502011593750183	-7.978977826400978e-24
-0.48495908078125183	-8.032264945479059e-24
-0.48489804562500183	-8.078215446540623e-24
-0.48483701046875183	-8.116786517290852e-24
-0.48477597531250183	-8.147945060851281e-24
-0.48471494015625183	-8.171661903923669e-24
-0.48465390500000183	-8.187911245177156e-24
-0.48459286984375183	-8.196676935726752e-24
-0.48453183468750183	-8.19795180520807e-24
-0.48447079953125183	-8.191733702740519e-24
-0.48440976437500183	-8.17802528011762e-24
-0.48434872921875183	-8.15683617161506e-24
-0.48428769406250183	-8.128185065081614e-24
-0.48422665890625183	-8.092097905161206e-24
-0.48416562375000183	-8.048604912212528e-24
-0.48410458859375183	-7.997741596181793e-24
-0.48404355343750183	-7.939552238751965e-24
-0.48398251828125183	-7.874090532039576e-24
-0.48392148312500183	-7.80141549692952e-24
-0.48386044796875183	-7.721586392066957e-24
-0.48379941281250183	-7.634670346130112e-24
-0.48373837765625183	-7.540751826514074e-24
-0.48367734250000183	-7.439918179234343e-24
-0.48361630734375183	-7.332248857075809e-24
-0.48355527218750183	-7.21783390649286e-24
-0.48349423703125183	-7.096786980663113e-24
-0.48343320187500183	-6.969222039316596e-24
-0.48337216671875183	-6.83524000749822e-24
-0.48331113156250183	-6.69495465901156e-24
-0.48325009640625183	-6.5485005055539934e-24
-0.48318906125000183	-6.396017440412455e-24
-0.48312802609375183	-6.237633198755613e-24
-0.48306699093750183	-6.07347446306008e-24
-0.48300595578125183	-5.903704818597785e-24
-0.48294492062500183	-5.7284872883322926e-24
-0.48288388546875183	-5.547954962996646e-24
-0.48282285031250183	-5.362271868609405e-24
-0.48276181515625183	-5.171623380849788e-24
-0.48270078000000183	-4.976169309706779e-24
-0.48263974484375183	-4.7760784303588785e-24
-0.48257870968750183	-4.571539524011481e-24
-0.48251767453125183	-4.362735105194328e-24
-0.48245663937500183	-4.1498523799182e-24
-0.48239560421875183	-3.9330818740687436e-24
-0.48233456906250183	-3.7126148583972374e-24
-0.48227353390625183	-3.488657104197005e-24
-0.48221249875000183	-3.2614100668165748e-24
-0.48215146359375183	-3.0310721293379403e-24
-0.48209042843750183	-2.7978534491354998e-24
-0.48202939328125183	-2.561964971675541e-24
-0.48196835812500183	-2.323621812561335e-24
-0.48190732296875183	-2.083039687955893e-24
-0.48184628781250183	-1.8404291374107104e-24
-0.48178525265625183	-1.5960104887015874e-24
-0.48172421750000183	-1.3500125104042628e-24
-0.48166318234375183	-1.1026545867989934e-24
-0.48160214718750183	-8.541535727782844e-25
-0.48154111203125183	-6.047396361844459e-25
-0.48148007687500183	-3.5464150492117505e-25
-0.48141904171875183	-1.040798355951983e-25
-0.48135800656250183	1.4671620832909913e-25
-0.48129697140625183	3.9751408720010547e-25
-0.48123593625000183	6.480950643020734e-25
-0.48117490109375183	8.982329698258121e-25
-0.48111386593750183	1.1476845750539234e-24
-0.48105283078125183	1.3962333334809554e-24
-0.48099179562500183	1.6436695148530938e-24
-0.48093076046875183	1.8897469036894473e-24
-0.48086972531250183	2.1342331911577467e-24
-0.48080869015625183	2.3769308327638938e-24
-0.48074765500000183	2.6176194463625286e-24
-0.48068661984375183	2.856056957428331e-24
-0.48062558468750183	3.092031689027287e-24
-0.48056454953125183	3.325343059038569e-24
-0.48050351437500183	3.5557712544459694e-24
-0.48044247921875183	3.783101001696391e-24
-0.48038144406250183	4.007126455160243e-24
-0.48032040890625183	4.227645127497834e-24
-0.48025937375000183	4.444455046355356e-24
-0.48019833859375183	4.657353032811512e-24
-0.48013730343750183	4.866149230466374e-24
-0.48007626828125183	5.0706566273219254e-24
-0.48001523312500183	5.270677464036882e-24
-0.47995419796875183	5.466025243210733e-24
-0.47989316281250183	5.656531613071176e-24
-0.47983212765625183	5.842023489120492e-24
-0.47977109250000183	6.022319011912664e-24
-0.47971005734375183	6.197250142515771e-24
-0.47964902218750183	6.366665711302915e-24
-0.47958798703125183	6.5304085460455394e-24
-0.47952695187500183	6.688319645452686e-24
-0.47946591671875183	6.840255955574485e-24
-0.47940488156250183	6.986078035180545e-24
-0.47934384640625183	7.125647451983705e-24
-0.47928281125000183	7.25883792587705e-24
-0.47922177609375183	7.385524351114208e-24
-0.47916074093750183	7.50558340313463e-24
-0.47909970578125183	7.618906809436015e-24
-0.47903867062500183	7.725390004054539e-24
-0.47897763546875183	7.82492844947898e-24
-0.47891660031250183	7.917429233442046e-24
-0.47885556515625183	8.002804873403774e-24
-0.47879453000000183	8.080973385201178e-24
-0.47873349484375183	8.151862649165369e-24
-0.47867245968750183	8.215401173377381e-24
-0.47861142453125183	8.271524781255611e-24
-0.47855038937500183	8.320182997567545e-24
-0.47848935421875183	8.361328101874648e-24
-0.47842831906250183	8.394915201063127e-24
-0.47836728390625183	8.420908647524093e-24
-0.47830624875000183	8.439282401194725e-24
-0.47824521359375183	8.450016650223349e-24
-0.47818417843750183	8.453095399478449e-24
-0.47812314328125183	8.448510528380676e-24
-0.47806210812500183	8.436263404706667e-24
-0.47800107296875183	8.416360852223422e-24
-0.47794003781250183	8.388814380613793e-24
-0.47787900265625183	8.35364443773565e-24
-0.47781796750000183	8.310880419169494e-24
-0.47775693234375183	8.26055648610972e-24
-0.47769589718750183	8.202712656550038e-24
-0.47763486203125183	8.137395543107965e-24
-0.47757382687500183	8.064658913697749e-24
-0.47751279171875183	7.984568058381918e-24
-0.47745175656250183	7.897193714695594e-24
-0.47739072140625183	7.802603402137166e-24
-0.47732968625000183	7.70087562034468e-24
-0.47726865109375183	7.592107740850911e-24
-0.47720761593750183	7.476394009148493e-24
-0.47714658078125183	7.35382637952661e-24
-0.47708554562500183	7.22451506071639e-24
-0.47702451046875183	7.088577341005365e-24
-0.47696347531250183	6.946126855846348e-24
-0.47690244015625183	6.797289039927291e-24
-0.47684140500000183	6.642199865342294e-24
-0.47678036984375183	6.480991284489893e-24
-0.47671933468750183	6.313803337544219e-24
-0.47665829953125183	6.1407887666790355e-24
-0.47659726437500183	5.962098327875513e-24
-0.47653622921875183	5.777888497404028e-24
-0.47647519406250183	5.5883271188965985e-24
-0.47641415890625183	5.393580392638533e-24
-0.47635312375000183	5.193813796070638e-24
-0.47629208859375183	4.989210673464791e-24
-0.47623105343750183	4.779964403370085e-24
-0.47617001828125183	4.566250684175941e-24
-0.47610898312500183	4.348247180646589e-24
-0.47604794796875183	4.126160378892857e-24
-0.47598691281250183	3.9002028912337464e-24
-0.47592587765625183	3.670566460181166e-24
-0.47586484250000183	3.437438381699864e-24
-0.47580380734375183	3.2010377515856363e-24
-0.47574277218750183	2.9615934856487256e-24
-0.47568173703125183	2.7193088454226475e-24
-0.47562070187500183	2.4743917698118566e-24
-0.47555966671875183	2.2270682915282334e-24
-0.47549863156250183	1.977560763461522e-24
-0.47543759640625183	1.7260950848008126e-24
-0.47537656125000183	1.4729016581927776e-24
-0.47531552609375183	1.2181990908841469e-24
-0.47525449093750183	9.622115966307589e-25
-0.47519345578125183	7.051837946298689e-25
-0.47513242062500183	4.473458375738421e-25
-0.47507138546875183	1.8891664676252922e-25
-0.47501035031250183	-6.986185172158725e-26
-0.47494931515625183	-3.2875092982966056e-25
-0.47488828000000183	-5.875258753625724e-25
-0.47482724484375183	-8.459538526174076e-25
-0.47476620968750183	-1.1037960800166193e-24
-0.47470517453125183	-1.3608180295942072e-24
-0.47464413937500183	-1.6167946433334502e-24
-0.47458310421875183	-1.8714926891370975e-24
-0.47452206906250183	-2.1246712094096346e-24
-0.47446103390625183	-2.376111595834845e-24
-0.47439999875000183	-2.6255961245241405e-24
-0.47433896359375183	-2.8728809323196344e-24
-0.47427792843750183	-3.1177342332793855e-24
-0.47421689328125183	-3.359952805648498e-24
-0.47415585812500183	-3.599324223655104e-24
-0.47409482296875183	-3.8356154917002815e-24
-0.47403378781250183	-4.068603397490788e-24
-0.47397275265625183	-4.29808795613706e-24
-0.47391171750000183	-4.5238676427663e-24
-0.47385068234375183	-4.745730924539787e-24
-0.47378964718750183	-4.963472247231787e-24
-0.47372861203125183	-5.1768920647764186e-24
-0.47366757687500183	-5.3857982184868625e-24
-0.47360654171875183	-5.590006256494143e-24
-0.47354550656250183	-5.78932686822175e-24
-0.47348447140625183	-5.98357282222635e-24
-0.47342343625000183	-6.1725680659190775e-24
-0.47336240109375183	-6.3561427504729555e-24
-0.47330136593750183	-6.534132008928568e-24
-0.47324033078125183	-6.706369594332072e-24
-0.47317929562500183	-6.872692195023041e-24
-0.47311826046875183	-7.032952243156038e-24
-0.47305722531250183	-7.18700684571185e-24
-0.47299619015625183	-7.334710823331807e-24
-0.47293515500000183	-7.475926510700705e-24
-0.47287411984375183	-7.610524466452714e-24
-0.47281308468750183	-7.738381691418787e-24
-0.47275204953125183	-7.859381402510054e-24
-0.47269101437500183	-7.973411968829033e-24
-0.47262997921875183	-8.08036676889467e-24
-0.47256894406250183	-8.180144615381744e-24
-0.47250790890625183	-8.272654481597012e-24
-0.47244687375000183	-8.357812984116344e-24
-0.47238583859375183	-8.43553790933395e-24
-0.47232480343750183	-8.505755824279464e-24
-0.47226376828125183	-8.568404403786389e-24
-0.47220273312500183	-8.62342191261656e-24
