Time	Frequency
-0.50002479515625	-0.49072861403701246
-0.49996376	-0.49186950656093537
-0.49990272484375	-0.49241362223847207
-0.4998416896875	-0.4923603681038079
-0.49978065453125	-0.49170981824219845
-0.499719619375	-0.4904627934841202
-0.49965858421875	-0.488620866112428
-0.4995975490625	-0.4861863205504101
-0.49953651390625	-0.4831621530874621
-0.49947547875	-0.47955208554189727
-0.49941444359375	-0.47536057346896815
-0.4993534084375	-0.47059279380114133
-0.49929237328125	-0.4652546446635387
-0.499231338125	-0.4593526491583734
-0.49917030296875	-0.4528940031442729
-0.4991092678125	-0.44588669786098334
-0.49904823265625	-0.4383393807268755
-0.4989871975	-0.4302614004075778
-0.49892616234375	-0.42166267487481873
-0.4988651271875	-0.4125534520705771
-0.49880409203125	-0.40294506995694995
-0.498743056875	-0.3928498209532101
-0.49868202171875	-0.3822797222520826
-0.4986209865625	-0.3712474705386309
-0.49855995140625	-0.35976706395307967
-0.49849891625	-0.3478526052808216
-0.49843788109375	-0.3355186340606401
-0.4983768459375	-0.32278029710749295
-0.49831581078125	-0.30965310225292353
-0.498254775625	-0.29615355159092915
-0.49819374046875	-0.282298436780911
-0.4981327053125	-0.2681042059396095
-0.49807167015625	-0.25358811584859176
-0.498010635	-0.23876885621536278
-0.49794959984375	-0.22366487905227053
-0.4978885646875	-0.20829378859575118
-0.49782752953125	-0.19267463227906462
-0.497766494375	-0.17682738048474717
-0.49770545921875	-0.16077108628759348
-0.4976444240625	-0.14452554059018585
-0.49758338890625	-0.12811112398637126
-0.49752235375	-0.11154745724841975
-0.49746131859375	-0.0948550825678835
-0.4974002834375	-0.07805523433097496
-0.49733924828125	-0.06116825572611654
-0.497278213125	-0.04421460547651774
-0.49721717796875	-0.02721536729782215
-0.4971561428125	-0.010191894467388364
-0.49709510765625	0.006834646468634902
-0.4970340725	0.02384405547849265
-0.49697303734375	0.040815317391302786
-0.4969120021875	0.057726279517274444
-0.49685096703125	0.07455660894253567
-0.496789931875	0.09128641518198956
-0.49672889671875	0.1078942285526663
-0.4966678615625	0.12435917656354023
-0.49660682640625	0.1406613577736057
-0.49654579125	0.15678071438764116
-0.49648475609375	0.1726971515761178
-0.4964237209375	0.18839067169928345
-0.49636268578125	0.20384216613925904
-0.496301650625	0.2190328948902733
-0.49624061546875	0.23394321654556224
-0.4961795803125	0.24855457787934893
-0.49611854515625	0.26284991486188614
-0.49605751	0.2768110557101424
-0.49599647484375	0.2904198626903234
-0.4959354396875	0.3036601777289883
-0.49587440453125	0.3165159464229065
-0.495813369375	0.32897053364528933
-0.49575233421875	0.3410083483229194
-0.4956912990625	0.35261479555462344
-0.49563026390625	0.36377559890114736
-0.49556922875	0.37447674337851655
-0.49550819359375	0.3847044733681851
-0.4954471584375	0.3944461791320052
-0.49538612328125	0.40369034314815666
-0.495325088125	0.41242505496785026
-0.49526405296875	0.4206388774564962
-0.4952030178125	0.4283220759551354
-0.49514198265625	0.43546526572471866
-0.4950809475	0.4420591146511346
-0.49501991234375	0.4480952862049991
-0.4949588771875	0.4535663106988393
-0.49489784203125	0.4584654353968468
-0.494836806875	0.4627864761118036
-0.49477577171875	0.4665237612311928
-0.4947147365625	0.46967258657906397
-0.49465370140625	0.47222908442544337
-0.49459266625	0.47418992437364327
-0.49453163109375	0.4755524969383542
-0.4944705959375	0.4763149995373074
-0.49440956078125	0.47647640694077753
-0.494348525625	0.47603640865830743
-0.49428749046875	0.47499538090261473
-0.4942264553125	0.4733545085078461
-0.49416542015625	0.4711157655212968
-0.494104385	0.46828178583051494
-0.49404334984375	0.4648558808504957
-0.4939823146875	0.4608421911250295
-0.49392127953125	0.4562457456681662
-0.493860244375	0.4510721086253553
-0.49379920921875	0.44532734835949955
-0.4937381740625	0.43901854345155966
-0.49367713890625	0.43215362092856696
-0.49361610375	0.4247409650342598
-0.49355506859375	0.4167894871868794
-0.4934940334375	0.40830893638931376
-0.49343299828125	0.39930995979143896
-0.493371963125	0.3898036100863875
-0.49331092796875	0.3798013217289357
-0.4932498928125	0.3693154757289852
-0.49318885765625	0.3583594435938978
-0.4931278225	0.3469466100265295
-0.49306678734375	0.3350905001548842
-0.4930057521875	0.32280605989388267
-0.49294471703125	0.3101088223980576
-0.492883681875	0.2970143437082454
-0.49282264671875	0.2835388471910661
-0.4927616115625	0.26969876959934386
-0.49270057640625	0.25551113273395665
-0.49263954125	0.24099391606066267
-0.49257850609375	0.22616540432219742
-0.4925174709375	0.2110436730903305
-0.49245643578125	0.1956468863321562
-0.492395400625	0.17999464447402325
-0.49233436546875	0.16410704888443256
-0.4922733303125	0.14800320961481422
-0.49221229515625	0.13170280817865473
-0.49215126	0.11522664982922036
-0.49209022484375	0.09859529020278203
-0.4920291896875	0.08182908169357307
-0.49196815453125	0.06494915929897462
-0.491907119375	0.04797677598357507
-0.49184608421875	0.030932531576914335
-0.4917850490625	0.01383771856567279
-0.49172401390625	-0.0032857431613701692
-0.49166297875	-0.02041661225595284
-0.49160194359375	-0.03753380241243299
-0.4915409084375	-0.054615945231508554
-0.49147987328125	-0.07164159844467552
-0.491418838125	-0.08858934481806596
-0.49135780296875	-0.10543776071524488
-0.4912967678125	-0.12216578842426808
-0.49123573265625	-0.1387532633706848
-0.4911746975	-0.15517908394787291
-0.49111366234375	-0.17142147075600542
-0.4910526271875	-0.18746091458307632
-0.49099159203125	-0.20327796467510595
-0.490930556875	-0.21885182031008346
-0.49086952171875	-0.23416306422815344
-0.4908084865625	-0.24919265728723303
-0.49074745140625	-0.26392103129279515
-0.49068641625	-0.27833001450607653
-0.49062538109375	-0.29240219829797526
-0.4905643459375	-0.3061193402103473
-0.49050331078125	-0.3194630666079349
-0.490442275625	-0.33241689622203513
-0.49038124046875	-0.34496575001610225
-0.4903202053125	-0.35709315543579023
-0.49025917015625	-0.36878264375621134
-0.490198135	-0.3800199130470761
-0.49013709984375	-0.39079114028217804
-0.4900760646875	-0.40108248746906394
-0.49001502953125	-0.41088062023320115
-0.489953994375	-0.4201727332119432
-0.48989295921875	-0.4289471298509402
-0.4898319240625	-0.43719279993444665
-0.48977088890625	-0.44489893332194375
-0.48970985375	-0.45205550631748503
-0.48964881859375	-0.4586532778373804
-0.4895877834375	-0.46468363731591467
-0.48952674828125	-0.4701387774061344
-0.489465713125	-0.4750114883090687
-0.48940467796875	-0.4792952606712724
-0.4893436428125	-0.4829844589212906
-0.48928260765625	-0.4860740904378683
-0.4892215725	-0.48855981973778345
-0.48916053734375	-0.49043817458247435
-0.4890995021875	-0.49170648485439
-0.48903846703125	-0.4923627418387008
-0.488977431875	-0.4924056601108627
-0.48891639671875	-0.49183479698814936
-0.4888553615625	-0.49065052559708544
-0.48879432640625	-0.4888538832850787
-0.48873329125	-0.48644658465156615
-0.48867225609375	-0.48343128430205107
-0.4886112209375	-0.47981147100651433
-0.48855018578125	-0.47559110725975323
-0.488489150625	-0.47077493750815075
-0.48842811546875	-0.465368683628038
-0.4883670803125	-0.4593787364592568
-0.48830604515625	-0.45281211428641555
-0.48824501	-0.4456764843562391
-0.48818397484375	-0.437980381394485
-0.4881229396875	-0.42973310480015753
-0.48806190453125	-0.4209444402582824
-0.488000869375	-0.41162503452281723
-0.48793983421875	-0.4017861106953918
-0.4878787990625	-0.39143930123673526
-0.48781776390625	-0.38059733635571963
-0.48775672875	-0.36927364465005774
-0.48769569359375	-0.35748169958204484
-0.4876346584375	-0.34523550142474657
-0.48757362328125	-0.332550218309702
-0.487512588125	-0.31944172741502086
-0.48745155296875	-0.3059257721549745
-0.4873905178125	-0.292018652389223
-0.48732948265625	-0.27773747137975796
-0.4872684475	-0.26309949601509447
-0.48720741234375	-0.24812318079297987
-0.4871463771875	-0.2328272522952104
-0.48708534203125	-0.21722937186582647
-0.487024306875	-0.20134872055484865
-0.48696327171875	-0.18520596754161733
-0.4869022365625	-0.1688206552973844
-0.48684120140625	-0.1522120951829811
-0.48678016625	-0.13540118802191806
-0.48671913109375	-0.11840924351708834
-0.4866580959375	-0.10125677714111238
-0.48659706078125	-0.08396476634410498
-0.486536025625	-0.0665546517073245
-0.48647499046875	-0.049048050256987365
-0.4864139553125	-0.03146696128708193
-0.48635292015625	-0.013832794362959054
-0.486291885	0.0038328973788628842
-0.48623084984375	0.021507895107544195
-0.4861698146875	0.039170327133488454
-0.48610877953125	0.056798231162184826
-0.486047744375	0.07436969311703895
-0.48598670921875	0.09186330897295847
-0.4859256740625	0.10925696810471971
-0.48586463890625	0.1265288249128185
-0.48580360375	0.14365834009881118
-0.48574256859375	0.1606237616097783
-0.4856815334375	0.17740287731425503
-0.48562049828125	0.1939759139534111
-0.485559463125	0.21032310123928163
-0.48549842796875	0.22642270556370042
-0.4854373928125	0.2422541363543204
-0.48537635765625	0.25779886411130315
-0.4853153225	0.2730377002393526
-0.48525428734375	0.2879508238767898
-0.4851932521875	0.3025193969859234
-0.48513221703125	0.3167256384636746
-0.485071181875	0.3305521706491446
-0.48501014671875	0.34398127292815883
-0.4849491115625	0.3569958590952118
-0.48488807640625	0.3695798743089699
-0.48482704125	0.38171756141285024
-0.48476600609375	0.39339383236505443
-0.4847049709375	0.4045938530651231
-0.48464393578125	0.41530332640034323
-0.484582900625	0.4255091945723963
-0.48452186546875	0.4351984635222172
-0.4844608303125	0.4443584573911612
-0.48439979515625	0.45297817641170607
-0.48433876	0.46104701333237896
-0.48427772484375	0.4685539303589617
-0.4842166896875	0.4754894366711045
-0.48415565453125	0.48184546153116037
-0.484094619375	0.4876136168666903
-0.48403358421875	0.49278615970007833
-0.4839725490625	0.49735676823314
-0.48391151390625	0.5013196291000577
-0.48385047875	0.5046694666864288
-0.48378944359375	0.5074019611351197
-0.4837284084375	0.5095135732608107
-0.48366737328125	0.5110014343317456
-0.483606338125	0.5118634684382135
-0.48354530296875	0.5120984734408373
-0.4834842678125	0.5117059815658004
-0.48342323265625	0.5106862233245972
-0.4833621975	0.5090403016686512
-0.48330116234375	0.5067701176695055
-0.4832401271875	0.5038782603025507
-0.48317909203125	0.5003681638180912
-0.483118056875	0.4962441025024925
-0.48305702171875	0.4915109365510459
-0.4829959865625	0.486174317193799
-0.48293495140625	0.4802409225697624
-0.48287391625	0.47371793200330137
-0.48281288109375	0.4666131061786026
-0.4827518459375	0.45893526887755176
-0.48269081078125	0.4506939719321646
-0.482629775625	0.44189925370094124
-0.48256874046875	0.43256168896839853
-0.4825077053125	0.42269288343100003
-0.48244667015625	0.4123053399282605
-0.482385635	0.40141157987507314
-0.48232459984375	0.39002486315797197
-0.4822635646875	0.3781595294144221
-0.48220252953125	0.36583032239170366
-0.482141494375	0.3530524004684127
-0.48208045921875	0.3398413369011089
-0.4820194240625	0.3262137731568105
-0.48195838890625	0.3121868890598948
-0.48189735375	0.2977773881684582
-0.48183631859375	0.28300343061213196
-0.4817752834375	0.2678840028774012
-0.48171424828125	0.2524369912338958
-0.481653213125	0.23668164356390486
-0.48159217796875	0.22063836305592965
-0.4815311428125	0.204326577406012
-0.48147010765625	0.18776628274905924
-0.4814090725	0.170978557555356
-0.48134803734375	0.15398437872608672
-0.4812870021875	0.1368045331363982
-0.48122596703125	0.11946047895561268
-0.481164931875	0.10197429889942573
-0.48110389671875	0.08436748665604413
-0.4810428615625	0.06666169659998228
-0.48098182640625	0.04887945238567716
-0.48092079125	0.03104304249997014
-0.48085975609375	0.013174398329359913
-0.4807987209375	-0.004704166635410728
-0.48073768578125	-0.022569923830392854
-0.480676650625	-0.040400770563068095
-0.48061561546875	-0.05817484459424967
-0.4805545803125	-0.07586935473498722
-0.48049354515625	-0.09346188575264729
-0.48043251	-0.11093105293830623
-0.48037147484375	-0.12825516975566723
-0.4803104396875	-0.14541221646873145
-0.48024940453125	-0.16238043782513567
-0.480188369375	-0.1791385625803466
-0.48012733421875	-0.19566610280785082
-0.4800662990625	-0.21194239893992128
-0.48000526390625	-0.22794661077589887
-0.47994422875	-0.24365879975544175
-0.47988319359375	-0.25905927474248686
-0.4798221584375	-0.2741287258048242
-0.47976112328125	-0.2888484376183834
-0.479700088125	-0.3031997651651741
-0.47963905296875	-0.317164701518098
-0.4795780178125	-0.33072576412335203
-0.47951698265625	-0.34386583669472903
-0.4794559475	-0.35656858646464584
-0.47939491234375	-0.3688181365851702
-0.4793338771875	-0.38059878839377054
-0.47927284203125	-0.39189569762551874
-0.479211806875	-0.40269511210334774
-0.47915077171875	-0.4129834546344472
-0.4790897365625	-0.42274733506255235
-0.47902870140625	-0.43197449318258624
-0.47896766625	-0.44065377928713684
-0.47890663109375	-0.4487742501388111
-0.4788455959375	-0.4563253162866642
-0.47878456078125	-0.46329759395903447
-0.478723525625	-0.46968246829833676
-0.47866249046875	-0.4754718368766611
-0.4786014553125	-0.48065849367935765
-0.47854042015625	-0.48523583598251047
-0.478479385	-0.48919799991004276
-0.47841834984375	-0.4925401670265195
-0.4783573146875	-0.4952581657621094
-0.47829627953125	-0.49734848438883483
-0.478235244375	-0.49880852990713304
-0.47817420921875	-0.49963649327815784
-0.4781131740625	-0.49983131789020147
-0.47805213890625	-0.4993927875284705
-0.47799110375	-0.4983215135595001
-0.47793006859375	-0.4966188593817723
-0.4778690334375	-0.4942869389003814
-0.47780799828125	-0.49132873044192726
-0.477746963125	-0.4877480232457708
-0.47768592796875	-0.4835493679866823
-0.4776248928125	-0.4787381496106135
-0.47756385765625	-0.47332037294433826
-0.4775028225	-0.4673027702410931
-0.47744178734375	-0.4606932719407864
-0.4773807521875	-0.453500350958175
-0.47731971703125	-0.4457326551352573
-0.477258681875	-0.43740022999438827
-0.47719764671875	-0.4285140410618346
-0.4771366115625	-0.41908486356229746
-0.47707557640625	-0.4091246836509465
-0.47701454125	-0.3986466724799327
-0.47695350609375	-0.3876636786909724
-0.4768924709375	-0.37618940856353794
-0.47683143578125	-0.36423906613491114
-0.476770400625	-0.35182765794413007
-0.47670936546875	-0.3389704929263684
-0.4766483303125	-0.32568429246162467
-0.47658729515625	-0.31198605790687184
-0.47652626	-0.2978930252832353
-0.47646522484375	-0.28342302051810575
-0.4764041896875	-0.2685944051569643
-0.47634315453125	-0.2534263725483362
-0.476282119375	-0.23793809875483837
-0.47622108421875	-0.222149061296291
-0.4761600490625	-0.20607953012939356
-0.47609901390625	-0.1897498578173235
-0.47603797875	-0.17318107612362668
-0.47597694359375	-0.15639425821430092
-0.4759159084375	-0.13941032985675086
-0.47585487328125	-0.12225137170661907
-0.475793838125	-0.10493936485929424
-0.47573280296875	-0.08749610357589714
-0.4756717678125	-0.06994386738619648
-0.47561073265625	-0.0523048535401603
-0.4755496975	-0.03460192848195754
-0.47548866234375	-0.016857946868359838
-0.4754276271875	0.0009050181227815105
-0.47536659203125	0.018664424533772327
-0.475305556875	0.036397082266747705
-0.47524452171875	0.05408020959862656
-0.4751834865625	0.07169167343733594
-0.47512245140625	0.08920889884504592
-0.47506141625	0.10660904270524758
-0.47500038109375	0.12387008031914748
-0.4749393459375	0.14097026537999777
-0.47487831078125	0.15788753254929366
-0.474817275625	0.17459973897773542
-0.47475624046875	0.1910854604429063
-0.4746952053125	0.20732431120465034
-0.47463417015625	0.22329540981070148
-0.474573135	0.2389773012919262
-0.47451209984375	0.2543502496013955
-0.4744510646875	0.26939535480948323
-0.47439002953125	0.2840924314977742
-0.474328994375	0.2984222066590277
-0.47426795921875	0.31236720273556245
-0.4742069240625	0.32590932565829595
-0.47414588890625	0.33903043822793605
-0.47408485375	0.35171392447902416
-0.47402381859375	0.36394375955537783
-0.4739627834375	0.3757039774100084
-0.47390174828125	0.3869792481638115
-0.473840713125	0.39775489919120005
-0.47377967796875	0.4080170671885369
-0.4737186428125	0.41775272215396414
-0.47365760765625	0.42694901925378603
-0.4735965725	0.4355937223324973
-0.47353553734375	0.44367589406767843
-0.4734745021875	0.4511851112740066
-0.47341346703125	0.4581112028754322
-0.473352431875	0.4644452152627075
-0.47329139671875	0.470179049263342
-0.4732303615625	0.4753048384981204
-0.47316932640625	0.479815822837759
-0.47310829125	0.4837062663712279
-0.47304725609375	0.4869707874417854
-0.4729862209375	0.48960483430925866
-0.47292518578125	0.4916049197668578
-0.472864150625	0.4929682953573159
-0.47280311546875	0.493692922454198
-0.4727420803125	0.4937775814508113
-0.47268104515625	0.49322189667198096
-0.47262001	0.492026383789272
-0.47255897484375	0.4901923363430214
-0.4724979396875	0.4877217824951229
-0.47243690453125	0.48461763171464045
-0.472375869375	0.4808836221810121
-0.47231483421875	0.47652429054848955
-0.4722537990625	0.471544941096788
-0.47219276390625	0.4659516866484205
-0.47213172875	0.459751491469796
-0.47207069359375	0.45295194369906605
-0.4720096584375	0.44556155387343827
-0.47194862328125	0.43758962256497697
-0.471887588125	0.4290458764576569
-0.47182655296875	0.4199412261119997
-0.4717655178125	0.4102872515117515
-0.47170448265625	0.4000956126384503
-0.4716434475	0.3893792758723666
-0.47158241234375	0.3781521616503111
-0.4715213771875	0.36642809456080955
-0.47146034203125	0.3542217201091926
-0.471399306875	0.3415487319057663
-0.47133827171875	0.32842510818416926
-0.4712772365625	0.3148673846479432
-0.47121620140625	0.3008928202481727
-0.47115516625	0.2865192372130558
-0.47109413109375	0.2717646997772763
-0.4710330959375	0.2566477524240353
-0.47097206078125	0.24118798826694346
-0.470911025625	0.2254051442654832
-0.47084999046875	0.20931896376258197
-0.4707889553125	0.1929499037530545
-0.47072792015625	0.17631902242176087
-0.470666885	0.15944760188848095
-0.47060584984375	0.14235686409213485
-0.4705448146875	0.12506870963152125
-0.47048377953125	0.10760556988637389
-0.470422744375	0.08998937239467639
-0.47036170921875	0.07224234522586206
-0.4703006740625	0.05438772685943488
-0.47023963890625	0.03644853268605654
-0.47017860375	0.018447081510305722
-0.47011756859375	0.00040663504488947275
-0.4700565334375	-0.01764928158629235
-0.46999549828125	-0.03569812312573377
-0.469934463125	-0.053716535943264414
-0.46987342796875	-0.07168090411303847
-0.4698123928125	-0.08956872042353166
-0.46975135765625	-0.10735714886716276
-0.4696903225	-0.12502269104796207
-0.46962928734375	-0.1425427364632818
-0.4695682521875	-0.15989552454642175
-0.46950721703125	-0.17705827077315842
-0.469446181875	-0.1940079475451782
-0.46938514671875	-0.21072341753077622
-0.4693241115625	-0.2271839642575151
-0.46926307640625	-0.2433676165926628
-0.46920204125	-0.25925284825177713
-0.46914100609375	-0.27481958639668586
-0.4690799709375	-0.2900480080140672
-0.46901893578125	-0.3049183217335431
-0.468957900625	-0.31941115067028814
-0.46889686546875	-0.3335074874602584
-0.4688358303125	-0.34718909711535023
-0.46877479515625	-0.360438507355262
-0.46871376	-0.3732383394408077
-0.46865272484375	-0.385571708412122
-0.4685916896875	-0.39742279604467795
-0.46853065453125	-0.40877615679644447
-0.468469619375	-0.41961674108587443
-0.46840858421875	-0.4299304047258128
-0.4683475490625	-0.43970373682266684
-0.46828651390625	-0.44892400751039574
-0.46822547875	-0.4575788515371522
-0.46816444359375	-0.46565666437392594
-0.4681034084375	-0.47314718846183507
-0.46804237328125	-0.4800405733390843
-0.467981338125	-0.4863271970709897
-0.46792030296875	-0.4919986366126778
-0.4678592678125	-0.49704760038870177
-0.46779823265625	-0.501467290072655
-0.4677371975	-0.5052514788583836
-0.46767616234375	-0.508394887034594
-0.4676151271875	-0.5108932004611949
-0.46755409203125	-0.512742927452606
-0.467493056875	-0.513941312201244
-0.46743202171875	-0.5144863834531338
-0.4673709865625	-0.5143770548828125
-0.46730995140625	-0.5136131005463481
-0.46724891625	-0.5121951318997132
-0.46718788109375	-0.5101246082994496
