Time	Frequency
-0.5000354893750014	0.28866793750840336
-0.4999744542187514	0.2983487086720503
-0.4999134190625014	0.3077395725181303
-0.4998523839062514	0.3168318305028259
-0.4997913487500014	0.3256170999935984
-0.4997303135937514	0.33408653897778545
-0.4996692784375014	0.3422317863807982
-0.4996082432812514	0.35004547242155987
-0.4995472081250014	0.3575204149197744
-0.4994861729687514	0.3646492048513628
-0.4994251378125014	0.3714248324691281
-0.4993641026562514	0.37784098633419605
-0.4993030675000014	0.38389147609008295
-0.4992420323437514	0.38957053473512077
-0.4991809971875014	0.39487291692274185
-0.4991199620312514	0.3997933002494724
-0.4990589268750014	0.404326763266754
-0.4989978917187514	0.40846923668113017
-0.4989368565625014	0.41221684985166235
-0.4988758214062514	0.4155657412345339
-0.4988147862500014	0.41851256296884665
-0.4987537510937514	0.421054639680014
-0.4986927159375014	0.4231895881648589
-0.4986316807812514	0.42491513067044057
-0.4985706456250014	0.42622953535421315
-0.4985096104687514	0.4271316334513217
-0.4984485753125014	0.42762046803731324
-0.4983875401562514	0.4276954295535119
-0.4983265050000014	0.4273564079085636
-0.4982654698437514	0.42660372061256474
-0.4982044346875014	0.4254380132774286
-0.4981433995312514	0.4238602081375201
-0.4980823643750014	0.42187181026740145
-0.4980213292187514	0.419474756408898
-0.4979602940625014	0.41667111521180217
-0.4978992589062514	0.4134635214393955
-0.4978382237500014	0.4098549722397297
-0.4977771885937514	0.4058488100802473
-0.4977161534375014	0.4014489410361145
-0.4976551182812514	0.39665935827174453
-0.4975940831250014	0.3914843772907923
-0.4975330479687514	0.3859291329773669
-0.4974720128125014	0.37999904875054036
-0.4974109776562514	0.373699233420683
-0.4973499425000014	0.36703563305690967
-0.4972889073437514	0.360015070638764
-0.4972278721875014	0.3526438979325669
-0.4971668370312514	0.3449288670688958
-0.4971058018750014	0.33687751197633964
-0.4970447667187514	0.32849735998204
-0.4969837315625014	0.31979640453632335
-0.4969226964062514	0.31078315206042895
-0.4968616612500014	0.30146584379371644
-0.4968006260937514	0.2918530384955099
-0.4967395909375014	0.28195418042024567
-0.4966785557812514	0.27177902667212295
-0.4966175206250014	0.261337129228558
-0.4965564854687514	0.25063799520680696
-0.4964954503125014	0.23969163902334237
-0.4964344151562514	0.22850878784791873
-0.4963733800000014	0.21710082269180564
-0.4963123448437514	0.20547819212849616
-0.4962513096875014	0.19365092704200496
-0.4961902745312514	0.18163104387804613
-0.4961292393750014	0.1694305472997785
-0.4960682042187514	0.15706060749934614
-0.4960071690625014	0.14453311917597103
-0.4959461339062514	0.131859841488012
-0.4958850987500014	0.11905271192156294
-0.4958240635937514	0.10612441441642037
-0.4957630284375014	0.09308739327511309
-0.4957019932812514	0.07995395968991217
-0.4956409581250014	0.06673664560923454
-0.4955799229687514	0.05344767846241636
-0.4955188878125014	0.040099990189873536
-0.4954578526562514	0.02670725150206776
-0.4953968175000014	0.013281782478044669
-0.4953357823437514	-0.00016421874863081472
-0.4952747471875014	-0.013617592978816343
-0.4952137120312514	-0.02706482944120485
-0.4951526768750014	-0.04049292811002538
-0.4950916417187514	-0.05388978155013673
-0.4950306065625014	-0.06724239871736255
-0.4949695714062514	-0.08053744337757927
-0.4949085362500014	-0.09376206965655737
-0.4948475010937514	-0.10690394630198931
-0.4947864659375014	-0.11995089509734104
-0.4947254307812514	-0.13288929604234775
-0.4946643956250014	-0.14570647898774838
-0.4946033604687514	-0.15839157714053567
-0.4945423253125014	-0.1709317720251122
-0.4944812901562514	-0.18331380782086917
-0.4944202550000014	-0.19552664670320258
-0.4943592198437514	-0.20755893569714998
-0.4942981846875014	-0.21939841669916818
-0.4942371495312514	-0.23103341514472758
-0.4941761143750014	-0.24245288773955467
-0.4941150792187514	-0.25364617564602626
-0.4940540440625014	-0.2646020685783802
-0.4939930089062514	-0.27530951423032235
-0.4939319737500014	-0.2857587517849618
-0.4938709385937514	-0.29593946466927673
-0.4938099034375014	-0.30584136552075936
-0.4937488682812514	-0.31545533609126936
-0.4936878331250014	-0.32477163652068186
-0.4936267979687514	-0.33378106663570684
-0.4935657628125014	-0.34247525724814737
-0.4935047276562514	-0.350845249484823
-0.4934436925000014	-0.3588829879003325
-0.4933826573437514	-0.36658081641007023
-0.4933216221875014	-0.37393069229170534
-0.4932605870312514	-0.38092557915090747
-0.4931995518750014	-0.3875587616985847
-0.4931385167187514	-0.3938233556997897
-0.4930774815625014	-0.3997132673394171
-0.4930164464062514	-0.40522276396293155
-0.4929554112500014	-0.4103460957277849
-0.4928943760937514	-0.41507813451581277
-0.4928333409375014	-0.41941432657591055
-0.4927723057812514	-0.42335023569123287
-0.4927112706250014	-0.4268816450579465
-0.4926502354687514	-0.4300050012729032
-0.4925892003125014	-0.43271725369049735
-0.4925281651562514	-0.43501537059862616
-0.4924671300000014	-0.43689686232139835
-0.4924060948437514	-0.43835984912618625
-0.4923450596875014	-0.43940254947043955
-0.4922840245312514	-0.4400236947011104
-0.4922229893750014	-0.44022249898096255
-0.4921619542187514	-0.4399984844220903
-0.4921009190625014	-0.4393516008138198
-0.4920398839062514	-0.4382821724505751
-0.4919788487500014	-0.436791021050158
-0.4919178135937514	-0.43487930424633486
-0.4918567784375014	-0.4325485638413304
-0.4917957432812514	-0.4298007621274468
-0.4917347081250014	-0.42663824383580967
-0.4916736729687514	-0.42306387493226016
-0.4916126378125014	-0.4190808251168186
-0.4915516026562514	-0.4146925376282354
-0.4914905675000014	-0.4099028890904693
-0.4914295323437514	-0.4047163656332851
-0.4913684971875014	-0.39913784891313364
-0.4913074620312514	-0.39317217508328106
-0.4912464268750014	-0.38682459668893576
-0.4911853917187514	-0.3801012864683527
-0.4911243565625014	-0.3730086145340067
-0.4910633214062514	-0.3655527802997083
-0.4910022862500014	-0.35774056106891555
-0.4909412510937514	-0.3495795050699313
-0.4908802159375014	-0.3410773425039065
-0.4908191807812514	-0.33224161138606867
-0.4907581456250014	-0.32308046520281675
-0.4906971104687514	-0.3136029415973491
-0.4906360753125014	-0.30381780013241333
-0.4905750401562514	-0.2937337359322011
-0.4905140050000014	-0.2833603903726874
-0.4904529698437514	-0.272707953322007
-0.4903919346875014	-0.2617861314761302
-0.4903308995312514	-0.2506047708845989
-0.4902698643750014	-0.23917487233410745
-0.4902088292187514	-0.22750729302556397
-0.4901477940625014	-0.21561261962616843
-0.4900867589062514	-0.20350229528747743
-0.4900257237500014	-0.19118792095888082
-0.4899646885937514	-0.17868068050566094
-0.4899036534375014	-0.1659925198505598
-0.4898426182812514	-0.1531360386077273
-0.4897815831250014	-0.14012274226615035
-0.4897205479687514	-0.12696481696642922
-0.4896595128125014	-0.1136754906090453
-0.4895984776562514	-0.10026682554208585
-0.4895374425000014	-0.08675124472674604
-0.4894764073437514	-0.07314239527588366
-0.4894153721875014	-0.0594531383507152
-0.4893543370312514	-0.04569551725265924
-0.4892933018750014	-0.03188300699221442
-0.4892322667187514	-0.018029552646790244
-0.4891712315625014	-0.0041477766027801155
-0.4891101964062514	0.009749433114354293
-0.4890491612500014	0.023648462621194927
-0.4889881260937514	0.03753611066887406
-0.4889270909375014	0.05139923701302213
-0.4888660557812514	0.0652243505551954
-0.4888050206250014	0.0789984884314494
-0.4887439854687514	0.09270868316012987
-0.4886829503125014	0.10634126730466771
-0.4886219151562514	0.11988349439859455
-0.4885608800000014	0.13332292970303322
-0.4884998448437514	0.1466461578684326
-0.4884388096875014	0.1598401282752785
-0.4883777745312514	0.17289248921995565
-0.4883167393750014	0.1857912216011153
-0.4882557042187514	0.19852388139809565
-0.4881946690625014	0.21107763686687053
-0.4881336339062514	0.22344040926290265
-0.4880725987500014	0.2356006856496976
-0.4880115635937514	0.24754732302362226
-0.4879505284375014	0.25926847068136194
-0.4878894932812514	0.27075196640096816
-0.4878284581250014	0.2819874776556976
-0.4877674229687514	0.29296484335923584
-0.4877063878125014	0.30367265686051365
-0.4876453526562514	0.31410039033238385
-0.4875843175000014	0.32423868959463187
-0.4875232823437514	0.33407770472223486
-0.4874622471875014	0.3436073533036855
-0.4874012120312514	0.3528186541170034
-0.4873401768750014	0.3617032778466262
-0.4872791417187514	0.3702521758289694
-0.4872181065625014	0.37845667435462516
-0.4871570714062514	0.3863093853388853
-0.4870960362500014	0.39380269651859123
-0.4870350010937514	0.40092904682355773
-0.4869739659375014	0.40768173262352103
-0.4869129307812514	0.4140539964076583
-0.4868518956250014	0.4200395679046861
-0.4867908604687514	0.4256329976151877
-0.4867298253125014	0.43082858499017657
-0.4866687901562514	0.435621048698351
-0.4866077550000014	0.44000591312045534
-0.4865467198437514	0.44397890642789234
-0.4864856846875014	0.44753599393862853
-0.4864246495312514	0.4506736017554877
-0.4863636143750014	0.4533887530387255
-0.4863025792187514	0.45567867184134286
-0.4862415440625014	0.45754096062055755
-0.4861805089062514	0.45897384490402277
-0.4861194737500014	0.45997582105958934
-0.4860584385937514	0.4605457347926267
-0.4859974034375014	0.46068292347819473
-0.4859363682812514	0.4603872100757212
-0.4858753331250014	0.45965875666753886
-0.4858142979687514	0.45849811541716057
-0.4857532628125014	0.45690631145974625
-0.4856922276562514	0.4548846968086762
-0.4856311925000014	0.45243511229070854
-0.4855701573437514	0.4495599046185083
-0.4855091221875014	0.4462616758088916
-0.4854480870312514	0.44254338813272703
-0.4853870518750014	0.4384085419443134
-0.4853260167187514	0.43386103805892456
-0.4852649815625014	0.4289051641636576
-0.4852039464062514	0.42354562634099935
-0.4851429112500014	0.4177872906235958
-0.4850818760937514	0.41163547991350496
-0.4850208409375014	0.405096395382153
-0.4849598057812514	0.39817628674803396
-0.4848987706250014	0.39088117708563397
-0.4848377354687514	0.38321800425734537
-0.4847767003125014	0.37519454256882934
-0.4847156651562514	0.36681842766133105
-0.4846546300000014	0.35809722855927045
-0.4845935948437514	0.34903901819475663
-0.4845325596875014	0.33965295264874074
-0.4844715245312514	0.3299481698651743
-0.4844104893750014	0.3199331680538848
-0.4843494542187514	0.30961786177402534
-0.4842884190625014	0.2990126256987151
-0.4842273839062514	0.2881267746736341
-0.4841663487500014	0.2769706300612128
-0.4841053135937514	0.2655557642085085
-0.4840442784375014	0.2538929162070573
-0.4839832432812514	0.2419924565593463
-0.4839222081250014	0.22986611099168547
-0.4838611729687514	0.2175259546758528
-0.4838001378125014	0.2049835552430741
-0.4837391026562514	0.1922508349684093
-0.4836780675000014	0.17934003119391367
-0.4836170323437514	0.1662635537855687
-0.4835559971875014	0.15303403124515635
-0.4834949620312514	0.13966399223237375
-0.4834339268750014	0.12616645139765312
-0.4833728917187514	0.11255459302845
-0.4833118565625014	0.09884097601361527
-0.4832508214062514	0.08503881868274941
-0.4831897862500014	0.07116199192381638
-0.4831287510937514	0.057223543804025744
-0.4830677159375014	0.04323648836855312
-0.4830066807812514	0.02921471744622377
-0.4829456456250014	0.015171886555356928
-0.4828846104687514	0.0011211416169125245
-0.4828235753125014	-0.01292393601985379
-0.4827625401562514	-0.02694965267923252
-0.4827015050000014	-0.04094256198881621
-0.4826404698437514	-0.05488900253230995
-0.4825794346875014	-0.06877556618316796
-0.4825183995312514	-0.08258927968574431
-0.4824573643750014	-0.09631658229586026
-0.4823963292187514	-0.10994370982768788
-0.4823352940625014	-0.12345785713266857
-0.4822742589062514	-0.13684632880846642
-0.4822132237500014	-0.15009602581389636
-0.4821521885937514	-0.1631937271141648
-0.4820911534375014	-0.17612663303769915
-0.4820301182812514	-0.18888331569722194
-0.4819690831250014	-0.20145113328101974
-0.4819080479687514	-0.2138164114926291
-0.4818470128125014	-0.22596848826434435
-0.4817859776562514	-0.2378964804911766
-0.4817249425000014	-0.24958729368155058
-0.4816639073437514	-0.26102964495386016
-0.4816028721875014	-0.2722132289262891
-0.4815418370312514	-0.28312706092475354
-0.4814808018750014	-0.2937603909938824
-0.4814197667187514	-0.3041027797889799
-0.4813587315625014	-0.3141444207982881
-0.4812976964062514	-0.3238754440357251
-0.4812366612500014	-0.3332863194654806
-0.4811756260937514	-0.3423684480765384
-0.4811145909375014	-0.35111253681557064
-0.4810535557812514	-0.3595098260783414
-0.4809925206250014	-0.3675527527403957
-0.4809314854687514	-0.3752333200931553
-0.4808704503125014	-0.3825439402544764
-0.4808094151562514	-0.3894776983947055
-0.4807483800000014	-0.39602762175220046
-0.4806873448437514	-0.4021873336023668
-0.4806263096875014	-0.4079511463964133
-0.4805652745312514	-0.4133132960674537
-0.4805042393750014	-0.4182683791620508
-0.4804432042187514	-0.42281183743675727
-0.4803821690625014	-0.4269391396902859
-0.4803211339062514	-0.43064609712808927
-0.4802600987500014	-0.4339293839329907
-0.4801990635937514	-0.43678572396289606
-0.4801380284375014	-0.43921213443607837
-0.4800769932812514	-0.4412064065376767
-0.4800159581250014	-0.44276662511165704
-0.4799549229687514	-0.44389117778291265
-0.4798938878125014	-0.4445789492495102
-0.4798328526562514	-0.4448292972296502
-0.4797718175000014	-0.44464200760750244
-0.4797107823437514	-0.4440171993301231
-0.4796497471875014	-0.44295542779074315
-0.4795887120312514	-0.44145780230049037
-0.4795276768750014	-0.4395258299374208
-0.4794666417187514	-0.43716124456612065
-0.4794056065625014	-0.4343663033717131
-0.4793445714062514	-0.43114394784600274
-0.4792835362500014	-0.42749723985983507
-0.4792225010937514	-0.4234295131587068
-0.4791614659375014	-0.41894499276040154
-0.4791004307812514	-0.4140480692959097
-0.4790393956250014	-0.408743224928734
-0.4789783604687514	-0.4030357869166626
-0.4789173253125014	-0.3969315037476775
-0.4788562901562514	-0.3904362636363401
-0.4787952550000014	-0.383556201188199
-0.4787342198437514	-0.37629799292694943
-0.4786731846875014	-0.36866905275634937
-0.4786121495312514	-0.36067690833294047
-0.4785511143750014	-0.352329020331896
-0.4784900792187514	-0.3436334799457711
-0.4784290440625014	-0.33459911616150934
-0.4783680089062514	-0.325234728172675
-0.4783069737500014	-0.3155494348644698
-0.4782459385937514	-0.305552858026897
-0.4781849034375014	-0.2952541889980207
-0.4781238682812514	-0.2846638266728091
-0.4780628331250014	-0.27379313766718916
-0.4780017979687514	-0.26265160578668756
-0.4779407628125014	-0.2512496609323741
-0.4778797276562514	-0.23959998936125299
-0.4778186925000014	-0.22771374393508403
-0.4777576573437514	-0.21560139981448168
-0.4776966221875014	-0.20327553371800333
-0.4776355870312514	-0.19074906912404216
-0.4775745518750014	-0.178033405842031
-0.4775135167187514	-0.16514060789447135
-0.4774524815625014	-0.15208421208253306
-0.4773914464062514	-0.13887717098106112
-0.4773304112500014	-0.12553198498643256
-0.4772693760937514	-0.11206159550842104
-0.4772083409375014	-0.09847948230840671
-0.4771473057812514	-0.08479933062114188
-0.4770862706250014	-0.07103446954637153
-0.4770252354687514	-0.05719836574114587
-0.4769642003125014	-0.04330444989708194
-0.4769031651562514	-0.029366188069838123
-0.4768421300000014	-0.015398187041199047
-0.4767810948437514	-0.001414524000102654
-0.4767200596875014	0.01257248478091849
-0.4766590245312514	0.026549031867125313
-0.4765979893750014	0.04049981501333758
-0.4765369542187514	0.054411365243630154
-0.4764759190625014	0.06827058522372517
-0.4764148839062514	0.0820639231997354
-0.4763538487500014	0.09577788561279259
-0.4762928135937514	0.10939771129568189
-0.4762317784375014	0.12290995698187165
-0.4761707432812514	0.13630275059304597
-0.4761097081250014	0.14956228345775044
-0.4760486729687514	0.16267453097214124
-0.4759876378125014	0.1756267674452937
-0.4759266026562514	0.18840673875239988
-0.4758655675000014	0.20100178616396233
-0.4758045323437514	0.21339853085789875
-0.4757434971875014	0.22558516976584858
-0.4756824620312514	0.23754995004418858
-0.4756214268750014	0.24928015810185244
-0.4755603917187514	0.26076463701318264
-0.4754993565625014	0.27199211845209187
-0.4754383214062514	0.2829508836285664
-0.4753772862500014	0.2936301829682894
-0.4753162510937514	0.30401945025399857
-0.4752552159375014	0.3141082210788777
-0.4751941807812514	0.3238864694789597
-0.4751331456250014	0.3333445072093504
-0.4750721104687514	0.3424725145040471
-0.4750110753125014	0.3512612118932665
-0.4749500401562514	0.35970239019727546
-0.4748890050000014	0.36778746018844566
-0.4748279698437514	0.37550773036395885
-0.4747669346875014	0.382855518448362
-0.4747058995312514	0.3898236589381934
-0.4746448643750014	0.39640532028633324
-0.4745838292187514	0.4025935346461978
-0.4745227940625014	0.4083815438924659
-0.4744617589062514	0.41376386933600057
-0.4744007237500014	0.41873537163588004
-0.4743396885937514	0.423290609078769
-0.4742786534375014	0.42742454769252575
-0.4742176182812514	0.431133091768887
-0.4741565831250014	0.43441270176616203
-0.4740955479687514	0.4372597737447589
-0.4740345128125014	0.4396710300556356
-0.4739734776562514	0.4416439460189351
-0.4739124425000014	0.4431765585481459
-0.4738514073437514	0.4442670801175887
-0.4737903721875014	0.44491401519343715
-0.4737293370312514	0.44511660526383556
-0.4736683018750014	0.44487451723321997
-0.4736072667187514	0.44418764517752796
-0.4735462315625014	0.44305646547731187
-0.4734851964062514	0.44148187991198795
-0.4734241612500014	0.43946512144771493
-0.4733631260937514	0.43700803329856247
-0.4733020909375014	0.4341129482629089
-0.4732410557812514	0.43078228713134015
-0.4731800206250014	0.42701895635137255
-0.4731189854687514	0.4228267409812896
-0.4730579503125014	0.418209584748632
-0.4729969151562514	0.41317170906765005
-0.4729358800000014	0.4077177323124328
-0.4728748448437514	0.40185264773115925
-0.4728138096875014	0.3955825655867796
-0.4727527745312514	0.38891345703288444
-0.4726917393750014	0.3818510336281231
-0.4726307042187514	0.37440238512829654
-0.4725696690625014	0.366574761203109
-0.4725086339062514	0.35837562061326667
-0.4724475987500014	0.34981316147083397
-0.4723865635937514	0.3408950096508297
-0.4723255284375014	0.3316297504947543
-0.4722644932812514	0.32202705585497265
-0.4722034581250014	0.31209597772560654
-0.4721424229687514	0.3018457488985903
-0.4720813878125014	0.29128633543126353
-0.4720203526562514	0.2804282974965674
-0.4719593175000014	0.26928224762299796
-0.4718982823437514	0.25785870134115796
-0.4718372471875014	0.24616887132794263
-0.4717762120312514	0.23422424876179682
-0.4717151768750014	0.22203623051145338
-0.4716541417187514	0.20961691108421918
-0.4715931065625014	0.1969786960677013
-0.4715320714062514	0.1841334455327834
-0.4714710362500014	0.1710934530880621
-0.4714100010937514	0.15787210132828033
-0.4713489659375014	0.14448263165473038
-0.4712879307812514	0.13093745455736341
-0.4712268956250014	0.11724933961306916
-0.4711658604687514	0.10343263003850757
-0.4711048253125014	0.08950145387966389
-0.4710437901562514	0.07546830778765212
-0.4709827550000014	0.061346561711808405
-0.4709217198437514	0.047151282900362024
-0.4708606846875014	0.03289676970901049
-0.4707996495312514	0.018595816988653396
-0.4707386143750014	0.00426222555422387
-0.4706775792187514	-0.010088548510715063
-0.4706165440625014	-0.024442489403912807
-0.4705555089062514	-0.038786492951027624
-0.4704944737500014	-0.05310580545982227
-0.4704334385937514	-0.06738621983041151
-0.4703724034375014	-0.08161408677644362
-0.4703113682812514	-0.09577459571075696
-0.4702503331250014	-0.10985404166098266
-0.4701892979687514	-0.12383906909215717
-0.4701282628125014	-0.13771533057159965
-0.4700672276562514	-0.1514690250175384
-0.4700061925000014	-0.16508680876930865
-0.4699451573437514	-0.17855499274227163
-0.4698841221875014	-0.19185999003585383
-0.4698230870312514	-0.2049891400911394
-0.4697620518750014	-0.21792947589054948
-0.4697010167187514	-0.2306675198395015
