Time	Frequency
-0.5000080740312569	0.215430619292122
-0.4999470388750069	0.22969906938377305
-0.4998860037187569	0.2436910533805276
-0.4998249685625069	0.25739036228963275
-0.4997639334062569	0.27077999235740885
-0.4997028982500069	0.2838433753924501
-0.4996418630937569	0.2965655777861729
-0.4995808279375069	0.30893152082491787
-0.4995197927812569	0.3209256117025472
-0.4994587576250069	0.33253349386566944
-0.4993977224687569	0.34374169412562766
-0.4993366873125069	0.35453654923360955
-0.4992756521562569	0.3649046035323489
-0.4992146170000069	0.3748334980147476
-0.4991535818437569	0.38431147311504765
-0.4990925466875069	0.39332681115400975
-0.4990315115312569	0.4018686271061389
-0.4989704763750069	0.4099266112216382
-0.4989094412187569	0.4174907754230483
-0.4988484060625069	0.42455188364230567
-0.4987873709062569	0.4311013032884629
-0.4987263357500069	0.43713115850541406
-0.4986653005937569	0.4426340684620299
-0.4986042654375069	0.44760288069941706
-0.4985432302812569	0.4520314190961523
-0.4984821951250069	0.45591447399291657
-0.4984211599687569	0.45924711387693234
-0.4983601248125069	0.4620248717022069
-0.4982990896562569	0.46424416323951034
-0.4982380545000069	0.4659021798824247
-0.4981770193437569	0.4669966853152253
-0.4981159841875069	0.46752602128804954
-0.4980549490312569	0.4674892278440538
-0.4979939138750069	0.46688606315508224
-0.4979328787187569	0.4657169827258077
-0.4978718435625069	0.46398308432602386
-0.4978108084062569	0.46168607009556883
-0.4977497732500069	0.45882840179137674
-0.4976887380937569	0.4554131827474662
-0.4976277029375069	0.4514440887854474
-0.4975666677812569	0.4469256531034839
-0.4975056326250069	0.44186299524601047
-0.4974445974687569	0.43626163931821726
-0.4973835623125069	0.43012795367296475
-0.4973225271562569	0.42346916150721853
-0.4972614920000069	0.4162928177058492
-0.4972004568437569	0.4086069594681513
-0.4971394216875069	0.4004206065206966
-0.4970783865312569	0.39174324456905396
-0.4970173513750069	0.38258481310348985
-0.4969563162187569	0.3729560370358893
-0.4968952810625069	0.3628679299500245
-0.4968342459062569	0.35233220814416905
-0.4967732107500069	0.3413614676278856
-0.4967121755937569	0.3299683468233
-0.4966511404375069	0.31816584338026427
-0.4965901052812569	0.3059678846774893
-0.4965290701250069	0.2933889664103475
-0.4964680349687569	0.2804438851314159
-0.4964069998125069	0.26714756473206597
-0.4963459646562569	0.2535152766570326
-0.4962849295000069	0.2395634346663339
-0.4962238943437569	0.22530885690201957
-0.4961628591875069	0.21076764408932006
-0.4961018240312569	0.1959566255741977
-0.4960407888750069	0.18089403287499536
-0.4959797537187569	0.16559769181333361
-0.4959187185625069	0.15008483208462212
-0.4958576834062569	0.13437367532236305
-0.4957966482500069	0.11848365600010008
-0.4957356130937569	0.1024336639911774
-0.4956745779375069	0.08624165388568757
-0.4956135427812569	0.0699267885482082
-0.4955525076250069	0.05350922094837124
-0.4954914724687569	0.03700820791968563
-0.4954304373125069	0.020442950812715768
-0.4953694021562569	0.0038331141060079844
-0.4953083670000069	-0.012801707819117122
-0.4952473318437569	-0.0294414723541078
-0.4951862966875069	-0.04606618950976024
-0.4951252615312569	-0.06265660700583243
-0.4950642263750069	-0.07919328731525777
-0.4950031912187569	-0.09565599127008276
-0.4949421560625069	-0.11202484981355926
-0.4948811209062569	-0.12828103053488824
-0.4948200857500069	-0.144405283211439
-0.4947590505937569	-0.16037787480759533
-0.4946980154375069	-0.1761798732716592
-0.4946369802812569	-0.1917925127739591
-0.4945759451250069	-0.20719702452092667
-0.4945149099687569	-0.2223752807234201
-0.4944538748125069	-0.23730912297046067
-0.4943928396562569	-0.2519804250969042
-0.4943318045000069	-0.2663716270149055
-0.4942707693437569	-0.28046557097108715
-0.4942097341875069	-0.2942454434532775
-0.4941486990312569	-0.3076947493614218
-0.4940876638750069	-0.3207973417440693
-0.4940266287187569	-0.33353723386670187
-0.4939655935625069	-0.34589904535752325
-0.4939045584062569	-0.3578682743748529
-0.4938435232500069	-0.36943042389682573
-0.4937824880937569	-0.38057140489071783
-0.4937214529375069	-0.39127774680756516
-0.4936604177812569	-0.40153627423392524
-0.4935993826250069	-0.4113349337164875
-0.4935383474687569	-0.4206620861701046
-0.4934773123125069	-0.4295058224415789
-0.4934162771562569	-0.43785534183010427
-0.4933552420000069	-0.4457009077428252
-0.4932942068437569	-0.45303278449559875
-0.4932331716875069	-0.4598418113357641
-0.4931721365312569	-0.46611979092781436
-0.4931111013750069	-0.4718589404750497
-0.4930500662187569	-0.4770520352731321
-0.4929890310625069	-0.4816926972032689
-0.4929279959062569	-0.4857751928894455
-0.4928669607500069	-0.4892942661039048
-0.4928059255937569	-0.4922453751145584
-0.4927448904375069	-0.4946248217515382
-0.4926838552812569	-0.4964294438004488
-0.4926228201250069	-0.4976566988505788
-0.4925617849687569	-0.498304877674381
-0.4925007498125069	-0.4983729099465714
-0.4924397146562569	-0.49786033536784385
-0.4923786795000069	-0.49676744255358124
-0.4923176443437569	-0.4950952532953976
-0.4922566091875069	-0.4928454479796914
-0.4921955740312569	-0.49002032029686204
-0.4921345388750069	-0.48662284314651755
-0.4920735037187569	-0.48265681403697275
-0.4920124685625069	-0.4781267631205018
-0.4919514334062569	-0.47303760626541014
-0.4918903982500069	-0.46739486344674286
-0.4918293630937569	-0.46120517345325407
-0.4917683279375069	-0.45447576845557275
-0.4917072927812569	-0.4472140367809513
-0.4916462576250069	-0.43942819839160274
-0.4915852224687569	-0.43112741578708713
-0.4915241873125069	-0.42232130239467075
-0.4914631521562569	-0.41301993844272666
-0.4914021170000069	-0.4032340318218891
-0.4913410818437569	-0.3929748926179565
-0.4912800466875069	-0.3822544779248631
-0.4912190115312569	-0.3710854069528591
-0.4911579763750069	-0.35948057197675753
-0.4910969412187569	-0.34745325071598016
-0.4910359060625069	-0.3350176598798984
-0.4909748709062569	-0.3221885460095659
-0.4909138357500069	-0.30898069717287846
-0.4908528005937569	-0.2954093826082282
-0.4907917654375069	-0.2814906069230282
-0.4907307302812569	-0.26724083937418847
-0.4906696951250069	-0.25267682568132194
-0.4906086599687569	-0.23781540978363266
-0.4905476248125069	-0.22267393008590514
-0.4904865896562569	-0.2072704675846199
-0.4904255545000069	-0.1916231364044298
-0.4903645193437569	-0.17575020938570698
-0.4903034841875069	-0.15967036657139172
-0.4902424490312569	-0.1434024315166112
-0.4901814138750069	-0.12696579981428413
-0.4901203787187569	-0.11037984223383634
-0.4900593435625069	-0.09366369016426272
-0.4899983084062569	-0.07683740348157046
-0.4899372732500069	-0.05992114989816492
-0.4898762380937569	-0.04293441828058328
-0.4898152029375069	-0.025897003086172203
-0.4897541677812569	-0.008829490609374794
-0.4896931326250069	0.008247618545792354
-0.4896320974687569	0.025314664982680018
-0.4895710623125069	0.04235169966386621
-0.4895100271562569	0.059338096853924986
-0.4894489920000069	0.07625371751995526
-0.4893879568437569	0.09307884443520754
-0.4893269216875069	0.10979350528708534
-0.4892658865312569	0.12637773224257823
-0.4892048513750069	0.14281196312946945
-0.4891438162187569	0.1590768099553606
-0.4890827810625069	0.17515297689103718
-0.4890217459062569	0.19102138757309048
-0.4889607107500069	0.20666307402020176
-0.4888996755937569	0.22205961049811412
-0.4888386404375069	0.23719298204318834
-0.4887776052812569	0.25204482414602997
-0.4887165701250069	0.2665975135422177
-0.4886555349687569	0.28083429492057077
-0.4885944998125069	0.29473787946485297
-0.4885334646562569	0.3082914831667225
-0.4884724295000069	0.32147947069702215
-0.4884113943437569	0.3342862266268501
-0.4883503591875069	0.34669626964133354
-0.4882893240312569	0.3586947738361806
-0.4882282888750069	0.37026769121991343
-0.4881672537187569	0.38140140770485614
-0.4881062185625069	0.3920823777831993
-0.4880451834062569	0.4022978896501994
-0.4879841482500069	0.4120361492095383
-0.4879231130937569	0.421285464167048
-0.4878620779375069	0.4300345986628453
-0.4878010427812569	0.43827330841663137
-0.4877400076250069	0.44599184690554744
-0.4876789724687569	0.45318102486250506
-0.4876179373125069	0.4598324317855121
-0.4875569021562569	0.46593791747589985
-0.4874958670000069	0.47149016225578894
-0.4874348318437569	0.4764829814220686
-0.4873737966875069	0.480910344380261
-0.4873127615312569	0.48476670690771084
-0.4872517263750069	0.48804769092918776
-0.4871906912187569	0.49074954091575773
-0.4871296560625069	0.49286896890546883
-0.4870686209062569	0.4944034662187472
-0.4870075857500069	0.49535126670151614
-0.4869465505937569	0.49571130736940516
-0.4868855154375069	0.49548323004976497
-0.4868244802812569	0.4946673450812326
-0.4867634451250069	0.49326463718195446
-0.4867024099687569	0.49127687103670614
-0.4866413748125069	0.4887065502932409
-0.4865803396562569	0.48555675995500724
-0.4865193045000069	0.48183132432570414
-0.4864582693437569	0.4775347646391362
-0.4863972341875069	0.4726722437372176
-0.4863361990312569	0.4672497798572088
-0.4862751638750069	0.4612739604738324
-0.4862141287187569	0.45475188036554987
-0.4861530935625069	0.44769137053983876
-0.4860920584062569	0.44010104267980354
-0.4860310232500069	0.43199031027894963
-0.4859699880937569	0.4233688282549674
-0.4859089529375069	0.41424670637508404
-0.4858479177812569	0.4046352226151189
-0.4857868826250069	0.3945461356779083
-0.4857258474687569	0.383991497090776
-0.4856648123125069	0.37298410903470103
-0.4856037771562569	0.361537107735498
-0.4855427420000069	0.3496642737379295
-0.4854817068437569	0.3373803027342975
-0.4854206716875069	0.32469996532699047
-0.4853596365312569	0.3116383990689968
-0.4852986013750069	0.29821143474258016
-0.4852375662187569	0.284435224871683
-0.4851765310625069	0.2703266195477268
-0.4851154959062569	0.2559028254997166
-0.4850544607500069	0.2411808694444344
-0.4849934255937569	0.22617852341329603
-0.4849323904375069	0.2109145293478409
-0.4848713552812569	0.19540720526047853
-0.4848103201250069	0.17967457454462385
-0.4847492849687569	0.1637360259714055
-0.4846882498125069	0.14761161576681134
-0.4846272146562569	0.13132048590770867
-0.4845661795000069	0.11488171888100367
-0.4845051443437569	0.09831544490734978
-0.4844441091875069	0.08164222065913315
-0.4843830740312569	0.06488217816719896
-0.4843220388750069	0.04805542060837836
-0.4842610037187569	0.031182338881505137
-0.4841999685625069	0.014283260254167
-0.4841389334062569	-0.0026212098100350284
-0.4840778982500069	-0.019510288686178923
-0.4840168630937569	-0.03636362300884261
-0.4839558279375069	-0.053160885415526105
-0.4838947927812569	-0.06988176569960254
-0.4838337576250069	-0.08650595570193809
-0.4837727224687569	-0.10301283929967422
-0.4837116873125069	-0.11938260180629139
-0.4836506521562569	-0.13559571389207742
-0.4835896170000069	-0.15163193655009816
-0.4835285818437569	-0.16747185354093028
-0.4834675466875069	-0.1830966532255132
-0.4834065115312569	-0.19848699914967988
-0.4833454763750069	-0.21362384104890575
-0.4832844412187569	-0.2284889737222692
-0.4832234060625069	-0.24306464198290895
-0.4831623709062569	-0.2573330405831914
-0.4831013357500069	-0.27127626250228853
-0.4830403005937569	-0.28487722312072017
-0.4829792654375069	-0.29812006187424966
-0.4829182302812569	-0.31098857511362304
-0.4828571951250069	-0.3234662954914259
-0.4827961599687569	-0.3355381985063003
-0.4827351248125069	-0.3471900019519532
-0.4826740896562569	-0.35840724260443335
-0.4826130545000069	-0.3691760145356683
-0.4825520193437569	-0.3794832049997296
-0.4824909841875069	-0.3893161758635856
-0.4824299490312569	-0.39866288350701934
-0.4823689138750069	-0.4075118696005572
-0.4823078787187569	-0.41585228842289496
-0.4822468435625069	-0.4236738974722291
-0.4821858084062569	-0.4309668872279685
-0.4821247732500069	-0.4377222974691284
-0.4820637380937569	-0.443931992172946
-0.4820027029375069	-0.44958818890865054
-0.4819416677812569	-0.4546837643211337
-0.4818806326250069	-0.45921243417856067
-0.4818195974687569	-0.46316858638604086
-0.4817585623125069	-0.4665472996730255
-0.4816975271562569	-0.4693442603862562
-0.4816364920000069	-0.4715558700992196
-0.4815754568437569	-0.473179374436599
-0.4815144216875069	-0.4742126650100728
-0.4814533865312569	-0.4746542707208328
-0.4813923513750069	-0.47450351635330584
-0.4813313162187569	-0.4737604624972682
-0.4812702810625069	-0.47242583137057764
-0.4812092459062569	-0.4705011040995931
-0.4811482107500069	-0.4679885085063703
-0.4810871755937569	-0.46489092426235956
-0.4810261404375069	-0.4612119547253635
-0.4809651052812569	-0.456955946685364
-0.4809040701250069	-0.4521279285129719
-0.4808430349687569	-0.4467336653767643
-0.4807819998125069	-0.4407795752867077
-0.4807209646562569	-0.43427271657885325
-0.4806599295000069	-0.4272209521337635
-0.4805988943437569	-0.41963265926930876
-0.4805378591875069	-0.41151687336428827
-0.4804768240312569	-0.40288363468137406
-0.4804157888750069	-0.3937432374406025
-0.4803547537187569	-0.3841063576059388
-0.4802937185625069	-0.373984869186416
-0.4802326834062569	-0.36339120441178335
-0.4801716482500069	-0.3523379168596383
-0.4801106130937569	-0.3408382728871396
-0.4800495779375069	-0.32890634567663274
-0.4799885427812569	-0.31655663444980403
-0.4799275076250069	-0.30380401700892284
-0.4798664724687569	-0.2906639006380149
-0.4798054373125069	-0.2771522770042005
-0.4797444021562569	-0.2632855580424982
-0.4796833670000069	-0.2490806103189724
-0.4796223318437569	-0.2345547633741032
-0.4795612966875069	-0.2197254885514903
-0.4795002615312569	-0.20461074271988913
-0.4794392263750069	-0.18922917817442825
-0.4793781912187569	-0.17359967428439932
-0.4793171560625069	-0.15774103490109254
-0.4792561209062569	-0.14167226569202843
-0.4791950857500069	-0.12541324897589662
-0.4791340505937569	-0.1089842301013033
-0.4790730154375069	-0.09240487125936948
-0.4790119802812569	-0.07569507858798415
-0.4789509451250069	-0.05887587703159516
-0.4788899099687569	-0.04196789169363521
-0.4788288748125069	-0.024990959791609785
-0.4787678396562569	-0.007966194506926682
-0.4787068045000069	0.009084789848909034
-0.4786457693437569	0.026141467638584482
-0.4785847341875069	0.04318354779903652
-0.4785236990312569	0.06019014357349824
-0.4784626638750069	0.07713973049317685
-0.4784016287187569	0.09401131461212651
-0.4783405935625069	0.1107847792380862
-0.4782795584062569	0.12743968110916765
-0.4782185232500069	0.14395513468607385
-0.4781574880937569	0.16031069289945826
-0.4780964529375069	0.17648653032562422
-0.4780354177812569	0.19246269935755636
-0.4779743826250069	0.2082192943875711
-0.4779133474687569	0.22373697304794596
-0.4778523123125069	0.23899676942272308
-0.4777912771562569	0.2539797735747277
-0.4777302420000069	0.2686670928296661
-0.4776692068437569	0.28304075196291245
-0.4776081716875069	0.29708336693776444
-0.4775471365312569	0.31077714917426347
-0.4774861013750069	0.3241048918474081
-0.4774250662187569	0.3370503480962501
-0.4773640310625069	0.34959754514823976
-0.4773029959062569	0.36173066863481773
-0.4772419607500069	0.37343444551747695
-0.4771809255937569	0.384694505867244
-0.4771198904375069	0.3954967639827224
-0.4770588552812569	0.40582754924054965
-0.4769978201250069	0.41567404984365447
-0.4769367849687569	0.4250238583610514
-0.4768757498125069	0.43386516681927556
-0.4768147146562569	0.44218674269557284
-0.4767536795000069	0.44997809029491176
-0.4766926443437569	0.4572295625562468
-0.4766316091875069	0.46393169865115785
-0.4765705740312569	0.4700757595294746
-0.4765095388750069	0.4756540826732299
-0.4764485037187569	0.4806594950565561
-0.4763874685625069	0.4850853882389029
-0.4763264334062569	0.4889259088893857
-0.4762653982500069	0.4921759585604124
-0.4762043630937569	0.4948312124108036
-0.4761433279375069	0.49688800355235935
-0.4760822927812569	0.49834335047684775
-0.4760212576250069	0.49919506530625546
-0.4759602224687569	0.4994416912193309
-0.4758991873125069	0.49908247911108267
-0.4758381521562569	0.49811746923417183
-0.4757771170000069	0.4965473962808164
-0.4757160818437569	0.494373682550275
-0.4756550466875069	0.4915986085563611
-0.4755940115312569	0.48822516575471075
-0.4755329763750069	0.48425700977381836
-0.4754719412187569	0.47969851945606157
-0.4754109060625069	0.4745547885619244
-0.4753498709062569	0.4688317793560133
-0.4752888357500069	0.4625361136371387
-0.4752278005937569	0.45567494144257703
-0.4751667654375069	0.4482561207009127
-0.4751057302812569	0.4402883971634945
-0.4750446951250069	0.43178131206253045
-0.4749836599687569	0.42274462594434786
-0.4749226248125069	0.413188769819121
-0.4748615896562569	0.4031253425760108
-0.4748005545000069	0.3925662612527676
-0.4747395193437569	0.3815238035181805
-0.4746784841875069	0.37001116078774454
-0.4746174490312569	0.3580421301414219
-0.4745564138750069	0.34563083740599715
-0.4744953787187569	0.33279196543477124
-0.4744343435625069	0.3195410931303339
-0.4743733084062569	0.3058941783694425
-0.4743122732500069	0.291867173667422
-0.4742512380937569	0.2774767202754764
-0.4741902029375069	0.2627405175608492
-0.4741291677812569	0.2476765641695153
-0.4740681326250069	0.23230231697689527
-0.4740070974687569	0.21663593487889948
-0.4739460623125069	0.20069706389224518
-0.4738850271562569	0.18450493470507046
-0.4738239920000069	0.16807849006247655
-0.4737629568437569	0.1514376531303575
-0.4737019216875069	0.13460263681539233
-0.4736408865312569	0.1175937542949178
-0.4735798513750069	0.10043169562729215
-0.4735188162187569	0.08313708494706981
-0.4734577810625069	0.06573047352375024
-0.4733967459062569	0.04823322235236706
-0.4733357107500069	0.030666884037017225
-0.4732746755937569	0.01305243834331835
-0.4732136404375069	-0.004588981904072502
-0.4731526052812569	-0.022236187115337994
-0.4730915701250069	-0.03986730547633177
-0.4730305349687569	-0.05746032173620027
-0.4729694998125069	-0.07499481898459376
-0.4729084646562569	-0.09245001913355472
-0.4728474295000069	-0.10980363493127841
-0.4727863943437569	-0.1270343318424582
-0.4727253591875069	-0.14412212446520958
-0.4726643240312569	-0.16104605911893563
-0.4726032888750069	-0.17778471752861685
-0.4725422537187569	-0.19431835188405053
-0.4724812185625069	-0.21062730724200723
-0.4724201834062569	-0.22669085692125315
-0.4723591482500069	-0.24248925648054726
-0.4722981130937569	-0.2580038658303624
-0.4722370779375069	-0.27321573719169717
-0.4721760427812569	-0.2881060584729658
-0.4721150076250069	-0.3026566614780602
-0.4720539724687569	-0.3168496645971697
-0.4719929373125069	-0.3306677481219494
-0.4719319021562569	-0.34409425385528847
-0.4718708670000069	-0.35711260589714794
-0.4718098318437569	-0.3697066861885624
-0.4717487966875069	-0.3818612696065708
-0.4716877615312569	-0.3935614679365914
-0.4716267263750069	-0.404792823996747
-0.4715656912187569	-0.4155415401995387
-0.4715046560625069	-0.42579445187285264
-0.4714436209062569	-0.43553912807018463
-0.4713825857500069	-0.4447634639658543
-0.4713215505937569	-0.45345589241301737
-0.4712605154375069	-0.46160593773632086
-0.4711994802812569	-0.46920370992011357
-0.4711384451250069	-0.4762396223419903
-0.4710774099687569	-0.48270490058650994
-0.4710163748125069	-0.48859167167542067
-0.4709553396562569	-0.4938927403403941
-0.4708943045000069	-0.4986014729588009
-0.4708332693437569	-0.5027118877782648
-0.4707722341875069	-0.5062189412971742
-0.4707111990312569	-0.5091183429190904
-0.4706501638750069	-0.5114063699177661
-0.4705891287187569	-0.513080104227571
-0.4705280935625069	-0.5141374351455743
-0.4704670584062569	-0.5145769653077279
-0.4704060232500069	-0.514398053060725
-0.4703449880937569	-0.513600835283611
-0.4702839529375069	-0.5121862047507034
-0.4702229177812569	-0.5101557667022707
-0.4701618826250069	-0.5075119223015819
-0.4701008474687569	-0.5042578776203099
-0.4700398123125069	-0.5003974332017276
-0.4699787771562569	-0.49593517828921024
-0.4699177420000069	-0.4908766913789356
-0.4698567068437569	-0.485228092714407
-0.4697956716875069	-0.47899595478003343
-0.4697346365312569	-0.47218783418764976
-0.4696736013750069	-0.4648123234124417
-0.4696125662187569	-0.45687834607292693
