Time	Frequency
-0.5000538545000026	-0.14445427679085754
-0.4999928193437526	-0.15705485183082266
-0.4999317841875026	-0.16950032872481718
-0.4998707490312526	-0.18177893175901785
-0.4998097138750026	-0.19387962169267664
-0.4997486787187526	-0.2057898184680075
-0.4996876435625026	-0.21749797130576437
-0.4996266084062526	-0.22899339286788226
-0.4995655732500026	-0.2402645690179927
-0.4995045380937526	-0.25130061643721413
-0.4994435029375026	-0.26209115568908375
-0.4993824677812526	-0.2726253671055953
-0.4993214326250026	-0.28289284624136585
-0.4992603974687526	-0.2928841565500666
-0.4991993623125026	-0.30258970853826184
-0.4991383271562526	-0.3119994609920803
-0.4990772920000026	-0.321104398371922
-0.4990162568437526	-0.3298961201332255
-0.4989552216875026	-0.3383657924653814
-0.4988941865312526	-0.3465050139582721
-0.4988331513750026	-0.354305997357954
-0.4987721162187526	-0.3617611320923176
-0.4987110810625026	-0.36886317538218844
-0.4986500459062526	-0.37560513166673404
-0.4985890107500026	-0.3819802419233781
-0.4985279755937526	-0.38798242149604384
-0.4984669404375026	-0.3936058656882913
-0.4984059052812526	-0.3988448448653973
-0.4983448701250026	-0.4036941665609279
-0.4982838349687526	-0.40814905269749774
-0.4982227998125026	-0.4122052806070371
-0.4981617646562526	-0.41585879537707127
-0.4981007295000026	-0.41910558918085333
-0.4980396943437526	-0.42194253052753156
-0.4979786591875026	-0.4243669916480639
-0.4979176240312526	-0.42637641599914455
-0.4978565888750026	-0.4279686046513356
-0.4977955537187526	-0.4291418279348025
-0.4977345185625026	-0.4298948849776248
-0.4976734834062526	-0.43022701077903674
-0.4976124482500026	-0.43013767128497854
-0.4975514130937526	-0.42962672780707195
-0.4974903779375026	-0.4286945651820457
-0.4974293427812526	-0.4273419474690701
-0.4973683076250026	-0.4255700356991
-0.4973072724687526	-0.42338037538775053
-0.4972462373125026	-0.4207749054589454
-0.4971852021562526	-0.4177560145446525
-0.4971241670000026	-0.41432649741447075
-0.4970631318437526	-0.4104894178496828
-0.4970020966875026	-0.4062482876717533
-0.4969410615312526	-0.40160725122513286
-0.4968800263750026	-0.396570598718144
-0.4968189912187526	-0.39114283540023004
-0.4967579560625026	-0.38532909113803704
-0.4966969209062526	-0.37913499573902604
-0.4966358857500026	-0.3725664012535576
-0.4965748505937526	-0.36562933802929415
-0.4965138154375026	-0.3583303147474773
-0.4964527802812526	-0.3506764095563088
-0.4963917451250026	-0.3426748482058613
-0.4963307099687526	-0.33433303949848625
-0.4962696748125026	-0.3256591967778548
-0.4962086396562526	-0.3166613752714151
-0.4961476045000026	-0.3073478456164404
-0.4960865693437526	-0.29772822294200807
-0.4960255341875026	-0.28781124699705074
-0.4959644990312526	-0.27760566445233403
-0.4959034638750026	-0.26712242280805304
-0.4958424287187526	-0.2563715395993507
-0.4957813935625026	-0.2453619689403071
-0.4957203584062526	-0.23410483094561546
-0.4956593232500026	-0.22261168444967344
-0.4955982880937526	-0.2108931845071344
-0.4955372529375026	-0.19895999934041117
-0.4954762177812526	-0.18682324490060753
-0.4954151826250026	-0.1744956864649095
-0.4953541474687526	-0.16198941477368106
-0.4952931123125026	-0.1493148427733741
-0.4952320771562526	-0.1364846864193497
-0.4951710420000026	-0.12351243124522862
-0.4951100068437526	-0.11040951849259259
-0.4950489716875026	-0.09718813375055683
-0.4949879365312526	-0.08386189197458131
-0.4949269013750026	-0.07044392513096935
-0.4948658662187526	-0.05694624532708731
-0.4948048310625026	-0.04338156873776877
-0.4947437959062526	-0.029763993116878676
-0.4946827607500026	-0.016106668054669385
-0.4946217255937526	-0.0024222043883993668
-0.4945606904375026	0.011276274633548621
-0.4944996552812526	0.024975331231316466
-0.4944386201250026	0.038661269605209186
-0.4943775849687526	0.05232131536641712
-0.4943165498125026	0.06594259730402316
-0.4942555146562526	0.07951106859577632
-0.4941944795000026	0.09301382330797124
-0.4941334443437526	0.10643847043453578
-0.4940724091875026	0.11977153565000753
-0.4940113740312526	0.1329996871964722
-0.4939503388750026	0.14611018947678783
-0.4938893037187526	0.15909096159757294
-0.4938282685625026	0.171929320458461
-0.4937672334062526	0.18461186495474546
-0.4937061982500026	0.19712652012199255
-0.4936451630937526	0.20946193035296093
-0.4935841279375026	0.2216059514656249
-0.4935230927812526	0.23354577014641642
-0.4934620576250026	0.24526983977127928
-0.4934010224687526	0.25676780303893265
-0.4933399873125026	0.2680280588362739
-0.4932789521562526	0.27903883837128596
-0.4932179170000026	0.2897898717150076
-0.4931568818437526	0.3002709479102495
-0.4930958466875026	0.3104711498363894
-0.4930348115312526	0.32038064263599125
-0.4929737763750026	0.32999028048048085
-0.4929127412187526	0.3392901333907906
-0.4928517060625026	0.34827076204437585
-0.4927906709062526	0.3569235676992569
-0.4927296357500026	0.36524028205158277
-0.4926686005937526	0.3732125833763597
-0.4926075654375026	0.38083223667442
-0.4925465302812526	0.3880919500575502
-0.4924854951250026	0.39498457952680116
-0.4924244599687526	0.40150296966821636
-0.4923634248125026	0.4076408473085711
-0.4923023896562526	0.41339222462403474
-0.4922413545000026	0.4187510466845068
-0.4921803193437526	0.4237118130146418
-0.4921192841875026	0.4282697537623698
-0.4920582490312526	0.43242040306172697
-0.4919972138750026	0.43615923101698434
-0.4919361787187526	0.43948228477259965
-0.4918751435625026	0.44238643390072624
-0.4918141084062526	0.4448686158417643
-0.4917530732500026	0.44692602610959153
-0.4916920380937526	0.44855646797718934
-0.4916310029375026	0.44975818408165036
-0.4915699677812526	0.4505298175511657
-0.4915089326250026	0.4508703341363639
-0.4914478974687526	0.45077911748748595
-0.4913868623125026	0.4502560508811186
-0.4913258271562526	0.44930143843546627
-0.4912647920000026	0.4479159380940721
-0.4912037568437526	0.44610057512526147
-0.4911427216875026	0.4438569190848074
-0.4910816865312526	0.4411869805027946
-0.4910206513750026	0.4380929706955581
-0.4909596162187526	0.4345776288556863
-0.4908985810625026	0.4306442384130014
-0.4908375459062526	0.42629626148736866
-0.4907765107500026	0.42153765644690006
-0.4907154755937526	0.41637289830522434
-0.4906544404375026	0.4108066924374916
-0.4905934052812526	0.4048440803119302
-0.4905323701250026	0.398490555656313
-0.4904713349687526	0.39175232878854105
-0.4904102998125026	0.3846357311236082
-0.4903492646562526	0.37714687527984697
-0.4902882295000026	0.3692929591454183
-0.4902271943437526	0.36108181266851214
-0.4901661591875026	0.35252092591199397
-0.4901051240312526	0.3436181542294559
-0.4900440888750026	0.3343818242704017
-0.4899830537187526	0.32482101252141826
-0.4899220185625026	0.314944968781099
-0.4898609834062526	0.30476238155326385
-0.4897999482500026	0.2942828653621144
-0.4897389130937526	0.28351710514360934
-0.4896778779375026	0.27247530989035024
-0.4896168427812526	0.26116723141859766
-0.4895558076250026	0.2496035572370584
-0.4894947724687526	0.2377960446481576
-0.4894337373125026	0.22575613134290584
-0.4893727021562526	0.21349453300159887
-0.4893116670000026	0.20102281660174906
-0.4892506318437526	0.1883536168134655
-0.4891895966875026	0.1754987286843052
-0.4891285615312526	0.1624701761195083
-0.4890675263750026	0.14928116621280987
-0.4890064912187526	0.13594385654835026
-0.4889454560625026	0.1224702659862689
-0.4888844209062526	0.10887412457670102
-0.4888233857500026	0.09516905819107842
-0.4887623505937526	0.08136765849965095
-0.4887013154375026	0.06748230771265248
-0.4886402802812526	0.05352663498879295
-0.4885792451250026	0.03951550524671702
-0.4885182099687526	0.025461725392387842
-0.4884571748125026	0.011377266806474207
-0.4883961396562526	-0.002723290343014125
-0.4883351045000026	-0.016825225515679068
-0.4882740693437526	-0.03091604999933384
-0.4882130341875026	-0.044982938835990124
-0.4881519990312526	-0.05901123492195748
-0.4880909638750026	-0.07298723870452384
-0.4880299287187526	-0.0868983911945288
-0.4879688935625026	-0.10073114849055055
-0.4879078584062526	-0.11447130192643391
-0.4878468232500026	-0.1281059213524369
-0.4877857880937526	-0.14162280388086887
-0.4877247529375026	-0.1550080386780436
-0.4876637177812526	-0.16824839812046322
-0.4876026826250026	-0.18133176313102356
-0.4875416474687526	-0.19424514399961337
-0.4874806123125026	-0.206976056205968
-0.4874195771562526	-0.21951238592524658
-0.4873585420000026	-0.23184206232979257
-0.4872975068437526	-0.2439527596161037
-0.4872364716875026	-0.2558324610365056
-0.4871754365312526	-0.2674705827281219
-0.4871144013750026	-0.2788557967857549
-0.4870533662187526	-0.2899760808208131
-0.4869923310625026	-0.30082113354095397
-0.4869312959062526	-0.3113808781925138
-0.4868702607500026	-0.3216445931485146
-0.4868092255937526	-0.3316023814150291
-0.4867481904375026	-0.3412445344282496
-0.4866871552812526	-0.35056180412588034
-0.4866261201250026	-0.3595453180550875
-0.4865650849687526	-0.3681857553969095
-0.4865040498125026	-0.376474948949601
-0.4864430146562526	-0.38440526996861957
-0.4863819795000026	-0.3919685463362252
-0.4863209443437526	-0.3991574308057088
-0.4862599091875026	-0.40596503283015084
-0.4861988740312526	-0.4123844494465872
-0.4861378388750026	-0.4184097372947281
-0.4860768037187526	-0.4240351929681548
-0.4860157685625026	-0.4292547260469376
-0.4859547334062526	-0.4340632641637501
-0.4858936982500026	-0.438456674381424
-0.4858326630937526	-0.4424304118953668
-0.4857716279375026	-0.44598019297820585
-0.4857105927812526	-0.44910279718948515
-0.4856495576250026	-0.45179532883585577
-0.4855885224687526	-0.4540549262715319
-0.4855274873125026	-0.4558792591232292
-0.4854664521562526	-0.4572666331055108
-0.4854054170000026	-0.45821569406982154
-0.4853443818437526	-0.4587254193274912
-0.4852833466875026	-0.45879523806105976
-0.4852223115312526	-0.4584250315606363
-0.4851612763750026	-0.4576151717743522
-0.4851002412187526	-0.45636640907485904
-0.4850392060625026	-0.4546798392479328
-0.4849781709062526	-0.45255706368277016
-0.4849171357500026	-0.45000017633648354
-0.4848561005937526	-0.44701164339976635
-0.4847950654375026	-0.44359419358066743
-0.4847340302812526	-0.4397510902565386
-0.4846729951250026	-0.4354863113654068
-0.4846119599687526	-0.430803835461181
-0.4845509248125026	-0.4257078752879629
-0.4844898896562526	-0.42020369850667505
-0.4844288545000026	-0.4142967818357291
-0.4843678193437526	-0.4079924373908857
-0.4843067841875026	-0.40129677260257435
-0.4842457490312526	-0.3942167164281489
-0.4841847138750026	-0.3867589635212036
-0.4841236787187526	-0.37893023154971667
-0.4840626435625026	-0.37073863902459936
-0.4840016084062526	-0.3621926288949109
-0.4839405732500026	-0.35329964589729995
-0.4838795380937526	-0.3440680555774972
-0.4838185029375026	-0.33450776196034315
-0.4837574677812526	-0.32462815746666274
-0.4836964326250026	-0.3144383082565856
-0.4836353974687526	-0.30394785282050935
-0.4835743623125026	-0.29316722329546113
-0.4835133271562526	-0.28210772790368405
-0.4834522920000026	-0.2707796736779207
-0.4833912568437526	-0.2591933188746421
-0.4833302216875026	-0.24736076445333752
-0.4832691865312526	-0.23529380441804673
-0.4832081513750026	-0.22300363983227636
-0.4831471162187526	-0.21050228953319866
-0.4830860810625026	-0.19780231805670578
-0.4830250459062526	-0.18491607852867295
-0.4829640107500026	-0.17185579517109265
-0.4829029755937526	-0.15863450513876004
-0.4828419404375026	-0.14526538948030138
-0.4827809052812526	-0.13176106310831848
-0.4827198701250026	-0.11813486246085368
-0.4826588349687526	-0.10440047705467903
-0.4825977998125026	-0.09057087661409939
-0.4825367646562526	-0.07665963955020352
-0.4824757295000026	-0.06268086199203388
-0.4824146943437526	-0.04864804527440065
-0.4823536591875026	-0.03457463038397423
-0.4822926240312526	-0.020474437640340574
-0.4822315888750026	-0.006361591658911902
-0.4821705537187526	0.007749912566375078
-0.4821095185625026	0.021846389188496615
-0.4820484834062526	0.03591447756621211
-0.4819874482500026	0.04994026832713334
-0.4819264130937526	0.06390911264061547
-0.4818653779375026	0.07780767129259152
-0.4818043427812526	0.091623151554613
-0.4817433076250026	0.1053412756441823
-0.4816822724687526	0.11894814698663818
-0.4816212373125026	0.1324310382559321
-0.4815602021562526	0.14577657054944268
-0.4814991670000026	0.15897142435185732
-0.4814381318437526	0.17200283817243164
-0.4813770966875026	0.18485772712524512
-0.4813160615312526	0.1975234269739051
-0.4812550263750026	0.2099877910847208
-0.4811939912187526	0.22223835723836385
-0.4811329560625026	0.23426284655507296
-0.4810719209062526	0.24604964957219017
-0.4810108857500026	0.2575870520603149
-0.4809498505937526	0.26886356297753056
-0.4808888154375026	0.2798683223273863
-0.4808277802812526	0.2905902537549513
-0.4807667451250026	0.3010187059452968
-0.4807057099687526	0.31114353008941836
-0.4806446748125026	0.32095451580856355
-0.4805836396562526	0.3304422486843714
-0.4805226045000026	0.3395973320655104
-0.4804615693437526	0.34841015278897536
-0.4804005341875026	0.3568723564888111
-0.4803394990312526	0.36497591614636865
-0.4802784638750026	0.37271237410069713
-0.4802174287187526	0.38007390249780965
-0.4801563935625026	0.3870534214551861
-0.4800953584062526	0.39364408372084586
-0.4800343232500026	0.3998392096925053
-0.4799732880937526	0.40563261175999027
-0.4799122529375026	0.41101854354952
-0.4798512177812526	0.4159916189763106
-0.4797901826250026	0.4205468957174241
-0.4797291474687526	0.42467975065912383
-0.4796681123125026	0.4283861102902012
-0.4796070771562526	0.4316623130257711
-0.4795460420000026	0.434504906052252
-0.4794850068437526	0.43691102030336465
-0.4794239716875026	0.4388783338641312
-0.4793629365312526	0.4404048137815866
-0.4793019013750026	0.44148881185011357
-0.4792408662187526	0.44212920357256846
-0.4791798310625026	0.44232530681326304
-0.4791187959062526	0.44207688013922164
-0.4790577607500026	0.4413841202294715
-0.4789967255937526	0.4402475379050441
-0.4789356904375026	0.4386681753696474
-0.4788746552812526	0.4366476959539145
-0.4788136201250026	0.4341880025544508
-0.4787525849687526	0.4312912856857263
-0.4786915498125026	0.42796037752140287
-0.4786305146562526	0.42419860581263474
-0.4785694795000026	0.4200096276137252
-0.4785084443437526	0.41539756225917607
-0.4784474091875026	0.4103667744189956
-0.4783863740312526	0.4049220042714491
-0.4783253388750026	0.3990689300826786
-0.4782643037187526	0.3928133709009125
-0.4782032685625026	0.3861611019127791
-0.4781422334062526	0.3791186909178996
-0.4780811982500026	0.3716930940726495
-0.4780201630937526	0.3638917434654471
-0.4779591279375026	0.35572249854308585
-0.4778980927812526	0.34719297028468926
-0.4778370576250026	0.33831137862163513
-0.4777760224687526	0.3290870142696572
-0.4777149873125026	0.31952905260585024
-0.4776539521562526	0.30964650972413615
-0.4775929170000026	0.2994490718780085
-0.4775318818437526	0.28894707442972345
-0.4774708466875026	0.2781509021626204
-0.4774098115312526	0.26707106004963016
-0.4773487763750026	0.2557187763640647
-0.4772877412187526	0.24410504409829625
-0.4772267060625026	0.23224101644419753
-0.4771656709062526	0.22013921311659748
-0.4771046357500026	0.20781161100272708
-0.4770436005937526	0.19526934187231074
-0.4769825654375026	0.18252533220933448
-0.4769215302812526	0.16959340496462658
-0.4768604951250026	0.15648542599624757
-0.4767994599687526	0.14321347370464926
-0.4767384248125026	0.1297918500048093
-0.4766773896562526	0.11623425853307941
-0.4766163545000026	0.1025535429097041
-0.4765553193437526	0.08876321105350886
-0.4764942841875026	0.07487693013253613
-0.4764332490312526	0.0609088357832009
-0.4763722138750026	0.04687300867455187
-0.4763111787187526	0.03278302678875051
-0.4762501435625026	0.018652965447893008
-0.4761891084062526	0.004497000561676077
-0.4761280732500026	-0.009670781210096856
-0.4760670380937526	-0.023836146798840795
-0.4760060029375026	-0.03798492707048709
-0.4759449677812526	-0.052103120720746895
-0.4758839326250026	-0.06617692837326776
-0.4758228974687526	-0.08019185321722887
-0.4757618623125026	-0.09413346544084951
-0.4757008271562526	-0.10798868476514649
-0.4756397920000026	-0.12174371585922626
-0.4755787568437526	-0.13538385569805053
-0.4755177216875026	-0.1488958211244869
-0.4754566865312526	-0.16226656998637184
-0.4753956513750026	-0.1754821490815677
-0.4753346162187526	-0.18852937967911312
-0.4752735810625026	-0.20139543641658367
-0.4752125459062526	-0.21406700201554527
-0.4751515107500026	-0.22653139443105014
-0.4750904755937526	-0.23877636375431624
-0.4750294404375026	-0.2507894128858817
-0.4749684052812526	-0.26255841857071616
-0.4749073701250026	-0.2740715785746279
-0.4748463349687526	-0.2853168969269219
-0.4747852998125026	-0.296283330854238
-0.4747242646562526	-0.3069603276123078
-0.4746632295000026	-0.3173362806857622
-0.4746021943437526	-0.3274004718338685
-0.4745411591875026	-0.33714353797478513
-0.4744801240312526	-0.34655536908125983
-0.4744190888750026	-0.35562594462215985
-0.4743580537187526	-0.3643463748720772
-0.4742970185625026	-0.37270775409036405
-0.4742359834062526	-0.38070133959974484
-0.4741749482500026	-0.38831922086106274
-0.4741139130937526	-0.39555359074331703
-0.4740528779375026	-0.4023967742892659
-0.4739918427812526	-0.408841776213248
-0.4739308076250026	-0.4148820762490146
-0.4738697724687526	-0.4205114288346415
-0.4738087373125026	-0.4257239063280443
-0.4737477021562526	-0.430514063107555
-0.4736866670000026	-0.4348768842071201
-0.4736256318437526	-0.43880778904900536
-0.4735645966875026	-0.44230264526552715
-0.4735035615312526	-0.4453576466721861
-0.4734425263750026	-0.44796955487201395
-0.4733814912187526	-0.45013551164451304
-0.4733204560625026	-0.4518529589804715
-0.4732594209062526	-0.4531200183288995
-0.4731983857500026	-0.4539352613594581
-0.4731373505937526	-0.4542975068849951
-0.4730763154375026	-0.45420605386450774
-0.4730152802812526	-0.45366078931023457
-0.4729542451250026	-0.45266203294200985
-0.4728932099687526	-0.4512104585004641
-0.4728321748125026	-0.4493072726407563
-0.4727711396562526	-0.4469540903485903
-0.4727101045000026	-0.4441528571421701
-0.4726490693437526	-0.4409062275783987
-0.4725880341875026	-0.43721730252303936
-0.4725269990312526	-0.4330892715571295
-0.4724659638750026	-0.4285258890887299
-0.4724049287187526	-0.423531620722368
-0.4723438935625026	-0.41811127881583193
-0.4722828584062526	-0.4122699141443271
-0.4722218232500026	-0.4060128704773011
-0.4721607880937526	-0.3993461291854334
-0.4720997529375026	-0.39227643659196115
-0.4720387177812526	-0.3848106670443007
-0.4719776826250026	-0.3769555311852962
-0.4719166474687526	-0.3687184093572652
-0.4718556123125026	-0.36010781760676225
-0.4717945771562526	-0.35113242464468675
-0.4717335420000026	-0.34180033829720396
-0.4716725068437526	-0.332120271465279
-0.4716114716875026	-0.3221023118174816
-0.4715504365312526	-0.3117562293740405
-0.4714894013750026	-0.3010917434866885
-0.4714283662187526	-0.29011961495502414
-0.4713673310625026	-0.27885028371432635
-0.4713062959062526	-0.2672946465115341
-0.4712452607500026	-0.25546463876147824
-0.4711842255937526	-0.24337147385810623
-0.4711231904375026	-0.23102666350845105
-0.4710621552812526	-0.21844291986990272
-0.4710011201250026	-0.20563245220919305
-0.4709400849687526	-0.1926078524996799
-0.4708790498125026	-0.17938192066578781
-0.4708180146562526	-0.16596694449724508
-0.4707569795000026	-0.15237723995124527
-0.4706959443437526	-0.13862669001256356
-0.4706349091875026	-0.12472725081195014
-0.4705738740312526	-0.11069272862943126
-0.4705128388750026	-0.09653817639644242
-0.4704518037187526	-0.08227768008530749
-0.4703907685625026	-0.06792440782430714
-0.4703297334062526	-0.053492211389417385
-0.4702686982500026	-0.03899626202909977
-0.4702076630937526	-0.024451229868153734
-0.4701466279375026	-0.009870915334717949
-0.4700855927812526	0.0047305793119678105
-0.4700245576250026	0.019338185427150045
-0.4699635224687526	0.03393718961137461
-0.4699024873125026	0.048513760730339014
-0.4698414521562526	0.06305321038836346
-0.4697804170000026	0.0775405927989114
