Time	Frequency
-0.5000343313124986	-3.1299819652262247e-24
-0.49997329615624864	-3.3278020304434674e-24
-0.49991226099999864	-3.5222077981489404e-24
-0.49985122584374864	-3.713030041150779e-24
-0.49979019068749864	-3.90003107267257e-24
-0.49972915553124864	-4.0830407203278394e-24
-0.49966812037499864	-4.261839486301571e-24
-0.49960708521874864	-4.436257779289799e-24
-0.49954605006249864	-4.606096445834227e-24
-0.49948501490624864	-4.7711713928673966e-24
-0.49942397974999864	-4.931321501918079e-24
-0.49936294459374864	-5.086354442668912e-24
-0.49930190943749864	-5.236129605754779e-24
-0.49924087428124864	-5.3804589325042865e-24
-0.49917983912499864	-5.519216128831893e-24
-0.49911880396874864	-5.6522211206960535e-24
-0.49905776881249864	-5.779363690117297e-24
-0.49899673365624864	-5.900483679165534e-24
-0.49893569849999864	-6.015458364686177e-24
-0.49887466334374864	-6.124168396624081e-24
-0.49881362818749864	-6.22648451944345e-24
-0.49875259303124864	-6.32231928959664e-24
-0.49869155787499864	-6.411537922454079e-24
-0.49863052271874864	-6.494074608247807e-24
-0.49856948756249864	-6.569808605324747e-24
-0.49850845240624864	-6.638693243449393e-24
-0.49844741724999864	-6.700622649434966e-24
-0.49838638209374864	-6.755545679282992e-24
-0.49832534693749864	-6.803398024994014e-24
-0.49826431178124864	-6.844121336140091e-24
-0.49820327662499864	-6.877685588833997e-24
-0.49814224146874864	-6.90403111711743e-24
-0.49808120631249864	-6.92315631789875e-24
-0.49802017115624864	-6.93500378789093e-24
-0.49795913599999864	-6.939595881379907e-24
-0.49789810084374864	-6.936894173879598e-24
-0.49783706568749864	-6.926923860193587e-24
-0.49777603053124864	-6.909678052190545e-24
-0.49771499537499864	-6.885178078282054e-24
-0.49765396021874864	-6.853453933649142e-24
-0.49759292506249864	-6.814522339432004e-24
-0.49753188990624864	-6.768446663650285e-24
-0.49747085474999864	-6.715244190101214e-24
-0.49740981959374864	-6.655002314249575e-24
-0.49734878443749864	-6.587750105296635e-24
-0.49728774928124864	-6.513588636194741e-24
-0.49722671412499864	-6.432569796058791e-24
-0.49716567896874864	-6.344793985665015e-24
-0.49710464381249864	-6.250350651306157e-24
-0.49704360865624864	-6.149328007829774e-24
-0.49698257349999864	-6.041846163959092e-24
-0.49692153834374864	-5.928004185155563e-24
-0.49686050318749864	-5.807946244155533e-24
-0.49679946803124864	-5.6817601820934684e-24
-0.49673843287499864	-5.5496154406382e-24
-0.49667739771874864	-5.411627046468654e-24
-0.49661636256249864	-5.2679599821960684e-24
-0.49655532740624864	-5.1187469900642486e-24
-0.49649429224999864	-4.9641580027959955e-24
-0.49643325709374864	-4.804359977289101e-24
-0.49637222193749864	-4.6395007027866766e-24
-0.49631118678124864	-4.469780988381983e-24
-0.49625015162499864	-4.2953604929234786e-24
-0.49618911646874864	-4.116449621341918e-24
-0.49612808131249864	-3.933201972533247e-24
-0.49606704615624864	-3.7458361356110066e-24
-0.49600601099999864	-3.554543229551143e-24
-0.49594497584374864	-3.359545839597411e-24
-0.49588394068749864	-3.1610203212547625e-24
-0.49582290553124864	-2.9591814707539035e-24
-0.49576187037499864	-2.754274584354844e-24
-0.49570083521874864	-2.546489819534613e-24
-0.49563980006249864	-2.336057363487095e-24
-0.49557876490624864	-2.1231822315611914e-24
-0.49551772974999864	-1.908131952740404e-24
-0.49545669459374864	-1.691102302150237e-24
-0.49539565943749864	-1.4723365656148826e-24
-0.49533462428124864	-1.2520539147501481e-24
-0.49527358912499864	-1.0305124010352416e-24
-0.49521255396874864	-8.079396340143808e-25
-0.49515151881249864	-5.845577845079199e-25
-0.49509048365624864	-3.6062818121349925e-25
-0.49502944849999864	-1.3636649926461026e-25
-0.49496841334374864	8.795725202261299e-26
-0.49490737818749864	3.121348884588579e-25
-0.49484634303124864	5.359056111047077e-25
-0.49478530787499864	7.590487330399927e-25
-0.49472427271874864	9.813027283291414e-25
-0.49466323756249864	1.2024486101244116e-24
-0.49460220240624864	1.4222416325300358e-24
-0.49454116724999864	1.6404424183758852e-24
-0.49448013209374864	1.8568395705098638e-24
-0.49441909693749864	2.071167195448517e-24
-0.49435806178124864	2.283227274105312e-24
-0.49429702662499864	2.4927638020466228e-24
-0.49423599146874864	2.6995842020491993e-24
-0.49417495631249864	2.9034395350756696e-24
-0.49411392115624864	3.104127499951867e-24
-0.49405288599999864	3.3014221791212866e-24
-0.49399185084374864	3.495115703026429e-24
-0.49393081568749864	3.6850105306569216e-24
-0.49386978053124864	3.870882551323714e-24
-0.49380874537499864	4.052558294871911e-24
-0.49374771021874864	4.229808098158802e-24
-0.49368667506249864	4.402475161504834e-24
-0.49362563990624864	4.570350600430761e-24
-0.49356460474999864	4.733279328082764e-24
-0.49350356959374864	4.8910538993729816e-24
-0.49344253443749864	5.0435227115113774e-24
-0.49338149928124864	5.190527513487556e-24
-0.49332046412499864	5.331892255879511e-24
-0.49325942896874864	5.4674890605917264e-24
-0.49319839381249864	5.597140811064866e-24
-0.49313735865624864	5.720737878055745e-24
-0.49307632349999864	5.838119128449791e-24
-0.49301528834374864	5.949193175245395e-24
-0.49295425318749864	6.053800540858072e-24
-0.49289321803124864	6.151851995253072e-24
-0.49283218287499864	6.2432424002749475e-24
-0.49277114771874864	6.327861999194899e-24
-0.49271011256249864	6.405630803466459e-24
-0.49264907740624864	6.4764437447037635e-24
-0.49258804224999864	6.5402578174988276e-24
-0.49252700709374864	6.596968231613316e-24
-0.49246597193749864	6.646545356030611e-24
-0.49240493678124864	6.68890320964928e-24
-0.49234390162499864	6.724024850216777e-24
-0.49228286646874864	6.751854187314128e-24
-0.49222183131249864	6.772364975746497e-24
-0.49216079615624864	6.785540234082837e-24
-0.49209976099999864	6.791350512435915e-24
-0.49203872584374864	6.789813120310137e-24
-0.49197769068749864	6.78089784957071e-24
-0.49191665553124864	6.76464750121347e-24
-0.49185562037499864	6.741046202295943e-24
-0.49179458521874864	6.710150007412899e-24
-0.49173355006249864	6.671964515830649e-24
-0.49167251490624864	6.6265473741481e-24
-0.49161147974999864	6.573943628911962e-24
-0.49155044459374864	6.5142018320480416e-24
-0.49148940943749864	6.447401093340629e-24
-0.49142837428124864	6.373592330772226e-24
-0.49136733912499864	6.292879865498859e-24
-0.49130630396874864	6.2053199130114855e-24
-0.49124526881249864	6.111040251787194e-24
-0.49118423365624864	6.010111274395193e-24
-0.49112319849999864	5.9026666909009074e-24
-0.49106216334374864	5.788804594507544e-24
-0.49100112818749864	5.668652422423245e-24
-0.49094009303124864	5.54234421846719e-24
-0.49087905787499864	5.410010166859508e-24
-0.49081802271874864	5.271808390315739e-24
-0.49075698756249864	5.1278531174274296e-24
-0.49069595240624864	4.9783384561636626e-24
-0.49063491724999864	4.823398975591184e-24
-0.49057388209374864	4.663225483919477e-24
-0.49051284693749864	4.497965287067934e-24
-0.49045181178124864	4.327813519644085e-24
-0.49039077662499864	4.152949096901599e-24
-0.49032974146874864	3.973560449073135e-24
-0.49026870631249864	3.789851556184004e-24
-0.49020767115624864	3.602003562455506e-24
-0.49014663599999864	3.4102344897000544e-24
-0.49008560084374864	3.214731848376859e-24
-0.49002456568749864	3.0157470421536395e-24
-0.48996353053124864	2.813454416281987e-24
-0.48990249537499864	2.6080933602001077e-24
-0.48984146021874864	2.3998754204267238e-24
-0.48978042506249864	2.189041478472533e-24
-0.48971938990624864	1.975814877755589e-24
-0.48965835474999864	1.760416919294488e-24
-0.48959731959374864	1.5430955972489896e-24
-0.48953628443749864	1.3240680108987749e-24
-0.48947524928124864	1.103601464696146e-24
-0.48941421412499864	8.819000244296687e-25
-0.48935317896874864	6.592433540826091e-25
-0.48929214381249864	4.358403981746067e-25
-0.48923110865624864	2.1194499056707842e-25
-0.48917007349999864	-1.2197546810588261e-26
-0.48910903834374864	-2.363331649396922e-25
-0.48904800318749864	-4.602254167035544e-25
-0.48898696803124864	-6.836524141507959e-25
-0.48892593287499864	-9.063336410221708e-25
-0.48886489771874864	-1.1280538549665846e-24
-0.48880386256249864	-1.3485462288357042e-24
-0.48874282740624864	-1.5676035352785025e-24
-0.48868179224999864	-1.7849524264172266e-24
-0.48862075709374864	-2.0003820478947522e-24
-0.48855972193749864	-2.2136433242170683e-24
-0.48849868678124864	-2.4244991874316456e-24
-0.48843765162499864	-2.632738172347809e-24
-0.48837661646874864	-2.838108855854487e-24
-0.48831558131249864	-3.0404070939504687e-24
-0.48825454615624864	-3.2393904491592043e-24
-0.48819351099999864	-3.434872820676613e-24
-0.48813247584374864	-3.6265969024935924e-24
-0.48807144068749864	-3.814387581709432e-24
-0.48801040553124864	-3.9980236581743674e-24
-0.48794937037499864	-4.1773096074907814e-24
-0.48788833521874864	-4.352042349218181e-24
-0.48782730006249864	-4.5220260453099714e-24
-0.48776626490624864	-4.6870956795208235e-24
-0.48770522974999864	-4.847031294352591e-24
-0.48764419459374864	-5.001700596286112e-24
-0.48758315943749864	-5.1508983277182746e-24
-0.48752212428124864	-5.294482153669762e-24
-0.48746108912499864	-5.432267451245739e-24
-0.48740005396874864	-5.564132814473974e-24
-0.48733901881249864	-5.689916795780203e-24
-0.48727798365624864	-5.809470706838418e-24
-0.48721694849999864	-5.922681523020012e-24
-0.48715591334374864	-6.029399049646695e-24
-0.48709487818749864	-6.1295368079933535e-24
-0.48703384303124864	-6.222947186218084e-24
-0.48697280787499864	-6.309556836979624e-24
-0.48691177271874864	-6.3892369132443634e-24
-0.48685073756249864	-6.461929672623124e-24
-0.48678970240624864	-6.527532315264011e-24
-0.48672866724999864	-6.585974611114663e-24
-0.48666763209374864	-6.637195471693e-24
-0.48660659693749864	-6.6811208906323e-24
-0.48654556178124864	-6.717724989833382e-24
-0.48648452662499864	-6.746934347144118e-24
-0.48642349146874864	-6.768746208716842e-24
-0.48636245631249864	-6.783098225037092e-24
-0.48630142115624864	-6.790005474546851e-24
-0.48624038599999864	-6.789430519181415e-24
-0.48617935084374864	-6.781387158435403e-24
-0.48611831568749864	-6.765874660247095e-24
-0.48605728053124864	-6.742901837499015e-24
-0.48599624537499864	-6.712504847363876e-24
-0.48593521021874864	-6.674690855870952e-24
-0.48587417506249864	-6.629526270214495e-24
-0.48581313990624864	-6.5770246880265785e-24
-0.48575210474999864	-6.517272375902838e-24
-0.48569106959374864	-6.450301455889382e-24
-0.48563003443749864	-6.376207770460053e-24
-0.48556899928124864	-6.295048496574541e-24
-0.48550796412499864	-6.206915559291588e-24
-0.48544692896874864	-6.1119087667173426e-24
-0.48538589381249864	-6.010118925948752e-24
-0.48532485865624864	-5.901665189230875e-24
-0.48526382349999864	-5.786635330437297e-24
-0.48520278834374864	-5.665193019607803e-24
-0.48514175318749864	-5.53743209879337e-24
-0.48508071803124864	-5.403511995599909e-24
-0.48501968287499864	-5.263555081213e-24
-0.48495864771874864	-5.117730993925441e-24
-0.48489761256249864	-4.966184737078578e-24
-0.48483657740624864	-4.809077825010661e-24
-0.48477554224999864	-4.646588960705789e-24
-0.48471450709374864	-4.4788756410019904e-24
-0.48465347193749864	-4.306140180017944e-24
-0.48459243678124864	-4.1285431619237406e-24
-0.48453140162499864	-3.946306269429031e-24
-0.48447036646874864	-3.759591373785707e-24
-0.48440933131249864	-3.568627884260601e-24
-0.48434829615624864	-3.373607337536221e-24
-0.48428726099999864	-3.1747494166531723e-24
-0.48422622584374864	-2.972258341590248e-24
-0.48416519068749864	-2.7663563857804268e-24
-0.48410415553124864	-2.557281082193068e-24
-0.48404312037499864	-2.345229190046011e-24
-0.48398208521874864	-2.130468607430226e-24
-0.48392105006249864	-1.9131901684421144e-24
-0.48386001490624864	-1.6936602073495267e-24
-0.48379897974999864	-1.4721054838049977e-24
-0.48373794459374864	-1.2487792380467141e-24
-0.48367690943749864	-1.0238975095534093e-24
-0.48361587428124864	-7.97720562672254e-25
-0.48355483912499864	-5.705054835251098e-25
-0.48349380396874864	-3.42477415394998e-25
-0.48343276881249864	-1.1391040585878385e-25
-0.48337173365624864	1.149836823123164e-25
-0.48331069849999864	3.4391887489069447e-25
-0.48324966334374864	5.726682147247864e-25
-0.48318862818749864	8.009609254848662e-25
-0.48312759303124864	1.028579062076958e-24
-0.48306655787499864	1.255249245545375e-24
-0.48300552271874864	1.4807261760845872e-24
-0.48294448756249864	1.70477976553934e-24
-0.48288345240624864	1.9271385222208955e-24
-0.48282241724999864	2.1475895673070777e-24
-0.48276138209374864	2.3658672530904532e-24
-0.48270034693749864	2.581756187176947e-24
-0.48263931178124864	2.794980293952748e-24
-0.48257827662499864	3.0053489641300077e-24
-0.48251724146874864	3.2126124146647263e-24
-0.48245620631249864	3.4165486233501965e-24
-0.48239517115624864	3.616922836572737e-24
-0.48233413599999864	3.813507824080148e-24
-0.48227310084374864	4.006126624518297e-24
-0.48221206568749864	4.1945321747256365e-24
-0.48215103053124864	4.378531815974705e-24
-0.48208999537499864	4.557894024418546e-24
-0.48202896021874864	4.73247496439739e-24
-0.48196792506249864	4.902039573644426e-24
-0.48190688990624864	5.0664125811214304e-24
-0.48184585474999864	5.225410446980494e-24
-0.48178481959374864	5.378861189314583e-24
-0.48172378443749864	5.526604009887481e-24
-0.48166274928124864	5.668444354205909e-24
-0.48160171412499864	5.804263826172437e-24
-0.48154067896874864	5.9338759641023784e-24
-0.48147964381249864	6.057169830413509e-24
-0.48141860865624864	6.173977091818394e-24
-0.48135757349999864	6.284193563528939e-24
-0.48129653834374864	6.3876735383599645e-24
-0.48123550318749864	6.4843145521045214e-24
-0.48117446803124864	6.5740136325180695e-24
-0.48111343287499864	6.656649637085917e-24
-0.48105239771874864	6.732151750596117e-24
-0.48099136256249864	6.800407698291321e-24
-0.48093032740624864	6.861377085167168e-24
-0.48086929224999864	6.914949560014736e-24
-0.48080825709374864	6.961096231685998e-24
-0.48074722193749864	6.999738800548988e-24
-0.48068618678124864	7.030849907375118e-24
-0.48062515162499864	7.054384218902622e-24
-0.48056411646874864	7.070308440075866e-24
-0.48050308131249864	7.078616088436029e-24
-0.48044204615624864	7.079272232502514e-24
-0.48038101099999864	7.072302175402246e-24
-0.48031997584374864	7.057677585408496e-24
-0.48025894068749864	7.035443908515077e-24
-0.48019790553124864	7.005589999416509e-24
-0.48013687037499864	6.968173158338447e-24
-0.48007583521874864	6.923212413790819e-24
-0.48001480006249864	6.870760886884973e-24
-0.47995376490624864	6.81087401101109e-24
-0.47989272974999864	6.743604491685697e-24
-0.47983169459374864	6.669042184223834e-24
-0.47977065943749864	6.587236395177006e-24
-0.47970962428124864	6.498306358803214e-24
-0.47964858912499864	6.402313863542824e-24
-0.47958755396874864	6.299390352009751e-24
-0.47952651881249864	6.189619441251956e-24
-0.47946548365624864	6.0731375854896115e-24
-0.47940444849999864	5.950059455917164e-24
-0.47934341334374864	5.82051490616699e-24
-0.47928237818749864	5.684651969412989e-24
-0.47922134303124864	5.542603837495477e-24
-0.47916030787499864	5.3945428436640286e-24
-0.47909927271874864	5.240596361055564e-24
-0.47903823756249864	5.080965486410313e-24
-0.47897720240624864	4.915793267774148e-24
-0.47891616724999864	4.745283884533176e-24
-0.47885513209374864	4.569596457940589e-24
-0.47879409693749864	4.3889334615189944e-24
-0.47873306178124864	4.2034916682992555e-24
-0.47867202662499864	4.013467078741328e-24
-0.47861099146874864	3.819072258964341e-24
-0.47854995631249864	3.620499176892061e-24
-0.47848892115624864	3.41799565815164e-24
-0.47842788599999864	3.2117389220251376e-24
-0.47836685084374864	3.0019953971422798e-24
-0.47830581568749864	2.7889651666069983e-24
-0.47824478053124864	2.572890970718069e-24
-0.47818374537499864	2.3539963744726867e-24
-0.47812271021874864	2.132530953899757e-24
-0.47806167506249864	1.9087413925836525e-24
-0.47800063990624864	1.6828499019534285e-24
-0.47793960474999864	1.4551235031847804e-24
-0.47787856959374864	1.2257842113056519e-24
-0.47781753443749864	9.951224475919857e-25
-0.47775649928124864	7.6334957499726285e-25
-0.47769546412499864	5.307449862160313e-25
-0.47763442896874864	2.9754108546925207e-25
-0.47757339381249864	6.401029071644805e-26
-0.47751235865624864	-1.6959475220554823e-25
-0.47745132349999864	-4.0303186875066765e-25
-0.47739028834374864	-6.360308416445358e-25
-0.47732925318749864	-8.683538996576282e-25
-0.47726821803124864	-1.0997128366015228e-24
-0.47720718287499864	-1.3299047407105417e-24
-0.47714614771874864	-1.55863995293874e-24
-0.47708511256249864	-1.7856851313384603e-24
-0.47702407740624864	-2.010766781419799e-24
-0.47696304224999864	-2.2336741982207426e-24
-0.47690200709374864	-2.4541562700872522e-24
-0.47684097193749864	-2.6719376040299878e-24
-0.47677993678124864	-2.886816639790009e-24
-0.47671890162499864	-3.098539534275874e-24
-0.47665786646874864	-3.3068911101045967e-24
-0.47659683131249864	-3.511604177553908e-24
-0.47653579615624864	-3.71250822520627e-24
-0.47647476099999864	-3.909340082437902e-24
-0.47641372584374864	-4.10189880758562e-24
-0.47635269068749864	-4.289972953513255e-24
-0.47629165553124864	-4.473352210383942e-24
-0.47623062037499864	-4.651844634880296e-24
-0.47616958521874864	-4.825233175452739e-24
-0.47610855006249864	-4.993359102452254e-24
-0.47604751490624864	-5.155995976734816e-24
-0.47598647974999864	-5.313005950918882e-24
-0.47592544459374864	-5.464182621971667e-24
-0.47586440943749864	-5.609385566408593e-24
-0.47580337428124864	-5.748433999886446e-24
-0.47574233912499864	-5.8811852533378465e-24
-0.47568130396874864	-6.007495726149527e-24
-0.47562026881249864	-6.127210550674911e-24
-0.47555923365624864	-6.240221353635481e-24
-0.47549819849999864	-6.3463712361869954e-24
-0.47543716334374864	-6.445580826819248e-24
-0.47537612818749864	-6.537702889049412e-24
-0.47531509303124864	-6.622667182751348e-24
-0.47525405787499864	-6.700352233349617e-24
-0.47519302271874864	-6.770692761438248e-24
-0.47513198756249864	-6.833600931893397e-24
-0.47507095240624864	-6.889002669523752e-24
-0.47500991724999864	-6.936850861505517e-24
-0.47494888209374864	-6.977070055661451e-24
-0.47488784693749864	-7.009644201742877e-24
-0.47482681178124864	-7.034501504256359e-24
-0.47476577662499864	-7.051649222122652e-24
-0.47470474146874864	-7.061036243129542e-24
-0.47464370631249864	-7.06267823275477e-24
-0.47458267115624864	-7.056552258111292e-24
-0.47452163599999864	-7.042673753053057e-24
-0.47446060084374864	-7.021059539863108e-24
-0.47439956568749864	-6.991722116921385e-24
-0.47433853053124864	-6.954709480954835e-24
-0.47427749537499864	-6.910035908764293e-24
-0.47421646021874864	-6.857786340688653e-24
-0.47415542506249864	-6.797980200134957e-24
-0.47409438990624864	-6.73071110408666e-24
-0.47403335474999864	-6.65603050609586e-24
-0.47397231959374864	-6.5740406943575025e-24
-0.47391128443749864	-6.4848173944102976e-24
-0.47385024928124864	-6.388462240540805e-24
-0.47378921412499864	-6.285085860589064e-24
-0.47372817896874864	-6.174784174833727e-24
-0.47366714381249864	-6.057709930147744e-24
-0.47360610865624864	-5.933959748728593e-24
-0.47354507349999864	-5.803695308829111e-24
-0.47348403834374864	-5.667032038509264e-24
-0.47342300318749864	-5.524151209683586e-24
-0.47336196803124864	-5.375186995672435e-24
-0.47330093287499864	-5.2203193514741376e-24
-0.47323989771874864	-5.0597114632371336e-24
-0.47317886256249864	-4.893533517722188e-24
-0.47311782740624864	-4.721983375130012e-24
-0.47305679224999864	-4.545233986699417e-24
-0.47299575709374864	-4.3635144610171445e-24
-0.47293472193749864	-4.1769769952326004e-24
-0.47287368678124864	-3.985860166207377e-24
-0.47281265162499864	-3.790363035636482e-24
-0.47275161646874864	-3.590723226819784e-24
-0.47269058131249864	-3.387127824022897e-24
-0.47262954615624864	-3.1798201750612572e-24
-0.47256851099999864	-2.9690414630411862e-24
-0.47250747584374864	-2.754994629861214e-24
-0.47244644068749864	-2.5379493442860934e-24
-0.47238540553124864	-2.318122501005787e-24
-0.47232437037499864	-2.0957842347201847e-24
-0.47226333521874864	-1.8711368618213586e-24
