Time	Frequency
-0.5000228876874999	0.41585710169018975
-0.4999618525312499	0.41491326982996785
-0.4999008173749999	0.41359379135523455
-0.4998397822187499	0.4118996958188812
-0.4997787470624999	0.4098323699629232
-0.4997177119062499	0.40739337560100525
-0.4996566767499999	0.4045847401863849
-0.4995956415937499	0.4014089542003861
-0.4995346064374999	0.39786855194465165
-0.4994735712812499	0.3939663778585311
-0.4994125361249999	0.38970601063881305
-0.4993515009687499	0.38509111635065923
-0.4992904658124999	0.3801252703008471
-0.4992294306562499	0.37481292860208204
-0.4991683954999999	0.36915895679799565
-0.4991073603437499	0.3631679707330729
-0.4990463251874999	0.35684494904252484
-0.4989852900312499	0.3501955943759384
-0.4989242548749999	0.3432259823726438
-0.4988632197187499	0.33594180538310076
-0.4988021845624999	0.3283492052755943
-0.4987411494062499	0.32045526848351563
-0.4986801142499999	0.3122668347674758
-0.4986190790937499	0.30379085229752245
-0.4985580439374999	0.29503484843052863
-0.4984970087812499	0.28600644324990987
-0.4984359736249999	0.2767135657911569
-0.4983749384687499	0.26716454519569854
-0.4983139033124999	0.25736766760760155
-0.4982528681562499	0.24733147357442223
-0.4981918329999999	0.23706488257447683
-0.4981307978437499	0.2265767966269685
-0.4980697626874999	0.21587662811780373
-0.4980087275312499	0.20497406191509093
-0.4979476923749999	0.19387825551460333
-0.4978866572187499	0.1825989807812433
-0.4978256220624999	0.17114669899427282
-0.4977645869062499	0.1595312588562213
-0.4977035517499999	0.14776285517049154
-0.4976425165937499	0.1358521538604278
-0.4975814814374999	0.12380944475534304
-0.4975204462812499	0.1116454782541416
-0.4974594111249999	0.09937131466736157
-0.4973983759687499	0.08699758063653179
-0.4973373408124999	0.07453512092599188
-0.4972763056562499	0.061995387707794274
-0.4972152704999999	0.0493894403771339
-0.4971542353437499	0.036728153075455745
-0.4970932001874999	0.02402322983562686
-0.4970321650312499	0.011285875060949645
-0.4969711298749999	-0.00147299096464606
-0.4969100947187499	-0.014241324299430562
-0.4968490595624999	-0.02700792157425834
-0.4967880244062499	-0.03976207143997308
-0.4967269892499999	-0.05249154627924322
-0.4966659540937499	-0.06518490233444059
-0.4966049189374999	-0.0778317149892289
-0.4965438837812499	-0.0904201807476809
-0.4964828486249999	-0.10293859574626944
-0.4964218134687499	-0.11537626897199231
-0.4963607783124999	-0.12772205015808366
-0.4962997431562499	-0.1399647643375876
-0.4962387079999999	-0.15209359520881643
-0.4961776728437499	-0.16409737007948788
-0.4961166376874999	-0.1759651973480928
-0.4960556025312499	-0.18768715060491536
-0.4959945673749999	-0.19925249888332786
-0.4959335322187499	-0.2106498138199044
-0.4958724970624999	-0.2218697085277024
-0.4958114619062499	-0.23290287889795735
-0.4957504267499999	-0.24373809495715243
-0.4956893915937499	-0.2543654527264477
-0.4956283564374999	-0.2647764153739319
-0.4955673212812499	-0.2749612412575902
-0.4955062861249999	-0.28491039178423494
-0.4954452509687499	-0.29461520602986235
-0.4953842158124999	-0.3040667559441075
-0.4953231806562499	-0.3132563640013958
-0.4952621454999999	-0.32217584004518063
-0.4952011103437499	-0.33081736388544025
-0.4951400751874999	-0.3391730114253198
-0.4950790400312499	-0.3472346385016308
-0.4950180048749999	-0.35499510435801235
-0.4949569697187499	-0.3624478275188807
-0.4948959345624999	-0.3695859403968532
-0.4948348994062499	-0.37640262883644715
-0.4947738642499999	-0.3828913536988611
-0.4947128290937499	-0.3890464869377514
-0.4946517939374999	-0.3948628484996373
-0.4945907587812499	-0.4003347706814209
-0.4945297236249999	-0.405456770653208
-0.4944686884687499	-0.4102242526392005
-0.4944076533124999	-0.41463330991113345
-0.4943466181562499	-0.41867972435004897
-0.4942855829999999	-0.4223591725564461
-0.4942245478437499	-0.42566847331216323
-0.4941635126874999	-0.42860481247558463
-0.4941024775312499	-0.43116509117679586
-0.4940414423749999	-0.4333468215165465
-0.4939804072187499	-0.43514803988058487
-0.4939193720624999	-0.43656686298762604
-0.4938583369062499	-0.4376018409792995
-0.4937973017499999	-0.4382519527571824
-0.4937362665937499	-0.43851639904138184
-0.4936752314374999	-0.438394747630476
-0.4936141962812499	-0.43788693761608594
-0.4935531611249999	-0.436993240504861
-0.4934921259687499	-0.4357143057480168
-0.4934310908124999	-0.4340511163009166
-0.4933700556562499	-0.43200495486894436
-0.4933090204999999	-0.4295774128226929
-0.4932479853437499	-0.42677051763608254
-0.4931869501874999	-0.4235867420882039
-0.4931259150312499	-0.4200286778187578
-0.4930648798749999	-0.4160991758315534
-0.4930038447187499	-0.4118016846126103
-0.4929428095624999	-0.4071399882644589
-0.4928817744062499	-0.4021180589550405
-0.4928207392499999	-0.3967401012607976
-0.4927597040937499	-0.3910107675043224
-0.4926986689374999	-0.3849351261518262
-0.4926376337812499	-0.3785182946803622
-0.4925765986249999	-0.37176598240111414
-0.4925155634687499	-0.3646843393723578
-0.4924545283124999	-0.3572790660314813
-0.4923934931562499	-0.3495564017081036
-0.4923324579999999	-0.34152380938216137
-0.4922714228437499	-0.3331884581483114
-0.4922103876874999	-0.32455693065188107
-0.4921493525312499	-0.3156368035684241
-0.4920883173749999	-0.30643642089888384
-0.4920272822187499	-0.2969638952432767
-0.4919662470624999	-0.2872273543110476
-0.4919052119062499	-0.277235208236723
-0.4918441767499999	-0.2669964189276988
-0.4917831415937499	-0.2565201176039723
-0.4917221064374999	-0.24581557252614034
-0.4916610712812499	-0.23489236599637958
-0.4916000361249999	-0.22375976703180905
-0.4915390009687499	-0.21242747035323858
-0.4914779658124999	-0.20090612662797588
-0.4914169306562499	-0.1892062753419387
-0.4913558954999999	-0.17733758146220746
-0.4912948603437499	-0.16530988155799853
-0.4912338251874999	-0.1531346871584993
-0.4911727900312499	-0.14082375457779286
-0.4911117548749999	-0.12838715390662903
-0.4910507197187499	-0.11583507241039268
-0.4909896845624999	-0.10317935937349423
-0.4909286494062499	-0.09043170270287337
-0.4908676142499999	-0.07760333191169988
-0.4908065790937499	-0.0647055905213614
-0.4907455439374999	-0.0517494268421052
-0.4906845087812499	-0.038746606054994845
-0.4906234736249999	-0.025709351307123554
-0.4905624384687499	-0.012648818207554735
-0.4905014033124999	0.0004234879518713347
-0.4904403681562499	0.01349544099821014
-0.4903793329999999	0.02655581495339892
-0.4903182978437499	0.03959308550529364
-0.4902572626874999	0.052594916805723715
-0.4901962275312499	0.06554989465814302
-0.4901351923749999	0.07844682104328124
-0.4900741572187499	0.09127409511708501
-0.4900131220624999	0.10402014951437537
-0.4899520869062499	0.116673223871335
-0.4898910517499999	0.12922208347461908
-0.4898300165937499	0.14165600906663045
-0.4897689814374999	0.1539638525085124
-0.4897079462812499	0.1661339613444658
-0.4896469111249999	0.1781554324061739
-0.4895858759687499	0.1900180753186019
-0.4895248408124999	0.20171098070393956
-0.4894638056562499	0.21322364551062126
-0.4894027704999999	0.2245460482528356
-0.4893417353437499	0.23566725157595111
-0.4892807001874999	0.24657726198657343
-0.4892196650312499	0.2572675090454189
-0.4891586298749999	0.2677281262855628
-0.4890975947187499	0.27794840977890106
-0.4890365595624999	0.2879194434816067
-0.4889755244062499	0.2976334000067337
-0.4889144892499999	0.307081369878383
-0.4888534540937499	0.31625407697850727
-0.4887924189374999	0.325143345177686
-0.4887313837812499	0.33374136571208557
-0.4886703486249999	0.342040446966116
-0.4886093134687499	0.35003343528201514
-0.4885482783124999	0.3577129376049829
-0.4884872431562499	0.36507144705709577
-0.4884262079999999	0.37210248904354454
-0.4883651728437499	0.3788004252854187
-0.4883041376874999	0.3851590514457626
-0.4882431025312499	0.39117193720888643
-0.4881820673749999	0.3968339513165789
-0.4881210322187499	0.40214027041235706
-0.4880599970624999	0.4070858844154764
-0.4879989619062499	0.41166643016691296
-0.4879379267499999	0.41587759573684385
-0.4878768915937499	0.4197154568606876
-0.4878158564374999	0.4231768697421043
-0.4877548212812499	0.42625866040442306
-0.4876937861249999	0.42895777897514137
-0.4876327509687499	0.43127179632739254
-0.4875717158124999	0.43319877544030094
-0.4875106806562499	0.43473697885318807
-0.4874496454999999	0.4358848555939872
-0.4873886103437499	0.43664133971431307
-0.4873275751874999	0.4370058098414009
-0.4872665400312499	0.43697789940124254
-0.4872055048749999	0.4365576099439496
-0.4871444697187499	0.43574530819706825
-0.4870834345624999	0.43454168206866994
-0.4870223994062499	0.4329478141387619
-0.4869613642499999	0.4309651036926116
-0.4869003290937499	0.4285953188022171
-0.4868392939374999	0.42584070173892297
-0.4867782587812499	0.4227036824301633
-0.4867172236249999	0.41918684908852377
-0.4866561884687499	0.4152934815007422
-0.4865951533124999	0.41102737339377127
-0.4865341181562499	0.40639220619591676
-0.4864730829999999	0.4013919512287873
-0.4864120478437499	0.3960311620061936
-0.4863510126874999	0.39031471449417804
-0.4862899775312499	0.38424803621050496
-0.4862289423749999	0.37783671925111295
-0.4861679072187499	0.3710859119850058
-0.4861068720624999	0.36400157409235084
-0.4860458369062499	0.35659094613640235
-0.4859848017499999	0.34886086081832524
-0.4859237665937499	0.3408177001839461
-0.4858627314374999	0.3324684089828382
-0.4858016962812499	0.32382071121816464
-0.4857406611249999	0.31488326956956403
-0.4856796259687499	0.30566439788365923
-0.4856185908124999	0.2961710594555243
-0.4855575556562499	0.2864115992734013
-0.4854965204999999	0.27639652116758656
-0.4854354853437499	0.26613497210013
-0.4853744501874999	0.2556349004302685
-0.4853134150312499	0.24490585561774103
-0.4852523798749999	0.23395843146524264
-0.4851913447187499	0.2228026956998915
-0.4851303095624999	0.21144835083645314
-0.4850692744062499	0.19990537412261822
-0.4850082392499999	0.18818451003771028
-0.4849472040937499	0.1762968897697858
-0.4848861689374999	0.16425311482602026
-0.4848251337812499	0.15206374871932266
-0.4847640986249999	0.1397399490359897
-0.4847030634687499	0.12729331593453944
-0.4846420283124999	0.11473520425559044
-0.4845809931562499	0.1020766843726279
-0.4845199579999999	0.08932945905005464
-0.4844589228437499	0.07650515376784958
-0.4843978876874999	0.06361520716684176
-0.4843368525312499	0.05067188333781933
-0.4842758173749999	0.03768701633770341
-0.4842147822187499	0.024671870884001555
-0.4841537470624999	0.011638478027644086
-0.4840927119062499	-0.001401133827650373
-0.4840316767499999	-0.014434861277929471
-0.4839706415937499	-0.027450602324537453
-0.4839096064374999	-0.04043706539305988
-0.4838485712812499	-0.05338256578737978
-0.4837875361249999	-0.066274666686794
-0.4837265009687499	-0.07910122894495024
-0.4836654658124999	-0.09185117218421578
-0.4836044306562499	-0.10451312826544054
-0.4835433954999999	-0.11707472984237238
-0.4834823603437499	-0.12952461328155487
-0.4834213251874999	-0.14185177913387875
-0.4833602900312499	-0.15404465864414624
-0.4832992548749999	-0.16609203692918384
-0.4832382197187499	-0.17798277759857656
-0.4831771845624999	-0.18970609791193294
-0.4831161494062499	-0.20125155475444984
-0.4830551142499999	-0.21260810164607283
-0.4829940790937499	-0.22376500909963218
-0.4829330439374999	-0.23471265896091667
-0.4828720087812499	-0.24544104913799733
-0.4828109736249999	-0.2559397211237832
-0.4827499384687499	-0.26619912539641366
-0.4826889033124999	-0.27621008371447164
-0.4826278681562499	-0.28596340509810003
-0.4825668329999999	-0.29544987517221116
-0.4825057978437499	-0.3046604877039218
-0.4824447626874999	-0.31358723623927526
-0.4823837275312499	-0.3222219477349393
-0.4823226923749999	-0.3305560382900682
-0.4822616572187499	-0.33858194160874844
-0.4822006220624999	-0.34629265682485205
-0.4821395869062499	-0.3536808698996442
-0.4820785517499999	-0.36073939276099787
-0.4820175165937499	-0.36746183928315573
-0.4819564814374999	-0.3738421743054623
-0.4818954462812499	-0.3798742155161766
-0.4818344111249999	-0.385552353059144
-0.4817733759687499	-0.39087140191531394
-0.4817123408124999	-0.39582624447133236
-0.4816513056562499	-0.40041230069339506
-0.4815902704999999	-0.40462527833012407
-0.4815292353437499	-0.40846117153701766
-0.4814682001874999	-0.4119163755349908
-0.4814071650312499	-0.41498753973569785
-0.4813461298749999	-0.41767179441152336
-0.4812850947187499	-0.4199665975097393
-0.4812240595624999	-0.4218696453011877
-0.4811630244062499	-0.4233791045785797
-0.4811019892499999	-0.4244935031005963
-0.4810409540937499	-0.4252116444359342
-0.4809799189374999	-0.4255327516139131
-0.4809188837812499	-0.4254564490697829
-0.4808578486249999	-0.4249826791653165
-0.4807968134687499	-0.42411173434692073
-0.4807357783124999	-0.4228442612195721
-0.4806747431562499	-0.42118130327882924
-0.4806137079999999	-0.41912435422517963
-0.4805526728437499	-0.4166751319967075
-0.4804916376874999	-0.41383562615692926
-0.4804306025312499	-0.41060844039676814
-0.4803695673749999	-0.4069964972232821
-0.4803085322187499	-0.4030029414744421
-0.4802474970624999	-0.3986312220348853
-0.4801864619062499	-0.39388504543023756
-0.4801254267499999	-0.38876900562627403
-0.4800643915937499	-0.38328796786484776
-0.4800033564374999	-0.37744621968818026
-0.4799423212812499	-0.3712487909134013
-0.4798812861249999	-0.3647019409033339
-0.4798202509687499	-0.3578117304829496
-0.4797592158124999	-0.35058381748542106
-0.4796981806562499	-0.34302458196792607
-0.4796371454999999	-0.3351411974923391
-0.4795761103437499	-0.32694103643451855
-0.4795150751874999	-0.3184312829006861
-0.4794540400312499	-0.3096195000482798
-0.4793930048749999	-0.3005139306685048
-0.4793319697187499	-0.2911226192827859
-0.4792709345624999	-0.2814540853759682
-0.4792098994062499	-0.2715176891639899
-0.4791488642499999	-0.26132223701691554
-0.4790878290937499	-0.2508762722982253
-0.4790267939374999	-0.24018976659493796
-0.4789657587812499	-0.22927324331085078
-0.4789047236249999	-0.21813605240572734
-0.4788436884687499	-0.2067877958654575
-0.4787826533124999	-0.19523946011485727
-0.4787216181562499	-0.18350196702362057
-0.4786605829999999	-0.17158545126989444
-0.4785995478437499	-0.15950066593809303
-0.4785385126874999	-0.14725933531031205
-0.4784774775312499	-0.13487252816216025
-0.4784164423749999	-0.12235101241095966
-0.4783554072187499	-0.10970659057487467
-0.4782943720624999	-0.09695138836138756
-0.4782333369062499	-0.08409685384811588
-0.4781723017499999	-0.07115409202727975
-0.4781112665937499	-0.05813522267399119
-0.4780502314374999	-0.04505321780531176
-0.4779891962812499	-0.03191988748814542
-0.4779281611249999	-0.01874597980460176
-0.4778671259687499	-0.005543865399181548
-0.4778060908124999	0.007672550407338145
-0.4777450556562499	0.020891602548182914
-0.4776840204999999	0.03410293679219823
-0.4776229853437499	0.047293555687648356
-0.4775619501874999	0.06044976363547839
-0.4775009150312499	0.07356012139072783
-0.4774398798749999	0.08661381455004888
-0.4773788447187499	0.09959830613836224
-0.4773178095624999	0.11250031249494438
-0.4772567744062499	0.1253083180287892
-0.4771957392499999	0.1380115677255458
-0.4771347040937499	0.15059782595336735
-0.4770736689374999	0.16305484338345116
-0.4770126337812499	0.1753713281129688
-0.4769515986249999	0.1875358621815569
-0.4768905634687499	0.1995373722005143
-0.4768295283124999	0.21136479251536294
-0.4767684931562499	0.22300672809186167
-0.4767074579999999	0.2344524639251342
-0.4766464228437499	0.24569136596934948
-0.4765853876874999	0.25671289772651257
-0.4765243525312499	0.2675071483112346
-0.4764633173749999	0.27806384046916655
-0.4764022822187499	0.2883726700443503
-0.4763412470624999	0.2984244133822938
-0.4762802119062499	0.3082100794047718
-0.4762191767499999	0.31771985371688166
-0.4761581415937499	0.326944520500326
-0.4760971064374999	0.3358763280739649
-0.4760360712812499	0.34450687701413024
-0.4759750361249999	0.35282723952399664
-0.4759140009687499	0.36082976428592883
-0.4758529658124999	0.3685073116170702
-0.4757919306562499	0.3758525917921051
-0.4757308954999999	0.38285850834293966
-0.4756698603437499	0.3895183307966953
-0.4756088251874999	0.3958257545214375
-0.4755477900312499	0.4017747813378869
-0.4754867548749999	0.40735981611872474
-0.4754257197187499	0.41257563851337475
-0.4753646845624999	0.41741710834766554
-0.4753036494062499	0.4218793293064649
-0.4752426142499999	0.4259580609735812
-0.4751815790937499	0.4296495939192263
-0.4751205439374999	0.4329503511357837
-0.4750595087812499	0.43585679526749915
-0.4749984736249999	0.4383659307764387
-0.4749374384687499	0.4404754676038475
-0.4748764033124999	0.44218330376387327
-0.4748153681562499	0.4434875389731431
-0.4747543329999999	0.44438668131127146
-0.4746932978437499	0.4448796795118043
-0.4746322626874999	0.44496593229431447
-0.4745712275312499	0.44464515175624075
-0.4745101923749999	0.4439173535838778
-0.4744491572187499	0.44278294804555224
-0.4743881220624999	0.44124279573193403
-0.4743270869062499	0.43929812175585203
-0.4742660517499999	0.4369504600856302
-0.4742050165937499	0.43420172660422446
-0.4741439814374999	0.4310541913109541
-0.4740829462812499	0.42751063352739344
-0.4740219111249999	0.4235741802646365
-0.4739608759687499	0.41924796636169265
-0.4738998408124999	0.4145357845358513
-0.4738388056562499	0.409442074172863
-0.4737777704999999	0.4039711865708121
-0.4737167353437499	0.398127689032708
-0.4736557001874999	0.3919168565452821
-0.4735946650312499	0.3853445310423183
-0.4735336298749999	0.3784164070012691
-0.4734725947187499	0.37113827096638075
-0.4734115595624999	0.3635169344768827
-0.4733505244062499	0.35555956169595965
-0.4732894892499999	0.3472728924286069
-0.4732284540937499	0.33866417288990147
-0.4731674189374999	0.32974153761092134
-0.4731063837812499	0.32051304936955577
-0.4730453486249999	0.3109868408725928
-0.4729843134687499	0.3011715917431303
-0.4729232783124999	0.2910760442590026
-0.4728622431562499	0.28070933350989397
-0.4728012079999999	0.27008127510766267
-0.4727401728437499	0.25920136447825914
-0.4726791376874999	0.24807889640519093
-0.4726181025312499	0.23672419209922388
-0.4725570673749999	0.2251481405377215
-0.4724960322187499	0.2133612291600262
-0.4724349970624999	0.20137371525110145
-0.4723739619062499	0.1891960132901049
-0.4723129267499999	0.1768399018080451
-0.4722518915937499	0.16431766415197416
-0.4721908564374999	0.15163957812933312
-0.4721298212812499	0.1388162445502079
-0.4720687861249999	0.1258606439582375
-0.4720077509687499	0.1127853888194961
-0.4719467158124999	0.09960150469516978
-0.4718856806562499	0.08632024883164288
-0.4718246454999999	0.07295449552575353
-0.4717636103437499	0.059517302420891725
-0.4717025751874999	0.046020256712361665
-0.4716415400312499	0.03247539927198614
-0.4715805048749999	0.01889566710588998
-0.4715194697187499	0.005293230794505614
-0.4714584345624999	-0.008319233117344671
-0.4713973994062499	-0.021928941469706118
-0.4713363642499999	-0.035524032224667795
-0.4712753290937499	-0.04909163609298813
-0.4712142939374999	-0.06261893175472885
-0.4711532587812499	-0.07609431060025151
-0.4710922236249999	-0.0895050598540736
-0.4710311884687499	-0.10283803096269943
-0.4709701533124999	-0.11608150992231084
-0.4709091181562499	-0.12922394978003943
-0.4708480829999999	-0.1422526458431468
-0.4707870478437499	-0.1551549367499961
-0.4707260126874999	-0.16791965309855317
-0.4706649775312499	-0.1805353538523519
-0.4706039423749999	-0.19298968139386874
-0.4705429072187499	-0.20527102818128762
-0.4704818720624999	-0.21736848975518705
-0.4704208369062499	-0.22927108196074303
-0.4703598017499999	-0.2409674556217656
-0.4702987665937499	-0.25244633592731
-0.4702377314374999	-0.2636973802332034
-0.4701766962812499	-0.274710890751579
-0.4701156611249999	-0.28547628414852455
-0.4700546259687499	-0.29598274264033614
-0.4699935908124999	-0.3062209828208465
-0.4699325556562499	-0.31618214371506637
-0.4698715204999999	-0.32585659108521875
-0.4698104853437499	-0.3352349814406452
-0.4697494501874999	-0.34430878453526664
-0.4696884150312499	-0.35306963181505435
