Time	Frequency
-0.5000009531562526	-0.41658757357564186
-0.4999399180000026	-0.4186798972091433
-0.4998788828437526	-0.42040450019945363
-0.4998178476875026	-0.42175976343033783
-0.4997568125312526	-0.42274437523852676
-0.4996957773750026	-0.42335736426247533
-0.4996347422187526	-0.42359807390199294
-0.4995737070625026	-0.42346617749581444
-0.4995126719062526	-0.42296170235426506
-0.4994516367500026	-0.42208499517800047
-0.4993906015937526	-0.42083670945746726
-0.4993295664375026	-0.41921782671369573
-0.4992685312812526	-0.4172296444620949
-0.4992074961250026	-0.4148738094635301
-0.4991464609687526	-0.41215233861212563
-0.4990854258125026	-0.40906752771630595
-0.4990243906562526	-0.4056219352517582
-0.4989633555000026	-0.4018184558513898
-0.4989023203437526	-0.3976603278777898
-0.4988412851875026	-0.3931512094707142
-0.4987802500312526	-0.38829509601813395
-0.4987192148750026	-0.38309590410890554
-0.4986581797187526	-0.3775579229909706
-0.4985971445625026	-0.37168635968935165
-0.4985361094062526	-0.36548641702561196
-0.4984750742500026	-0.35896301223245597
-0.4984140390937526	-0.3521217299078528
-0.4983530039375026	-0.34496887765049133
-0.4982919687812526	-0.3375107397744364
-0.4982309336250026	-0.32975347502689195
-0.4981698984687526	-0.32170377056918614
-0.4981088633125026	-0.3133689776317743
-0.4980478281562526	-0.30475631263165864
-0.4979867930000026	-0.295872956778007
-0.4979257578437526	-0.28672688672999425
-0.4978647226875026	-0.27732629597252284
-0.4978036875312526	-0.26767910434287884
-0.4977426523750026	-0.25779369421927717
-0.4976816172187526	-0.2476789412164492
-0.4976205820625026	-0.23734367890278849
-0.4975595469062526	-0.22679683342757562
-0.4974985117500026	-0.2160477347537558
-0.4974374765937526	-0.20510581574045286
-0.4973764414375026	-0.19398047915288993
-0.4973154062812526	-0.18268177933784252
-0.4972543711250026	-0.1712196904213434
-0.4971933359687526	-0.15960374858842855
-0.4971323008125026	-0.14784461849590316
-0.4970712656562526	-0.13595287819512922
-0.4970102305000026	-0.12393825346663782
-0.4969491953437526	-0.11181165341563963
-0.4968881601875026	-0.0995842150362033
-0.4968271250312526	-0.08726610184888403
-0.4967660898750026	-0.0748682156697976
-0.4967050547187526	-0.06240193342512189
-0.4966440195625026	-0.04987782814387307
-0.4965829844062526	-0.03730686890865107
-0.4965219492500026	-0.024700594681324885
-0.4964609140937526	-0.01206999962015315
-0.4963998789375026	0.0005740151629494813
-0.4963388437812526	0.013220213349520976
-0.4962778086250026	0.02585734091095778
-0.4962167734687526	0.03847407892243248
-0.4961557383125026	0.05105925899752869
-0.4960947031562526	0.06360208916054871
-0.4960336680000026	0.07609142662132597
-0.4959726328437526	0.0885158557390164
-0.4959115976875026	0.10086443364514741
-0.4958505625312526	0.11312645060265845
-0.4957895273750026	0.1252910248217222
-0.4957284922187526	0.13734716375797867
-0.4956674570625026	0.14928430905576548
-0.4956064219062526	0.16109195708620244
-0.4955453867500026	0.1727591753507123
-0.4954843515937526	0.18427584324026072
-0.4954233164375026	0.19563229972155377
-0.4953622812812526	0.20681788970153983
-0.4953012461250026	0.21782215878251326
-0.4952402109687526	0.22863592589005294
-0.4951791758125026	0.23924997736363238
-0.4951181406562526	0.249654312678898
-0.4950571055000026	0.2598392718166796
-0.4949960703437526	0.26979627380796
-0.4949350351875026	0.27951668442892297
-0.4948740000312526	0.2889913685827167
-0.4948129648750026	0.29821186171331354
-0.4947519297187526	0.30717011297543795
-0.4946908945625026	0.31585802521257256
-0.4946298594062526	0.3242678602021396
-0.4945688242500026	0.3323920210394189
-0.4945077890937526	0.3402232515019289
-0.4944467539375026	0.34775456480942
-0.4943857187812526	0.35497899298161284
-0.4943246836250026	0.36189020024133256
-0.4942636484687526	0.36848221939325215
-0.4942026133125026	0.3747487255165405
-0.4941415781562526	0.3806838780483764
-0.4940805430000026	0.38628280526752407
-0.4940195078437526	0.3915404438878082
-0.4939584726875026	0.396451647621233
-0.4938974375312526	0.40101205556170316
-0.4938364023750026	0.4052176504860958
-0.4937753672187526	0.4090645272766217
-0.4937143320625026	0.41254918644516814
-0.4936532969062526	0.41566845106431743
-0.4935922617500026	0.4184193252550897
-0.4935312265937526	0.420799200181636
-0.4934701914375026	0.4228060555340217
-0.4934091562812526	0.42443805029287174
-0.4933481211250026	0.42569336374049077
-0.4932870859687526	0.4265707389282117
-0.4932260508125026	0.42706949465576105
-0.4931650156562526	0.4271890800812453
-0.4931039805000026	0.426929139229006
-0.4930429453437526	0.42628977083693886
-0.4929819101875026	0.42527144917646176
-0.4929208750312526	0.4238749981063278
-0.4928598398750026	0.42210161427394594
-0.4927988047187526	0.4199526765760338
-0.4927377695625026	0.41742984617806395
-0.4926767344062526	0.4145353161577663
-0.4926156992500026	0.4112717197452792
-0.4925546640937526	0.4076418245179505
-0.4924936289375026	0.40364850111683903
-0.4924325937812526	0.3992951707129018
-0.4923715586250026	0.39458584208487585
-0.4923105234687526	0.38952459684279744
-0.4922494883125026	0.38411561661496496
-0.4921884531562526	0.3783636778817292
-0.4921274180000026	0.37227387094233316
-0.4920663828437526	0.36585123044935564
-0.4920053476875026	0.3591015653556643
-0.4919443125312526	0.35203114593373147
-0.4918832773750026	0.3446456784169261
-0.4918222422187526	0.3369513675553946
-0.4917612070625026	0.32895540178287813
-0.4917001719062526	0.3206650334675153
-0.4916391367500026	0.3120873192161508
-0.4915781015937526	0.30322943149684095
-0.4915170664375026	0.294099279812463
-0.4914560312812526	0.2847053415861628
-0.4913949961250026	0.2750558122910156
-0.4913339609687526	0.26515883539416646
-0.4912729258125026	0.25502314538123505
-0.4912118906562526	0.24465794855663958
-0.4911508555000026	0.2340724839470436
-0.4910898203437526	0.22327588923378813
-0.4910287851875026	0.2122776723008474
-0.4909677500312526	0.2010877157194508
-0.4909067148750026	0.18971577874794746
-0.4908456797187526	0.17817196445987787
-0.4907846445625026	0.16646679445732143
-0.4907236094062526	0.15461036608979106
-0.4906625742500026	0.1426129219141805
-0.4906015390937526	0.1304855568721608
-0.4905405039375026	0.118239112034398
-0.4904794687812526	0.10588401111477982
-0.4904184336250026	0.0934313511209518
-0.4903573984687526	0.0808925198072409
-0.4902963633125026	0.06827853449691136
-0.4902353281562526	0.05560037064677799
-0.4901742930000026	0.04286925431490658
-0.4901132578437526	0.03009687731609995
-0.4900522226875026	0.01729484654488424
-0.4899911875312526	0.004473979264525253
-0.4899301523750026	-0.008354491206905188
-0.4898691172187526	-0.0211784686631001
-0.4898080820625026	-0.033986492534389144
-0.4897470469062526	-0.04676758867409093
-0.4896860117500026	-0.059510307116753855
-0.4896249765937526	-0.07220310741368724
-0.4895639414375026	-0.08483459972725324
-0.4895029062812526	-0.09739339886029778
-0.4894418711250026	-0.10986856829380379
-0.4893808359687526	-0.12224915836224719
-0.4893198008125026	-0.13452344700951013
-0.4892587656562526	-0.14668044452361212
-0.4891977305000026	-0.15870998306340478
-0.4891366953437526	-0.17060101073290496
-0.4890756601875026	-0.1823424681497121
-0.4890146250312526	-0.19392401230039832
-0.4889535898750026	-0.205335400999856
-0.4888925547187526	-0.21656639952747325
-0.4888315195625026	-0.22760682835283658
-0.4887704844062526	-0.2384467860712775
-0.4887094492500026	-0.2490764375129143
-0.4886484140937526	-0.2594861750791571
-0.4885873789375026	-0.2696669677669154
-0.4885263437812526	-0.2796095625017447
-0.4884653086250026	-0.2893045496592563
-0.4884042734687526	-0.2987434589876993
-0.4883432383125026	-0.30791820786669605
-0.4882822031562526	-0.31682003689354926
-0.4882211680000026	-0.3254406502386528
-0.4881601328437526	-0.33377280303451573
-0.4880990976875026	-0.34180896300286373
-0.4880380625312526	-0.3495414844550286
-0.4879770273750026	-0.3569633515576992
-0.4879159922187526	-0.36406804742072735
-0.4878549570625026	-0.37084932654148745
-0.4877939219062526	-0.37730068289259827
-0.4877328867500026	-0.3834159954810896
-0.4876718515937526	-0.3891901716789236
-0.4876108164375026	-0.39461802761485365
-0.4875497812812526	-0.39969419403397555
-0.4874887461250026	-0.40441404459232505
-0.4874277109687526	-0.40877344524812387
-0.4873666758125026	-0.41276837296773333
-0.4873056406562526	-0.4163950881178624
-0.4872446055000026	-0.4196501519835974
-0.4871835703437526	-0.42253054521735944
-0.4871225351875026	-0.4250337267497376
-0.4870615000312526	-0.42715728611325043
-0.4870004648750026	-0.42889903623046954
-0.4869394297187526	-0.4302573819256418
-0.4868783945625026	-0.43123109515948405
-0.4868173594062526	-0.4318191380651597
-0.4867563242500026	-0.4320208124326284
-0.4866952890937526	-0.4318357996530546
-0.4866342539375026	-0.43126417240393033
-0.4865732187812526	-0.4303063499182464
-0.4865121836250026	-0.4289630684658103
-0.4864511484687526	-0.42723541278753113
-0.4863901133125026	-0.4251247720244524
-0.4863290781562526	-0.422632870219228
-0.4862680430000026	-0.41976193226166414
-0.4862070078437526	-0.41651447847544365
-0.4861459726875026	-0.4128930851072555
-0.4860849375312526	-0.40890091533807527
-0.4860239023750026	-0.4045416661168452
-0.4859628672187526	-0.39981897051995
-0.4859018320625026	-0.3947368272083345
-0.4858407969062526	-0.3892998684911566
-0.4857797617500026	-0.3835129026398084
-0.4857187265937526	-0.3773808113888785
-0.4856576914375026	-0.37090898418243146
-0.4855966562812526	-0.3641033949076172
-0.4855356211250026	-0.356969982055249
-0.4854745859687526	-0.3495147422890203
-0.4854135508125026	-0.3417443696260228
-0.4853525156562526	-0.3336659784805552
-0.4852914805000026	-0.3252866939139564
-0.4852304453437526	-0.3166137924913845
-0.4851694101875026	-0.3076548498849096
-0.4851083750312526	-0.29841796428713546
-0.4850473398750026	-0.2889115074020796
-0.4849863047187526	-0.2791437674002137
-0.4849252695625026	-0.2691234161496203
-0.4848642344062526	-0.2588595063909584
-0.4848031992500026	-0.24836098246276214
-0.4847421640937526	-0.2376370518761249
-0.4846811289375026	-0.22669779249944003
-0.4846200937812526	-0.2155531162470854
-0.4845590586250026	-0.2042121074520047
-0.4844980234687526	-0.1926850245485229
-0.4844369883125026	-0.1809829813649618
-0.4843759531562526	-0.16911604759762167
-0.4843149180000026	-0.1570945311321218
-0.4842538828437526	-0.14492939995781487
-0.4841928476875026	-0.13263152487890187
-0.4841318125312526	-0.12021202786265629
-0.4840707773750026	-0.10768201381278848
-0.4840097422187526	-0.0950526505163761
-0.4839487070625026	-0.08233532232088783
-0.4838876719062526	-0.06954123510512371
-0.4838266367500026	-0.056681952872785366
-0.4837656015937526	-0.043769427185697256
-0.4837045664375026	-0.030815086395821756
-0.4836435312812526	-0.01783008701912923
-0.4835824961250026	-0.004826167362067879
-0.4835214609687526	0.008184410466731113
-0.4834604258125026	0.021189730242366832
-0.4833993906562526	0.034178779082692456
-0.4833383555000026	0.04714035018055596
-0.4832773203437526	0.060061884049907956
-0.4832162851875026	0.07293123806806757
-0.4831552500312526	0.08573769405764617
-0.4830942148750026	0.09846992356233762
-0.4830331797187526	0.11111595178844656
-0.4829721445625026	0.12366419246317391
-0.4829111094062526	0.13610352211958307
-0.4828500742500026	0.14842290848981318
-0.4827890390937526	0.16061091706153968
-0.4827280039375026	0.17265664540811562
-0.4826669687812526	0.18454933047353603
-0.4826059336250026	0.19627787750067963
-0.4825448984687526	0.20783192351794103
-0.4824838633125026	0.21920106855045027
-0.4824228281562526	0.23037465291136422
-0.4823617930000026	0.24134276765809662
-0.4823007578437526	0.2520957378747317
-0.4822397226875026	0.2626234668200734
-0.4821786875312526	0.2729160671840632
-0.4821176523750026	0.2829647056717501
-0.4820566172187526	0.2927605587488977
-0.4819955820625026	0.3022939502896288
-0.4819345469062526	0.31155620749113544
-0.4818735117500026	0.32053956556441787
-0.4818124765937526	0.32923546597249753
-0.4817514414375026	0.3376357608216305
-0.4816904062812526	0.3457331606780055
-0.4816293711250026	0.3535200968408902
-0.4815683359687526	0.3609893085864501
-0.4815073008125026	0.36813414432509434
-0.4814462656562526	0.37494804523189973
-0.4813852305000026	0.3814247346200312
-0.4813241953437526	0.3875582287459234
-0.4812631601875026	0.3933428458037311
-0.4812021250312526	0.3987733304394484
-0.4811410898750026	0.40384465849961476
-0.4810800547187526	0.40855215118750415
-0.4810190195625026	0.41289146995687653
-0.4809579844062526	0.41685845946546135
-0.4808969492500026	0.4204494661338522
-0.4808359140937526	0.4236612572718977
-0.4807748789375026	0.42649072347404193
-0.4807138437812526	0.4289351494136775
-0.4806528086250026	0.4309922820563319
-0.4805917734687526	0.4326601078006652
-0.4805307383125026	0.4339369753652632
-0.4804697031562526	0.43482169254244857
-0.4804086680000026	0.43531331467713846
-0.4803476328437526	0.43541119922840843
-0.4802865976875026	0.43511519343245525
-0.4802255625312526	0.4344255023430902
-0.4801645273750026	0.43334258544005044
-0.4801034922187526	0.43186725413887816
-0.4800424570625026	0.43000075437869467
-0.4799814219062526	0.42774468726078924
-0.4799203867500026	0.42510097835586275
-0.4798593515937526	0.42207192708275926
-0.4797983164375026	0.4186600912507325
-0.4797372812812526	0.41486835485692297
-0.4796762461250026	0.41070016275498383
-0.4796152109687526	0.40615935338951
-0.4795541758125026	0.40124976214286595
-0.4794931406562526	0.3959754324474422
-0.4794321055000026	0.3903412329452707
-0.4793710703437526	0.3843525208588686
-0.4793100351875026	0.3780143968318424
-0.4792490000312526	0.37133214297810374
-0.4791879648750026	0.36431187794244446
-0.4791269297187526	0.3569601637773986
-0.4790658945625026	0.34928348891696714
-0.4790048594062526	0.3412884659876936
-0.4789438242500026	0.3329822221329682
-0.4788827890937526	0.32437241603234834
-0.4788217539375026	0.315466809293983
-0.4787607187812526	0.3062731312867666
-0.4786996836250026	0.29679977567384097
-0.4786386484687526	0.2870554204670044
-0.4785776133125026	0.2770483479509077
-0.4785165781562526	0.26678771939494433
-0.4784555430000026	0.25628335772612104
-0.4783945078437526	0.24554420299153598
-0.4783334726875026	0.23457952973830654
-0.4782724375312526	0.22339982714809112
-0.4782114023750026	0.21201528113330995
-0.4781503672187526	0.2004356963453629
-0.4780893320625026	0.18867159183277465
-0.4780282969062526	0.17673384609906248
-0.4779672617500026	0.16463320664429953
-0.4779062265937526	0.15238051391245613
-0.4778451914375026	0.13998663317792737
-0.4777841562812526	0.127462851576248
-0.4777231211250026	0.1148210700645943
-0.4776620859687526	0.10207249631723424
-0.4776010508125026	0.08922793906455138
-0.4775400156562526	0.07629945426259045
-0.4774789805000026	0.06329933240706757
-0.4774179453437526	0.050239028789227584
-0.4773569101875026	0.03713017357763613
-0.4772958750312526	0.023984584355517976
-0.4772348398750026	0.010814213323901707
-0.4771738047187526	-0.002368463387870371
-0.4771127695625026	-0.015551472321339164
-0.4770517344062526	-0.028723435691510035
-0.4769906992500026	-0.04187245022895252
-0.4769296640937526	-0.054986111395005005
-0.4768686289375026	-0.06805220827432659
-0.4768075937812526	-0.08105906623218886
-0.4767465586250026	-0.09399521717468366
-0.4766855234687526	-0.1068488326265539
-0.4766244883125026	-0.11960795762192432
-0.4765634531562526	-0.13226079934597076
-0.4765024180000026	-0.14479568962211248
-0.4764413828437526	-0.15720165702039077
-0.4763803476875026	-0.16946772834672275
-0.4763193125312526	-0.18158190317192077
-0.4762582773750026	-0.1935328837313647
-0.4761972422187526	-0.2053105408956518
-0.4761362070625026	-0.21690403979950443
-0.4760751719062526	-0.22830228879698905
-0.4760141367500026	-0.23949496571630646
-0.4759531015937526	-0.2504719770908468
-0.4758920664375026	-0.26122334664272095
-0.4758310312812526	-0.27173908248062845
-0.4757699961250026	-0.2820092336670589
-0.4757089609687526	-0.29202461070892316
-0.4756479258125026	-0.30177633661203085
-0.4755868906562526	-0.3112553042604099
-0.4755258555000026	-0.3204523878659416
-0.4754648203437526	-0.3293589388045601
-0.4754037851875026	-0.3379674525854141
-0.4753427500312526	-0.3462702960173902
-0.4752817148750026	-0.3542588823805305
-0.4752206797187526	-0.3619256321132671
-0.4751596445625026	-0.3692642419768452
-0.4750986094062526	-0.3762680317546055
-0.4750375742500026	-0.38293004258334545
-0.4749765390937526	-0.38924394033992926
-0.4749155039375026	-0.3952040441145648
-0.4748544687812526	-0.4008050179929585
-0.4747934336250026	-0.40604159906265974
-0.4747323984687526	-0.41090868734716673
-0.4746713633125026	-0.41540168078014333
-0.4746103281562526	-0.41951651315718663
-0.4745492930000026	-0.42324942560530626
-0.4744882578437526	-0.4265967583245968
-0.4744272226875026	-0.4295552071650649
-0.4743661875312526	-0.4321220528165838
-0.4743051523750026	-0.4342949222117347
-0.4742441172187526	-0.4360716641731055
-0.4741830820625026	-0.43745042537640677
-0.4741220469062526	-0.4384298369468739
-0.4740610117500026	-0.43900899789381015
-0.4739999765937526	-0.439187211496665
-0.4739389414375026	-0.4389640850794314
-0.4738779062812526	-0.43833974368348766
-0.4738168711250026	-0.4373147047873777
-0.4737558359687526	-0.43588974677758613
-0.4736948008125026	-0.4340659744388432
-0.4736337656562526	-0.43184492707303235
-0.4735727305000026	-0.4292285784010524
-0.4735116953437526	-0.42621920308515954
-0.4734506601875026	-0.42281938640115424
-0.4733896250312526	-0.4190320802855377
-0.4733285898750026	-0.41486062330830864
-0.4732675547187526	-0.4103087597255935
-0.4732065195625026	-0.4053805152951278
-0.4731454844062526	-0.40008028528629597
-0.4730844492500026	-0.3944127655736176
-0.4730234140937526	-0.3883829481245005
-0.4729623789375026	-0.3819964196611271
-0.4729013437812526	-0.37525886363263344
-0.4728403086250026	-0.36817604553676014
-0.4727792734687526	-0.3607545872724287
-0.4727182383125026	-0.3530014454998831
-0.4726572031562526	-0.344923202106549
-0.4725961680000026	-0.33652690714630307
-0.4725351328437526	-0.327820601310033
-0.4724740976875026	-0.31881235250704
-0.4724130625312526	-0.309509938887449
-0.4723520273750026	-0.2999215764708236
-0.4722909922187526	-0.2900561292308132
-0.4722299570625026	-0.2799227811846496
-0.4721689219062526	-0.2695308047075585
-0.4721078867500026	-0.25888930673334415
-0.4720468515937526	-0.2480076969778672
-0.4719858164375026	-0.23689630104841378
-0.4719247812812526	-0.22556535217184373
-0.4718637461250026	-0.21402483830282157
-0.4718027109687526	-0.20228541693774274
-0.4717416758125026	-0.19035775849280503
-0.4716806406562526	-0.17825237920509976
-0.4716196055000026	-0.16598068663466511
-0.4715585703437526	-0.1535542730378069
-0.4714975351875026	-0.14098390174764272
-0.4714365000312526	-0.1282808064879325
-0.4713754648750026	-0.1154570439813696
-0.4713144297187526	-0.10252441916859967
-0.4712533945625026	-0.08949466724643489
-0.4711923594062526	-0.07637958393720357
-0.4711313242500026	-0.06319095141663433
-0.4710702890937526	-0.04994107366308964
-0.4710092539375026	-0.036642445407365436
-0.4709482187812526	-0.023306949082294207
-0.4708871836250026	-0.009946429457045613
-0.4708261484687526	0.003426551191871768
-0.4707651133125026	0.016799403162223954
-0.4707040781562526	0.03016019494016309
-0.4706430430000026	0.04349685968315184
-0.4705820078437526	0.05679674095087885
-0.4705209726875026	0.07004759325599064
-0.4704599375312526	0.08323770831498496
-0.4703989023750026	0.0963548942709548
-0.4703378672187526	0.10938648074154889
-0.4702768320625026	0.12232059345778937
-0.4702157969062526	0.13514604123341564
-0.4701547617500026	0.14785085331938824
-0.4700937265937526	0.1604226372361053
-0.4700326914375026	0.17284983414005453
-0.4699716562812526	0.1851216610839425
-0.4699106211250026	0.19722690963974376
-0.4698495859687526	0.20915367219337774
-0.4697885508125026	0.22089076396858062
-0.4697275156562526	0.23242809506654613
