Time	Frequency
-0.5000162118749998	0.3997825058709004
-0.4999551767187498	0.40338947121878305
-0.4998941415624998	0.4066376520686624
-0.4998331064062498	0.4095243267302321
-0.4997720712499998	0.4120468319376966
-0.4997110360937498	0.41420270656278924
-0.4996500009374998	0.41599001437319205
-0.4995889657812498	0.4174071674443571
-0.4995279306249998	0.418452797537503
-0.4994668954687498	0.4191258818459521
-0.4994058603124998	0.4194257994852404
-0.4993448251562498	0.4193522194230874
-0.4992837899999998	0.4189050455587809
-0.4992227548437498	0.41808458632324275
-0.4991617196874998	0.41689158519623154
-0.4991006845312498	0.41532703584800834
-0.4990396493749998	0.41339213182287177
-0.4989786142187498	0.4110884577138401
-0.4989175790624998	0.4084181060646706
-0.4988565439062498	0.4053834164353612
-0.4987955087499998	0.4019868593940765
-0.4987344735937498	0.39823130959970604
-0.4986734384374998	0.3941200837650135
-0.4986124032812498	0.38965680550971726
-0.4985513681249998	0.38484536880406905
-0.4984903329687498	0.3796898971917722
-0.4984292978124998	0.3741947106281831
-0.4983682626562498	0.36836462357090427
-0.4983072274999998	0.36220514139454973
-0.4982461923437498	0.35572155514260756
-0.4981851571874998	0.34891891593149593
-0.4981241220312498	0.3418034492148179
-0.4980630868749998	0.33438191937624445
-0.4980020517187498	0.32666047779507207
-0.4979410165624998	0.31864573643629407
-0.4978799814062498	0.310344899601855
-0.4978189462499998	0.3017650380175735
-0.4977579110937498	0.29291383318233566
-0.4976968759374998	0.2837995475939871
-0.4976358407812498	0.2744298605600272
-0.4975748056249998	0.2648123647275338
-0.4975137704687498	0.25495596974180484
-0.4974527353124998	0.24487006683345594
-0.4973917001562498	0.23456314500656242
-0.4973306649999998	0.22404366764404118
-0.4972696298437498	0.21332124986494014
-0.4972085946874998	0.2024058410639991
-0.4971475595312498	0.19130668180720803
-0.4970865243749998	0.1800334768611828
-0.4970254892187498	0.1685966784451476
-0.4969644540624998	0.15700600599460102
-0.4969034189062498	0.14527136159113926
-0.4968423837499998	0.13340382560417208
-0.4967813485937498	0.12141399918754256
-0.4967203134374998	0.10931185412106
-0.4966592782812498	0.09710828436783055
-0.4965982431249998	0.08481449681436168
-0.4965372079687498	0.07244109491345678
-0.4964761728124998	0.05999895731580974
-0.4964151376562498	0.047499434463224896
-0.4963541024999998	0.034953664973188685
-0.4962930673437498	0.022372392434468917
-0.4962320321874998	0.00976678163506624
-0.4961709970312498	-0.0028513478126040623
-0.4961099618749998	-0.015470994257150586
-0.4960489267187498	-0.0280814131157821
-0.4959878915624998	-0.04067101671603798
-0.4959268564062498	-0.05322852314241475
-0.4958658212499998	-0.06574289086415548
-0.4958047860937498	-0.07820265833930481
-0.4957437509374998	-0.09059685738379347
-0.4956827157812498	-0.10291512256130057
-0.4956216806249998	-0.11514597238826199
-0.4955606454687498	-0.12727743303669278
-0.4954996103124998	-0.1392995391974771
-0.4954385751562498	-0.15120268811700033
-0.4953775399999998	-0.16297518587798
-0.4953165048437498	-0.17460549983377516
-0.4952554696874998	-0.1860840829203292
-0.4951944345312498	-0.19740139549736946
-0.4951333993749998	-0.20854691717689616
-0.4950723642187498	-0.2195100833822999
-0.4950113290624998	-0.2302809819850967
-0.4949502939062498	-0.24085043888015722
-0.4948892587499998	-0.25120908234742345
-0.4948282235937498	-0.2613473620676393
-0.4947671884374998	-0.27125618029101056
-0.4947061532812498	-0.2809265115954302
-0.4946451181249998	-0.29034954874397084
-0.4945840829687498	-0.29951697171783154
-0.4945230478124998	-0.30842073244271634
-0.4944620126562498	-0.31705271414019326
-0.4944009774999998	-0.32540471045617053
-0.4943399423437498	-0.3334692341236027
-0.4942789071874998	-0.3412393615564594
-0.4942178720312498	-0.34870790937073315
-0.4941568368749998	-0.3558679931439183
-0.4940958017187498	-0.3627131925088703
-0.4940347665624998	-0.36923708296319546
-0.4939737314062498	-0.3754337884420857
-0.4939126962499998	-0.38129789986643475
-0.4938516610937498	-0.38682388201757373
-0.4937906259374998	-0.39200654245830435
-0.4937295907812498	-0.39684118277395986
-0.4936685556249998	-0.40132337266502427
-0.4936075204687498	-0.4054490750904977
-0.4935464853124998	-0.40921435385360855
-0.4934854501562498	-0.41261554708085163
-0.4934244149999998	-0.4156496925160132
-0.4933633798437498	-0.4183139144688052
-0.4933023446874998	-0.4206054606727527
-0.4932413095312498	-0.42252231350763225
-0.4931802743749998	-0.42406266432721623
-0.4931192392187498	-0.42522475155281075
-0.4930582040624998	-0.42600743107321004
-0.4929971689062498	-0.42640997160822514
-0.4929361337499998	-0.4264317627965228
-0.4928750985937498	-0.426072566849658
-0.4928140634374998	-0.4253325958367886
-0.4927530282812498	-0.42421232637534345
-0.4926919931249998	-0.42271252748077326
-0.4926309579687498	-0.4208344325919582
-0.4925699228124998	-0.41857961209529077
-0.4925088876562498	-0.41594977551447904
-0.4924478524999998	-0.4129470220935661
-0.4923868173437498	-0.4095740563598681
-0.4923257821874998	-0.4058337696412974
-0.4922647470312498	-0.4017291196198993
-0.4922037118749998	-0.3972635425054838
-0.4921426767187498	-0.39244101963670747
-0.4920816415624998	-0.38726583253501773
-0.4920206064062498	-0.38174227212875866
-0.4919595712499998	-0.3758748893699039
-0.4918985360937498	-0.36966889632694006
-0.4918375009374998	-0.36312991066420547
-0.4917764657812498	-0.3562635533174539
-0.4917154306249998	-0.3490755000110625
-0.4916543954687498	-0.34157202524505126
-0.4915933603124998	-0.3337599702303063
-0.4915323251562498	-0.3256461790091836
-0.4914712899999998	-0.31723747047411766
-0.4914102548437498	-0.3085410625264651
-0.4913492196874998	-0.29956501416451564
-0.4912881845312498	-0.2903173965662686
-0.4912271493749998	-0.28080551364225653
-0.4911661142187498	-0.27103774481484033
-0.4911050790624998	-0.261023743874301
-0.4910440439062498	-0.25077195068687713
-0.4909830087499998	-0.24029042947400825
-0.4909219735937498	-0.22958893610042153
-0.4908609384374998	-0.21867763132545937
-0.4907999032812498	-0.2075656758489331
-0.4907388681249998	-0.1962623669616549
-0.4906778329687498	-0.1847780649972924
-0.4906167978124998	-0.173123316523247
-0.4905557626562498	-0.16130812256050928
-0.4904947274999998	-0.14934258539894352
-0.4904336923437498	-0.13723763750812168
-0.4903726571874998	-0.1250042831057249
-0.4903116220312498	-0.11265305059231087
-0.4902505868749998	-0.10019469024353761
-0.4901895517187498	-0.08764049896960431
-0.4901285165624998	-0.07500182034769945
-0.4900674814062498	-0.062289651243236696
-0.4900064462499998	-0.049515138314008666
-0.4899454110937498	-0.03668988303080533
-0.4898843759374998	-0.023825331128511654
-0.4898233407812498	-0.010932708712649437
-0.4897623056249998	0.0019763841377211625
-0.4897012704687498	0.014890332641085099
-0.4896402353124998	0.02779787355780987
-0.4895792001562498	0.04068752938636462
-0.4895181649999998	0.053547508732516416
-0.4894571298437498	0.0663662133730362
-0.4893960946874998	0.07913259357197606
-0.4893350595312498	0.09183553936713366
-0.4892740243749998	0.10446329118185885
-0.4892129892187498	0.11700417371000364
-0.4891519540624998	0.1294470602153996
-0.4890909189062498	0.1417814188878235
-0.4890298837499998	0.15399660442079377
-0.4889688485937498	0.16608074806371922
-0.4889078134374998	0.1780224387830351
-0.4888467782812498	0.18981201506988618
-0.4887857431249998	0.2014393817963144
-0.4887247079687498	0.2128932954384357
-0.4886636728124998	0.22416328834024044
-0.4886026376562498	0.23523960737417365
-0.4885416024999998	0.24611219231466533
-0.4884805673437498	0.25677145040531546
-0.4884195321874998	0.26720800907830694
-0.4883584970312498	0.2774119147055058
-0.4882974618749998	0.28737381384707783
-0.4882364267187498	0.29708551032754404
-0.4881753915624998	0.3065382571745104
-0.4881143564062498	0.31572275728555305
-0.4880533212499998	0.3246309129997576
-0.4879922860937498	0.33325513547076074
-0.4879312509374998	0.34158755846082417
-0.4878702157812498	0.3496205015000807
-0.4878091806249998	0.3573463847357777
-0.4877481454687498	0.36475831195134456
-0.4876871103124998	0.37185020680202935
-0.4876260751562498	0.3786153843953841
-0.4875650399999998	0.38504694903178655
-0.4875040048437498	0.3911394812934929
-0.4874429696874998	0.39688800178923433
-0.4873819345312498	0.4022868377361704
-0.4873208993749998	0.40733078050179305
-0.4872598642187498	0.4120154215414081
-0.4871988290624998	0.41633656314466244
-0.4871377939062498	0.4202902890742315
-0.4870767587499998	0.4238729077847939
-0.4870157235937498	0.42708088393683274
-0.4869546884374998	0.4299112882912255
-0.4868936532812498	0.43236174459505133
-0.4868326181249998	0.43442990964153677
-0.4867715829687498	0.436113606029007
-0.4867105478124998	0.43741121612106476
-0.4866495126562498	0.4383216246194478
-0.4865884774999998	0.4388439466849494
-0.4865274423437498	0.4389775025287563
-0.4864664071874998	0.43872203036346485
-0.4864053720312498	0.4380776935768301
-0.4863443368749998	0.43704497756387817
-0.4862833017187498	0.4356247114579747
-0.4862222665624998	0.43381806067917494
-0.4861612314062498	0.431626512247771
-0.4861001962499998	0.4290519039550592
-0.4860391610937498	0.4260964816020856
-0.4859781259374998	0.4227628112684275
-0.4859170907812498	0.4190537004629471
-0.4858560556249998	0.4149724625178107
-0.4857950204687498	0.4105227110808267
-0.4857339853124998	0.40570811871352563
-0.4856729501562498	0.4005329693881207
-0.4856119149999998	0.39500201462447776
-0.4855508798437498	0.3891200743340798
-0.4854898446874998	0.3828921782135048
-0.4854288095312498	0.37632373574235056
-0.4853677743749998	0.36942078733736955
-0.4853067392187498	0.3621895355244559
-0.4852457040624998	0.3546361579711582
-0.4851846689062498	0.346767299601202
-0.4851236337499998	0.33859006759767796
-0.4850625985937498	0.3301118693011254
-0.4850015634374998	0.321340124746115
-0.4849405282812498	0.31228237392339453
-0.4848794931249998	0.3029468989202941
-0.4848184579687498	0.2933423982916182
-0.4847574228124998	0.28347706191589767
-0.4846963876562498	0.2733592479529621
-0.4846353524999998	0.2629984745831299
-0.4845743173437498	0.2524044007360754
-0.4845132821874998	0.24158603347959356
-0.4844522470312498	0.23055275820182633
-0.4843912118749998	0.2193147167430957
-0.4843301767187498	0.2078821172788816
-0.4842691415624998	0.1962652134913425
-0.4842081064062498	0.1844741675397327
-0.4841470712499998	0.17251942263548942
-0.4840860360937498	0.1604122656418544
-0.4840250009374998	0.148163378826786
-0.4839639657812498	0.13578293697666774
-0.4839029306249998	0.12328266109641166
-0.4838418954687498	0.11067453583317671
-0.4837808603124998	0.09796915610134548
-0.4837198251562498	0.08517739353064024
-0.4836587899999998	0.07231115340778062
-0.4835977548437498	0.05938243258068052
-0.4835367196874998	0.04640289604158576
-0.4834756845312498	0.03338377851857253
-0.4834146493749998	0.02033659262402286
-0.4833536142187498	0.007273452189159676
-0.4832925790624998	-0.005793763880518046
-0.4832315439062498	-0.018853337077799577
-0.4831705087499998	-0.0318935788302534
-0.4831094735937498	-0.04490292060399855
-0.4830484384374998	-0.05786947359665331
-0.4829874032812498	-0.07078127150703237
-0.4829263681249998	-0.08362691253123561
-0.4828653329687498	-0.09639506808617514
-0.4828042978124998	-0.10907372487638012
-0.4827432626562498	-0.12165133067329635
-0.4826822274999998	-0.1341170693467618
-0.4826211923437498	-0.14645957980824362
-0.4825601571874998	-0.1586673470733709
-0.4824991220312498	-0.17072936344153436
-0.4824380868749998	-0.1826347400140472
-0.4823770517187498	-0.19437286330607648
-0.4823160165624998	-0.20593338676796757
-0.4822549814062498	-0.21730533811084307
-0.4821939462499998	-0.22847803777310655
-0.4821329110937498	-0.2394420275512334
-0.4820718759374998	-0.25018753201317
-0.4820108407812498	-0.2607043118012688
-0.4819498056249998	-0.2709827907735173
-0.4818887704687498	-0.2810137187036644
-0.4818277353124998	-0.2907880689459611
-0.4817667001562498	-0.3002970896110771
-0.4817056649999998	-0.30953189877977305
-0.4816446298437498	-0.3184840186506347
-0.4815835946874998	-0.3271454570698771
-0.4815225595312498	-0.33550825090851544
-0.4814615243749998	-0.3435648095984081
-0.4814004892187498	-0.35130785595770697
-0.4813394540624998	-0.35873020851160387
-0.4812784189062498	-0.3658250342183911
-0.4812173837499998	-0.37258581940003227
-0.4811563485937498	-0.3790064987076926
-0.4810953134374998	-0.38508136810029814
-0.4810342782812498	-0.39080460222452956
-0.4809732431249998	-0.39617074270740466
-0.4809122079687498	-0.4011751234225073
-0.4808511728124998	-0.40581329613312095
-0.4807901376562498	-0.41008079211909043
-0.4807291024999998	-0.41397354424209143
-0.4806680673437498	-0.4174880703063098
-0.4806070321874998	-0.4206211801399795
-0.4805459970312498	-0.4233698858333644
-0.4804849618749998	-0.4257315824217978
-0.4804239267187498	-0.4277040850032203
-0.4803628915624998	-0.4292855448701597
-0.4803018564062498	-0.4304744254049446
-0.4802408212499998	-0.43126954631936276
-0.4801797860937498	-0.43167011141513334
-0.4801187509374998	-0.4316757255891991
-0.4800577157812498	-0.43128630590846434
-0.4799966806249998	-0.4305020487913303
-0.4799356454687498	-0.4293235775279159
-0.4798746103124998	-0.42775196536654286
-0.4798135751562498	-0.42578859095264937
-0.4797525399999998	-0.42343507840399436
-0.4796915048437498	-0.42069342882264626
-0.4796304696874998	-0.417566110518312
-0.4795694345312498	-0.4140559856004281
-0.4795083993749998	-0.4101660980535977
-0.4794473642187498	-0.40589980962906663
-0.4793863290624998	-0.4012610739706148
-0.4793252939062498	-0.3962539483228083
-0.4792642587499998	-0.3908827686349522
-0.4792032235937498	-0.38515267292758715
-0.4791421884374998	-0.379068800264247
-0.4790811532812498	-0.3726361847450368
-0.4790201181249998	-0.36586070712262037
-0.4789590829687498	-0.358748916766935
-0.4788980478124998	-0.35130705524855305
-0.4788370126562498	-0.34354134809472536
-0.4787759774999998	-0.3354591243887714
-0.4787149423437498	-0.32706816565949
-0.4786539071874998	-0.31837540648899476
-0.4785928720312498	-0.3093883429764733
-0.4785318368749998	-0.30011603448903035
-0.4784708017187498	-0.2905669631432572
-0.4784097665624998	-0.2807489595276576
-0.4783487314062498	-0.2706708802758571
-0.4782876962499998	-0.260342200738167
-0.4782266610937498	-0.24977268015697962
-0.4781656259374998	-0.2389720201383644
-0.4781045907812498	-0.22794906541453813
-0.4780435556249998	-0.216713540752486
-0.4779825204687498	-0.20527700393002044
-0.4779214853124998	-0.19364999918160583
-0.4778604501562498	-0.1818418846496525
-0.4777994149999998	-0.16986332016612765
-0.4777383798437498	-0.15772590956666688
-0.4776773446874998	-0.14544092478809528
-0.4776163095312498	-0.13301938383279377
-0.4775552743749998	-0.1204722239472538
-0.4774942392187498	-0.10781057071837942
-0.4774332040624998	-0.0950465042496483
-0.4773721689062498	-0.08219224644842599
-0.4773111337499998	-0.06925886310858893
-0.4772500985937498	-0.05625764532233914
-0.4771890634374998	-0.04320115697118612
-0.4771280282812498	-0.03010153559553432
-0.4770669931249998	-0.01697015503430932
-0.4770059579687498	-0.0038191831475008872
-0.4769449228124998	0.009339001263147134
-0.4768838876562498	0.02249264342316274
-0.4768228524999998	0.03562977699270824
-0.4767618173437498	0.0487383563458496
-0.4767007821874998	0.0618062800076519
-0.4766397470312498	0.07482126546353092
-0.4765787118749998	0.0877717426356835
-0.4765176767187498	0.10064605991760982
-0.4764566415624998	0.11343201745860695
-0.4763956064062498	0.12611792329184404
-0.4763345712499998	0.13869206489533753
-0.4762735360937498	0.15114288268381848
-0.4762125009374998	0.16345935033696735
-0.4761514657812498	0.1756298907954627
-0.4760904306249998	0.18764293783748873
-0.4760293954687498	0.1994876448091683
-0.4759683603124998	0.21115338429276106
-0.4759073251562498	0.22262932456539777
-0.4758462899999998	0.23390450321265507
-0.4757852548437498	0.24496871942223583
-0.4757242196874998	0.2558120721786948
-0.4756631845312498	0.26642411688083134
-0.4756021493749998	0.27679497768999495
-0.4755411142187498	0.28691547840555054
-0.4754800790624998	0.2967761429550947
-0.4754190439062498	0.3063676207296552
-0.4753580087499998	0.3156810330815411
-0.4752969735937498	0.3247077264739868
-0.4752359384374998	0.3334395227584666
-0.4751749032812498	0.34186841902654413
-0.4751138681249998	0.34998617499853923
-0.4750528329687498	0.35778509277875714
-0.4749917978124998	0.36525836531930556
-0.4749307626562498	0.37239905659531947
-0.4748697274999998	0.3792000325930756
-0.4748086923437498	0.3856550515692924
-0.4747476571874998	0.39175839600769874
-0.4746866220312498	0.39750398880142473
-0.4746255868749998	0.4028862313142424
-0.4745645517187498	0.40790051246217063
-0.4745035165624998	0.41254210855466095
-0.4744424814062498	0.4168061193921405
-0.4743814462499998	0.4206885629132369
-0.4743204110937498	0.42418607786056883
-0.4742593759374998	0.42729518199256944
-0.4741983407812498	0.43001269642783707
-0.4741373056249998	0.43233601788679726
-0.4740762704687498	0.4342628718614142
-0.4740152353124998	0.4357913198488554
-0.4739542001562498	0.4369198330776393
-0.4738931649999998	0.4376471951969624
-0.4738321298437498	0.43797251005019894
-0.4737710946874998	0.43789530862369375
-0.4737100595312498	0.43741550583421424
-0.4736490243749998	0.43653339887258635
-0.4735879892187498	0.43524965485875183
-0.4735269540624998	0.43356522834451927
-0.4734659189062498	0.4314814118986832
-0.4734048837499998	0.42899995506706273
-0.4733438485937498	0.42612310890719274
-0.4732828134374998	0.4228534012329083
-0.4732217782812498	0.4191934227311807
-0.4731607431249998	0.4151462473983654
-0.4730997079687498	0.41071570410968494
-0.4730386728124998	0.40590580789506475
-0.4729776376562498	0.4007205971118254
-0.4729166024999998	0.3951645003108059
-0.4728555673437498	0.38924253358538724
-0.4727945321874998	0.38296020759447097
-0.4727334970312498	0.37632312956265823
-0.4726724618749998	0.3693370165507035
-0.4726114267187498	0.36200798057740946
-0.4725503915624998	0.3543427737445207
-0.4724893564062498	0.34634860420489294
-0.4724283212499998	0.3380324430138296
-0.4723672860937498	0.32940139129906654
-0.4723062509374998	0.3204635033227227
-0.4722452157812498	0.3112271303008855
-0.4721841806249998	0.3017003591380994
-0.4721231454687498	0.2918917518727407
-0.4720621103124998	0.2818102659152369
-0.4720010751562498	0.2714649107650076
-0.4719400399999998	0.260865229521289
-0.4718790048437498	0.25002098121454824
-0.4718179696874998	0.23894164930408762
-0.4717569345312498	0.2276372428529936
-0.4716958993749998	0.21611855606805155
-0.4716348642187498	0.20439583644260637
-0.4715738290624998	0.19247933566033792
-0.4715127939062498	0.18038040749479622
-0.4714517587499998	0.16811002670431444
-0.4713907235937498	0.15567910926462883
-0.4713296884374998	0.14309933765803623
-0.4712686532812498	0.1303819263010579
-0.4712076181249998	0.11753835379041361
-0.4711465829687498	0.10458082669716214
-0.4710855478124998	0.09152109003095622
-0.4710245126562498	0.07837069880883041
-0.4709634774999998	0.06514176403947577
-0.4709024423437498	0.05184678505852104
-0.4708414071874998	0.038497870668309994
-0.4707803720312498	0.025106813552217416
-0.4707193368749998	0.01168605302252579
-0.4706583017187498	-0.0017516708818287705
-0.4705972665624998	-0.01519430435947037
-0.4705362314062498	-0.028629937481469078
-0.4704751962499998	-0.042045855190111836
-0.4704141610937498	-0.055429306674722345
-0.4703531259374998	-0.06876838823147438
-0.4702920907812498	-0.08205125804415289
-0.4702310556249998	-0.09526541249712968
-0.4701700204687498	-0.1083981793722167
-0.4701089853124998	-0.12143770122392916
-0.4700479501562498	-0.13437248491029663
-0.4699869149999998	-0.14719035275688108
-0.4699258798437498	-0.15987912204782706
-0.4698648446874998	-0.17242719325690978
-0.4698038095312498	-0.1848234570756259
-0.4697427743749998	-0.1970563600701419
-0.4696817392187498	-0.20911382901730644
-0.4696207040624998	-0.22098525587908288
