Time	Frequency
-0.5000259584062547	0.43308868882934465
-0.49996492325000474	0.4196402646679696
-0.49990388809375474	0.4055013799189319
-0.49984285293750474	0.39069547147954664
-0.49978181778125474	0.3752472396434826
-0.49972078262500474	0.3591817850811504
-0.49965974746875474	0.3425251788996397
-0.49959871231250474	0.32530563231771764
-0.49953767715625474	0.30755228138096014
-0.49947664200000474	0.2892939849879892
-0.49941560684375474	0.2705602374602614
-0.49935457168750474	0.25138221237919794
-0.49929353653125474	0.2317923844677922
-0.49923250137500474	0.2118233057591356
-0.49917146621875474	0.19150745426915725
-0.49911043106250474	0.1708784180795804
-0.49904939590625474	0.14997077017162813
-0.49898836075000474	0.1288190043585646
-0.49892732559375474	0.10745810358785979
-0.49886629043750474	0.08592381934793128
-0.49880525528125474	0.06425167474242474
-0.49874422012500474	0.04247736752381579
-0.49868318496875474	0.020637417486994193
-0.49862214981250474	-0.001231831955360429
-0.49856111465625474	-0.02309447832461644
-0.49850007950000474	-0.04491422870051187
-0.49843904434375474	-0.06665451005437344
-0.49837800918750474	-0.0882790916387643
-0.49831697403125474	-0.10975224665629872
-0.49825593887500474	-0.13103846505324002
-0.49819490371875474	-0.15210224663684366
-0.49813386856250474	-0.1729084391805706
-0.49807283340625474	-0.1934223083031413
-0.49801179825000474	-0.21360958652034345
-0.49795076309375474	-0.2334371551286036
-0.49788972793750474	-0.2528721808158729
-0.49782869278125474	-0.2718815034969385
-0.49776765762500474	-0.2904335136633687
-0.49770662246875474	-0.30849780540811156
-0.49764558731250474	-0.32604389984802135
-0.49758455215625474	-0.3430425511567105
-0.49752351700000474	-0.3594657643455401
-0.49746248184375474	-0.37528573049531483
-0.49740144668750474	-0.3904756863955811
-0.49734041153125474	-0.4050106346139287
-0.49727937637500474	-0.4188664785217181
-0.49721834121875474	-0.43201976295164185
-0.49715730606250474	-0.44444834993696025
-0.49709627090625474	-0.45613152369139914
-0.49703523575000474	-0.46704973031488023
-0.49697420059375474	-0.4771845408020669
-0.49691316543750474	-0.48651892215812687
-0.49685213028125474	-0.4950372357450283
-0.49679109512500474	-0.5027250526909333
-0.49673005996875474	-0.5095694215548795
-0.49666902481250474	-0.5155587784408957
-0.49660798965625474	-0.5206828393860805
-0.49654695450000474	-0.524932986378668
-0.49648591934375474	-0.5283020106733541
-0.49642488418750474	-0.5307839257463746
-0.49636384903125474	-0.5323744346411193
-0.49630281387500474	-0.5330708018577968
-0.49624177871875474	-0.5328715846883357
-0.49618074356250474	-0.5317768221192061
-0.49611970840625474	-0.5297881806501464
-0.49605867325000474	-0.5269088712795871
-0.49599763809375474	-0.5231434286025917
-0.49593660293750474	-0.5184978431971262
-0.49587556778125474	-0.5129796509991973
-0.49581453262500474	-0.5065978344447549
-0.49575349746875474	-0.499362929718352
-0.49569246231250474	-0.49128683812677976
-0.49563142715625474	-0.4823827056666937
-0.49557039200000474	-0.47266513445154756
-0.49550935684375474	-0.46215009435944476
-0.49544832168750474	-0.45085501070984446
-0.49538728653125474	-0.4387988079032081
-0.49532625137500474	-0.42600125848348985
-0.49526521621875474	-0.41248313003803005
-0.49520418106250474	-0.3982669436839671
-0.49514314590625474	-0.38337665425656803
-0.49508211075000474	-0.36783700921317475
-0.49502107559375474	-0.3516734104975239
-0.49496004043750474	-0.33491231318514164
-0.49489900528125474	-0.317581880372399
-0.49483797012500474	-0.2997116002177899
-0.49477693496875474	-0.28133097828640563
-0.49471589981250474	-0.26246970949582693
-0.49465486465625474	-0.24315921123621417
-0.49459382950000474	-0.2234323820222264
-0.49453279434375474	-0.20332231810596887
-0.49447175918750474	-0.1828620505190765
-0.49441072403125474	-0.16208529729140012
-0.49434968887500474	-0.1410270488691844
-0.49428865371875474	-0.11972251440197583
-0.49422761856250474	-0.0982071799546171
-0.49416658340625474	-0.07651729151225146
-0.49410554825000474	-0.054688773066389106
-0.49404451309375474	-0.032757821816889944
-0.49398347793750474	-0.010761511683035182
-0.49392244278125474	0.011263227565195565
-0.49386140762500474	0.03327988309703401
-0.49380037246875474	0.05525165589418847
-0.49373933731250474	0.07714131556669511
-0.49367830215625474	0.09891234882212954
-0.49361726700000474	0.12052868112028983
-0.49355623184375474	0.1419536415054093
-0.49349519668750474	0.16315102522777022
-0.49343416153125474	0.18408564965139376
-0.49337312637500474	0.20472256513137546
-0.49331209121875474	0.225026714014353
-0.49325105606250474	0.2449636559040347
-0.49319002090625474	0.26450027404802845
-0.49312898575000474	0.2836038823087
-0.49306795059375474	0.302242003159603
-0.49300691543750474	0.32038303983783273
-0.49294588028125474	0.337996429351741
-0.49288484512500474	0.3550527340770038
-0.49282380996875474	0.3715230010188143
-0.49276277481250474	0.38737915222525704
-0.49270173965625474	0.4025946782079825
-0.49264070450000474	0.4171436851598137
-0.49257966934375474	0.4310011900625932
-0.49251863418750474	0.4441438828166258
-0.49245759903125474	0.45654949775949605
-0.49239656387500474	0.46819677685169114
-0.49233552871875474	0.47906592727451475
-0.49227449356250474	0.4891382764321912
-0.49221345840625474	0.4983963900399141
-0.49215242325000474	0.5068246318143445
-0.49209138809375474	0.5144084969313157
-0.49203035293750474	0.5211345105099372
-0.49196931778125474	0.5269911038109717
-0.49190828262500474	0.5319682523520594
-0.49184724746875474	0.5360570224542495
-0.49178621231250474	0.539249987649733
-0.49172517715625474	0.5415413754659418
-0.49166414200000474	0.5429269199844388
-0.49160310684375474	0.5434038277093463
-0.49154207168750474	0.5429707998688996
-0.49148103653125474	0.5416280453927256
-0.49142000137500474	0.5393773245792444
-0.49135896621875474	0.536221936007838
-0.49129793106250474	0.5321666645115397
-0.49123689590625474	0.5272178296409141
-0.49117586075000474	0.5213831715956102
-0.49111482559375474	0.5146719110243575
-0.49105379043750474	0.5070949498016883
-0.49099275528125474	0.4986645256055193
-0.49093172012500474	0.4893941234123272
-0.49087068496875474	0.4792987541251848
-0.49080964981250474	0.4683948537233962
-0.49074861465625474	0.4567003257531413
-0.49068757950000474	0.4442345805813053
-0.49062654434375474	0.43101778483070896
-0.49056550918750474	0.4170710126144726
-0.49050447403125474	0.40241771050612607
-0.49044343887500474	0.38708272598900456
-0.49038240371875474	0.3710905794996825
-0.49032136856250474	0.354467142436698
-0.49026033340625474	0.337240562831855
-0.49019929825000474	0.3194395157887865
-0.49013826309375474	0.30109306526392693
-0.49007722793750474	0.2822315023968844
-0.49001619278125474	0.26288618335576996
-0.48995515762500474	0.24308927074244174
-0.48989412246875474	0.22287359422066463
-0.48983308731250474	0.20227272578402636
-0.48977205215625474	0.1813208835536501
-0.48971101700000474	0.160052743677113
-0.48964998184375474	0.13850376488904206
-0.48958894668750474	0.11671007714104463
-0.48952791153125474	0.09470769642918388
-0.48946687637500474	0.07253311422028484
-0.48940584121875474	0.05022383044235048
-0.48934480606250474	0.027816812353594622
-0.48928377090625474	0.00534892816633185
-0.48922273575000474	-0.01714176734957742
-0.48916170059375474	-0.039617376685961665
-0.48910066543750474	-0.06204076458163891
-0.48903963028125474	-0.08437471974460911
-0.48897859512500474	-0.10658170227658806
-0.48891755996875474	-0.12862427306461477
-0.48885652481250474	-0.15046547983087935
-0.48879548965625474	-0.17206896631834231
-0.48873445450000474	-0.19339872927078627
-0.48867341934375474	-0.2144186809543109
-0.48861238418750474	-0.2350933925073592
-0.48855134903125474	-0.2553885735441934
-0.48849031387500474	-0.27527009217477727
-0.48842927871875474	-0.2947041905871926
-0.48836824356250474	-0.3136583739705002
-0.48830720840625474	-0.33210086251211085
-0.48824617325000474	-0.35000041161826534
-0.48818513809375474	-0.36732704352826806
-0.48812410293750474	-0.38405165239159417
-0.48806306778125474	-0.40014565480616004
-0.48800203262500474	-0.41558191235840847
-0.48794099746875474	-0.4303346483906555
-0.48787996231250474	-0.44437884114617365
-0.48781892715625474	-0.4576906744995596
-0.48775789200000474	-0.47024751650394137
-0.48769685684375474	-0.4820278294491772
-0.48763582168750474	-0.4930119012100838
-0.48757478653125474	-0.5031813927055351
-0.48751375137500474	-0.5125185322548218
-0.48745271621875474	-0.521007079246529
-0.48739168106250474	-0.5286328609171349
-0.48733064590625474	-0.5353829889352566
-0.48726961075000474	-0.541245660332837
-0.48720857559375474	-0.5462105603258135
-0.48714754043750474	-0.5502690929720413
-0.48708650528125474	-0.5534142532725751
-0.48702547012500474	-0.5556404037463547
-0.48696443496875474	-0.5569434128911547
-0.48690339981250474	-0.5573207949020905
-0.48684236465625474	-0.5567715703127594
-0.48678132950000474	-0.5552962998028869
-0.48672029434375474	-0.5528971629115704
-0.48665925918750474	-0.5495778154414709
-0.48659822403125474	-0.545343456786866
-0.48653718887500474	-0.5402009399095405
-0.48647615371875474	-0.5341585107649679
-0.48641511856250474	-0.5272258530616434
-0.48635408340625474	-0.5194143835262724
-0.48629304825000474	-0.5107369793796168
-0.48623201309375474	-0.5012077655177094
-0.48617097793750474	-0.49084235376436186
-0.48610994278125474	-0.47965784383046295
-0.48604890762500474	-0.4676727440794637
-0.48598787246875474	-0.45490697897774235
-0.48592683731250474	-0.4413815488590657
-0.48586580215625474	-0.42711874575973274
-0.48580476700000474	-0.4121424771264785
-0.48574373184375474	-0.3964774589246445
-0.48568269668750474	-0.38014961364983396
-0.48562166153125474	-0.36318650023025645
-0.48556062637500474	-0.3456161531325284
-0.48549959121875474	-0.32746751604881474
-0.48543855606250474	-0.3087710217673967
-0.48537752090625474	-0.28955796514088883
-0.48531648575000474	-0.26986046140637876
-0.48525545059375474	-0.24971147498670698
-0.48519441543750474	-0.22914437562515974
-0.48513338028125474	-0.20819314248740242
-0.48507234512500474	-0.1868933367136187
-0.48501130996875474	-0.1652809776922424
-0.48495027481250474	-0.14339163242598518
-0.48488923965625474	-0.12126191772577802
-0.48482820450000474	-0.0989289751431244
-0.48476716934375474	-0.0764300392212541
-0.48470613418750474	-0.05380329794181087
-0.48464509903125474	-0.03108669633457835
-0.48458406387500474	-0.008317758809109848
-0.48452302871875474	0.014465306156708584
-0.48446199356250474	0.0372238920685941
-0.48440095840625474	0.05991967934049431
-0.48433992325000474	0.08251488404016533
-0.48427888809375474	0.10497165140871738
-0.48421785293750474	0.12725189969949532
-0.48415681778125474	0.14931831468761045
-0.48409578262500474	0.171134167934675
-0.48403474746875474	0.19266237507828068
-0.48397371231250474	0.21386637643256695
-0.48391267715625474	0.2347111324607926
-0.48385164200000474	0.2551617513188565
-0.48379060684375474	0.2751831420912855
-0.48372957168750474	0.29474156407388324
-0.48366853653125474	0.31380446529625994
-0.48360750137500474	0.3323397482610988
-0.48354646621875474	0.3503160196625512
-0.48348543106250474	0.3677029555098254
-0.48342439590625474	0.38447120004532903
-0.48336336075000474	0.4005923514482738
-0.48330232559375474	0.41603938112311156
-0.48324129043750474	0.43078629249150946
-0.48318025528125474	0.44480806268329703
-0.48311922012500474	0.45808095260887793
-0.48305818496875474	0.4705823831081988
-0.48299714981250474	0.4822914244876354
-0.48293611465625474	0.4931884692223994
-0.48287507950000474	0.5032547013500178
-0.48281404434375474	0.5124730323939553
-0.48275300918750474	0.520828085442473
-0.48269197403125474	0.528305590410026
-0.48263093887500474	0.5348928686512163
-0.48256990371875474	0.5405788572100816
-0.48250886856250474	0.545353682517804
-0.48244783340625474	0.5492090932059462
-0.48238679825000474	0.5521387352014223
-0.48232576309375474	0.5541376483864575
-0.48226472793750474	0.5552022352292201
-0.48220369278125474	0.5553306121560199
-0.48214265762500474	0.5545225091574237
-0.48208162246875474	0.5527791828569284
-0.48202058731250474	0.5501035544729548
-0.48195955215625474	0.5465001311193961
-0.48189851700000474	0.5419749003761072
-0.48183748184375474	0.5365353397039102
-0.48177644668750474	0.5301905374346599
-0.48171541153125474	0.5229513534039454
-0.48165437637500474	0.5148300349224698
-0.48159334121875474	0.5058400021814929
-0.48153230606250474	0.49599638739946594
-0.48147127090625474	0.4853159770004463
-0.48141023575000474	0.47381678176817865
-0.48134920059375474	0.4615181658197784
-0.48128816543750474	0.44844087776946134
-0.48122713028125474	0.43460697294242023
-0.48116609512500474	0.4200399334856182
-0.48110505996875474	0.4047644223070723
-0.48104402481250474	0.3888060594904576
-0.48098298965625474	0.37219197846720903
-0.48092195450000474	0.354950591851001
-0.48086091934375474	0.33711078325496285
-0.48079988418750474	0.3187025328203739
-0.48073884903125474	0.2997573540800995
-0.48067781387500474	0.2803075310262577
-0.48061677871875474	0.2603857544784125
-0.48055574356250474	0.2400257482182596
-0.48049470840625474	0.21926232835785833
-0.48043367325000474	0.19813056146646685
-0.48037263809375474	0.17666608656579433
-0.48031160293750474	0.15490563740907812
-0.48025056778125474	0.1328863448752791
-0.48018953262500474	0.11064523819741388
-0.48012849746875474	0.08822003756033274
-0.48006746231250474	0.06564934853688309
-0.48000642715625474	0.04297121597796565
-0.47994539200000474	0.020223774612409276
-0.47988435684375474	-0.002553568571214282
-0.47982332168750474	-0.025321877051310854
-0.47976228653125474	-0.048043150297956
-0.47970125137500474	-0.07067883231108237
-0.47964021621875474	-0.0931898569977393
-0.47957918106250474	-0.11553764705177418
-0.47951814590625474	-0.13768431050579388
-0.47945711075000474	-0.15959238579677093
-0.47939607559375474	-0.18122480004389602
-0.47933504043750474	-0.20254445042640984
-0.47927400528125474	-0.22351427875290086
-0.47921297012500474	-0.2440986301420101
-0.47915193496875474	-0.26426317232715124
-0.47909089981250474	-0.2839733386002659
-0.47902986465625474	-0.303194905064522
-0.47896882950000474	-0.32189519394120547
-0.47890779434375474	-0.3400424609387886
-0.47884675918750474	-0.3576054455917592
-0.47878572403125474	-0.37455401702159485
-0.47872468887500474	-0.39085952751127023
-0.47866365371875474	-0.40649400130008945
-0.47860261856250474	-0.4214302389554955
-0.47854158340625474	-0.4356428674995586
-0.47848054825000474	-0.4491077107861914
-0.47841951309375474	-0.4618013064553092
-0.47835847793750474	-0.4737019007891344
-0.47829744278125474	-0.484789385120997
-0.47823640762500474	-0.4950444725717802
-0.47817537246875474	-0.504449211910095
-0.47811433731250474	-0.5129875291399576
-0.47805330215625474	-0.5206448881403047
-0.47799226700000474	-0.5274080271031217
-0.47793123184375474	-0.5332650075593449
-0.47787019668750474	-0.5382056273115324
-0.47780916153125474	-0.5422213875901337
-0.47774812637500474	-0.5453052083811278
-0.47768709121875474	-0.5474516260238792
-0.47762605606250474	-0.548656796566663
-0.47756502090625474	-0.5489184179407823
-0.47750398575000474	-0.5482358288285794
-0.47744295059375474	-0.5466100094004919
-0.47738191543750474	-0.5440435410249532
-0.47732088028125474	-0.5405406335920203
-0.47725984512500474	-0.5361071116980516
-0.47719880996875474	-0.5307503070630891
-0.47713777481250474	-0.524479037161551
-0.47707673965625474	-0.5173038322611185
-0.47701570450000474	-0.5092370815356286
-0.47695466934375474	-0.5002924056712597
-0.47689363418750474	-0.49048445254271295
-0.47683259903125474	-0.479829805374626
-0.47677156387500474	-0.4683469507430376
-0.47671052871875474	-0.45605534998739894
-0.47664949356250474	-0.4429755191326969
-0.47658845840625474	-0.42912972432529684
-0.47652742325000474	-0.4145416983275924
-0.47646638809375474	-0.3992361029503423
-0.47640535293750474	-0.383238877013313
-0.47634431778125474	-0.3665774417319073
-0.47628328262500474	-0.3492803029539283
-0.47622224746875474	-0.3313767395779365
-0.47616121231250474	-0.31289719624775486
-0.47610017715625474	-0.2938734143656432
-0.47603914200000474	-0.2743377618096001
-0.47597810684375474	-0.25432342881369263
-0.47591707168750474	-0.23386490097627907
-0.47585603653125474	-0.21299736212261478
-0.47579500137500474	-0.191756109553099
-0.47573396621875474	-0.170177276312345
-0.47567293106250474	-0.14829812787247182
-0.47561189590625474	-0.12615605037749913
-0.47555086075000474	-0.10378905940132326
-0.47548982559375474	-0.08123579047404239
-0.47542879043750474	-0.05853431517579915
-0.47536775528125474	-0.03572338590648932
-0.47530672012500474	-0.012842709351429794
-0.47524568496875474	0.010068392942693821
-0.47518464981250474	0.032970721431290075
-0.47512361465625474	0.055825160116373514
-0.47506257950000474	0.07859248030851693
-0.47500154434375474	0.1012331384210205
-0.47494050918750474	0.12370837483370567
-0.47487947403125474	0.1459797424163151
-0.47481843887500474	0.16800840548115056
-0.47475740371875474	0.18975654429042807
-0.47469636856250474	0.21118728476433254
-0.47463533340625474	0.2322633272627497
-0.47457429825000474	0.25294785092740624
-0.47451326309375474	0.2732054013137272
-0.47445222793750474	0.2930011269599391
-0.47439119278125474	0.3123009088221333
-0.47433015762500474	0.33107146224014067
-0.47426912246875474	0.34928002699194716
-0.47420808731250474	0.36689484228237884
-0.47414705215625474	0.3838855000106805
-0.47408601700000474	0.4002229157866189
-0.47402498184375474	0.4158787825698521
-0.47396394668750474	0.43082544426298075
-0.47390291153125474	0.44503673514653386
-0.47384187637500474	0.4584883081910135
-0.47378084121875474	0.4711568587147309
-0.47371980606250474	0.4830198346884809
-0.47365877090625474	0.494056476957248
-0.47359773575000474	0.5042477712576873
-0.47353670059375474	0.5135756949708864
-0.47347566543750474	0.5220236594306551
-0.47341463028125474	0.5295767473841982
-0.47335359512500474	0.536221609274864
-0.47329255996875474	0.5419464943521872
-0.47323152481250474	0.5467410670431359
-0.47317048965625474	0.5505965521743891
-0.47310945450000474	0.5535059131316936
-0.47304841934375474	0.5554637131849524
-0.47298738418750474	0.5564661020738108
-0.47292634903125474	0.5565109301301492
-0.47286531387500474	0.5555976948803315
-0.47280427871875474	0.5537273858433364
-0.47274324356250474	0.5509027069137307
-0.47268220840625474	0.547128165440982
-0.47262117325000474	0.5424098158212287
-0.47256013809375474	0.5367552320984803
-0.47249910293750474	0.530173604754922
-0.47243806778125474	0.5226758283461226
-0.47237703262500474	0.5142743036517381
-0.47231599746875474	0.5049829861823467
-0.47225496231250474	0.4948176627029888
-0.47219392715625474	0.483795328425108
-0.47213289200000474	0.4719339884000382
-0.47207185684375474	0.45925369135871524
-0.47201082168750474	0.44577640882681785
-0.47194978653125474	0.431524874846722
-0.47188875137500474	0.4165227025378881
-0.47182771621875474	0.400795048076807
-0.47176668106250474	0.38436892416008084
-0.47170564590625474	0.3672727615054896
-0.47164461075000474	0.3495352850099658
-0.47158357559375474	0.3311859793943243
-0.47152254043750474	0.3122562938043251
-0.47146150528125474	0.2927790490208485
-0.47140047012500474	0.2727873437843515
-0.47133943496875474	0.2523148454710259
-0.47127839981250474	0.23139646967355942
-0.47121736465625474	0.21006815044561622
-0.47115632950000474	0.1883664060627232
-0.47109529434375474	0.1663282845273972
-0.47103425918750474	0.143991388982465
-0.47097322403125474	0.12139381168855723
-0.47091218887500474	0.09857431485278989
-0.47085115371875474	0.07557236202121778
-0.47079011856250474	0.05242736979831251
-0.47072908340625474	0.02917847602373744
-0.47066804825000474	0.005865401870477627
-0.47060701309375474	-0.017471223365410377
-0.47054597793750474	-0.0407910255786915
-0.47048494278125474	-0.06405433236728666
-0.47042390762500474	-0.08722140060622897
-0.47036287246875474	-0.11025255037710562
-0.47030183731250474	-0.13310786738137984
-0.47024080215625474	-0.15574739883603983
