Time	Frequency
-0.500055375125001	0.4850575936872813
-0.499994339968751	0.4900188329098032
-0.499933304812501	0.49438614098077804
-0.499872269656251	0.49815392177200696
-0.499811234500001	0.5013173769666176
-0.499750199343751	0.5038723806810692
-0.499689164187501	0.5058155958573095
-0.499628129031251	0.5071445684843636
-0.499567093875001	0.5078574722254744
-0.499506058718751	0.5079531835549791
-0.499445023562501	0.507431464630356
-0.499383988406251	0.5062928756256868
-0.499322953250001	0.5045386771566669
-0.499261918093751	0.5021708309796744
-0.499200882937501	0.4991921031958642
-0.499139847781251	0.4956061583610386
-0.499078812625001	0.4914173244411309
-0.499017777468751	0.48663047244096314
-0.498956742312501	0.48125145225709903
-0.498895707156251	0.47528698636547423
-0.498834672000001	0.4687442589051583
-0.498773636843751	0.4616311443710606
-0.498712601687501	0.4539563432473052
-0.498651566531251	0.4457294149319432
-0.498590531375001	0.43696049640706563
-0.498529496218751	0.427660114647385
-0.498468461062501	0.41783968716900033
-0.498407425906251	0.4075115431574494
-0.498346390750001	0.3966884850015912
-0.498285355593751	0.38538351787303976
-0.498224320437501	0.37361047430988803
-0.498163285281251	0.36138430740556154
-0.498102250125001	0.34872012212168707
-0.498041214968751	0.3356332647160101
-0.497980179812501	0.32213979750165894
-0.497919144656251	0.30825656407625146
-0.497858109500001	0.29400120683196074
-0.497797074343751	0.2793910745102908
-0.497736039187501	0.2644435825110636
-0.497675004031251	0.24917767445786107
-0.497613968875001	0.23361283828749904
-0.497552933718751	0.21776825238237213
-0.497491898562501	0.20166296477744397
-0.497430863406251	0.18531654925571123
-0.497369828250001	0.1687501504687366
-0.497308793093751	0.1519848721846693
-0.497247757937501	0.13504066833902814
-0.497186722781251	0.11793814040445692
-0.497125687625001	0.10069897954557742
-0.497064652468751	0.08334502239320743
-0.497003617312501	0.06589770852709656
-0.496942582156251	0.04837841538911667
-0.496881547000001	0.030808912247606898
-0.496820511843751	0.01321104300954541
-0.496759476687501	-0.00439307191227585
-0.496698441531251	-0.02198147044722758
-0.496637406375001	-0.0395326429090125
-0.496576371218751	-0.05702453793195427
-0.496515336062501	-0.07443514525234315
-0.496454300906251	-0.0917431578494115
-0.496393265750001	-0.10892722174964604
-0.496332230593751	-0.1259656532965671
-0.496271195437501	-0.14283669038256888
-0.496210160281251	-0.15951957341102593
-0.496149125125001	-0.17599451295683863
-0.496088089968751	-0.1922405503227607
-0.496027054812501	-0.20823642756884986
-0.495966019656251	-0.22396266889467778
-0.495904984500001	-0.23940028858041668
-0.495843949343751	-0.2545299959841338
-0.495782914187501	-0.2693325756341211
-0.495721879031251	-0.28378913774220765
-0.495660843875001	-0.29788208397137445
-0.495599808718751	-0.31159442678536614
-0.495538773562501	-0.32490849771604385
-0.495477738406251	-0.3378072172759098
-0.495416703250001	-0.35027520045501037
-0.495355668093751	-0.36229721079994603
-0.495294632937501	-0.3738574141871649
-0.495233597781251	-0.3849414170853125
-0.495172562625001	-0.3955361737958819
-0.495111527468751	-0.40562814119174123
-0.495050492312501	-0.4152044842093633
-0.494989457156251	-0.42425341771506186
-0.494928422000001	-0.4327635502825477
-0.494867386843751	-0.44072467745023813
-0.494806351687501	-0.4481268582959738
-0.494745316531251	-0.4549603964268932
-0.494684281375001	-0.4612170265999964
-0.494623246218751	-0.4668891754896262
-0.494562211062501	-0.47196973851604596
-0.494501175906251	-0.4764524134260325
-0.494440140750001	-0.4803315298025915
-0.494379105593751	-0.4836023315368444
-0.494318070437501	-0.48626097551858716
-0.494257035281251	-0.4883041658241755
-0.494196000125001	-0.48972930910960333
-0.494134964968751	-0.49053476343660557
-0.494073929812501	-0.49071967067094474
-0.494012894656251	-0.4902838719926718
-0.493951859500001	-0.48922801744113775
-0.493890824343751	-0.4875535205353634
-0.493829789187501	-0.4852625668872846
-0.493768754031251	-0.48235823234210257
-0.493707718875001	-0.47884432652592174
-0.493646683718751	-0.47472518749727266
-0.493585648562501	-0.47000609860124737
-0.493524613406251	-0.46469340681495175
-0.493463578250001	-0.45879386477389217
-0.493402543093751	-0.45231473929491484
-0.493341507937501	-0.4452643787910565
-0.493280472781251	-0.43765194570708266
-0.493219437625001	-0.4294872077284785
-0.493158402468751	-0.4207805772330631
-0.493097367312501	-0.4115428398535674
-0.493036332156251	-0.40178577277506056
-0.492975297000001	-0.3915223672172562
-0.492914261843751	-0.38076545469370193
-0.492853226687501	-0.36952823360692405
-0.492792191531251	-0.3578255050283032
-0.492731156375001	-0.3456723837330555
-0.492670121218751	-0.3330838562905831
-0.492609086062501	-0.3200759281408549
-0.492548050906251	-0.3066655915796079
-0.492487015750001	-0.2928699108822812
-0.492425980593751	-0.27870602013814055
-0.492364945437501	-0.2641920711600283
-0.492303910281251	-0.2493469326012027
-0.492242875125001	-0.2341892742616099
-0.492181839968751	-0.2187382136020307
-0.492120804812501	-0.20301372636604811
-0.492059769656251	-0.18703580767504926
-0.491998734500001	-0.17082461155774709
-0.491937699343751	-0.15440097595191798
-0.491876664187501	-0.13778598617579607
-0.491815629031251	-0.12100070048252909
-0.491754593875001	-0.10406626790622212
-0.491693558718751	-0.08700429908000544
-0.491632523562501	-0.06983710469448959
-0.491571488406251	-0.05258673634187575
-0.491510453250001	-0.03527421854636529
-0.491449418093751	-0.01792158763907067
-0.491388382937501	-0.0005523654266698859
-0.491327347781251	0.01681154579142942
-0.491266312625001	0.03414916278603744
-0.491205277468751	0.05143792848877541
-0.491144242312501	0.06865483092103002
-0.491083207156251	0.08577811865603194
-0.491022172000001	0.10278662723380809
-0.490961136843751	0.1196583164857518
-0.490900101687501	0.13637107801245713
-0.490839066531251	0.15290377999624952
-0.490778031375001	0.169235586738574
-0.490716996218751	0.1853451223680766
-0.490655961062501	0.20121155513254074
-0.490594925906251	0.21681523409206052
-0.490533890750001	0.23213591618705862
-0.490472855593751	0.24715335701012817
-0.490411820437501	0.2618486271085559
-0.490350785281251	0.2762030234106234
-0.490289750125001	0.2901978759148017
-0.490228714968751	0.3038152207353722
-0.490167679812501	0.31703762246863115
-0.490106644656251	0.3298477451555696
-0.490045609500001	0.34222903367030993
-0.489984574343751	0.35416606448899374
-0.489923539187501	0.365643164310009
-0.489862504031251	0.3766449241254519
-0.489801468875001	0.38715758954817037
-0.489740433718751	0.3971678148368113
-0.489679398562501	0.40666224460253697
-0.489618363406251	0.4156283911537173
-0.489557328250001	0.42405462500392666
-0.489496293093751	0.4319302674802382
-0.489435257937501	0.43924508693355424
-0.489374222781251	0.44598904118741056
-0.489313187625001	0.4521532541734418
-0.489252152468751	0.45773005845755704
-0.489191117312501	0.4627120752320346
-0.489130082156251	0.46709224008599376
-0.489069047000001	0.47086476759279233
-0.489008011843751	0.47402490655175
-0.488946976687501	0.4765681957588539
-0.488885941531251	0.47849098341153856
-0.488824906375001	0.47979062171300996
-0.488763871218751	0.4804651853255238
-0.488702836062501	0.48051354247802924
-0.488641800906251	0.47993531375180026
-0.488580765750001	0.4787309201905758
-0.488519730593751	0.4769016606997056
-0.488458695437501	0.47444958235375173
-0.488397660281251	0.47137751512123705
-0.488336625125001	0.46768911595284085
-0.488275589968751	0.46338875150951114
-0.488214554812501	0.45848163447694007
-0.488153519656251	0.45297383916963674
-0.488092484500001	0.44687206060904394
-0.488031449343751	0.4401837833440259
-0.487970414187501	0.43291728316751227
-0.487909379031251	0.42508151171911374
-0.487848343875001	0.41668638673884434
-0.487787308718751	0.40774232748919975
-0.487726273562501	0.3982602025149489
-0.487665238406251	0.3882521284954713
-0.487604203250001	0.3777307368766798
-0.487543168093751	0.3667089895978575
-0.487482132937501	0.35520077440831893
-0.487421097781251	0.34322055959096653
-0.487360062625001	0.33078360474055474
-0.487299027468751	0.3179054769731872
-0.487237992312501	0.3046020458057821
-0.487176957156251	0.29089049488515534
-0.487115922000001	0.27678837873734563
-0.487054886843751	0.2623130671925912
-0.486993851687501	0.24748289391006645
-0.486932816531251	0.2323169288765367
-0.486871781375001	0.21683399454625235
-0.486810746218751	0.2010539530775139
-0.486749711062501	0.18499738418567535
-0.486688675906251	0.16868374599104996
-0.486627640750001	0.1521336705181052
-0.486566605593751	0.13536917267775214
-0.486505570437501	0.11841115197910353
-0.486444535281251	0.10128080144643553
-0.486383500125001	0.08400033873736822
-0.486322464968751	0.06659174825561322
-0.486261429812501	0.049077081336331894
-0.486200394656251	0.031478646215396394
-0.486139359500001	0.013819058098147041
-0.486078324343751	-0.003878836467883413
-0.486017289187501	-0.02159288314640948
-0.485956254031251	-0.039300754809889954
-0.485895218875001	-0.05697917795256654
-0.485834183718751	-0.07460521314724976
-0.485773148562501	-0.09215679097873113
-0.485712113406251	-0.10961189049233594
-0.485651078250001	-0.1269476379479077
-0.485590043093751	-0.1441412659222369
-0.485529007937501	-0.16117122235856637
-0.485467972781251	-0.1780158016078188
-0.485406937625001	-0.19465300786599768
-0.485345902468751	-0.21106172669353976
-0.485284867312501	-0.22722066446135733
-0.485223832156251	-0.24310853245360647
-0.485162797000001	-0.2587054028190149
-0.485101761843751	-0.27399144155386496
-0.485040726687501	-0.2889463148207952
-0.484979691531251	-0.3035504984842891
-0.484918656375001	-0.31778552917000336
-0.484857621218751	-0.3316331524213707
-0.484796586062501	-0.34507505400884947
-0.484735550906251	-0.358093592310107
-0.484674515750001	-0.3706721447220503
-0.484613480593751	-0.38279443741943214
-0.484552445437501	-0.39444438649627284
-0.484491410281251	-0.40560690329973276
-0.484430375125001	-0.4162675063816785
-0.484369339968751	-0.4264119347213819
-0.484308304812501	-0.43602707578649175
-0.484247269656251	-0.44510038004116825
-0.484186234500001	-0.4536195512031315
-0.484125199343751	-0.4615735274343903
-0.484064164187501	-0.46895190048601265
-0.484003129031251	-0.4757445990232419
-0.483942093875001	-0.4819425059338785
-0.483881058718751	-0.4875374102064704
-0.483820023562501	-0.49252182327127764
-0.483758988406251	-0.49688885273176825
-0.483697953250001	-0.5006323428308044
-0.483636918093751	-0.5037471866230359
-0.483575882937501	-0.5062291015397231
-0.483514847781251	-0.5080743263219888
-0.483453812625001	-0.5092799459341971
-0.483392777468751	-0.5098440895561527
-0.483331742312501	-0.509765620426127
-0.483270707156251	-0.5090440960101472
-0.483209672000001	-0.5076799226260668
-0.483148636843751	-0.505674416764989
-0.483087601687501	-0.503029764372008
-0.483026566531251	-0.49974880364745533
-0.482965531375001	-0.49583515920024424
-0.482904496218751	-0.49129343626915906
-0.482843461062501	-0.48612900464398745
-0.482782425906251	-0.48034800640608416
-0.482721390750001	-0.4739572772585789
-0.482660355593751	-0.46696447149859205
-0.482599320437501	-0.4593782148709354
-0.482538285281251	-0.45120765155850817
-0.482477250125001	-0.44246270621896044
-0.482416214968751	-0.43315419984026315
-0.482355179812501	-0.42329350497960916
-0.482294144656251	-0.41289281610971534
-0.482233109500001	-0.40196492059224187
-0.482172074343751	-0.3905233607287336
-0.482111039187501	-0.3785824904692033
-0.482050004031251	-0.36615678518447153
-0.481988968875001	-0.3532618579403824
-0.481927933718751	-0.3399141264517486
-0.481866898562501	-0.3261296988935447
-0.481805863406251	-0.3119259525881599
-0.481744828250001	-0.2973210081015727
-0.481683793093751	-0.28233253054299573
-0.481622757937501	-0.26697949731374004
-0.481561722781251	-0.2512817408617598
-0.481500687625001	-0.23525832321221546
-0.481439652468751	-0.21892915085145542
-0.481378617312501	-0.2023153475990993
-0.481317582156251	-0.18543779718767966
-0.481256547000001	-0.1683174151968016
-0.481195511843751	-0.15097570295488383
-0.481134476687501	-0.13343468861506214
-0.481073441531251	-0.11571663423976226
-0.481012406375001	-0.0978438650373367
-0.480951371218751	-0.07983866397069436
-0.480890336062501	-0.06172377037589243
-0.480829300906251	-0.04352252447140037
-0.480768265750001	-0.025257713773660765
-0.480707230593751	-0.006952147023291277
-0.480646195437501	0.011370658670992177
-0.480585160281251	0.029687503625653693
-0.480524125125001	0.047975377143331756
-0.480463089968751	0.06621098957370446
-0.480402054812501	0.0843712174531415
-0.480341019656251	0.10243303497008127
-0.480279984500001	0.12037340175083144
-0.480218949343751	0.1381698733826507
-0.480157914187501	0.15579983299619926
-0.480096879031251	0.17324022652155904
-0.480035843875001	0.1904692404099024
-0.479974808718751	0.20746552745729907
-0.479913773562501	0.22420717517851635
-0.479852738406251	0.24067249176859554
-0.479791703250001	0.2568403936889962
-0.479730668093751	0.27269075728926706
-0.479669632937501	0.2882037173472399
-0.479608597781251	0.3033591320927257
-0.479547562625001	0.31813736928828834
-0.479486527468751	0.3325195197757235
-0.479425492312501	0.3464877015988698
-0.479364457156251	0.3600245809954493
-0.479303422000001	0.3731121036841322
-0.479242386843751	0.3857330752799922
-0.479181351687501	0.3978721161756323
-0.479120316531251	0.4095140806435553
-0.479059281375001	0.4206437561499928
-0.478998246218751	0.43124637999173276
-0.478937211062501	0.44130851408087163
-0.478876175906251	0.4508178273019748
-0.478815140750001	0.4597621160388593
-0.478754105593751	0.46812962391673973
-0.478693070437501	0.47590937555854823
-0.478632035281251	0.48309160999910034
-0.478571000125001	0.4896675271693355
-0.478509964968751	0.4956284190355851
-0.478448929812501	0.5009663330758729
-0.478387894656251	0.505674597954644
-0.478326859500001	0.5097473001098859
-0.478265824343751	0.5131791356612945
-0.478204789187501	0.5159655667366977
-0.478143754031251	0.5181030147207532
-0.478082718875001	0.5195887774293476
-0.478021683718751	0.5204208814843457
-0.477960648562501	0.5205982025875019
-0.477899613406251	0.5201204636931913
-0.477838578250001	0.5189882588415782
-0.477777543093751	0.5172030591311272
-0.477716507937501	0.5147670666161174
-0.477655472781251	0.511683296909122
-0.477594437625001	0.5079556962477576
-0.477533402468751	0.5035890417680841
-0.477472367312501	0.4985889705405326
-0.477411332156251	0.49296185914798685
-0.477350297000001	0.48671461248376535
-0.477289261843751	0.47985526468908335
-0.477228226687501	0.47239303488156204
-0.477167191531251	0.4643372296148234
-0.477106156375001	0.4556977732745965
-0.477045121218751	0.4464860820910728
-0.476984086062501	0.43671404950641995
-0.476923050906251	0.4263938806597583
-0.476862015750001	0.41553899328451355
-0.476800980593751	0.4041635458326653
-0.476739945437501	0.3922816743284429
-0.476678910281251	0.3799084377270709
-0.476617875125001	0.36706036626021354
-0.476556839968751	0.35375407680304644
-0.476495804812501	0.34000587386644704
-0.476434769656251	0.32583332700797135
-0.476373734500001	0.31125557604578097
-0.476312699343751	0.29629120543301773
-0.476251664187501	0.2809585289477435
-0.476190629031251	0.26527779847134025
-0.476129593875001	0.24926958102006883
-0.476068558718751	0.23295400847086883
-0.476007523562501	0.21635212960161473
-0.475946488406251	0.19948520539753045
-0.475885453250001	0.18237508385393175
-0.475824418093751	0.16504404817787086
-0.475763382937501	0.1475139828007212
-0.475702347781251	0.1298073854556878
-0.475641312625001	0.11194758120593676
-0.475580277468751	0.09395754762198372
-0.475519242312501	0.07585971681134702
-0.475458207156251	0.05767780940469872
-0.475397172000001	0.03943595417527742
-0.475336136843751	0.02115694021042662
-0.475275101687501	0.0028641683237227065
-0.475214066531251	-0.015418187284862217
-0.475153031375001	-0.033666750692884904
-0.475091996218751	-0.05185833466672696
-0.475030961062501	-0.06996906967115389
-0.474969925906251	-0.0879752767960631
-0.474908890750001	-0.10585413939942268
-0.474847855593751	-0.12358287789512946
-0.474786820437501	-0.141138288827341
-0.474725785281251	-0.15849734785737066
-0.474664750125001	-0.17563789004950364
-0.474603714968751	-0.19253783107666403
-0.474542679812501	-0.20917514915142513
-0.474481644656251	-0.22552886163329156
-0.474420609500001	-0.24157758525119485
-0.474359574343751	-0.2572997597231801
-0.474298539187501	-0.2726757394121546
-0.474237504031251	-0.2876860967879736
-0.474176468875001	-0.3023107632292979
-0.474115433718751	-0.31653089985358096
-0.474054398562501	-0.3303281805209734
-0.473993363406251	-0.3436845278831248
-0.473932328250001	-0.35658307133873796
-0.473871293093751	-0.369007061458356
-0.473810257937501	-0.38094000677111306
-0.473749222781251	-0.3923665852664508
-0.473688187625001	-0.4032721687133881
-0.473627152468751	-0.41364275541428003
-0.473566117312501	-0.42346470836093764
-0.473505082156251	-0.4327249674816858
-0.473444047000001	-0.4414119447665979
-0.473383011843751	-0.4495146139675489
-0.473321976687501	-0.45702196643699194
-0.473260941531251	-0.46392428065380253
-0.473199906375001	-0.47021299525189114
-0.473138871218751	-0.47587981993302414
-0.473077836062501	-0.4809172159290366
-0.473016800906251	-0.4853187367653296
-0.472955765750001	-0.4890787839508292
-0.472894730593751	-0.4921924938224164
-0.472833695437501	-0.4946557405333687
-0.472772660281251	-0.49646531884745376
-0.472711625125001	-0.49761896530390676
-0.472650589968751	-0.4981152118210722
-0.472589554812501	-0.4979533917884682
-0.472528519656251	-0.49713371468465783
-0.472467484500001	-0.4956573193576879
-0.472406449343751	-0.4935261768852656
-0.472345414187501	-0.49074297978022735
-0.472284379031251	-0.48731135922758634
-0.472223343875001	-0.4832359795713257
-0.472162308718751	-0.4785221759028597
-0.472101273562501	-0.47317586917276216
-0.472040238406251	-0.4672040680361944
-0.471979203250001	-0.4606149067879068
-0.471918168093751	-0.45341692486689417
-0.471857132937501	-0.4456192164176866
-0.471796097781251	-0.437232154169399
-0.471735062625001	-0.4282668030786695
-0.471674027468751	-0.418734833572394
-0.471612992312501	-0.408648912156186
-0.471551957156251	-0.39802190034418755
-0.471490922000001	-0.38686752110809897
-0.471429886843751	-0.3752009669448424
-0.471368851687501	-0.36303755280754224
-0.471307816531251	-0.3503926733521284
-0.471246781375001	-0.3372828926551725
-0.471185746218751	-0.3237256852411261
-0.471124711062501	-0.3097388869445061
-0.471063675906251	-0.2953409183022485
-0.471002640750001	-0.28055026264713856
-0.470941605593751	-0.26538603684888723
-0.470880570437501	-0.2498688036471716
-0.470819535281251	-0.23401911816485393
-0.470758500125001	-0.21785728411991964
-0.470697464968751	-0.20140418496835574
-0.470636429812501	-0.18468163211393343
-0.470575394656251	-0.16771225000019327
-0.470514359500001	-0.15051818476736795
-0.470453324343751	-0.13312127501424678
-0.470392289187501	-0.11554448062214209
-0.470331254031251	-0.09781147805439215
-0.470270218875001	-0.07994583224751972
-0.470209183718751	-0.06197067319302689
-0.470148148562501	-0.04390889437507732
-0.470087113406251	-0.02578472602606567
-0.470026078250001	-0.007623135368395944
-0.469965043093751	0.010552477214079446
-0.469904007937501	0.028719321477399525
-0.469842972781251	0.04685303648538346
-0.469781937625001	0.06492836019096768
-0.469720902468751	0.08292193839457458
-0.469659867312501	0.1008113556293176
-0.469598832156251	0.11857208039979944
-0.469537797000001	0.1361798639067145
-0.469476761843751	0.15361232048594564
-0.469415726687501	0.17084654287151735
-0.469354691531251	0.18785940917886418
-0.469293656375001	0.20462829567011886
-0.469232621218751	0.22113059981065025
-0.469171586062501	0.23734503477631091
-0.469110550906251	0.2532507779926502
-0.469049515750001	0.2688254724242279
-0.468988480593751	0.28404798157941397
-0.468927445437501	0.2988994768138129
