Time	Frequency
-0.5000524518125005	0.3550794211389506
-0.49999141665625046	0.3478585124542627
-0.49993038150000046	0.34033755926565573
-0.49986934634375046	0.332523123624037
-0.49980831118750046	0.32442196182616906
-0.49974727603125046	0.3160408239842163
-0.49968624087500046	0.3073866424220886
-0.49962520571875046	0.29846675587503324
-0.49956417056250046	0.2892888643607931
-0.49950313540625046	0.2798610532893715
-0.49944210025000046	0.2701913123318869
-0.49938106509375046	0.2602873806180596
-0.49932002993750046	0.25015777714737264
-0.49925899478125046	0.23981167198022815
-0.49919795962500046	0.2292579070477331
-0.49913692446875046	0.2185052277686409
-0.49907588931250046	0.2075624932552223
-0.49901485415625046	0.19643921904235803
-0.49895381900000046	0.1851458095930599
-0.49889278384375046	0.17369156089603227
-0.49883174868750046	0.1620851994366198
-0.49877071353125046	0.15033750390873324
-0.49870967837500046	0.1384594628737824
-0.49864864321875046	0.1264602387760551
-0.49858760806250046	0.1143495910615439
-0.49852657290625046	0.1021390178718263
-0.49846553775000046	0.08983930173064407
-0.49840450259375046	0.07746003241897115
-0.49834346743750046	0.06501180784415746
-0.49828243228125046	0.05250620061253285
-0.49822139712500046	0.03995390188402546
-0.49816036196875046	0.027365153838410174
-0.49809932681250046	0.014750911162031782
-0.49803829165625046	0.00212237824208291
-0.49797725650000046	-0.010509389974365959
-0.49791622134375046	-0.023133856141482768
-0.49785518618750046	-0.03574036117586202
-0.49779415103125046	-0.048317437679186136
-0.49773311587500046	-0.06085423352499556
-0.49767208071875046	-0.07334033518212275
-0.49761104556250046	-0.08576467496962342
-0.49755001040625046	-0.09811644662971915
-0.49748897525000046	-0.11038517275118652
-0.49742794009375046	-0.1225600560587011
-0.49736690493750046	-0.13463048238174719
-0.49730586978125046	-0.14658619864479008
-0.49724483462500046	-0.1584167908290481
-0.49718379946875046	-0.17011172470262403
-0.49712276431250046	-0.1816611908512734
-0.49706172915625046	-0.19305540356495401
-0.49700069400000046	-0.20428377261607447
-0.49693965884375046	-0.215336598648365
-0.49687862368750046	-0.2262049959926189
-0.49681758853125046	-0.23687933649255236
-0.49675655337500046	-0.2473499139659317
-0.49669551821875046	-0.2576075687299354
-0.49663448306250046	-0.2676436024672388
-0.49657344790625046	-0.2774497489522844
-0.49651241275000046	-0.28701721308694556
-0.49645137759375046	-0.2963370389233203
-0.49639034243750046	-0.30540151608751204
-0.49632930728125046	-0.3142031375415223
-0.49626827212500046	-0.32273395514919934
-0.49620723696875046	-0.33098644922983317
-0.49614620181250046	-0.3389534327355268
-0.49608516665625046	-0.3466279448095642
-0.49602413150000046	-0.35400339571722306
-0.49596309634375046	-0.3610734547629426
-0.49590206118750046	-0.36783184569994437
-0.49584102603125046	-0.3742724645463724
-0.49577999087500046	-0.3803898153390683
-0.49571895571875046	-0.3861787774452375
-0.49565792056250046	-0.3916341640170239
-0.49559688540625046	-0.39675102488396874
-0.49553585025000046	-0.4015249841141279
-0.49547481509375046	-0.4059519971447475
-0.49541377993750046	-0.4100281391810645
-0.49535274478125046	-0.413749727149313
-0.49529170962500046	-0.41711351421671977
-0.49523067446875046	-0.42011668292251314
-0.49516963931250046	-0.4227565816051839
-0.49510860415625046	-0.42503073838594224
-0.49504756900000046	-0.42693720276230046
-0.49498653384375046	-0.4284744424398155
-0.49492549868750046	-0.4296410293980777
-0.49486446353125046	-0.4304358250000284
-0.49480342837500046	-0.4308581774004235
-0.49474239321875046	-0.43090777111587314
-0.49468135806250046	-0.4305845358424302
-0.49462032290625046	-0.4298886941145836
-0.49455928775000046	-0.4288208318952107
-0.49449825259375046	-0.4273818963390548
-0.49443721743750046	-0.42557313575124756
-0.49437618228125046	-0.4233961694386805
-0.49431514712500046	-0.42085287468745197
-0.49425411196875046	-0.41794533951369944
-0.49419307681250046	-0.4146761778363612
-0.49413204165625046	-0.41104834649330935
-0.49407100650000046	-0.4070649298885736
-0.49400997134375046	-0.40272938585003376
-0.49394893618750046	-0.39804551854870535
-0.49388790103125046	-0.3930173841140136
-0.49382686587500046	-0.38764940428244515
-0.49376583071875046	-0.38194638225395533
-0.49370479556250046	-0.3759132801680699
-0.49364376040625046	-0.3695552443916722
-0.49358272525000046	-0.36287783971265863
-0.49352169009375046	-0.355887032025046
-0.49346065493750046	-0.34858902049182544
-0.49339961978125046	-0.34099018574144474
-0.49333858462500046	-0.33309702728673296
-0.49327754946875046	-0.32491628766424535
-0.49321651431250046	-0.31645558553926245
-0.49315547915625046	-0.30772257020270233
-0.49309444400000046	-0.29872422322928105
-0.49303340884375046	-0.2894684308395917
-0.49297237368750046	-0.27996384441562394
-0.49291133853125046	-0.2702188166498528
-0.49285030337500046	-0.2602417848463666
-0.49278926821875046	-0.25004122332835305
-0.49272823306250046	-0.2396260035255929
-0.49266719790625046	-0.22900585063259488
-0.49260616275000046	-0.21819030044205082
-0.49254512759375046	-0.2071882428800563
-0.49248409243750046	-0.19600909128918456
-0.49242305728125046	-0.18466330495491937
-0.49236202212500046	-0.17316112339689663
-0.49230098696875046	-0.1615121973913913
-0.49223995181250046	-0.14972666638489465
-0.49217891665625046	-0.13781506492792236
-0.49211788150000046	-0.12578808402252978
-0.49205684634375046	-0.11365645012101631
-0.49199581118750046	-0.10143046532819117
-0.49193477603125046	-0.08912087724195654
-0.49187374087500046	-0.07673893453616354
-0.49181270571875046	-0.06429536074520316
-0.49175167056250046	-0.0518011190865284
-0.49169063540625046	-0.03926755217267581
-0.49162960025000046	-0.02670537244826704
-0.49156856509375046	-0.014125436370099657
-0.49150752993750046	-0.0015393434363602343
-0.49144649478125046	0.011041559632956307
-0.49138545962500046	0.02360648726437687
-0.49132442446875046	0.03614455470059282
-0.49126338931250046	0.04864467330197977
-0.49120235415625046	0.06109546971331094
-0.49114131900000046	0.073485466586935
-0.49108028384375046	0.0858042031445736
-0.49101924868750046	0.09804144740309986
-0.49095821353125046	0.1101856913287281
-0.49089717837500046	0.12222551360474562
-0.49083614321875046	0.13415086433369544
-0.49077510806250046	0.14595167076159057
-0.49071407290625046	0.15761698903837632
-0.49065303775000046	0.169136189105002
-0.49059200259375046	0.18049916448339123
-0.49053096743750046	0.1916959709911365
-0.49046993228125046	0.20271696196346242
-0.49040889712500046	0.21355208785535226
-0.49034786196875046	0.22419123200514515
-0.49028682681250046	0.23462524739716617
-0.49022579165625046	0.24484523344903278
-0.49016475650000046	0.25484188567834387
-0.49010372134375046	0.26460612370402126
-0.49004268618750046	0.27412924069603617
-0.48998165103125046	0.28340268835093113
-0.48992061587500046	0.29241840380081496
-0.48985958071875046	0.301168534277687
-0.48979854556250046	0.3096449470089299
-0.48973751040625046	0.3178398592231095
-0.48967647525000046	0.3257462369469382
-0.48961544009375046	0.33335714160117597
-0.48955440493750046	0.34066558999579055
-0.48949336978125046	0.34766500637815106
-0.48943233462500046	0.35434906424250573
-0.48937129946875046	0.3607117594999882
-0.48931026431250046	0.3667476386845125
-0.48924922915625046	0.3724511637263667
-0.48918819400000046	0.3778169158468283
-0.48912715884375046	0.3828402540159099
-0.48906612368750046	0.38751679606313855
-0.48900508853125046	0.3918421674593513
-0.48894405337500046	0.3958123896973716
-0.48888301821875046	0.3994239262964851
-0.48882198306250046	0.4026734937518909
-0.48876094790625046	0.4055581054621096
-0.48869991275000046	0.4080751651143661
-0.48863887759375046	0.41022232419965937
-0.48857784243750046	0.41199750370722593
-0.48851680728125046	0.41339911317854905
-0.48845577212500046	0.41442591293923686
-0.48839473696875046	0.41507681647023137
-0.48833370181250046	0.4153510962057221
-0.48827266665625046	0.41524847763894496
-0.48821163150000046	0.4147689961504108
-0.48815059634375046	0.4139129878217624
-0.48808956118750046	0.4126811321905873
-0.48802852603125046	0.4110743805015241
-0.48796749087500046	0.4090940171847811
-0.48790645571875046	0.4067418554080334
-0.48784542056250046	0.40401999142881106
-0.48778438540625046	0.4009305436298449
-0.48772335025000046	0.3974760835276735
-0.48766231509375046	0.3936598666511735
-0.48760127993750046	0.3894852626766406
-0.48754024478125046	0.3849556271290196
-0.48747920962500046	0.3800749298579898
-0.48741817446875046	0.3748476637956793
-0.48735713931250046	0.3692782939044791
-0.48729610415625046	0.36337153272547823
-0.48723506900000046	0.3571327276742614
-0.48717403384375046	0.3505675193287421
-0.48711299868750046	0.3436814784558706
-0.48705196353125046	0.33648044181717235
-0.48699092837500046	0.32897098816267384
-0.48692989321875046	0.32115998354108327
-0.48686885806250046	0.31305415931547054
-0.48680782290625046	0.30466045020634186
-0.48674678775000046	0.29598620371333867
-0.48668575259375046	0.28703934052376845
-0.48662471743750046	0.27782801101536625
-0.48656368228125046	0.26836015426023346
-0.48650264712500046	0.25864389553535966
-0.48644161196875046	0.24868790790038214
-0.48638057681250046	0.23850121551472384
-0.48631954165625046	0.22809296081400737
-0.48625850650000046	0.21747235255719868
-0.48619747134375046	0.2066485438187716
-0.48613643618750046	0.19563106952555093
-0.48607540103125046	0.18443008977448846
-0.48601436587500046	0.173055634356018
-0.48595333071875046	0.16151762539204573
-0.48589229556250046	0.14982626526431064
-0.48583126040625046	0.13799181026947688
-0.48577022525000046	0.12602502012632402
-0.48570919009375046	0.11393703270645505
-0.48564815493750046	0.1017382560934192
-0.48558711978125046	0.08943899978578487
-0.48552608462500046	0.07705054767073369
-0.48546504946875046	0.0645845942400801
-0.48540401431250046	0.05205222120501038
-0.48534297915625046	0.03946386903906416
-0.48528194400000046	0.02683077635144472
-0.48522090884375046	0.01416501234089092
-0.48515987368750046	0.001477781177833704
-0.48509883853125046	-0.011219974594494237
-0.48503780337500046	-0.023916670056485536
-0.48497676821875046	-0.036600940404409366
-0.48491573306250046	-0.0492614615053007
-0.48485469790625046	-0.061886686991851236
-0.48479366275000046	-0.07446540573007933
-0.48473262759375046	-0.08698639156029682
-0.48467159243750046	-0.0994381766938712
-0.48461055728125046	-0.11180975572716322
-0.48454952212500046	-0.12409015122086756
-0.48448848696875046	-0.13626784555968163
-0.48442745181250046	-0.14833198684105206
-0.48436641665625046	-0.16027214795069508
-0.48430538150000046	-0.17207719901743765
-0.48424434634375046	-0.18373636675803884
-0.48418331118750046	-0.195239380783662
-0.48412227603125046	-0.20657570197180775
-0.48406124087500046	-0.21773514744480493
-0.48400020571875046	-0.22870774395420684
-0.48393917056250046	-0.2394832878874255
-0.48387813540625046	-0.25005206311944156
-0.48381710025000046	-0.260404654487637
-0.48375606509375046	-0.27053146836469255
-0.48369502993750046	-0.2804235020822374
-0.48363399478125046	-0.2900718857002826
-0.48357295962500046	-0.2994672829578253
-0.48351192446875046	-0.30860124895717955
-0.48345088931250046	-0.31746601740908903
-0.48338985415625046	-0.3260532906090489
-0.48332881900000046	-0.33435482859733134
-0.48326778384375046	-0.3423630880577808
-0.48320674868750046	-0.3500709886785239
-0.48314571353125046	-0.3574715026567714
-0.48308467837500046	-0.3645576768209574
-0.48302364321875046	-0.37132285684948496
-0.48296260806250046	-0.37776080482557045
-0.48290157290625046	-0.38386576844505327
-0.48284053775000046	-0.3896321081599411
-0.48277950259375046	-0.3950542417091557
-0.48271846743750046	-0.4001270629448282
-0.48265743228125046	-0.40484596654747895
-0.48259639712500046	-0.40920658534441223
-0.48253536196875046	-0.4132047314224078
-0.48247432681250046	-0.4168365509459412
-0.48241329165625046	-0.42009850366302603
-0.48235225650000046	-0.42298746387089836
-0.48229122134375046	-0.4255008221192318
-0.48223018618750046	-0.427636063569271
-0.48216915103125046	-0.42939078293569627
-0.48210811587500046	-0.4307632318838375
-0.48204708071875046	-0.4317521458885917
-0.48198604556250046	-0.43235635718151866
-0.48192501040625046	-0.4325749782631431
-0.48186397525000046	-0.43240756425218996
-0.48180294009375046	-0.4318540758765919
-0.48174190493750046	-0.43091479941509914
-0.48168086978125046	-0.4295902914875893
-0.48161983462500046	-0.4278814712346199
-0.48155879946875046	-0.4257896480549403
-0.48149776431250046	-0.4233164684757375
-0.48143672915625046	-0.4204638831818668
-0.48137569400000046	-0.41723416908523087
-0.48131465884375046	-0.41362999234873
-0.48125362368750046	-0.4096543881340072
-0.48119258853125046	-0.4053106634430531
-0.48113155337500046	-0.40060237932184173
-0.48107051821875046	-0.3955335433061671
-0.48100948306250046	-0.39010851237416827
-0.48094844790625046	-0.3843318545816644
-0.48088741275000046	-0.3782085671895344
-0.48082637759375046	-0.3717438909560945
-0.48076534243750046	-0.3649432005381728
-0.48070430728125046	-0.3578124568541233
-0.48064327212500046	-0.35035809944614105
-0.48058223696875046	-0.34258636446298163
-0.48052120181250046	-0.33450362851459087
-0.48046016665625046	-0.32611727012532576
-0.48039913150000046	-0.31743494946786255
-0.48033809634375046	-0.30846373501980107
-0.48027706118750046	-0.29921115658621417
-0.48021602603125046	-0.2896858131006307
-0.48015499087500046	-0.2798962168621687
-0.48009395571875046	-0.26985058355073105
-0.48003292056250046	-0.25955753518563884
-0.47997188540625046	-0.2490261504007925
-0.47991085025000046	-0.2382660267538766
-0.47984981509375046	-0.22728675472840595
-0.47978877993750046	-0.21609743478438972
-0.47972774478125046	-0.2047078268130006
-0.47966670962500046	-0.1931285111004677
-0.47960567446875046	-0.1813695975655981
-0.47954463931250046	-0.16944113652687598
-0.47948360415625046	-0.15735386954089892
-0.47942256900000046	-0.14511850792684597
-0.47936153384375046	-0.1327457246682546
-0.47930049868750046	-0.12024652704800604
-0.47923946353125046	-0.10763192770841462
-0.47917842837500046	-0.09491317009014058
-0.47911739321875046	-0.08210160843607377
-0.47905635806250046	-0.06920842500962525
-0.47899532290625046	-0.0562451095716127
-0.47893428775000046	-0.04322313726663805
-0.47887325259375046	-0.03015390378428906
-0.47881221743750046	-0.01704942637068828
-0.47875118228125046	-0.003921418237697079
-0.47869014712500046	0.009219054853099175
-0.47862911196875046	0.0223601578668575
-0.47856807681250046	0.03548982428434548
-0.47850704165625046	0.04859650847964255
-0.47844600650000046	0.061668485010838985
-0.47838497134375046	0.07469424655811166
-0.47832393618750046	0.08766240266355317
-0.47826290103125046	0.10056105423177243
-0.47820186587500046	0.11337853638421036
-0.47814083071875046	0.12610351753317897
-0.47807979556250046	0.13872480025624015
-0.47801876040625046	0.15123143213037613
-0.47795772525000046	0.16361189236904294
-0.47789669009375046	0.17585443413501534
-0.47783565493750046	0.18794850135578017
-0.47777461978125046	0.1998841514758371
-0.47771358462500046	0.2116504291835893
-0.47765254946875046	0.22323577443954212
-0.47759151431250046	0.2346298633161167
-0.47753047915625046	0.24582350898144728
-0.47746944400000046	0.2568067056747674
-0.47740840884375046	0.2675687171983812
-0.47734737368750046	0.27809987577096007
-0.47728633853125046	0.2883911690554638
-0.47722530337500046	0.2984333762636811
-0.47716426821875046	0.3082174412547898
-0.47710323306250046	0.3177343385403314
-0.47704219790625046	0.32697542029878585
-0.47698116275000046	0.3359325677008691
-0.47692012759375046	0.3445976969082637
-0.47685909243750046	0.3529630119521042
-0.47679805728125046	0.3610209145135748
-0.47673702212500046	0.3687639751897472
-0.47667598696875046	0.37618525668702835
-0.47661495181250046	0.383278144486829
-0.47655391665625046	0.39003627156090465
-0.47649288150000046	0.3964533724678358
-0.47643184634375046	0.4025235130952121
-0.47637081118750046	0.40824134833128733
-0.47630977603125046	0.41360165123037257
-0.47624874087500046	0.41859947311317275
-0.47618770571875046	0.4232303648192777
-0.47612667056250046	0.42749001259030034
-0.47606563540625046	0.43137443448301804
-0.47600460025000046	0.43488016747294095
-0.47594356509375046	0.4380039555026337
-0.47588252993750046	0.4407428646162145
-0.47582149478125046	0.44309447032208804
-0.47576045962500046	0.4450565366632334
-0.47569942446875046	0.446627052190253
-0.47563838931250046	0.4478045896744324
-0.47557735415625046	0.44858813468755976
-0.47551631900000046	0.4489768428768492
-0.47545528384375046	0.4489702033351156
-0.47539424868750046	0.4485681324033937
-0.47533321353125046	0.44777091827194054
-0.47527217837500046	0.44657920490165554
-0.47521114321875046	0.4449939859985726
-0.47515010806250046	0.4430166008617998
-0.47508907290625046	0.44064869932699124
-0.47502803775000046	0.4378922694577257
-0.47496700259375046	0.4347497285633288
-0.47490596743750046	0.4312239141125899
-0.47484493228125046	0.4273179105748456
-0.47478389712500046	0.42303498478884843
-0.47472286196875046	0.4183788620339013
-0.47466182681250046	0.41335382226781603
-0.47460079165625046	0.407964390059025
-0.47453975650000046	0.40221514891633015
-0.47447872134375046	0.3961110341538365
-0.47441768618750046	0.3896576369875386
-0.47435665103125046	0.3828608602464889
-0.47429561587500046	0.37572659287061805
-0.47423458071875046	0.3682610221251924
-0.47417354556250046	0.36047085248635813
-0.47411251040625046	0.35236311131178183
-0.47405147525000046	0.3439451037091896
-0.47399044009375046	0.33522432238444044
-0.47392940493750046	0.3262083084021793
-0.47386836978125046	0.31690511752368433
-0.47380733462500046	0.3073233477724227
-0.47374629946875046	0.2974715788812426
-0.47368526431250046	0.2873583824573292
-0.47362422915625046	0.27699274840158516
-0.47356319400000046	0.2663842104271757
-0.47350215884375046	0.255542213612613
-0.47344112368750046	0.24447629191028022
-0.47338008853125046	0.2331966542731612
-0.47331905337500046	0.22171333954989683
-0.47325801821875046	0.21003627848213108
-0.47319698306250046	0.19817629925082167
-0.47313594790625046	0.1861443568481667
-0.47307491275000046	0.17395080783355418
-0.47301387759375046	0.16160635316147903
-0.47295284243750046	0.1491225429576781
-0.47289180728125046	0.136510859934507
-0.47283077212500046	0.12378227325948772
-0.47276973696875046	0.11094804400529222
-0.47270870181250046	0.09801983273265315
-0.47264766665625046	0.08500946577514583
-0.47258663150000046	0.07192882389123675
-0.47252559634375046	0.05878957690767669
-0.47246456118750046	0.045603279390365035
-0.47240352603125046	0.03238167412257357
-0.47234249087500046	0.019137113399451247
-0.47228145571875046	0.005881805206654907
-0.47222042056250046	-0.007372567348628295
-0.47215938540625046	-0.02061432117140278
-0.47209835025000046	-0.03383166737399798
-0.47203731509375046	-0.04701216965745908
-0.47197627993750046	-0.06014358576313954
-0.47191524478125046	-0.07321464283399316
-0.47185420962500046	-0.08621358554621153
-0.47179317446875046	-0.0991283626372187
-0.47173213931250046	-0.1119476244598336
-0.47167110415625046	-0.12465949334099576
-0.47161006900000046	-0.1372519806457497
-0.47154903384375046	-0.14971442202400112
-0.47148799868750046	-0.16203585425735412
-0.47142696353125046	-0.17420436470427572
-0.47136592837500046	-0.18620873861658843
-0.47130489321875046	-0.198038593986759
-0.47124385806250046	-0.20968352795200756
-0.47118282290625046	-0.22113258873328304
-0.47112178775000046	-0.23237485292003435
-0.47106075259375046	-0.24340061881087172
-0.47099971743750046	-0.2542004770134267
-0.47093868228125046	-0.26476405997192204
-0.47087764712500046	-0.27508122311540334
-0.47081661196875046	-0.2851430681395459
-0.47075557681250046	-0.2949409230820723
-0.47069454165625046	-0.304465609563979
-0.47063350650000046	-0.31370807262309114
-0.47057247134375046	-0.3226599500396529
-0.47051143618750046	-0.3313134237768634
-0.47045040103125046	-0.3396607127523277
