Time	Frequency
-0.5000028600625015	0.39851910013503816
-0.4999418249062515	0.40572521363902786
-0.4998807897500015	0.41247751634168506
-0.4998197545937515	0.4187652078676473
-0.4997587194375015	0.42458777706337814
-0.4996976842812515	0.42993058368574283
-0.4996366491250015	0.43479453504346577
-0.4995756139687515	0.439170337957173
-0.4995145788125015	0.4430524189739305
-0.4994535436562515	0.4464408246769175
-0.4993925085000015	0.4493247418323987
-0.4993314733437515	0.4517084303791506
-0.4992704381875015	0.45358262661983206
-0.4992094030312515	0.45494825988700477
-0.4991483678750015	0.4558049421755405
-0.4990873327187515	0.45614640583223837
-0.4990262975625015	0.45597939022146916
-0.4989652624062515	0.4552963728359248
-0.4989042272500015	0.4541037357859971
-0.4988431920937515	0.45240029950052413
-0.4987821569375015	0.45018583299938536
-0.4987211217812515	0.4474681826718142
-0.4986600866250015	0.4442426652391173
-0.4985990514687515	0.4405200140635353
-0.4985380163125015	0.4362989359054841
-0.4984769811562515	0.4315856772667827
-0.4984159460000015	0.42638768578765524
-0.4983549108437515	0.4207043648855202
-0.4982938756875015	0.41454991434208954
-0.4982328405312515	0.4079236249801094
-0.4981718053750015	0.4008372581757972
-0.4981107702187515	0.39329786388946353
-0.4980497350625015	0.3853098778653445
-0.4979886999062515	0.376888771075329
-0.4979276647500015	0.3680364525613067
-0.4978666295937515	0.3587687078549523
-0.4978055944375015	0.3490912645125492
-0.4977445592812515	0.33901565719509263
-0.4976835241250015	0.3285569818381913
-0.4976224889687515	0.31771900418149074
-0.4975614538125015	0.3065213110720597
-0.4975004186562515	0.2949702475432731
-0.4974393835000015	0.2830822865885833
-0.4973783483437515	0.270870333711454
-0.4973173131875015	0.25834288161202645
-0.4972562780312515	0.24552187543963686
-0.4971952428750015	0.2324133094158702
-0.4971342077187515	0.21903771068762123
-0.4970731725625015	0.20540710437650928
-0.4970121374062515	0.19153419395461652
-0.4969511022500015	0.1774409154256576
-0.4968900670937515	0.1631351368359901
-0.4968290319375015	0.14863869073839947
-0.4967679967812515	0.13396347736487815
-0.4967069616250015	0.11912786284693754
-0.4966459264687515	0.10414934376399668
-0.4965848913125015	0.08903915417676596
-0.4965238561562515	0.073821905823647
-0.4964628210000015	0.05850679264718104
-0.4964017858437515	0.04311618915788141
-0.4963407506875015	0.02766575306138275
-0.4962797155312515	0.012168924157297055
-0.4962186803750015	-0.0033502022091191214
-0.4961576452187515	-0.018881743390575682
-0.4960966100625015	-0.034401803023944445
-0.4960355749062515	-0.04989801765931171
-0.4959745397500015	-0.06535236388647829
-0.4959135045937515	-0.08074372330892306
-0.4958524694375015	-0.0960619851694073
-0.4957914342812515	-0.11128182597173915
-0.4957303991250015	-0.12639403670174906
-0.4956693639687515	-0.14137778179642688
-0.4956083288125015	-0.15621459642733157
-0.4955472936562515	-0.17089360435742135
-0.4954862585000015	-0.18539162956503366
-0.4954252233437515	-0.19969978231970184
-0.4953641881875015	-0.21379554695869896
-0.4953031530312515	-0.2276659395867247
-0.4952421178750015	-0.24129723768364753
-0.4951810827187515	-0.2546696084878815
-0.4951200475625015	-0.2677748684721732
-0.4950590124062515	-0.28058954007754733
-0.4949979772500015	-0.2931066183748435
-0.4949369420937515	-0.30531017770405844
-0.4948759069375015	-0.3171829635857779
-0.4948148717812515	-0.32871798265296326
-0.4947538366250015	-0.3398943586688178
-0.4946928014687515	-0.35070748992791895
-0.4946317663125015	-0.3611402941829276
-0.4945707311562515	-0.37118102873851844
-0.4945096960000015	-0.3808218140610547
-0.4944486608437515	-0.39004602724891324
-0.4943876256875015	-0.3988507016638574
-0.4943265905312515	-0.4072184457193145
-0.4942655553750015	-0.4151442899186038
-0.4942045202187515	-0.4226187169542212
-0.4941434850625015	-0.42962962786902986
-0.4940824499062515	-0.43617584637027856
-0.4940214147500015	-0.4422416277370027
-0.4939603795937515	-0.44782706386652493
-0.4938993444375015	-0.45292166266728223
-0.4938383092812515	-0.45751921062302164
-0.4937772741250015	-0.4616191266515583
-0.4937162389687515	-0.4652088408162977
-0.4936552038125015	-0.4682921885586688
-0.4935941686562515	-0.4708591875840828
-0.4935331335000015	-0.47290967833968406
-0.4934720983437515	-0.47444232869535125
-0.4934110631875015	-0.4754498664542566
-0.4933500280312515	-0.4759386476320418
-0.4932889928750015	-0.47589990447434716
-0.4932279577187515	-0.4753392276168508
-0.4931669225625015	-0.47425477115818254
-0.4931058874062515	-0.47264539223109076
-0.4930448522500015	-0.47051827019644105
-0.4929838170937515	-0.4678676510504357
-0.4929227819375015	-0.4647039689073405
-0.4928617467812515	-0.46102491786676614
-0.4928007116250015	-0.4568358957110026
-0.4927396764687515	-0.4521440747264963
-0.4926786413125015	-0.4469478602958898
-0.4926176061562515	-0.4412610725847942
-0.4925565710000015	-0.43508213045056976
-0.4924955358437515	-0.42842202104745486
-0.4924345006875015	-0.4212876835622585
-0.4923734655312515	-0.41368331377758194
-0.4923124303750015	-0.40562303342734063
-0.4922513952187515	-0.3971077778768654
-0.4921903600625015	-0.3881546682201918
-0.4921293249062515	-0.3787682304427944
-0.4920682897500015	-0.36895847554137057
-0.4920072545937515	-0.3587412968479603
-0.4919462194375015	-0.3481199228649131
-0.4918851842812515	-0.33711356474735876
-0.4918241491250015	-0.3257280563403447
-0.4917631139687515	-0.3139796760848941
-0.4917020788125015	-0.30188136974727586
-0.4916410436562515	-0.28944083249324476
-0.4915800085000015	-0.276680536115659
-0.4915189733437515	-0.26360623434397146
-0.4914579381875015	-0.25023742873701194
-0.4913969030312515	-0.23658670868783818
-0.4913358678750015	-0.22266747288907368
-0.4912748327187515	-0.20850054613556376
-0.4912137975625015	-0.19409364226368037
-0.4911527624062515	-0.17947003490270408
-0.4910917272500015	-0.16464006547322443
-0.4910306920937515	-0.14962228497459087
-0.4909696569375015	-0.13443639194278414
-0.4909086217812515	-0.11909206684835455
-0.4908475866250015	-0.10361340392623068
-0.4907865514687515	-0.08801102460855421
-0.4907255163125015	-0.07230749605159792
-0.4906644811562515	-0.05651826108416333
-0.4906034460000015	-0.04065775035734472
-0.4905424108437515	-0.024750131823481337
-0.4904813756875015	-0.008804182333164889
-0.4904203405312515	0.007154240577177906
-0.4903593053750015	0.02311179678190728
-0.4902982702187515	0.03905133092383387
-0.4902372350625015	0.05495110435643843
-0.4901761999062515	0.07080072464815859
-0.4901151647500015	0.08657380118162088
-0.4900541295937515	0.1022601805039957
-0.4899930944375015	0.1178392574440951
-0.4899320592812515	0.13329227607392177
-0.4898710241250015	0.1486072718646641
-0.4898099889687515	0.16376041242868272
-0.4897489538125015	0.17874229057276672
-0.4896879186562515	0.19352915424810307
-0.4896268835000015	0.20810879186731834
-0.4895658483437515	0.22246640713133917
-0.4895048131875015	0.23657954309974008
-0.4894437780312515	0.25044135107324095
-0.4893827428750015	0.2640279618172249
-0.4893217077187515	0.2773301398125369
-0.4892606725625015	0.2903314543589309
-0.4891996374062515	0.3030142262453693
-0.4891386022500015	0.31537131556901554
-0.4890775670937515	0.32738081219906523
-0.4890165319375015	0.3390361494773562
-0.4889554967812515	0.3503198273683904
-0.4888944616250015	0.3612207001241912
-0.4888334264687515	0.3717293855695294
-0.4887723913125015	0.3818274810269783
-0.4887113561562515	0.3915118672101668
-0.4886503210000015	0.4007645325138513
-0.4885892858437515	0.4095798098149107
-0.4885282506875015	0.4179467824524416
-0.4884672155312515	0.42585265217408313
-0.4884061803750015	0.4332961556690061
-0.4883451452187515	0.44025955948899903
-0.4882841100625015	0.4467425955264632
-0.4882230749062515	0.45273474436477884
-0.4881620397500015	0.458228051576785
-0.4881010045937515	0.4632210346053323
-0.4880399694375015	0.4677008321239316
-0.4879789342812515	0.4716706569734213
-0.4879178991250015	0.4751190847741954
-0.4878568639687515	0.4780454670503234
-0.4877958288125015	0.480448033740843
-0.4877347936562515	0.4823181982370016
-0.4876737585000015	0.483661878328147
-0.4876127233437515	0.484469559113074
-0.4875516881875015	0.4847462041603716
-0.4874906530312515	0.4844890728265933
-0.4874296178750015	0.4836962184222711
-0.4873685827187515	0.4823745651713508
-0.4873075475625015	0.48051733395329244
-0.4872465124062515	0.47813455119769677
-0.4871854772500015	0.4752231446112579
-0.4871244420937515	0.471787803958266
-0.4870634069375015	0.4678354198011416
-0.4870023717812515	0.4633635894599454
-0.4869413366250015	0.4583856663858307
-0.4868803014687515	0.4528994245004918
-0.4868192663125015	0.4469157619672473
-0.4867582311562515	0.4404405905898934
-0.4866971960000015	0.433477394314158
-0.4866361608437515	0.42604118885516395
-0.4865751256875015	0.4181314461106405
-0.4865140905312515	0.4097644109329517
-0.4864530553750015	0.4009454342863616
-0.4863920202187515	0.3916837777522705
-0.4863309850625015	0.381994342510482
-0.4862699499062515	0.37188074113018255
-0.4862089147500015	0.36136233217231073
-0.4861478795937515	0.35044345403436666
-0.4860868444375015	0.3391405278658902
-0.4860258092812515	0.32746744594546345
-0.4859647741250015	0.3154307268806735
-0.4859037389687515	0.3030520423716895
-0.4858427038125015	0.29033804358016313
-0.4857816686562515	0.277308726563423
-0.4857206335000015	0.26397514995168525
-0.4856595983437515	0.25035078394789356
-0.4855985631875015	0.23645756224974965
-0.4855375280312515	0.22230228804901866
-0.4854764928750015	0.20790830992039372
-0.4854154577187515	0.19328663606938074
-0.4853544225625015	0.17845570999058324
-0.4852933874062515	0.1634342417397517
-0.4852323522500015	0.1482322920366084
-0.4851713170937515	0.1328759134097502
-0.4851102819375015	0.11737497799404327
-0.4850492467812515	0.10175115881059738
-0.4849882116250015	0.0860201883663817
-0.4849271764687515	0.07019731365553845
-0.4848661413125015	0.05430804351893499
-0.4848051061562515	0.038360800381549355
-0.4847440710000015	0.022380531812763095
-0.4846830358437515	0.006380523032082237
-0.4846220006875015	-0.009619997449757762
-0.4845609655312515	-0.025597978750449498
-0.4844999303750015	-0.04154485055240967
-0.4844388952187515	-0.05743463027941295
-0.4843778600625015	-0.07325490351987406
-0.4843168249062515	-0.08898377997431631
-0.4842557897500015	-0.10460436598601758
-0.4841947545937515	-0.1201037816682066
-0.4841337194375015	-0.135455824038176
-0.4840726842812515	-0.15065305127440917
-0.4840116491250015	-0.16567060628277178
-0.4839506139687515	-0.18049402372571813
-0.4838895788125015	-0.19510984774440499
-0.4838285436562515	-0.20949514361947152
-0.4837675085000015	-0.2236415811421238
-0.4837064733437515	-0.2375249586504885
-0.4836454381875015	-0.25113581287476827
-0.4835844030312515	-0.2644568580216456
-0.4835233678750015	-0.2774701422850534
-0.4834623327187515	-0.2901681882335497
-0.4834012975625015	-0.3025275596008135
-0.4833402624062515	-0.31454150533414876
-0.4832792272500015	-0.3261925709834888
-0.4832181920937515	-0.3374687557640805
-0.4831571569375015	-0.3483595002943207
-0.4830961217812515	-0.35884599961084873
-0.4830350866250015	-0.36892521742376716
-0.4829740514687515	-0.37857777758095995
-0.4829130163125015	-0.38779783620041564
-0.4828519811562515	-0.39657396145086227
-0.4827909460000015	-0.4048920048137083
-0.4827299108437515	-0.4127510555721586
-0.4826688756875015	-0.420132680676853
-0.4826078405312515	-0.4270355008059681
-0.4825468053750015	-0.4334484109126069
-0.4824857702187515	-0.4393634505496121
-0.4824247350625015	-0.4447787839880337
-0.4823636999062515	-0.44967996854188186
-0.4823026647500015	-0.45407015449315496
-0.4822416295937515	-0.4579378429895589
-0.4821805944375015	-0.4612814881176905
-0.4821195592812515	-0.46409854727725136
-0.4820585241250015	-0.4663801624161106
-0.4819974889687515	-0.4681321964084686
-0.4819364538125015	-0.4693439452295508
-0.4818754186562515	-0.4700201785335828
-0.4818143835000015	-0.47015787345003796
-0.4817533483437515	-0.46975437363460204
-0.4816923131875015	-0.4688165132705523
-0.4816312780312515	-0.4673366842266845
-0.4815702428750015	-0.465324789538304
-0.4815092077187515	-0.46277738557452797
-0.4814481725625015	-0.4596986316186432
-0.4813871374062515	-0.4560952558849177
-0.4813261022500015	-0.45196432547713483
-0.4812650670937515	-0.4473191518770726
-0.4812040319375015	-0.4421568728863731
-0.4811429967812515	-0.4364882355098658
-0.4810819616250015	-0.4303192142165996
-0.4810209264687515	-0.4236526409058859
-0.4809598913125015	-0.41650326221526757
-0.4808988561562515	-0.4088705077121129
-0.4808378210000015	-0.40077080113637403
-0.4807767858437515	-0.39220874752489604
-0.4807157506875015	-0.3831935295848687
-0.4806547155312515	-0.3737402063705305
-0.4805936803750015	-0.3638518098848367
-0.4805326452187515	-0.353548522649334
-0.4804716100625015	-0.34283404240156345
-0.4804105749062515	-0.3317238485669847
-0.4803495397500015	-0.3202326860274255
-0.4802885045937515	-0.3083678823243772
-0.4802274694375015	-0.29615056410448054
-0.4801664342812515	-0.28358564790081514
-0.4801053991250015	-0.27069461716793364
-0.4800443639687515	-0.25748987195086687
-0.4799833288125015	-0.24398331553825367
-0.4799222936562515	-0.23019662671374067
-0.4798612585000015	-0.2161373256388467
-0.4798002233437515	-0.20182969097280296
-0.4797391881875015	-0.18728409830110826
-0.4796781530312515	-0.1725183363567886
-0.4796171178750015	-0.1575526398921186
-0.4795560827187515	-0.14239740718655622
-0.4794950475625015	-0.12707748586281012
-0.4794340124062515	-0.11160313020583534
-0.4793729772500015	-0.09599801002760758
-0.4793119420937515	-0.08027717713295682
-0.4792509069375015	-0.06445477255123337
-0.4791898717812515	-0.0485579251106955
-0.4791288366250015	-0.032595651337699615
-0.4790678014687515	-0.016592679611808613
-0.4790067663125015	-0.000562515630232323
-0.4789457311562515	0.015475265940848167
-0.4788846960000015	0.031497552920619606
-0.4788236608437515	0.04749483996829035
-0.4787626256875015	0.0634399679149657
-0.4787015905312515	0.07932228046267291
-0.4786405553750015	0.09511899172026593
-0.4785795202187515	0.11081105486664372
-0.4785184850625015	0.12638706317126375
-0.4784574499062515	0.14181959365231422
-0.4783964147500015	0.15710028144688468
-0.4783353795937515	0.1722059962455973
-0.4782743444375015	0.18712045009023423
-0.4782133092812515	0.2018282672518069
-0.4781522741250015	0.21630808039785945
-0.4780912389687515	0.23055153406674783
-0.4780302038125015	0.24453254132252913
-0.4779691686562515	0.2582418029051096
-0.4779081335000015	0.27166198158998833
-0.4778470983437515	0.2847739757530673
-0.4777860631875015	0.2975698263377348
-0.4777250280312515	0.3100266354395734
-0.4776639928750015	0.322137591169605
-0.4776029577187515	0.33388276853172105
-0.4775419225625015	0.3452504806319171
-0.4774808874062515	0.3562314683376643
-0.4774198522500015	0.366804923333515
-0.4773588170937515	0.37696744624776946
-0.4772977819375015	0.386699714045429
-0.4772367467812515	0.39599531211535494
-0.4771757116250015	0.4048427310103108
-0.4771146764687515	0.41322717075831866
-0.4770536413125015	0.42114725528630687
-0.4769926061562515	0.42858416973113633
-0.4769315710000015	0.4355367563735536
-0.4768705358437515	0.44199332931979934
-0.4768095006875015	0.447945053168807
-0.4767484655312515	0.45339020482207415
-0.4766874303750015	0.45831420844722986
-0.4766263952187515	0.46272000967766397
-0.4765653600625015	0.4665952265782482
-0.4765043249062515	0.46993830221171395
-0.4764432897500015	0.4727469064005164
-0.4763822545937515	0.4750114890334662
-0.4763212194375015	0.47673778100171077
-0.4762601842812515	0.47791466412520733
-0.4761991491250015	0.47854710287657576
-0.4761381139687515	0.4786318397920666
-0.4760770788125015	0.47816572102814775
-0.4760160436562515	0.4771558172299199
-0.4759550085000015	0.4755940222469499
-0.4758939733437515	0.4734904243770156
-0.4758329381875015	0.47084140056176144
-0.4757719030312515	0.4676508488273412
-0.4757108678750015	0.4639257804843687
-0.4756498327187515	0.459662802464446
-0.4755887975625015	0.454875324463567
-0.4755277624062515	0.44956066366294534
-0.4754667272500015	0.44372953840987694
-0.4754056920937515	0.4373874601328887
-0.4753446569375015	0.430537601039998
-0.4752836217812515	0.4231954153784613
-0.4752225866250015	0.41535930659822284
-0.4751615514687515	0.40704589411728803
-0.4751005163125015	0.3982605116794851
-0.4750394811562515	0.3890124697028895
-0.4749784460000015	0.3793165766727888
-0.4749174108437515	0.3691753337286227
-0.4748563756875015	0.358610292482343
-0.4747953405312515	0.3476251714130583
-0.4747343053750015	0.3362345551804999
-0.4746732702187515	0.3244544134310058
-0.4746122350625015	0.3122924304274313
-0.4745511999062515	0.29976901300406633
-0.4744901647500015	0.2868895849337696
-0.4744291295937515	0.2736766500646624
-0.4743680944375015	0.26014223440836964
-0.4743070592812515	0.2462985034877464
-0.4742460241250015	0.23216767617137637
-0.4741849889687515	0.21775706323154953
-0.4741239538125015	0.20309206245081993
-0.4740629186562515	0.18818308314560217
-0.4740018835000015	0.17304779213005106
-0.4739408483437515	0.15770692659964936
-0.4738798131875015	0.14217144504152923
-0.4738187780312515	0.1264673899842669
-0.4737577428750015	0.11060404018069706
-0.4736967077187515	0.09460497717676325
-0.4736356725625015	0.07848707034518414
-0.4735746374062515	0.062265483961893006
-0.4735136022500015	0.045966453936111
-0.4734525670937515	0.0295977803816364
-0.4733915319375015	0.013186953865501266
-0.4733304967812515	-0.003251061741938257
-0.4732694616250015	-0.019698318379042807
-0.4732084264687515	-0.03613188774444089
-0.4731473913125015	-0.052541072710353284
-0.4730863561562515	-0.0688969930867798
-0.4730253210000015	-0.08518940062510208
-0.4729642858437515	-0.10139575314904739
-0.4729032506875015	-0.11749583097302527
-0.4728422155312515	-0.1334784902435987
-0.4727811803750015	-0.1493159815790656
-0.4727201452187515	-0.16499808290069848
-0.4726591100625015	-0.1805011501543043
-0.4725980749062515	-0.19581102675957657
-0.4725370397500015	-0.21091116546926095
-0.4724760045937515	-0.2257772350362356
-0.4724149694375015	-0.24040239416509204
-0.4723539342812515	-0.2547609511425177
-0.4722928991250015	-0.26884189426799254
-0.4722318639687515	-0.2826274181836299
-0.4721708288125015	-0.2960990258523406
-0.4721097936562515	-0.30924823349880143
-0.4720487585000015	-0.32205040520438244
-0.4719877233437515	-0.3344996285857619
-0.4719266881875015	-0.34657624742414933
-0.4718656530312515	-0.35826681525441145
-0.4718046178750015	-0.36956178626738656
-0.4717435827187515	-0.3804412172593877
-0.4716825475625015	-0.39090115355040167
-0.4716215124062515	-0.4009206584464795
-0.4715604772500015	-0.4104942037053228
-0.4714994420937515	-0.4196103987383287
-0.4714384069375015	-0.4282530825626625
-0.4713773717812515	-0.43642106791553686
-0.4713163366250015	-0.4440954925405896
-0.4712553014687515	-0.45127510976606033
-0.4711942663125015	-0.4579475989881488
-0.4711332311562515	-0.4641040237149264
-0.4710721960000015	-0.46974291313429484
-0.4710111608437515	-0.4748490187808458
-0.4709501256875015	-0.47942556438153916
-0.4708890905312515	-0.48345975173771016
-0.4708280553750015	-0.4869499962395596
-0.4707670202187515	-0.48989410536175726
-0.4707059850625015	-0.49228194409140424
-0.4706449499062515	-0.49411978090004455
-0.4705839147500015	-0.49539617463720387
-0.4705228795937515	-0.4961159622204223
-0.4704618444375015	-0.49627600478751854
-0.4704008092812515	-0.49587307268234143
-0.4703397741250015	-0.4949146066958516
-0.4702787389687515	-0.49339204478651066
-0.4702177038125015	-0.4913157087084014
-0.4701566686562515	-0.48868218333104985
-0.4700956335000015	-0.48549545941068173
-0.4700345983437515	-0.48176254637052485
-0.4699735631875015	-0.47747988097972377
-0.4699125280312515	-0.47266168245909396
-0.4698514928750015	-0.4673049416102018
-0.4697904577187515	-0.46142062675773
-0.4697294225625015	-0.45501463944219567
-0.4696683874062515	-0.44808976338346107
-0.4696073522500015	-0.4406623250084412
