Time	Frequency
-0.5000221983437498	-0.3787009508473707
-0.49996116318749984	-0.37289464664053146
-0.49990012803124984	-0.36675194509179404
-0.49983909287499984	-0.36027839840567755
-0.49977805771874984	-0.3534796912188901
-0.49971702256249984	-0.34636140166940266
-0.49965598740624984	-0.3389298938871426
-0.49959495224999984	-0.3311920013965247
-0.49953391709374984	-0.3231542378349689
-0.49947288193749984	-0.31482353794515716
-0.49941184678124984	-0.30620727259370617
-0.49935081162499984	-0.29731296490493203
-0.49928977646874984	-0.2881488401970526
-0.49922874131249984	-0.2787229334254133
-0.49916770615624984	-0.2690426534883462
-0.49910667099999984	-0.25911691901529915
-0.49904563584374984	-0.2489555460830209
-0.49898460068749984	-0.23856663915279436
-0.49892356553124984	-0.22795874067765884
-0.49886253037499984	-0.21714217399946975
-0.49880149521874984	-0.20612649585482049
-0.49874046006249984	-0.19492086086160523
-0.49867942490624984	-0.1835354977096805
-0.49861838974999984	-0.1719808298466331
-0.49855735459374984	-0.16026669800513743
-0.49849631943749984	-0.14840317539989345
-0.49843528428124984	-0.13640118107596266
-0.49837424912499984	-0.12427167766122876
-0.49831321396874984	-0.11202534892012257
-0.49825217881249984	-0.09967261181418241
-0.49819114365624984	-0.0872240703982889
-0.49813010849999984	-0.07469153421313753
-0.49806907334374984	-0.062086830371933015
-0.49800803818749984	-0.04942027073710294
-0.49794700303124984	-0.03670232567647664
-0.49788596787499984	-0.02394534812826735
-0.49782493271874984	-0.011161314728696128
-0.49776389756249984	0.0016394635558946748
-0.49770286240624984	0.014445621525893309
-0.49764182724999984	0.027244853977829164
-0.49758079209374984	0.04002616055626024
-0.49751975693749984	0.052778735032950504
-0.49745872178124984	0.06549058580310343
-0.49739768662499984	0.07814979845779735
-0.49733665146874984	0.09074575189114968
-0.49727561631249984	0.10326773613227162
-0.49721458115624984	0.1157038087357425
-0.49715354599999984	0.1280423822061511
-0.49709251084374984	0.14027292291822455
-0.49703147568749984	0.15238496669881288
-0.49697044053124984	0.1643673904649496
-0.49690940537499984	0.17620875125181276
-0.49684837021874984	0.18789873090527082
-0.49678733506249984	0.1994275350162123
-0.49672629990624984	0.21078436209412396
-0.49666526474999984	0.22195845545052034
-0.49660422959374984	0.2329403529685523
-0.49654319443749984	0.24372059301096607
-0.49648215928124984	0.2542887046188122
-0.49642112412499984	0.2646349823005809
-0.49636008896874984	0.2747509089992343
-0.49629905381249984	0.28462729682220356
-0.49623801865624984	0.29425467403052274
-0.49617698349999984	0.30362452653565886
-0.49611594834374984	0.3127286206913019
-0.49605491318749984	0.321558606176725
-0.49599387803124984	0.3301064672388995
-0.49593284287499984	0.3383645629535813
-0.49587180771874984	0.3463253346172524
-0.49581077256249984	0.35398144572158863
-0.49574973740624984	0.36132611499632544
-0.49568870224999984	0.3683527645079401
-0.49562766709374984	0.3750548379698317
-0.49556663193749984	0.38142617273435
-0.49550559678124984	0.3874610409352655
-0.49544456162499984	0.3931539640779567
-0.49538352646874984	0.3984998104160017
-0.49532249131249984	0.40349365290961337
-0.49526145615624984	0.40813068171980205
-0.49520042099999984	0.41240669237445127
-0.49513938584374984	0.4163180145437359
-0.49507835068749984	0.4198609941560665
-0.49501731553124984	0.4230320831231526
-0.49495628037499984	0.42582828766391373
-0.49489524521874984	0.42824720441693725
-0.49483421006249984	0.430286642200805
-0.49477317490624984	0.4319444956613102
-0.49471213974999984	0.43321901786402905
-0.49465110459374984	0.4341090523456566
-0.49459006943749984	0.4346138262473167
-0.49452903428124984	0.4347327006045843
-0.49446799912499984	0.43446533583813873
-0.49440696396874984	0.433811848317144
-0.49434592881249984	0.43277279433972066
-0.49428489365624984	0.43134906926751754
-0.49422385849999984	0.4295417086150969
-0.49416282334374984	0.42735206654000474
-0.49410178818749984	0.42478216282273096
-0.49404075303124984	0.4218343360706058
-0.49397971787499984	0.4185108991346341
-0.49391868271874984	0.4148146362005351
-0.49385764756249984	0.41074888929970904
-0.49379661240624984	0.4063171809258538
-0.49373557724999984	0.4015234366263075
-0.49367454209374984	0.3963718079180776
-0.49361350693749984	0.39086658323863277
-0.49355247178124984	0.38501277594839317
-0.49349143662499984	0.3788157385415875
-0.49343040146874984	0.37228062405150614
-0.49336936631249984	0.36541314079563725
-0.49330833115624984	0.3582197530207475
-0.49324729599999984	0.3507065317511668
-0.49318626084374984	0.34287979235951727
-0.49312522568749984	0.33474709163428273
-0.49306419053124984	0.326315689438868
-0.49300315537499984	0.3175924353325115
-0.49294212021874984	0.30858513793874004
-0.49288108506249984	0.2993022690459678
-0.49282004990624984	0.2897521218965129
-0.49275901474999984	0.27994285116677603
-0.49269797959374984	0.2698830608356788
-0.49263694443749984	0.25958181295542515
-0.49257590928124984	0.24904858591549459
-0.49251487412499984	0.23829286825838705
-0.49245383896874984	0.22732383190911656
-0.49239280381249984	0.21615121251289574
-0.49233176865624984	0.2047851257702729
-0.49227073349999984	0.1932358145678812
-0.49220969834374984	0.18151407917917461
-0.49214866318749984	0.16963001787529425
-0.49208762803124984	0.15759327911369564
-0.49202659287499984	0.14541547457983178
-0.49196555771874984	0.13310855473585315
-0.49190452256249984	0.12068254073243796
-0.49184348740624984	0.10814782407796984
-0.49178245224999984	0.09551628602646438
-0.49172141709374984	0.08279988712591084
-0.49166038193749984	0.07000980355725026
-0.49159934678124984	0.05715690387646823
-0.49153831162499984	0.04425284638301605
-0.49147727646874984	0.03130960046696845
-0.49141624131249984	0.01833877146882005
-0.49135520615624984	0.005351910892001583
-0.49129417099999984	-0.007639295720057854
-0.49123313584374984	-0.02062323703143428
-0.49117210068749984	-0.03358832944013693
-0.49111106553124984	-0.046522571689658586
-0.49105003037499984	-0.059414217522952256
-0.49098899521874984	-0.07225219794998242
-0.49092796006249984	-0.08502478588737031
-0.49086692490624984	-0.09771993098222868
-0.49080588974999984	-0.11032668128373839
-0.49074485459374984	-0.12283387479835409
-0.49068381943749984	-0.1352295900649077
-0.49062278428124984	-0.14750279620749135
-0.49056174912499984	-0.15964285775229073
-0.49050071396874984	-0.17163849636559567
-0.49043967881249984	-0.18347867243105345
-0.49037864365624984	-0.19515295110551117
-0.49031760849999984	-0.20665073188701838
-0.49025657334374984	-0.21796149909169862
-0.49019553818749984	-0.22907515529395195
-0.49013450303124984	-0.23998146162223524
-0.49007346787499984	-0.2506706288295808
-0.49001243271874984	-0.261133178548902
-0.48995139756249984	-0.27135924020015034
-0.48989036240624984	-0.28133955554189144
-0.48982932724999984	-0.29106539363764117
-0.48976829209374984	-0.3005277806760651
-0.48970725693749984	-0.3097180181805064
-0.48964622178124984	-0.3186278412534211
-0.48958518662499984	-0.3272489933890246
-0.48952415146874984	-0.3355736829490373
-0.48946311631249984	-0.3435946921707943
-0.48940208115624984	-0.35130438367366085
-0.48934104599999984	-0.35869536677248653
-0.48928001084374984	-0.3657614596362062
-0.48921897568749984	-0.37249634273697246
-0.48915794053124984	-0.3788932901910313
-0.48909690537499984	-0.3849465223700734
-0.48903587021874984	-0.3906508824427557
-0.48897483506249984	-0.3960010516806361
-0.48891379990624984	-0.400991896581436
-0.48885276474999984	-0.4056188342713171
-0.48879172959374984	-0.4098777512875534
-0.48873069443749984	-0.4137647513396549
-0.48866965928124984	-0.41727615628236253
-0.48860862412499984	-0.42040866961121515
-0.48854758896874984	-0.4231594400762203
-0.48848655381249984	-0.42552593458110916
-0.48842551865624984	-0.4275058383608608
-0.48836448349999984	-0.42909730870742574
-0.48830344834374984	-0.4302989288642014
-0.48824241318749984	-0.43110945653362065
-0.48818137803124984	-0.43152801399259627
-0.48812034287499984	-0.43155419908937537
-0.48805930771874984	-0.4311879508460331
-0.48799827256249984	-0.4304295272600374
-0.48793723740624984	-0.42927948340040073
-0.48787620224999984	-0.42773872994339696
-0.48781516709374984	-0.42580867850727905
-0.48775413193749984	-0.4234910757601657
-0.48769309678124984	-0.42078783929485297
-0.48763206162499984	-0.4177012759171351
-0.48757102646874984	-0.4142341828811118
-0.48750999131249984	-0.4103896908315277
-0.48744895615624984	-0.40617126300046225
-0.48738792099999984	-0.4015825417729052
-0.48732688584374984	-0.39662743729133576
-0.48726585068749984	-0.3913106356080769
-0.48720481553124984	-0.385637065295234
-0.48714378037499984	-0.3796115163902313
-0.48708274521874984	-0.3732392758105552
-0.48702171006249984	-0.36652621171557753
-0.48696067490624984	-0.3594785983014452
-0.48689963974999984	-0.35210269833784524
-0.48683860459374984	-0.3444047776512484
-0.48677756943749984	-0.33639188406794357
-0.48671653428124984	-0.32807156227696926
-0.48665549912499984	-0.3194512992452084
-0.48659446396874984	-0.31053862650708086
-0.48653342881249984	-0.30134140387478875
-0.48647239365624984	-0.2918682669273585
-0.48641135849999984	-0.28212810256547416
-0.48635032334374984	-0.2721292375853518
-0.48628928818749984	-0.2618804534471266
-0.48622825303124984	-0.25139163432340517
-0.48616721787499984	-0.24067234522045675
-0.48610618271874984	-0.22973171904901862
-0.48604514756249984	-0.21857984786796472
-0.48598411240624984	-0.20722728635620916
-0.48592307724999984	-0.19568404868067615
-0.48586204209374984	-0.18396032849709398
-0.48580100693749984	-0.17206707672974494
-0.48573997178124984	-0.1600152782748488
-0.48567893662499984	-0.14781563119258498
-0.48561790146874984	-0.1354791850105413
-0.48555686631249984	-0.12301723719309683
-0.48549583115624984	-0.1104411608033982
-0.48543479599999984	-0.09776256726271057
-0.48537376084374984	-0.08499281281670445
-0.48531272568749984	-0.07214326020276209
-0.48525169053124984	-0.05922594572247288
-0.48519065537499984	-0.046253021746841885
-0.48512962021874984	-0.03323594994700223
-0.48506858506249984	-0.020186118770778604
-0.48500754990624984	-0.007115784589342482
-0.48494651474999984	0.0059625990612985616
-0.48488547959374984	0.01903719101327963
-0.48482444443749984	0.032096607799186806
-0.48476340928124984	0.04512908001854038
-0.48470237412499984	0.05812195429441183
-0.48464133896874984	0.0710632255354529
-0.48458030381249984	0.08394171512055486
-0.48451926865624984	0.09674551229802916
-0.48445823349999984	0.10946261204978715
-0.48439719834374984	0.12208138597367701
-0.48433616318749984	0.13459036395389337
-0.48427512803124984	0.14697826061649655
-0.48421409287499984	0.15923335766183408
-0.48415305771874984	0.1713442372700997
-0.48409202256249984	0.18330039715126925
-0.48403098740624984	0.19509088044248935
-0.48396995224999984	0.2067040011690883
-0.48390891709374984	0.2181292424091152
-0.48384788193749984	0.2293570153088807
-0.48378684678124984	0.24037646694126696
-0.48372581162499984	0.25117683735213014
-0.48366477646874984	0.2617488036773271
-0.48360374131249984	0.27208271634425474
-0.48354270615624984	0.2821685681206687
-0.48348167099999984	0.2919971589558238
-0.48342063584374984	0.301559840077261
-0.48335960068749984	0.31084752858645565
-0.48329856553124984	0.3198510060571303
-0.48323753037499984	0.32856235848892573
-0.48317649521874984	0.3369741406485169
-0.48311546006249984	0.3450781122183821
-0.48305442490624984	0.35286620290985105
-0.48299338974999984	0.3603313188346483
-0.48293235459374984	0.36746701812662963
-0.48287131943749984	0.3742667061741444
-0.48281028428124984	0.3807235944603498
-0.48274924912499984	0.3868315280135099
-0.48268821396874984	0.3925849999908078
-0.48262717881249984	0.3979787235013789
-0.48256614365624984	0.4030075858150218
-0.48250510849999984	0.40766676143178365
-0.48244407334374984	0.4119518271200658
-0.48238303818749984	0.4158586861762717
-0.48232200303124984	0.4193836339873833
-0.48226096787499984	0.42252338858128347
-0.48219993271874984	0.4252749190304227
-0.48213889756249984	0.42763550178980486
-0.48207786240624984	0.42960273893832834
-0.48201682724999984	0.43117468700335854
-0.48195579209374984	0.4323499184794875
-0.48189475693749984	0.4331271739097754
-0.48183372178124984	0.4335054249934542
-0.48177268662499984	0.4334841920379731
-0.48171165146874984	0.43306345043006955
-0.48165061631249984	0.4322434343456048
-0.48158958115624984	0.4310246474218138
-0.48152854599999984	0.4294080202496717
-0.48146751084374984	0.42739495664573224
-0.48140647568749984	0.4249871928163528
-0.48134544053124984	0.42218668449095165
-0.48128440537499984	0.41899576615351314
-0.48122337021874984	0.4154173578077077
-0.48116233506249984	0.41145466468628306
-0.48110129990624984	0.40711093880694277
-0.48104026474999984	0.4023899367279923
-0.48097922959374984	0.397296139077084
-0.48091819443749984	0.39183413784987103
-0.48085715928124984	0.3860083869379485
-0.48079612412499984	0.37982405987803936
-0.48073508896874984	0.37328715134454865
-0.48067405381249984	0.36640341377189134
-0.48061301865624984	0.3591786481899202
-0.48055198349999984	0.35161950335575387
-0.48049094834374984	0.34373288122093226
-0.48042991318749984	0.3355258985510441
-0.48036887803124984	0.3270060664417314
-0.48030784287499984	0.31818068340407873
-0.48024680771874984	0.3090576536919871
-0.48018577256249984	0.2996458289208538
-0.48012473740624984	0.28995363117606965
-0.48006370224999984	0.27998936394175916
-0.48000266709374984	0.26976212169753844
-0.47994163193749984	0.25928135577042155
-0.47988059678124984	0.24855673770253708
-0.47981956162499984	0.23759809831594841
-0.47975852646874984	0.22641500972328926
-0.47969749131249984	0.21501737599389267
-0.47963645615624984	0.20341608574047268
-0.47957542099999984	0.19162193559352356
-0.47951438584374984	0.1796452576885495
-0.47945335068749984	0.1674969995205621
-0.47939231553124984	0.1551881431642164
-0.47933128037499984	0.14272973101200978
-0.47927024521874984	0.13013383898136197
-0.47920921006249984	0.11741207355873037
-0.47914817490624984	0.10457509762661511
-0.47908713974999984	0.09163460443178656
-0.47902610459374984	0.07860339255980811
-0.47896506943749984	0.06549339904873006
-0.47890403428124984	0.052315772963811874
-0.47884299912499984	0.039082725353271
-0.47878196396874984	0.025807012818232514
-0.47872092881249984	0.0125004923547988
-0.47865989365624984	-0.0008251127017721963
-0.47859885849999984	-0.014156987992516119
-0.47853782334374984	-0.027482514051285465
-0.47847678818749984	-0.04079045099717722
-0.47841575303124984	-0.054068572117058025
-0.47835471787499984	-0.06730361736163747
-0.47829368271874984	-0.08048375086508101
-0.47823264756249984	-0.09359756055131739
-0.47817161240624984	-0.10663267404660814
-0.47811057724999984	-0.11957666306984108
-0.47804954209374984	-0.13241784853610727
-0.47798850693749984	-0.14514446434090753
-0.47792747178124984	-0.15774460376644583
-0.47786643662499984	-0.17020692730825182
-0.47780540146874984	-0.18251991215039606
-0.47774436631249984	-0.19467186387984686
-0.47768333115624984	-0.20665161567807386
-0.47762229599999984	-0.21844828606142874
-0.47756126084374984	-0.23005094706988782
-0.47750022568749984	-0.24144884418950388
-0.47743919053124984	-0.252631371645062
-0.47737815537499984	-0.26358803437474204
-0.47731712021874984	-0.27430890857669304
-0.47725608506249984	-0.28478405272368074
-0.47719504990624984	-0.2950034961830296
-0.47713401474999984	-0.3049579426667052
-0.47707297959374984	-0.3146381193270523
-0.47701194443749984	-0.3240350155974453
-0.47695090928124984	-0.3331400038134812
-0.47688987412499984	-0.34194425556336655
-0.47682883896874984	-0.3504396433617349
-0.47676780381249984	-0.3586186670233089
-0.47670676865624984	-0.3664734681977912
-0.47664573349999984	-0.3739963823824121
-0.47658469834374984	-0.38118056447389753
-0.47652366318749984	-0.3880194803340934
-0.47646262803124984	-0.3945065303284919
-0.47640159287499984	-0.40063557801916244
-0.47634055771874984	-0.4064010118305944
-0.47627952256249984	-0.4117972707672296
-0.47621848740624984	-0.4168191918887816
-0.47615745224999984	-0.42146216772811135
-0.47609641709374984	-0.42572174709816024
-0.47603538193749984	-0.429593829970085
-0.47597434678124984	-0.4330747815441248
-0.47591331162499984	-0.43616118543797383
-0.47585227646874984	-0.43885002807916906
-0.47579124131249984	-0.4411387796135208
-0.47573020615624984	-0.4430251908882787
-0.47566917099999984	-0.4445073567478711
-0.47560813584374984	-0.4455837519291105
-0.47554710068749984	-0.44625322166972786
-0.47548606553124984	-0.44651504435618455
-0.47542503037499984	-0.44636885684787836
-0.47536399521874984	-0.4458146344960815
-0.47530296006249984	-0.4448527296866501
-0.47524192490624984	-0.44348386775152454
-0.47518088974999984	-0.44170919795875807
-0.47511985459374984	-0.43953023641229233
-0.47505881943749984	-0.4369488417339219
-0.47499778428124984	-0.4339672514401406
-0.47493674912499984	-0.43058798993065633
-0.47487571396874984	-0.4268141143040338
-0.47481467881249984	-0.42264913567636225
-0.47475364365624984	-0.41809652596488117
-0.47469260849999984	-0.4131602509933155
-0.47463157334374984	-0.40784500984129696
-0.47457053818749984	-0.40215559158569475
-0.47450950303124984	-0.39609695245427373
-0.47444846787499984	-0.389674527355903
-0.47438743271874984	-0.38289415577901803
-0.47432639756249984	-0.37576201489944405
-0.47426536240624984	-0.3682847320925868
-0.47420432724999984	-0.36046898668515803
-0.47414329209374984	-0.35232152641736436
-0.47408225693749984	-0.34385003667448344
-0.47402122178124984	-0.33506250492271855
-0.47396018662499984	-0.32596668594250305
-0.47389915146874984	-0.3165707724492116
-0.47383811631249984	-0.306883329415441
-0.47377708115624984	-0.2969133129887507
-0.47371604599999984	-0.28667003008030695
-0.47365501084374984	-0.27616271635264994
-0.47359397568749984	-0.265400781012211
-0.47353294053124984	-0.25439406232507356
-0.47347190537499984	-0.24315291654908572
-0.47341087021874984	-0.23168789094316786
-0.47334983506249984	-0.22000903354680434
-0.47328879990624984	-0.2081268639464492
-0.47322776474999984	-0.19605283185734998
-0.47316672959374984	-0.18379795873846883
-0.47310569443749984	-0.17137333158589788
-0.47304465928124984	-0.1587905284122929
-0.47298362412499984	-0.14606089114029241
-0.47292258896874984	-0.13319608537806504
-0.47286155381249984	-0.12020841216827605
-0.47280051865624984	-0.10711006188212903
-0.47273948349999984	-0.09391222602196476
-0.47267844834374984	-0.0806267948890464
-0.47261741318749984	-0.06726742930398909
-0.47255637803124984	-0.05384632143856898
-0.47249534287499984	-0.0403746671353405
-0.47243430771874984	-0.02686524649316514
-0.47237327256249984	-0.013331051935111922
-0.47231223740624984	0.00021529292456029777
-0.47225120224999984	0.013761442412813907
-0.47219016709374984	0.027295423702433267
-0.47212913193749984	0.04080447173304809
-0.47206809678124984	0.054275437369522624
-0.47200706162499984	0.06769617546197029
-0.47194602646874984	0.08105475941158355
-0.47188499131249984	0.09433828899126616
-0.47182395615624984	0.10753426932406797
-0.47176292099999984	0.12063119282132327
-0.47170188584374984	0.13361652600746496
-0.47164085068749984	0.14647754923733156
-0.47157981553124984	0.1592030628026088
-0.47151878037499984	0.17178150321725916
-0.47145774521874984	0.18420065022885815
-0.47139671006249984	0.19644899998342163
-0.47133567490624984	0.20851514585330974
-0.47127463974999984	0.22038778440766651
-0.47121360459374984	0.2320561798426683
-0.47115256943749984	0.24350959767314354
-0.47109153428124984	0.25473697839281567
-0.47103049912499984	0.26572754864547427
-0.47096946396874984	0.27647148488827833
-0.47090842881249984	0.28695903305605186
-0.47084739365624984	0.29718015116913493
-0.47078635849999984	0.3071251485640611
-0.47072532334374984	0.3167844887123068
-0.47066428818749984	0.3261494787418609
-0.47060325303124984	0.3352118852131309
-0.47054221787499984	0.3439625481439679
-0.47048118271874984	0.3523929283040552
