Time	Frequency
-0.5000076290624946	0.4848276305450467
-0.49994659390624463	0.4897030062405944
-0.49988555874999463	0.49388758773164393
-0.49982452359374463	0.4973752928289891
-0.49976348843749463	0.500161103694223
-0.49970245328124463	0.5022410550132284
-0.49964141812499463	0.5036121410286386
-0.49958038296874463	0.504272342043792
-0.49951934781249463	0.5042205384514988
-0.49945831265624463	0.5034566277043311
-0.49939727749999463	0.5019816140572094
-0.49933624234374463	0.4997974877666518
-0.49927520718749463	0.49690717971148574
-0.49921417203124463	0.4933145528733114
-0.49915313687499463	0.489024443235141
-0.49909210171874463	0.48404281091031864
-0.49903106656249463	0.4783767070621176
-0.49897003140624463	0.47203384455942793
-0.49890899624999463	0.4650226940742035
-0.49884796109374463	0.45735309897632787
-0.49878692593749463	0.4490360265273968
-0.49872589078124463	0.4400829993080181
-0.49866485562499463	0.43050608403660834
-0.49860382046874463	0.4203185365068159
-0.49854278531249463	0.40953497375563075
-0.49848175015624463	0.39817037235635616
-0.49842071499999463	0.38624031324232777
-0.49835967984374463	0.3737616719154474
-0.49829864468749463	0.3607518406459225
-0.49823760953124463	0.3472286432040788
-0.49817657437499463	0.33321129183521725
-0.49811553921874463	0.31871974349826226
-0.49805450406249463	0.30377369042554053
-0.49799346890624463	0.2883940005203666
-0.49793243374999463	0.272602825849101
-0.49787139859374463	0.2564218488860807
-0.49781036343749463	0.23987350000099383
-0.49774932828124463	0.2229816753366244
-0.49768829312499463	0.20576974507113788
-0.49762725796874463	0.18826133030731698
-0.49756622281249463	0.17048178701793143
-0.49750518765624463	0.15245622800474096
-0.49744415249999463	0.13420896690608092
-0.49738311734374463	0.11576587856731327
-0.49732208218749463	0.09715384996366215
-0.49726104703124463	0.07839873519830534
-0.49720001187499463	0.05952618963069365
-0.49713897671874463	0.040562772750178604
-0.49707794156249463	0.021535876519844118
-0.49701690640624463	0.0024726305903878154
-0.49695587124999463	-0.016600735510929193
-0.49689483609374463	-0.03565774584215987
-0.49683380093749463	-0.054671256709730116
-0.49677276578124463	-0.07361396933508024
-0.49671173062499463	-0.09245895541266437
-0.49665069546874463	-0.11118001998782392
-0.49658966031249463	-0.12975126485965968
-0.49652862515624463	-0.14814615147047042
-0.49646758999999463	-0.16633788873213515
-0.49640655484374463	-0.18430106846502434
-0.49634551968749463	-0.2020109518159987
-0.49628448453124463	-0.21944193613292373
-0.49622344937499463	-0.23656891580630993
-0.49616241421874463	-0.2533682814409941
-0.49610137906249463	-0.26981639454188455
-0.49604034390624463	-0.2858891289109037
-0.49597930874999463	-0.30156353767885347
-0.49591827359374463	-0.3168180767195254
-0.49585723843749463	-0.3316311791390967
-0.49579620328124463	-0.345981166496763
-0.49573516812499463	-0.359847279789811
-0.49567413296874463	-0.37321024336963077
-0.49561309781249463	-0.3860515351643202
-0.49555206265624463	-0.39835228452694704
-0.49549102749999463	-0.4100941677539346
-0.49542999234374463	-0.42126083261899255
-0.49536895718749463	-0.43183702185860207
-0.49530792203124463	-0.44180727919918805
-0.49524688687499463	-0.45115651111093896
-0.49518585171874463	-0.45987132257697516
-0.49512481656249463	-0.467939782609454
-0.49506378140624463	-0.4753501265241156
-0.49500274624999463	-0.48209109739877926
-0.49494171109374463	-0.4881529757187258
-0.49488067593749463	-0.4935271733028127
-0.49481964078124463	-0.49820568623769823
-0.49475860562499463	-0.5021814370794117
-0.49469757046874463	-0.5054484346265721
-0.49463653531249463	-0.5080018116757233
-0.49457550015624463	-0.509837754321722
-0.49451446499999463	-0.5109531969512516
-0.49445342984374463	-0.5113460828026366
-0.49439239468749463	-0.5110155752022905
-0.49433135953124463	-0.5099618569667492
-0.49427032437499463	-0.5081860432618809
-0.49420928921874463	-0.5056901624239352
-0.49414825406249463	-0.5024773603522034
-0.49408721890624463	-0.4985519682172036
-0.49402618374999463	-0.4939190550499817
-0.49396514859374463	-0.4885846105018725
-0.49390411343749463	-0.4825560724880938
-0.49384307828124463	-0.4758416407618029
-0.49378204312499463	-0.4684500840422181
-0.49372100796874463	-0.46039153317646675
-0.49365997281249463	-0.45167722701930996
-0.49359893765624463	-0.4423191172507839
-0.49353790249999463	-0.4323299052678001
-0.49347686734374463	-0.42172319423856
-0.49341583218749463	-0.4105138005153182
-0.49335479703124463	-0.39871737633400445
-0.49329376187499463	-0.3863500082143629
-0.49323272671874463	-0.3734287070589019
-0.49317169156249463	-0.3599716351865887
-0.49311065640624463	-0.34599754979378505
-0.49304962124999463	-0.3315256933260519
-0.49298858609374463	-0.31657600198841196
-0.49292755093749463	-0.3011694057482877
-0.49286651578124463	-0.2853277695781038
-0.49280548062499463	-0.2690729449855193
-0.49274444546874463	-0.2524273349757837
-0.49268341031249463	-0.23541450563403976
-0.49262237515624463	-0.21805788826378636
-0.49256133999999463	-0.20038176515697173
-0.49250030484374463	-0.18241186191617742
-0.49243926968749463	-0.1641726145765449
-0.49237823453124463	-0.1456885393348387
-0.49231719937499463	-0.12698652432502563
-0.49225616421874463	-0.10809336431779887
-0.49219512906249463	-0.08903526099709491
-0.49213409390624463	-0.06983843080275258
-0.49207305874999463	-0.05052932006567585
-0.49201202359374463	-0.031135978841010017
-0.49195098843749463	-0.011686219634575709
-0.49188995328124463	0.007793503510061941
-0.49182891812499463	0.027276009598310193
-0.49176788296874463	0.04673348860731734
-0.49170684781249463	0.06613852663238881
-0.49164581265624463	0.08546377428326517
-0.49158477749999463	0.10468187235589155
-0.49152374234374463	0.12376591149766954
-0.49146270718749463	0.14268914890398823
-0.49140167203124463	0.16142465387841437
-0.49134063687499463	0.1799459700239298
-0.49127960171874463	0.19822713042859577
-0.49121856656249463	0.21624207963661637
-0.49115753140624463	0.23396508359889745
-0.49109649624999463	0.25137140533849084
-0.49103546109374463	0.2684370570577252
-0.49097442593749463	0.28513740937058263
-0.49091339078124463	0.30144781833483525
-0.49085235562499463	0.3173457831112477
-0.49079132046874463	0.33280962394273356
-0.49073028531249463	0.3478170652083043
-0.49066925015624463	0.3623462208075858
-0.49060821499999463	0.3763762236555797
-0.49054717984374463	0.38988769015376457
-0.49048614468749463	0.4028618536095811
-0.49042510953124463	0.41527970511680046
-0.49036407437499463	0.42712324247490074
-0.49030303921874463	0.4383759246380866
-0.49024200406249463	0.4490218677016928
-0.49018096890624463	0.45904571592409543
-0.49011993374999463	0.4684330582439847
-0.49005889859374463	0.47717040562288165
-0.48999786343749463	0.485245275796761
-0.48993682828124463	0.4926462959238082
-0.48987579312499463	0.49936267909458587
-0.48981475796874463	0.505384533841989
-0.48975372281249463	0.5107033033667837
-0.48969268765624463	0.5153113206493805
-0.48963165249999463	0.5192018487493599
-0.48957061734374463	0.5223691963410337
-0.48950958218749463	0.5248085714474765
-0.48944854703124463	0.5265163343180413
-0.48938751187499463	0.527489958098191
-0.48932647671874463	0.5277278119180526
-0.48926544156249463	0.5272293244285211
-0.48920440640624463	0.5259949784667156
-0.48914337124999463	0.5240262888499463
-0.48908233609374463	0.5213258667581563
-0.48902130093749463	0.5178973484869702
-0.48896026578124463	0.5137453823517905
-0.48889923062499463	0.5088755234657959
-0.48883819546874463	0.5032943960470797
-0.48877716031249463	0.4970098936429262
-0.48871612515624463	0.49003075521236295
-0.48865508999999463	0.4823664628162105
-0.48859405484374463	0.4740275449952057
-0.48853301968749463	0.4650257630844686
-0.48847198453124463	0.45537396430803956
-0.48841094937499463	0.44508536463464243
-0.48834991421874463	0.4341739400788721
-0.48828887906249463	0.42265534875975497
-0.48822784390624463	0.41054606921510234
-0.48816680874999463	0.39786270966548415
-0.48810577359374463	0.3846228303536584
-0.48804473843749463	0.3708452529954451
-0.48798370328124463	0.3565493450960755
-0.48792266812499463	0.3417551297511237
-0.48786163296874463	0.3264838092149255
-0.48780059781249463	0.3107566665948251
-0.48773956265624463	0.29459508843963966
-0.48767852749999463	0.2780223529424358
-0.48761749234374463	0.2610626078007942
-0.48755645718749463	0.2437392701186585
-0.48749542203124463	0.22607620848575422
-0.48743438687499463	0.20809846060187986
-0.48737335171874463	0.18983174162144179
-0.48731231656249463	0.17130215339894236
-0.48725128140624463	0.15253575928387306
-0.48719024624999463	0.13355861522732979
-0.48712921109374463	0.11439741023575946
-0.48706817593749463	0.0950797386697485
-0.48700714078124463	0.07563326124905972
-0.48694610562499463	0.05608487075885613
-0.48688507046874463	0.03646211453119451
-0.48682403531249463	0.01679346090100729
-0.48676300015624463	-0.0028934792537170734
-0.48670196499999463	-0.022571306621231968
-0.48664092984374463	-0.04221186497427023
-0.48657989468749463	-0.061786708829133945
-0.48651885953124463	-0.08126831846825154
-0.48645782437499463	-0.1006299574669903
-0.48639678921874463	-0.11984350983752298
-0.48633575406249463	-0.1388809546893797
-0.48627471890624463	-0.1577162488453221
-0.48621368374999463	-0.17632293699076515
-0.48615264859374463	-0.1946735784855757
-0.48609161343749463	-0.21274208693876906
-0.48603057828124463	-0.23050364620017721
-0.48596954312499463	-0.24793282254033058
-0.48590850796874463	-0.2650042944954741
-0.48584747281249463	-0.2816940566279922
-0.48578643765624463	-0.2979785100460144
-0.48572540249999463	-0.3138341679885088
-0.48566436734374463	-0.32923838932148797
-0.48560333218749463	-0.34416980574105327
-0.48554229703124463	-0.3586071968660716
-0.48548126187499463	-0.3725289563561798
-0.48542022671874463	-0.3859155622619797
-0.48535919156249463	-0.3987489805552998
-0.48529815640624463	-0.411010162066306
-0.48523712124999463	-0.42268114497455833
-0.48517608609374463	-0.4337459153468954
-0.48511505093749463	-0.4441885774074091
-0.48505401578124463	-0.45399397969011535
-0.48499298062499463	-0.46314833382637244
-0.48493194546874463	-0.4716386138078901
-0.48487091031249463	-0.47945252876603467
-0.48480987515624463	-0.4865787357280635
-0.48474883999999463	-0.4930071494550606
-0.48468780484374463	-0.4987287866858013
-0.48462676968749463	-0.5037353943762269
-0.48456573453124463	-0.5080195774081868
-0.48450469937499463	-0.5115750963249575
-0.48444366421874463	-0.5143970310723908
-0.48438262906249463	-0.5164814470949728
-0.48432159390624463	-0.5178251885511027
-0.48426055874999463	-0.5184261647689384
-0.48419952359374463	-0.5182835175568293
-0.48413848843749463	-0.5173975331019179
-0.48407745328124463	-0.5157694211102501
-0.48401641812499463	-0.5134013909322382
-0.48395538296874463	-0.5102968252423353
-0.48389434781249463	-0.5064600941835795
-0.48383331265624463	-0.5018965888714267
-0.48377227749999463	-0.49661290864195345
-0.48371124234374463	-0.4906166571136401
-0.48365020718749463	-0.4839162614208944
-0.48358917203124463	-0.47652105955406526
-0.48352813687499463	-0.4684416897509973
-0.48346710171874463	-0.4596900980569062
-0.48340606656249463	-0.4502786769405921
-0.48334503140624463	-0.44022041263398126
-0.48328399624999463	-0.42952966298840783
-0.48322296109374463	-0.4182220331912679
-0.48316192593749463	-0.40631403006161343
-0.48310089078124463	-0.3938225085586029
-0.48303985562499463	-0.3807648630045898
-0.48297882046874463	-0.36715976821942703
-0.48291778531249463	-0.35302700469382176
-0.48285675015624463	-0.3383872762270596
-0.48279571499999463	-0.3232614858526672
-0.48273467984374463	-0.3076703923158012
-0.48267364468749463	-0.291636571501144
-0.48261260953124463	-0.2751840181530836
-0.48255157437499463	-0.25833587460284785
-0.48249053921874463	-0.24111563290117052
-0.48242950406249463	-0.2235484571753678
-0.48236846890624463	-0.20566017442828513
-0.48230743374999463	-0.18747609843738455
-0.48224639859374463	-0.169021731519769
-0.48218536343749463	-0.1503239816728217
-0.48212432828124463	-0.1314103026130233
-0.48206329312499463	-0.11230786170198433
-0.48200225796874463	-0.0930433781190493
-0.48194122281249463	-0.07364429554689988
-0.48188018765624463	-0.054139616104689384
-0.48181915249999463	-0.034557865576334355
-0.48175811734374463	-0.014926295383136128
-0.48169708218749463	0.004727611075900894
-0.48163604703124463	0.02437471084133964
-0.48157501187499463	0.04398548795173856
-0.48151397671874463	0.0635324056976839
-0.48145294156249463	0.08298827802686677
-0.48139190640624463	0.1023245291657879
-0.48133087124999463	0.12151261790360207
-0.48126983609374463	0.1405247543436508
-0.48120880093749463	0.1593338309796758
-0.48114776578124463	0.17791307028172207
-0.48108673062499463	0.19623514483011553
-0.48102569546874463	0.21427317427782816
-0.48096466031249463	0.23200154732681133
-0.48090362515624463	0.2493946445462841
-0.48084258999999463	0.2664266776365739
-0.48078155484374463	0.2830731293085742
-0.48072051968749463	0.2993104377202202
-0.48065948453124463	0.3151145948280651
-0.48059844937499463	0.3304621804141515
-0.48053741421874463	0.3453312484591927
-0.48047637906249463	0.3597003843837864
-0.48041534390624463	0.37354856956127
-0.48035430874999463	0.38685542029684966
-0.48029327359374463	0.3996014114137461
-0.48023223843749463	0.41176809316279234
-0.48017120328124463	0.42333777054877564
-0.48011016812499463	0.43429348125002326
-0.48004913296874463	0.44461908121853455
-0.47998809781249463	0.4542992456111213
-0.47992706265624463	0.4633198077572353
-0.47986602749999463	0.47166767252037245
-0.47980499234374463	0.4793304912221498
-0.47974395718749463	0.486296766002976
-0.47968292203124463	0.4925560360567781
-0.47962188687499463	0.4980990490699579
-0.47956085171874463	0.5029176168064511
-0.47949981656249463	0.5070044556100072
-0.47943878140624463	0.5103532964406811
-0.47937774624999463	0.512958856792641
-0.47931671109374463	0.5148170602377128
-0.47925567593749463	0.5159250509133345
-0.47919464078124463	0.5162808510749732
-0.47913360562499463	0.5158835495486346
-0.47907257046874463	0.514733385405462
-0.47901153531249463	0.5128316301614244
-0.47895050015624463	0.5101807012416035
-0.47888946499999463	0.5067841593674234
-0.47882842984374463	0.5026466016747106
-0.47876739468749463	0.4977735121994532
-0.47870635953124463	0.4921715158348703
-0.47864532437499463	0.48584848013425136
-0.47858428921874463	0.47881330591249405
-0.47852325406249463	0.4710758492874439
-0.47846221890624463	0.4626465596323938
-0.47840118374999463	0.45353723632355103
-0.47834014859374463	0.44376137631711937
-0.47827911343749463	0.4333326061580767
-0.47821807828124463	0.4222650319623727
-0.47815704312499463	0.41057451345082496
-0.47809600796874463	0.3982780578905892
-0.47803497281249463	0.38539321361141304
-0.47797393765624463	0.3719379287363181
-0.47791290249999463	0.3579309950083481
-0.47785186734374463	0.3433926920283695
-0.47779083218749463	0.32834415273240825
-0.47772979703124463	0.31280674687723403
-0.47766876187499463	0.29680227752155697
-0.47760772671874463	0.2803534429126256
-0.47754669156249463	0.263484150143576
-0.47748565640624463	0.24621879410846115
-0.47742462124999463	0.22858170968427247
-0.47736358609374463	0.21059812740764944
-0.47730255093749463	0.19229421290820622
-0.47724151578124463	0.17369599862052987
-0.47718048062499463	0.15482987921744049
-0.47711944546874463	0.1357231692298259
-0.47705841031249463	0.11640362530987705
-0.47699737515624463	0.09689909455912325
-0.47693633999999463	0.07723734945986067
-0.47687530484374463	0.05744628922520023
-0.47681426968749463	0.03755460664527965
-0.47675323453124463	0.017591614626937306
-0.47669219937499463	-0.0024139710017994625
-0.47663116421874463	-0.022433873245373118
-0.47657012906249463	-0.042439461441155096
-0.47650909390624463	-0.062401416395505414
-0.47644805874999463	-0.08229025080331817
-0.47638702359374463	-0.10207765970224185
-0.47632598843749463	-0.1217356672617096
-0.47626495328124463	-0.14123565729585427
-0.47620391812499463	-0.16054899140159076
-0.47614288296874463	-0.17964729200357535
-0.47608184781249463	-0.19850323446445806
-0.47602081265624463	-0.21709029398045468
-0.47595977749999463	-0.2353811111826204
-0.47589874234374463	-0.2533483973001823
-0.47583770718749463	-0.27096635279205256
-0.47577667203124463	-0.2882097344630299
-0.47571563687499463	-0.3050535621867326
-0.47565460171874463	-0.3214730677269324
-0.47559356656249463	-0.3374439797741575
-0.47553253140624463	-0.35294351599478446
-0.47547149624999463	-0.3679492119963948
-0.47541046109374463	-0.3824386238284891
-0.47534942593749463	-0.39639072300211176
-0.47528839078124463	-0.4097854624232698
-0.47522735562499463	-0.42260311895516894
-0.47516632046874463	-0.434824639811287
-0.47510528531249463	-0.44643203838315815
-0.47504425015624463	-0.45740858716931093
-0.47498321499999463	-0.46773826010040254
-0.47492217984374463	-0.47740547445299825
-0.47486114468749463	-0.486395893773492
-0.47480010953124463	-0.49469644526648937
-0.47473907437499463	-0.502294800069357
-0.47467803921874463	-0.5091796267531911
-0.47461700406249463	-0.5153406877359088
-0.47455596890624463	-0.5207685960921047
-0.47449493374999463	-0.5254551071946197
-0.47443389859374463	-0.5293933498324015
-0.47437286343749463	-0.5325773409285679
-0.47431182828124463	-0.535001883974385
-0.47425079312499463	-0.5366630621672845
-0.47418975796874463	-0.5375582773423802
-0.47412872281249463	-0.5376859599029815
-0.47406768765624463	-0.537045478452339
-0.47400665249999463	-0.5356373351329132
-0.47394561734374463	-0.5334632190481775
-0.47388458218749463	-0.5305259049687687
-0.47382354703124463	-0.5268294160760749
-0.47376251187499463	-0.5223787365371906
-0.47370147671874463	-0.5171797511022852
-0.47364044156249463	-0.5112396618332355
-0.47357940640624463	-0.50456676719176
-0.47351837124999463	-0.4971704675079667
-0.47345733609374463	-0.4890611610712118
-0.47339630093749463	-0.4802500046666329
-0.47333526578124463	-0.4707492980526066
-0.47327423062499463	-0.4605726609398828
-0.47321319546874463	-0.4497347138442348
-0.47315216031249463	-0.4382505678646758
-0.47309112515624463	-0.42613641262987556
-0.47303008999999463	-0.4134096354998041
-0.47296905484374463	-0.4000880406678006
-0.47290801968749463	-0.38619092870937866
-0.47284698453124463	-0.37173850175808815
-0.47278594937499463	-0.3567505727306138
-0.47272491421874463	-0.3412485214431631
-0.47266387906249463	-0.3252553224254045
-0.47260284390624463	-0.3087935864290053
-0.47254180874999463	-0.2918864069930745
-0.47248077359374463	-0.27455834484163955
-0.47241973843749463	-0.2568342937576648
-0.47235870328124463	-0.2387395286834354
-0.47229766812499463	-0.22030022345024688
-0.47223663296874463	-0.20154280435418762
-0.47217559781249463	-0.18249403163644512
-0.47211456265624463	-0.1631813301450006
-0.47205352749999463	-0.14363268305764937
-0.47199249234374463	-0.12387620179645245
-0.47193145718749463	-0.1039400753049271
-0.47187042203124463	-0.08385322580149128
-0.47180938687499463	-0.06364475093011407
-0.47174835171874463	-0.043343297025830285
-0.47168731656249463	-0.022978247770563502
-0.47162628140624463	-0.0025796145952802496
-0.47156524624999463	0.017823587559934243
-0.47150421109374463	0.03820247626714379
-0.47144317593749463	0.058526942089148624
-0.47138214078124463	0.07876727759465676
-0.47132110562499463	0.09889498790526632
-0.47126007046874463	0.11888118320721477
-0.47119903531249463	0.13869631268907856
-0.47113800015624463	0.15831126579287153
-0.47107696499999463	0.17769834837187679
-0.47101592984374463	0.1968303123716529
-0.47095489468749463	0.2156785180165482
-0.47089385953124463	0.23421480937437716
-0.47083282437499463	0.2524133288481644
-0.47077178921874463	0.27024826751248154
-0.47071075406249463	0.2876931798727034
-0.47064971890624463	0.3047225429121008
-0.47058868374999463	0.32131144470697726
-0.47052764859374463	0.33743596511835644
-0.47046661343749463	0.3530735576053455
-0.47040557828124463	0.3682012846057159
-0.47034454312499463	0.3827962304261065
