Time	Frequency
-0.5000019073124946	3.2798237256794734e-24
-0.4999408721562446	3.384169972207597e-24
-0.4998798369999946	3.4829640937917905e-24
-0.4998188018437446	3.576042358829238e-24
-0.4997577666874946	3.66325061201357e-24
-0.4996967315312446	3.744447466025861e-24
-0.4996356963749946	3.8194993504495415e-24
-0.4995746612187446	3.888281125586889e-24
-0.4995136260624946	3.950680690885962e-24
-0.4994525909062446	4.006595478995071e-24
-0.4993915557499946	4.055931714185071e-24
-0.4993305205937446	4.098608098355312e-24
-0.4992694854374946	4.134554022158471e-24
-0.4992084502812446	4.1637102759873834e-24
-0.4991474151249946	4.1860275727240005e-24
-0.4990863799687446	4.2014683051195914e-24
-0.4990253448124946	4.2100061169456036e-24
-0.4989643096562446	4.211626261874911e-24
-0.4989032744999946	4.206324843003722e-24
-0.4988422393437446	4.194109593134752e-24
-0.4987812041874946	4.174999823094704e-24
-0.4987201690312446	4.149025544462372e-24
-0.4986591338749946	4.116226982772434e-24
-0.4985980987187446	4.0766581873051715e-24
-0.4985370635624946	4.030384323930849e-24
-0.4984760284062446	3.977478107333145e-24
-0.4984149932499946	3.9180241834953095e-24
-0.4983539580937446	3.8521209720848336e-24
-0.4982929229374946	3.779875999077216e-24
-0.4982318877812446	3.7014053809662044e-24
-0.4981708526249946	3.6168372986110994e-24
-0.4981098174687446	3.526308887510215e-24
-0.4980487823124946	3.429968016750893e-24
-0.4979877471562446	3.3279724021841796e-24
-0.4979267119999946	3.2204881031273547e-24
-0.4978656768437446	3.1076902717875763e-24
-0.4978046416874946	2.9897636453013232e-24
-0.4977436065312446	2.8669002572214656e-24
-0.4976825713749946	2.739301552928082e-24
-0.4976215362187446	2.6071765492795752e-24
-0.4975605010624946	2.47074096790631e-24
-0.4974994659062446	2.330217900464976e-24
-0.4974384307499946	2.1858381486412716e-24
-0.4973773955937446	2.0378374636850447e-24
-0.4973163604374946	1.886458918773815e-24
-0.4972553252812446	1.7319519808444024e-24
-0.4971942901249946	1.5745678397645778e-24
-0.4971332549687446	1.414564562947299e-24
-0.4970722198124946	1.2522058275938142e-24
-0.4970111846562446	1.087759368850711e-24
-0.4969501494999946	9.214947710312276e-25
-0.4968891143437446	7.536828802003408e-25
-0.4968280791874946	5.846000043314133e-25
-0.4967670440312446	4.145268591944148e-25
-0.4967060088749946	2.437418507289774e-25
-0.4966449737187446	7.252446178871648e-26
-0.4965839385624946	-9.88439174353078e-26
-0.4965229034062446	-2.7007871924870893e-25
-0.4964618682499946	-4.40896259246011e-25
-0.4964008330937446	-6.110194256499563e-25
-0.4963397979374946	-7.80169398631286e-25
-0.4962787627812446	-9.480627090672082e-25
-0.4962177276249946	-1.1144227500107539e-24
-0.4961566924687446	-1.2789764537572602e-24
-0.4960956573124946	-1.4414516949078725e-24
-0.4960346221562446	-1.601581782070825e-24
-0.4959735869999946	-1.759100669925999e-24
-0.4959125518437446	-1.9137477548852787e-24
-0.4958515166874946	-2.0652689653369795e-24
-0.4957904815312446	-2.2134117392042047e-24
-0.4957294463749946	-2.3579307092810946e-24
-0.4956684112187446	-2.4985895099210502e-24
-0.4956073760624946	-2.635152620309186e-24
-0.4955463409062446	-2.767392750538013e-24
-0.4954853057499946	-2.8950924901386033e-24
-0.4954242705937446	-3.018040023387537e-24
-0.4953632354374946	-3.1360298219400855e-24
-0.4953022002812446	-3.2488658403191876e-24
-0.4952411651249946	-3.356360930052564e-24
-0.4951801299687446	-3.458335976619722e-24
-0.4951190948124946	-3.5546201841676386e-24
-0.4950580596562446	-3.645053037665893e-24
-0.4949970244999946	-3.72948421257507e-24
-0.4949359893437446	-3.807772171424445e-24
-0.4948749541874946	-3.8797845466139125e-24
-0.4948139190312446	-3.945400761022689e-24
-0.4947528838749946	-4.004511971557231e-24
-0.4946918487187446	-4.057016002579043e-24
-0.4946308135624946	-4.1028239433216115e-24
-0.4945697784062446	-4.14185969079665e-24
-0.4945087432499946	-4.174055889561804e-24
-0.4944477080937446	-4.1993552937626995e-24
-0.4943866729374946	-4.2177142616335736e-24
-0.4943256377812446	-4.229100455667219e-24
-0.4942646026249946	-4.2334926352665055e-24
-0.4942035674687446	-4.2308804417505504e-24
-0.4941425323124946	-4.2212653336690745e-24
-0.4940814971562446	-4.204660502486949e-24
-0.4940204619999946	-4.181090749516519e-24
-0.4939594268437446	-4.150592403167153e-24
-0.4938983916874946	-4.113213372402468e-24
-0.4938373565312446	-4.069012200627329e-24
-0.4937763213749946	-4.0180583867850354e-24
-0.4937152862187446	-3.960434696146348e-24
-0.4936542510624946	-3.89623344098858e-24
-0.4935932159062446	-3.8255569992849745e-24
-0.4935321807499946	-3.7485200631058676e-24
-0.4934711455937446	-3.665247655868289e-24
-0.4934101104374946	-3.575872918233779e-24
-0.4933490752812446	-3.480542558523897e-24
-0.4932880401249946	-3.379412101526071e-24
-0.4932270049687446	-3.2726440798951287e-24
-0.4931659698124946	-3.1604133806175964e-24
-0.4931049346562446	-3.042903814000627e-24
-0.4930438994999946	-2.9203045465354234e-24
-0.4929828643437446	-2.7928185543628625e-24
-0.4929218291874946	-2.6606558827326734e-24
-0.4928607940312446	-2.5240277585800027e-24
-0.4927997588749946	-2.3831583446528032e-24
-0.4927387237187446	-2.2382833590068377e-24
-0.4926776885624946	-2.0896385581357402e-24
-0.4926166534062446	-1.937464799441102e-24
-0.4925556182499946	-1.782013060555261e-24
-0.4924945830937446	-1.623538884864107e-24
-0.4924335479374946	-1.4623038184408634e-24
-0.4923725127812446	-1.2985721762960937e-24
-0.4923114776249946	-1.1326134541766123e-24
-0.4922504424687446	-9.647018489831353e-25
-0.4921894073124946	-7.951091104335671e-25
-0.4921283721562446	-6.241146201237566e-25
-0.4920673369999946	-4.520096621453486e-25
-0.4920063018437446	-2.790730857866746e-25
-0.4919452666874946	-1.0558161789622676e-25
-0.4918842315312446	6.816991557272792e-26
-0.4918231963749946	2.4189088027132644e-25
-0.4917621612187446	4.1530484209439725e-25
-0.4917011260624946	5.88123525362986e-25
-0.4916400909062446	7.600519765002803e-25
-0.4915790557499946	9.30810331342655e-25
-0.4915180205937446	1.100122717648437e-24
-0.4914569854374946	1.2677050967543887e-24
-0.4913959502812446	1.4332742198938218e-24
-0.4913349151249946	1.5965600447698727e-24
-0.4912738799687446	1.7572958684002223e-24
-0.4912128448124946	1.9152115483663493e-24
-0.4911518096562446	2.07004247276014e-24
-0.4910907744999946	2.2215327092938823e-24
-0.4910297393437446	2.369431740433384e-24
-0.4909687041874946	2.513496792671151e-24
-0.4909076690312446	2.6534874274718136e-24
-0.4908466338749946	2.789166212253852e-24
-0.4907855987187446	2.9203062837783232e-24
-0.4907245635624946	3.046692418970186e-24
-0.4906635284062446	3.1681161376067053e-24
-0.4906024932499946	3.284375020547713e-24
-0.4905414580937446	3.395271232238166e-24
-0.4904804229374946	3.500616323816412e-24
-0.4904193877812446	3.600236620737171e-24
-0.4903583526249946	3.693969061752043e-24
-0.4902973174687446	3.781656525221641e-24
-0.4902362823124946	3.8631467117527634e-24
-0.4901752471562446	3.938300834842958e-24
-0.4901142119999946	4.006995803282242e-24
-0.4900531768437446	4.0691179618309284e-24
-0.4899921416874946	4.124559132302077e-24
-0.4899311065312446	4.1732230632569985e-24
-0.4898700713749946	4.215027380556091e-24
-0.4898090362187446	4.249901817567928e-24
-0.4897480010624946	4.277785750455634e-24
-0.4896869659062446	4.298629597274468e-24
-0.4896259307499946	4.312395252972551e-24
-0.4895648955937446	4.31905764202255e-24
-0.4895038604374946	4.3186032063864344e-24
-0.4894428252812446	4.3110296009188374e-24
-0.4893817901249946	4.296346447944529e-24
-0.4893207549687446	4.27457529352182e-24
-0.4892597198124946	4.24574912625238e-24
-0.4891986846562446	4.209912404526603e-24
-0.4891376494999946	4.1671221162155306e-24
-0.4890766143437446	4.117445696918442e-24
-0.4890155791874946	4.060963356488121e-24
-0.4889545440312446	3.9977659387737104e-24
-0.4888935088749946	3.9279543106213776e-24
-0.4888324737187446	3.8516403766987134e-24
-0.4887714385624946	3.768949590598862e-24
-0.4887104034062446	3.680017115108228e-24
-0.4886493682499946	3.584986497768286e-24
-0.4885883330937446	3.4840107660120426e-24
-0.4885272979374946	3.3772551504023355e-24
-0.4884662627812446	3.2648964919388546e-24
-0.4884052276249946	3.147118906757144e-24
-0.4883441924687446	3.0241113166535033e-24
-0.4882831573124946	2.8960756505830618e-24
-0.4882221221562446	2.7632252428872353e-24
-0.4881610869999946	2.6257766966927714e-24
-0.4881000518437446	2.4839550203180122e-24
-0.4880390166874946	2.3379921884462493e-24
-0.4879779815312446	2.18812858607464e-24
-0.4879169463749946	2.034614311904344e-24
-0.4878559112187446	1.877700528925689e-24
-0.4877948760624946	1.717640478779273e-24
-0.4877338409062446	1.5547011083408792e-24
-0.4876728057499946	1.3891553786191014e-24
-0.4876117705937446	1.2212735375045692e-24
-0.4875507354374946	1.0513302294454556e-24
-0.4874897002812446	8.796069153928907e-25
-0.4874286651249946	7.063871813218825e-25
-0.4873676299687446	5.31960472664335e-25
-0.4873065948124946	3.5661389532124385e-25
-0.4872455596562446	1.806331964091686e-25
-0.4871845244999946	4.3120801795954416e-27
-0.4871234893437446	-1.7205360709818828e-25
-0.4870624541874946	-3.48174669405173e-25
-0.4870014190312446	-5.2376331646910315e-25
-0.4869403838749946	-6.985267082600645e-25
-0.4868793487187446	-8.721713525856776e-25
-0.4868183135624946	-1.0444077653574795e-24
-0.4867572784062446	-1.2149567545413954e-24
-0.4866962432499946	-1.3835366222091897e-24
-0.4866352080937446	-1.5498596830271853e-24
-0.4865741729374946	-1.7136514358911085e-24
-0.4865131377812446	-1.8746451832344235e-24
-0.4864521026249946	-2.032569159040256e-24
-0.4863910674687446	-2.18716021081115e-24
-0.4863300323124946	-2.3381621135591484e-24
-0.4862689971562446	-2.4853234912098277e-24
-0.4862079619999946	-2.6284012098071094e-24
-0.4861469268437446	-2.767155663387316e-24
-0.4860858916874946	-2.901352588160275e-24
-0.4860248565312446	-3.0307697806248665e-24
-0.4859638213749946	-3.1551943743054497e-24
-0.4859027862187446	-3.2744183451407766e-24
-0.4858417510624946	-3.388238984819699e-24
-0.4857807159062446	-3.496465414077345e-24
-0.4857196807499946	-3.5989204652532376e-24
-0.4856586455937446	-3.695431825369089e-24
-0.4855976104374946	-3.785836498822209e-24
-0.4855365752812446	-3.869983812112605e-24
-0.4854755401249946	-3.94773248506342e-24
-0.4854145049687446	-4.0189506241183764e-24
-0.4853534698124946	-4.083518947245709e-24
-0.4852924346562446	-4.14132900099325e-24
-0.4852313994999946	-4.192284018119112e-24
-0.4851703643437446	-4.236297270082732e-24
-0.4851093291874946	-4.27329250530627e-24
-0.4850482940312446	-4.303206799565016e-24
-0.4849872588749946	-4.325990583190482e-24
-0.4849262237187446	-4.34160394480778e-24
-0.4848651885624946	-4.350018345705177e-24
-0.4848041534062446	-4.351218261438884e-24
-0.4847431182499946	-4.345200179439773e-24
-0.4846820830937446	-4.331973217211294e-24
-0.4846210479374946	-4.311557515019105e-24
-0.4845600127812446	-4.283984872899148e-24
-0.4844989776249946	-4.249299536525284e-24
-0.4844379424687446	-4.2075585658379605e-24
-0.4843769073124946	-4.158829525471921e-24
-0.4843158721562446	-4.103191772237901e-24
-0.4842548369999946	-4.040736218239529e-24
-0.4841938018437446	-3.971566072511666e-24
-0.4841327666874946	-3.895794853975428e-24
-0.4840717315312446	-3.8135471989087915e-24
-0.4840106963749946	-3.7249583188204325e-24
-0.4839496612187446	-3.630175136177543e-24
-0.4838886260624946	-3.529354467328759e-24
-0.4838275909062446	-3.4226629821135376e-24
-0.4837665557499946	-3.3102762407158326e-24
-0.4837055205937446	-3.192379716721119e-24
-0.4836444854374946	-3.0691710726912945e-24
-0.4835834502812446	-2.9408551748935698e-24
-0.4835224151249946	-2.8076426931859734e-24
-0.4834613799687446	-2.6697546564883137e-24
-0.4834003448124946	-2.5274210951663738e-24
-0.4833393096562446	-2.3808772305027087e-24
-0.4832782744999946	-2.230368564347177e-24
-0.4832172393437446	-2.076145794792432e-24
-0.4831562041874946	-1.9184642371963153e-24
-0.4830951690312446	-1.7575851588104498e-24
-0.4830341338749946	-1.5937769083067753e-24
-0.4829730987187446	-1.4273141773189998e-24
-0.4829120635624946	-1.2584732993231909e-24
-0.4828510284062446	-1.0875345064739535e-24
-0.4827899932499946	-9.147866547715621e-25
-0.4827289580937446	-7.405152312334887e-25
-0.4826679229374946	-5.6500682049987785e-25
-0.4826068877812446	-3.885588372191124e-25
-0.4825458526249946	-2.1146977550385452e-25
-0.4824848174687446	-3.403233348859347e-26
-0.4824237823124946	1.4346216213868148e-25
-0.4823627471562446	3.2071481450911588e-25
-0.4823017119999946	4.9742497287605045e-25
-0.4822406768437446	6.732969112120662e-25
-0.4821796416874946	8.48039515089446e-25
-0.4821186065312446	1.0213624140237857e-24
-0.4820575713749946	1.1929745287515749e-24
-0.4819965362187446	1.362584988711271e-24
-0.4819355010624946	1.5299080460128178e-24
-0.4818744659062446	1.694667981861607e-24
-0.4818134307499946	1.8565925302138824e-24
-0.4817523955937446	2.015402954019809e-24
-0.4816913604374946	2.1708302591623483e-24
-0.4816303252812446	2.32261948743867e-24
-0.4815692901249946	2.470517364368368e-24
-0.4815082549687446	2.6142731781764278e-24
-0.4814472198124946	2.7536439459407882e-24
-0.4813861846562446	2.8883932017841706e-24
-0.4813251494999946	3.018296908097954e-24
-0.4812641143437446	3.1431407957533215e-24
-0.4812030791874946	3.2627106668544117e-24
-0.4811420440312446	3.376803202391868e-24
-0.4810810088749946	3.485227844775917e-24
-0.4810199737187446	3.587801858092551e-24
-0.4809589385624946	3.684352808649619e-24
-0.4808979034062446	3.774718450595335e-24
-0.4808368682499946	3.858742979298962e-24
-0.4807758330937446	3.936284764225343e-24
-0.4807147979374946	4.0072151325969995e-24
-0.4806537627812446	4.071412812172266e-24
-0.4805927276249946	4.128766191279229e-24
-0.4805316924687446	4.179179117850082e-24
-0.4804706573124946	4.222567407201592e-24
-0.4804096221562446	4.258855855094275e-24
-0.4803485869999946	4.2879805305871214e-24
-0.4802875518437446	4.309891510285319e-24
-0.4802265166874946	4.324551689336153e-24
-0.4801654815312446	4.3319347642458834e-24
-0.4801044463749946	4.332026526379765e-24
-0.4800434112187446	4.324824762517546e-24
-0.4799823760624946	4.310340453586527e-24
-0.4799213409062446	4.288596633159586e-24
-0.4798603057499946	4.259628467874169e-24
-0.4797992705937446	4.223482235805167e-24
-0.4797382354374946	4.180217993939039e-24
-0.4796772002812446	4.129906912032526e-24
-0.4796161651249946	4.0726314951765125e-24
-0.4795551299687446	4.008486605451829e-24
-0.4794940948124946	3.937579640604971e-24
-0.4794330596562446	3.860027597844618e-24
-0.4793720244999946	3.775958716477177e-24
-0.4793109893437446	3.685513997718194e-24
-0.4792499541874946	3.588844934214774e-24
-0.4791889190312446	3.4861114997182115e-24
-0.4791278838749946	3.377484443027597e-24
-0.4790668487187446	3.2631474018057636e-24
-0.4790058135624946	3.143292033473812e-24
-0.4789447784062446	3.0181156457556923e-24
-0.4788837432499946	2.8878276648498634e-24
-0.4788227080937446	2.7526513316561624e-24
-0.4787616729374946	2.612811715425617e-24
-0.4787006377812446	2.468537927626967e-24
-0.4786396026249946	2.320074258850909e-24
-0.4785785674687446	2.1676756405041464e-24
-0.4785175323124946	2.011594078706137e-24
-0.4784564971562446	1.852087342071984e-24
-0.4783954619999946	1.6894263164495364e-24
-0.4783344268437446	1.5238884906679049e-24
-0.4782733916874946	1.3557507947229175e-24
-0.4782123565312446	1.1852934375464566e-24
-0.4781513213749946	1.012801683411126e-24
-0.4780902862187446	8.385670094491405e-25
-0.4780292510624946	6.628867661066446e-25
-0.4779682159062446	4.860573880252426e-25
-0.4779071807499946	3.0837252190975106e-25
-0.4778461455937446	1.301305497033883e-25
-0.4777851104374946	-4.836502389167717e-26
-0.4777240752812446	-2.2681307915034015e-25
-0.4776630401249946	-4.0491093928628316e-25
-0.4776020049687446	-5.823589182319467e-25
-0.4775409698124946	-7.588601937946767e-25
-0.4774799346562446	-9.341149420513878e-25
-0.4774188994999946	-1.1078244457314601e-24
-0.4773578643437446	-1.2796977412273233e-24
-0.4772968291874946	-1.4494438712778699e-24
-0.4772357940312446	-1.6167724374121484e-24
-0.4771747588749946	-1.781402318737217e-24
-0.4771137237187446	-1.943058273174095e-24
-0.4770526885624946	-2.101462725109558e-24
-0.4769916534062446	-2.2563439079235996e-24
-0.4769306182499946	-2.4074414286329686e-24
-0.4768695830937446	-2.5545029276539557e-24
-0.4768085479374946	-2.6972780288399382e-24
-0.4767475127812446	-2.835517913055675e-24
-0.4766864776249946	-2.9689884311871552e-24
-0.4766254424687446	-3.0974686905313467e-24
-0.4765644073124946	-3.220738909491628e-24
-0.4765033721562446	-3.3385842272739674e-24
-0.4764423369999946	-3.450804928255913e-24
-0.4763813018437446	-3.5572109673961825e-24
-0.4763202666874946	-3.657621333727472e-24
-0.4762592315312446	-3.7518639387938896e-24
-0.4761981963749946	-3.839776268655901e-24
-0.4761371612187446	-3.921206576747763e-24
-0.4760761260624946	-3.99601610269989e-24
-0.4760150909062446	-4.064077444527544e-24
-0.4759540557499946	-4.125273134770914e-24
-0.4758930205937446	-4.179495725375931e-24
-0.4758319854374946	-4.226650949437768e-24
-0.4757709502812446	-4.266657083940886e-24
-0.4757099151249946	-4.299444666383194e-24
-0.4756488799687446	-4.324956521434428e-24
-0.4755878448124946	-4.343145499214821e-24
-0.4755268096562446	-4.353977766974954e-24
-0.4754657744999946	-4.3574332159484534e-24
-0.4754047393437446	-4.353503961162548e-24
-0.4753437041874946	-4.342193742155077e-24
-0.4752826690312446	-4.323519110255034e-24
-0.4752216338749946	-4.2975079311085985e-24
-0.4751605987187446	-4.264202825244473e-24
-0.4750995635624946	-4.223657855331174e-24
-0.4750385284062446	-4.175938328532675e-24
-0.4749774932499946	-4.121122086475197e-24
-0.4749164580937446	-4.059300410433142e-24
-0.4748554229374946	-3.990575228654651e-24
-0.4747943877812446	-3.9150592600608265e-24
-0.4747333526249946	-3.832878592364842e-24
-0.4746723174687446	-3.7441713047021415e-24
-0.4746112823124946	-3.64908422014116e-24
-0.4745502471562446	-3.5477746170038514e-24
-0.4744892119999946	-3.440412722277758e-24
-0.4744281768437446	-3.3271797509899975e-24
-0.4743671416874946	-3.2082642998257435e-24
-0.4743061065312446	-3.08386389927716e-24
-0.4742450713749946	-2.954189425513383e-24
-0.4741840362187446	-2.8194581997188924e-24
-0.4741230010624946	-2.679896508702494e-24
-0.4740619659062446	-2.5357396303443953e-24
-0.4740009307499946	-2.3872278279382462e-24
-0.4739398955937446	-2.2346105243469293e-24
-0.4738788604374946	-2.0781498876550665e-24
-0.4738178252812446	-1.9181089390056336e-24
-0.4737567901249946	-1.754752561771608e-24
-0.4736957549687446	-1.588356331461748e-24
-0.4736347198124946	-1.4192050044527018e-24
-0.4735736846562446	-1.247585312092025e-24
-0.4735126494999946	-1.0737848390957373e-24
-0.4734516143437446	-8.980964557558349e-25
-0.4733905791874946	-7.2081696059748215e-25
-0.4733295440312446	-5.422475442389715e-25
-0.4732685088749946	-3.6269317866381164e-25
-0.4732074737187446	-1.8245501384868395e-25
-0.4731464385624946	-1.834652411980265e-27
-0.4730854034062446	1.7885684740150753e-25
-0.4730243682499946	3.593106090131754e-25
-0.4729633330937446	5.392247706642406e-25
-0.4729022979374946	7.182957925270484e-25
-0.4728412627812446	8.962166685918364e-25
-0.4727802276249946	1.0726858243842034e-24
-0.4727191924687446	1.2474035655167171e-24
-0.4726581573124946	1.4200714601399364e-24
-0.4725971221562446	1.5903953922380622e-24
-0.4725360869999946	1.7580887914030764e-24
-0.4724750518437446	1.922867359882581e-24
-0.4724140166874946	2.0844463850595024e-24
-0.4723529815312446	2.242548654654752e-24
-0.4722919463749946	2.396908882000535e-24
-0.4722309112187446	2.5472652905223552e-24
-0.4721698760624946	2.6933558233510667e-24
-0.4721088409062446	2.8349328262837485e-24
-0.4720478057499946	2.971758514097392e-24
-0.4719867705937446	3.103595123907826e-24
-0.4719257354374946	3.230214066205063e-24
-0.4718647002812446	3.3514019060905916e-24
-0.4718036651249946	3.466952964588961e-24
-0.4717426299687446	3.576668301288732e-24
-0.4716815948124946	3.680356015548043e-24
-0.4716205596562446	3.777837799839057e-24
