Time	Frequency
-0.5000257485937496	0.44806213655591715
-0.4999647134374996	0.44908819665419536
-0.4999036782812496	0.4496636044424727
-0.4998426431249996	0.44978737482287023
-0.4997816079687496	0.44945908285207203
-0.4997205728124996	0.44867887464068296
-0.4996595376562496	0.44744735739160696
-0.4995985024999996	0.445765487123953
-0.4995374673437496	0.4436346389739905
-0.4994764321874996	0.44105674619445934
-0.4994153970312496	0.43803418484181456
-0.4993543618749996	0.4345697405057211
-0.4992933267187496	0.43066658569665117
-0.4992322915624996	0.42632842099563084
-0.4991712564062496	0.42155950169513506
-0.4991102212499996	0.41636422002772255
-0.4990491860937496	0.41074748716157033
-0.4989881509374996	0.40471499309610276
-0.4989271157812496	0.3982724473236309
-0.4988660806249996	0.39142591466655313
-0.4988050454687496	0.38418221068360336
-0.4987440103124996	0.3765483784716739
-0.4986829751562496	0.36853192706001703
-0.4986219399999996	0.3601407313822413
-0.4985609048437496	0.3513827540342003
-0.4984998696874996	0.34226663336249585
-0.4984388345312496	0.3328015983415229
-0.4983777993749996	0.32299693771259763
-0.4983167642187496	0.31286207888847534
-0.4982557290624996	0.302406953488624
-0.4981946939062496	0.29164212888129165
-0.4981336587499996	0.28057820198290556
-0.4980726235937496	0.269226049173039
-0.4980115884374996	0.2575970993249899
-0.4979505532812496	0.2457024432970245
-0.4978895181249996	0.23355395435038037
-0.4978284829687496	0.22116435250154548
-0.4977674478124996	0.2085454612383436
-0.4977064126562496	0.19570936683723877
-0.4976453774999996	0.1826693450749792
-0.4975843423437496	0.16943855068088542
-0.4975233071874996	0.1560299374305973
-0.4974622720312496	0.14245687099303467
-0.4974012368749996	0.1287324842104987
-0.4973402017187496	0.11487070154207021
-0.4972791665624996	0.10088621234396848
-0.4972181314062496	0.08679203583131262
-0.4971570962499996	0.07260177515702974
-0.4970960610937496	0.05833082471404838
-0.4970350259374996	0.04399329640883141
-0.4969739907812496	0.029602564124490197
-0.4969129556249996	0.015173376133902088
-0.4968519204687496	0.0007211005878797965
-0.4967908853124996	-0.013740300532750573
-0.4967298501562496	-0.02819719998413922
-0.4966688149999996	-0.042634335440948475
-0.4966077798437496	-0.05703676765972478
-0.4965467446874996	-0.0713907190241265
-0.4964857095312496	-0.0856818550408181
-0.4964246743749996	-0.09989557966284726
-0.4963636392187496	-0.1140174301113819
-0.4963026040624996	-0.12803312271078712
-0.4962415689062496	-0.14192920856938543
-0.4961805337499996	-0.15569173355812657
-0.4961194985937496	-0.16930587016204102
-0.4960584634374996	-0.18275817227916755
-0.4959974282812496	-0.1960359933512305
-0.4959363931249996	-0.20912536414814548
-0.4958753579687496	-0.22201268971487792
-0.4958143228124996	-0.23468562208670435
-0.4957532876562496	-0.24713108782273185
-0.4956922524999996	-0.2593362942997215
-0.4956312173437496	-0.27128944686314627
-0.4955701821874996	-0.28297807900349503
-0.4955091470312496	-0.2943902216483824
-0.4954481118749996	-0.30551488837480706
-0.4953870767187496	-0.3163404503281148
-0.4953260415624996	-0.32685581492807575
-0.4952650064062496	-0.3370506186293272
-0.4952039712499996	-0.3469142961640776
-0.4951429360937496	-0.3564369916302221
-0.4950819009374996	-0.3656090889678424
-0.4950208657812496	-0.37442107959815885
-0.4949598306249996	-0.3828640591254509
-0.4948987954687496	-0.3909294501473517
-0.4948377603124996	-0.39860913679427135
-0.4947767251562496	-0.40589517129135405
-0.4947156899999996	-0.41278004445355915
-0.4946546548437496	-0.4192569724795383
-0.4945936196874996	-0.4253192043635047
-0.4945325845312496	-0.4309603541948211
-0.4944715493749996	-0.4361748619749101
-0.4944105142187496	-0.44095734043296786
-0.4943494790624996	-0.4453027275399157
-0.4942884439062496	-0.4492067090597301
-0.4942274087499996	-0.4526652015967146
-0.4941663735937496	-0.4556744446654121
-0.4941053384374996	-0.4582314185169857
-0.4940443032812496	-0.46033353454958165
-0.4939832681249996	-0.4619784464747254
-0.4939222329687496	-0.4631643514802847
-0.4938611978124996	-0.46389001337858854
-0.4938001626562496	-0.4641545650887008
-0.4937391274999996	-0.4639576287490229
-0.4936780923437496	-0.4632993203568212
-0.4936170571874996	-0.46218016033956444
-0.4935560220312496	-0.46060116005706153
-0.4934949868749996	-0.45856384473089534
-0.4934339517187496	-0.4560701773219601
-0.4933729165624996	-0.4531224652807602
-0.4933118814062496	-0.44972358872225127
-0.4932508462499996	-0.44587707991907966
-0.4931898110937496	-0.4415866328653355
-0.4931287759374996	-0.4368562000238451
-0.4930677407812496	-0.4316906128504643
-0.4930067056249996	-0.4260952765729558
-0.4929456704687496	-0.4200755522273107
-0.4928846353124996	-0.4136372391364292
-0.4928236001562496	-0.4067869145145662
-0.4927625649999996	-0.3995313597402045
-0.4927015298437496	-0.3918778469999708
-0.4926404946874996	-0.38383417737212294
-0.4925794595312496	-0.37540818876857524
-0.4925184243749996	-0.3666082656717366
-0.4924573892187496	-0.3574433162707642
-0.4923963540624996	-0.34792259335529274
-0.4923353189062496	-0.33805563346660594
-0.4922742837499996	-0.3278522186345028
-0.4922132485937496	-0.31732266974821316
-0.4921522134374996	-0.3064775919806983
-0.4920911782812496	-0.2953279201488809
-0.4920301431249996	-0.2838847681548412
-0.4919691079687496	-0.27215951546543593
-0.4919080728124996	-0.2601643136627932
-0.4918470376562496	-0.24791124397755868
-0.4917860024999996	-0.23541234788352086
-0.4917249673437496	-0.22268030868983524
-0.4916639321874996	-0.20972791136710292
-0.4916028970312496	-0.1965684433710727
-0.4915418618749996	-0.18321542181194259
-0.4914808267187496	-0.1696816833952323
-0.4914197915624996	-0.15598095354863584
-0.4913587564062496	-0.14212773872115927
-0.4912977212499996	-0.12813567464703496
-0.4912366860937496	-0.11401845398108956
-0.4911756509374996	-0.09979079470644014
-0.4911146157812496	-0.08546757661864483
-0.4910535806249996	-0.07106266811606449
-0.4909925454687496	-0.05659017083034845
-0.4909315103124996	-0.04206555180541522
-0.4908704751562496	-0.027503794660293776
-0.4908094399999996	-0.012918961738715493
-0.4907484048437496	0.0016742506097036309
-0.4906873696874996	0.01626067391027
-0.4906263345312496	0.03082550182892336
-0.4905652993749996	0.04535393826412497
-0.4905042642187496	0.05983134725345639
-0.4904432290624996	0.07424330702124957
-0.4903821939062496	0.08857494344937902
-0.4903211587499996	0.10281138173376704
-0.4902601235937496	0.11693837632951991
-0.4901990884374996	0.1309419220635086
-0.4901380532812496	0.14480768426583002
-0.4900770181249996	0.1585211401965981
-0.4900159829687496	0.17206840308422405
-0.4899549478124996	0.1854360722280916
-0.4898939126562496	0.19861043175068227
-0.4898328774999996	0.21157797743320486
-0.4897718423437496	0.22432559257078172
-0.4897108071874996	0.23684008072139845
-0.4896497720312496	0.2491086626084574
-0.4895887368749996	0.2611192329104843
-0.4895277017187496	0.27285960645896107
-0.4894666665624996	0.28431721356749295
-0.4894056314062496	0.29548045362636016
-0.4893445962499996	0.30633854013634226
-0.4892835610937496	0.31688006894862275
-0.4892225259374996	0.3270939898179609
-0.4891614907812496	0.33697014880424125
-0.4891004556249996	0.34649851559442174
-0.4890394204687496	0.35566927314344293
-0.4889783853124996	0.36447299290584456
-0.4889173501562496	0.3729005921546255
-0.4888563149999996	0.38094359729470534
-0.4887952798437496	0.388593964231584
-0.4887342446874996	0.3958435426660454
-0.4886732095312496	0.40268476431491457
-0.4886121743749996	0.40911100878131756
-0.4885511392187496	0.41511565965591235
-0.4884901040624996	0.4206922619870938
-0.4884290689062496	0.4258352458201414
-0.4883680337499996	0.430539456683135
-0.4883069985937496	0.4347998600622489
-0.4882459634374996	0.4386120669642058
-0.4881849282812496	0.4419722703798284
-0.4881238931249996	0.44487701131652985
-0.4880628579687496	0.44732323671488
-0.4880018228124996	0.44930831125140147
-0.4879407876562496	0.4508302436179202
-0.4878797524999996	0.451887541980298
-0.4878187173437496	0.4524790084778541
-0.4877576821874996	0.4526039627482854
-0.4876966470312496	0.4522622600698134
-0.4876356118749996	0.45145422658130974
-0.4875745767187496	0.4501806927500567
-0.4875135415624996	0.4484429201206261
-0.4874525064062496	0.4462425979947256
-0.4873914712499996	0.44358191860406126
-0.4873304360937496	0.4404636086727633
-0.4872694009374996	0.43689092636610627
-0.4872083657812496	0.4328674996213735
-0.4871473306249996	0.42839720713802937
-0.4870862954687496	0.42348456075859664
-0.4870252603124996	0.41813487872683247
-0.4869642251562496	0.4123536656602587
-0.4869031899999996	0.4061464537803631
-0.4868421548437496	0.39951951590457807
-0.4867811196874996	0.3924799988959299
-0.4867200845312496	0.3850350594639879
-0.4866590493749996	0.3771920607242351
-0.4865980142187496	0.36895918412307277
-0.4865369790624996	0.3603447866026589
-0.4864759439062496	0.35135763466818604
-0.4864149087499996	0.34200711406322365
-0.4863538735937496	0.33230271844335524
-0.4862928384374996	0.3222543887579567
-0.4862318032812496	0.31187235666501895
-0.4861707681249996	0.30116717867082793
-0.4861097329687496	0.29015015751491663
-0.4860486978124996	0.27883259543497485
-0.4859876626562496	0.26722569620231335
-0.4859266274999996	0.25534154683204524
-0.4858655923437496	0.24319263710041586
-0.4858045571874996	0.23079121914450237
-0.4857435220312496	0.21815007095214434
-0.4856824868749996	0.20528223344275245
-0.4856214517187496	0.1922007118780457
-0.4855604165624996	0.1789192686681354
-0.4854993814062496	0.16545168024610674
-0.4854383462499996	0.1518113571756115
-0.4853773110937496	0.13801257498803687
-0.4853162759374996	0.12406980668003033
-0.4852552407812496	0.10999705873228341
-0.4851942056249996	0.09580875239196925
-0.4851331704687496	0.08151994155439687
-0.4850721353124996	0.06714550153116344
-0.4850111001562496	0.052699597182115886
-0.4849500649999996	0.038197168254478386
-0.4848890298437496	0.023653885697173076
-0.4848279946874996	0.009084565518799052
-0.4847669595312496	-0.005496103971011205
-0.4847059243749996	-0.020072963559495713
-0.4846448892187496	-0.03463077311800363
-0.4845838540624996	-0.049154370035610274
-0.4845228189062496	-0.06362881060275861
-0.4844617837499996	-0.0780393343878075
-0.4844007485937496	-0.09237097261528944
-0.4843397134374996	-0.1066084747012569
-0.4842786782812496	-0.1207371569159935
-0.4842176431249996	-0.1347428397527364
-0.4841566079687496	-0.14861089991033266
-0.4840955728124996	-0.16232649156506004
-0.4840345376562496	-0.1758752964899724
-0.4839735024999996	-0.1892437711900629
-0.4839124673437496	-0.20241816591691852
-0.4838514321874996	-0.21538412102755766
-0.4837903970312496	-0.2281281267373164
-0.4837293618749996	-0.24063740023132668
-0.4836683267187496	-0.25289894263383145
-0.4836072915624996	-0.26489964787783704
-0.4835462564062496	-0.27662675156947064
-0.4834852212499996	-0.28806841733012645
-0.4834241860937496	-0.2992129503965461
-0.4833631509374996	-0.31004819263855676
-0.4833021157812496	-0.320562742443984
-0.4832410806249996	-0.33074594888922837
-0.4831800454687496	-0.3405869667665909
-0.4831190103124996	-0.35007549021692325
-0.4830579751562496	-0.35920164477791133
-0.4829969399999996	-0.3679556253680295
-0.4829359048437496	-0.37632839257387757
-0.4828748696874996	-0.3843109388153917
-0.4828138345312496	-0.39189479176084197
-0.4827527993749996	-0.39907245341719616
-0.4826917642187496	-0.40583594935632233
-0.4826307290624996	-0.41217773462662755
-0.4825696939062496	-0.41809144118397706
-0.4825086587499996	-0.42357090297862954
-0.4824476235937496	-0.4286101003332558
-0.4823865884374996	-0.4332035147852209
-0.4823255532812496	-0.4373462525781757
-0.4822645181249996	-0.4410338422129532
-0.4822034829687496	-0.4442622342998676
-0.4821424478124996	-0.44702792674104064
-0.4820814126562496	-0.449327849401083
-0.4820203774999996	-0.4511593486765862
-0.4819593423437496	-0.4525202810418068
-0.4818983071874996	-0.4534090790701751
-0.4818372720312496	-0.45382462885093033
-0.4817762368749996	-0.4537662299522181
-0.4817152017187496	-0.453233719787887
-0.4816541665624996	-0.45222744339569604
-0.4815931314062496	-0.4507481804809669
-0.4815320962499996	-0.44879725128544556
-0.4814710610937496	-0.44637651798101813
-0.4814100259374996	-0.44348819730393524
-0.4813489907812496	-0.44013499484441326
-0.4812879556249996	-0.4363202615452408
-0.4812269204687496	-0.432047690719876
-0.4811658853124996	-0.42732144347065015
-0.4811048501562496	-0.4221462776708969
-0.4810438149999996	-0.41652722373255013
-0.4809827798437496	-0.4104698673273888
-0.4809217446874996	-0.4039803992475918
-0.4808607095312496	-0.3970653284206934
-0.4807996743749996	-0.3897314725973052
-0.4807386392187496	-0.3819860815544917
-0.4806776040624996	-0.37383721958770555
-0.4806165689062496	-0.36529331887245275
-0.4805555337499996	-0.356362670038611
-0.4804944985937496	-0.34705410033477574
-0.4804334634374996	-0.33737742692251865
-0.4803724282812496	-0.3273427782150549
-0.4803113931249996	-0.3169599683756129
-0.4802503579687496	-0.30623922593139047
-0.4801893228124996	-0.2951918917716626
-0.4801282876562496	-0.2838295387699606
-0.4800672524999996	-0.27216339794962746
-0.4800062173437496	-0.2602051438322809
-0.4799451821874996	-0.24796725407435963
-0.4798841470312496	-0.23546254001782177
-0.4798231118749996	-0.22270359711775936
-0.4797620767187496	-0.20970322530859095
-0.4797010415624996	-0.19647486659688945
-0.4796400064062496	-0.18303236658855612
-0.4795789712499996	-0.16938973922893755
-0.4795179360937496	-0.1555603623979353
-0.4794569009374996	-0.14155815935434066
-0.4793958657812496	-0.12739862822532663
-0.4793348306249996	-0.11309627494900505
-0.4792737954687496	-0.09866473104309945
-0.4792127603124996	-0.0841193853498054
-0.4791517251562496	-0.06947577771313829
-0.4790906899999996	-0.05474837282172121
-0.4790296548437496	-0.03995258132554246
-0.4789686196874996	-0.025103979915037544
-0.4789075845312496	-0.010217219415657612
-0.4788465493749996	0.004692196526870757
-0.4787855142187496	0.019607948309187398
-0.4787244790624996	0.03451512689961281
-0.4786634439062496	0.04939909320639443
-0.4786024087499996	0.06424358575234744
-0.4785413735937496	0.07903313418025422
-0.4784803384374996	0.09375286818661194
-0.4784193032812496	0.10838702237862118
-0.4783582681249996	0.12292087056649018
-0.4782972329687496	0.1373395965657715
-0.4782361978124996	0.15162739104052647
-0.4781751626562496	0.16576958427245087
-0.4781141274999996	0.17975189021038754
-0.4780530923437496	0.1935596637991144
-0.4779920571874996	0.2071785149276921
-0.4779310220312496	0.22059406183282887
-0.4778699868749996	0.23379224717083763
-0.4778089517187496	0.2467594057161223
-0.4777479165624996	0.25948236575858
-0.4776868814062496	0.27194788673227577
-0.4776258462499996	0.2841421986864456
-0.4775648110937496	0.29605259608409257
-0.4775037759374996	0.30766739314923525
-0.4774427407812496	0.31897439142857914
-0.4773817056249996	0.3299610483377579
-0.4773206704687496	0.34061592294233195
-0.4772596353124996	0.35092830882534576
-0.4771986001562496	0.360887102046629
-0.4771375649999996	0.3704819057591585
-0.4770765298437496	0.379702754326596
-0.4770154946874996	0.38853942636248623
-0.4769544595312496	0.39698274804235606
-0.4768934243749996	0.40502434201760046
-0.4768323892187496	0.412655486645408
-0.4767713540624996	0.41986758343489095
-0.4767103189062496	0.42665311821810653
-0.4766492837499996	0.433005289769544
-0.4765882485937496	0.43891729376916433
-0.4765272134374996	0.44438248676588693
-0.4764661782812496	0.4493949099770576
-0.4764051431249996	0.4539494747204381
-0.4763441079687496	0.45804130834607437
-0.4762830728124996	0.46166573034006714
-0.4762220376562496	0.4648188548741416
-0.4761610024999996	0.46749725991188085
-0.4760999673437496	0.4696978456368725
-0.4760389321874996	0.47141820777130433
-0.4759778970312496	0.47265641076059267
-0.4759168618749996	0.47341084294561814
-0.4758558267187496	0.4736805117929325
-0.4757947915624996	0.4734649869603967
-0.4757337564062496	0.4727642387189207
-0.4756727212499996	0.4715788055917295
-0.4756116860937496	0.4699097572771502
-0.4755506509374996	0.46775850074791026
-0.4754896157812496	0.4651270168659629
-0.4754285806249996	0.46201798720264137
-0.4753675454687496	0.4584344537530272
-0.4753065103124996	0.45437977645803584
-0.4752454751562496	0.44985790361322836
-0.4751844399999996	0.4448734173559497
-0.4751234048437496	0.43943143018547787
-0.4750623696874996	0.4335373118234197
-0.4750013345312496	0.4271967764445532
-0.4749402993749996	0.42041630310740186
-0.4748792642187496	0.4132028931865712
-0.4748182290624996	0.4055637643170404
-0.4747571939062496	0.3975066364829115
-0.4746961587499996	0.38903969953637635
-0.4746351235937496	0.3801714074811008
-0.4745740884374996	0.370910935262687
-0.4745130532812496	0.3612679101497505
-0.4744520181249996	0.3512519945343412
-0.4743909829687496	0.34087328574161335
-0.4743299478124996	0.3301424042806423
-0.4742689126562496	0.3190705903270108
-0.4742078774999996	0.3076691526295923
-0.4741468423437496	0.2959495776585801
-0.4740858071874996	0.28392409025072923
-0.4740247720312496	0.2716048747893309
-0.4739637368749996	0.2590044899114961
-0.4739027017187496	0.2461362821462526
-0.4738416665624996	0.23301342524132462
-0.4737806314062496	0.21964907086366947
-0.4737195962499996	0.20605720353095977
-0.4736585610937496	0.1922519115582191
-0.4735975259374996	0.1782472074464199
-0.4735364907812496	0.16405796650347845
-0.4734754556249996	0.1496985874520378
-0.4734144204687496	0.13518338007168246
-0.4733533853124996	0.12052817313667365
-0.4732923501562496	0.10574821513451076
-0.4732313149999996	0.09085776601198511
-0.4731702798437496	0.07587271709552307
-0.4731092446874996	0.06080943913801872
-0.4730482095312496	0.045682497319775424
-0.4729871743749996	0.03050728030279715
-0.4729261392187496	0.015300634307583135
-0.4728651040624996	7.815631768826732e-05
-0.4728040689062496	-0.015145117075368414
-0.4727430337499996	-0.03035334232731937
-0.4726819985937496	-0.04553014958088137
-0.4726209634374996	-0.060659560989570434
-0.4725599282812496	-0.0757265954654395
-0.4724988931249996	-0.09071566496912017
-0.4724378579687496	-0.10561029234839411
-0.4723768228124996	-0.12039554521758448
-0.4723157876562496	-0.1350566472377427
-0.4722547524999996	-0.14957727716714264
-0.4721937173437496	-0.16394235551354694
-0.4721326821874996	-0.17813779541774263
-0.4720716470312496	-0.19214837005071428
-0.4720106118749996	-0.205959182013703
-0.4719495767187496	-0.2195563109505793
-0.4718885415624996	-0.2329253421719121
-0.4718275064062496	-0.2460519482853119
-0.4717664712499996	-0.25892296612444093
-0.4717054360937496	-0.27152522794289174
-0.4716444009374996	-0.2838449733476325
-0.4715833657812496	-0.2958690723922852
-0.4715223306249996	-0.30758559619772025
-0.4714612954687496	-0.31898247422337433
-0.4714002603124996	-0.33004710536027604
-0.4713392251562496	-0.34076789956324
-0.4712781899999996	-0.3511342464664119
-0.4712171548437496	-0.36113524095202193
-0.4711561196874996	-0.37075981239093075
-0.4710950845312496	-0.3799979499656926
-0.4710340493749996	-0.3888405437677542
-0.4709730142187496	-0.3972781088982827
-0.4709119790624996	-0.4053013916645866
-0.4708509439062496	-0.41290225014734944
-0.4707899087499996	-0.42007275560937674
-0.4707288735937496	-0.42680520697470814
-0.4706678384374996	-0.4330926651657566
-0.4706068032812496	-0.4389284473199117
-0.4705457681249996	-0.4443063132777304
-0.4704847329687496	-0.44922065022272306
-0.4704236978124996	-0.45366626396190923
-0.4703626626562496	-0.4576385297944723
-0.4703016274999996	-0.46113318679390136
-0.4702405923437496	-0.46414640448690947
-0.4701795571874996	-0.4666750691253101
-0.4701185220312496	-0.4687165289832858
-0.4700574868749996	-0.47026853721074685
-0.4699964517187496	-0.4713294082338885
-0.4699354165624996	-0.4718979851408643
-0.4698743814062496	-0.4719735986374597
-0.4698133462499996	-0.47155608987247316
-0.4697523110937496	-0.47064590750077145
-0.4696912759374996	-0.4692439994598146
