Time	Frequency
-0.5000448218437512	0.42291199597203316
-0.4999837866875012	0.42320534812606597
-0.4999227515312512	0.4231339229737474
-0.4998617163750012	0.42269753171082886
-0.4998006812187512	0.421896353022703
-0.4997396460625012	0.4207308667778213
-0.4996786109062512	0.4192018700986538
-0.4996175757500012	0.41731047271457733
-0.4995565405937512	0.41505808836217345
-0.4994955054375012	0.412446419263165
-0.4994344702812512	0.40947750477523065
-0.4993734351250012	0.4061537749508628
-0.4993123999687512	0.4024779041266302
-0.4992513648125012	0.398452746439495
-0.4991903296562512	0.3940815550338152
-0.4991292945000012	0.38936803975778894
-0.4990682593437512	0.3843161023024839
-0.4990072241875012	0.3789298097440224
-0.4989461890312512	0.37321354192893536
-0.4988851538750012	0.36717207002479424
-0.4988241187187512	0.36081065061682766
-0.4987630835625012	0.3541345409017777
-0.4987020484062512	0.3471490184795484
-0.4986410132500012	0.3398600646977645
-0.4985799780937512	0.3322740490114625
-0.4985189429375012	0.324397282578282
-0.4984579077812512	0.31623618405393317
-0.4983968726250012	0.30779764974303314
-0.4983358374687512	0.2990889790676504
-0.4982748023125012	0.2901175882842369
-0.4982137671562512	0.28089102080981027
-0.4981527320000012	0.27141689582281403
-0.4980916968437512	0.26170331502795585
-0.4980306616875012	0.2517588434464988
-0.4979696265312512	0.24159173662174427
-0.4979085913750012	0.23121040723099126
-0.4978475562187512	0.22062402357895142
-0.4977865210625012	0.20984168203938192
-0.4977254859062512	0.19887227932142698
-0.4976644507500012	0.18772513208105593
-0.4976034155937512	0.17641004948926836
-0.4975423804375012	0.16493688100469336
-0.4974813452812512	0.1533150606625086
-0.4974203101250012	0.14155432337255436
-0.4973592749687512	0.129665102362997
-0.4972982398125012	0.1176579108596272
-0.4972372046562512	0.10554272428508345
-0.4971761695000012	0.09332942579658304
-0.4971151343437512	0.08102901119421083
-0.4970540991875012	0.06865248283148664
-0.4969930640312512	0.056209848471697715
-0.4969320288750012	0.04371161945247329
-0.4968709937187512	0.031169051835360548
-0.4968099585625012	0.018593020719635808
-0.4967489234062512	0.005994039721443588
-0.4966878882500012	-0.006617178158922206
-0.4966268530937512	-0.019229579765202925
-0.4965658179375012	-0.03183195351468242
-0.4965047827812512	-0.044413615986736724
-0.4964437476250012	-0.0569642325963867
-0.4963827124687512	-0.06947267569273778
-0.4963216773125012	-0.08192760823014261
-0.4962606421562512	-0.09431849497011922
-0.4961996070000012	-0.1066351114635352
-0.4961385718437512	-0.11886683154665406
-0.4960775366875012	-0.13100249506617984
-0.4960165015312512	-0.14303145674566498
-0.4959554663750012	-0.15494385013776046
-0.4958944312187512	-0.16672945850714863
-0.4958333960625012	-0.17837785888730023
-0.4957723609062512	-0.18987866637346731
-0.4957113257500012	-0.2012219060883664
-0.4956502905937512	-0.2123981936425736
-0.4955892554375012	-0.2233977468391396
-0.4955282202812512	-0.23421075638357716
-0.4954671851250012	-0.24482785488490055
-0.4954061499687512	-0.2552398222731118
-0.4953451148125012	-0.2654376685253543
-0.4952840796562512	-0.27541267674851705
-0.4952230445000012	-0.28515608528676917
-0.4951620093437512	-0.29465910004454743
-0.4951009741875012	-0.30391360505257287
-0.4950399390312512	-0.31291178090756294
-0.4949789038750012	-0.3216456462898821
-0.4949178687187512	-0.33010745377018763
-0.4948568335625012	-0.33828979088742117
-0.4947957984062512	-0.34618569981206093
-0.4947347632500012	-0.3537883221807561
-0.4946737280937512	-0.36109071456723246
-0.4946126929375012	-0.3680865605784201
-0.4945516577812512	-0.3747700223494093
-0.4944906226250012	-0.3811350669635384
-0.4944295874687512	-0.38717591746217994
-0.4943685523125012	-0.39288746749118464
-0.4943075171562512	-0.3982647462692302
-0.4942464820000012	-0.4033028993155512
-0.4941854468437512	-0.4079975491270976
-0.4941244116875012	-0.41234454977229984
-0.4940633765312512	-0.4163400153963318
-0.4940023413750012	-0.4199804757129315
-0.4939413062187512	-0.4232626839883098
-0.4938802710625012	-0.4261836996631968
-0.4938192359062512	-0.4287409511410342
-0.4937582007500012	-0.43093211983449253
-0.4936971655937512	-0.4327552369808757
-0.4936361304375012	-0.4342086986808621
-0.4935750952812512	-0.43529114508879524
-0.4935140601250012	-0.4360015365473934
-0.4934530249687512	-0.43633922126948876
-0.4933919898125012	-0.43630385773827846
-0.4933309546562512	-0.43589539298027413
-0.4932699195000012	-0.43511410998946326
-0.4932088843437512	-0.43396063593855666
-0.4931478491875012	-0.43243591533385856
-0.4930868140312512	-0.4305411949132455
-0.4930257788750012	-0.428278057075644
-0.4929647437187512	-0.4256484482093291
-0.4929037085625012	-0.422654593988206
-0.4928426734062512	-0.41929899847759033
-0.4927816382500012	-0.41558452411788793
-0.4927206030937512	-0.411514366828116
-0.4926595679375012	-0.40709205608840887
-0.4925985327812512	-0.4023213893521523
-0.4925374976250012	-0.39720637338305953
-0.4924764624687512	-0.3917514131309892
-0.4924154273125012	-0.38596132120507165
-0.4923543921562512	-0.3798410809924207
-0.4922933570000012	-0.3733959103790431
-0.4922323218437512	-0.3666313594183203
-0.4921712866875012	-0.35955329363165806
-0.4921102515312512	-0.35216792573189537
-0.4920492163750012	-0.34448161824999174
-0.4919881812187512	-0.33650092941396176
-0.4919271460625012	-0.32823287119813577
-0.4918661109062512	-0.3196846495748607
-0.4918050757500012	-0.31086360474284275
-0.4917440405937512	-0.30177738446341196
-0.4916830054375012	-0.29243390787728224
-0.4916219702812512	-0.28284144256468496
-0.4915609351250012	-0.27300821499490935
-0.4914998999687512	-0.26294258183488384
-0.4914388648125012	-0.25265351513851797
-0.4913778296562512	-0.24215005264637787
-0.4913167945000012	-0.23144128322888094
-0.4912557593437512	-0.2205364329037213
-0.4911947241875012	-0.20944488603907613
-0.4911336890312512	-0.19817663075563674
-0.4910726538750012	-0.18674156727634508
-0.4910116187187512	-0.17514918597529075
-0.4909505835625012	-0.1634097196761303
-0.4908895484062512	-0.15153391779474729
-0.4908285132500012	-0.13953190843572316
-0.4907674780937512	-0.12741375006021333
-0.4907064429375012	-0.11519025988156864
-0.4906454077812512	-0.10287248892445607
-0.4905843726250012	-0.09047100461062602
-0.4905233374687512	-0.07799639821169557
-0.4904623023125012	-0.06545979852608032
-0.4904012671562512	-0.05287219340935113
-0.4903402320000012	-0.04024441302748266
-0.4902791968437512	-0.0275877317720107
-0.4902181616875012	-0.014913349457652266
-0.4901571265312512	-0.0022320210777370597
-0.4900960913750012	0.010445180100059666
-0.4900350562187512	0.023106785622772553
-0.4899740210625012	0.03574175753282821
-0.4899129859062512	0.04833927794833142
-0.4898519507500012	0.060888110349318625
-0.4897909155937512	0.07337720557537016
-0.4897298804375012	0.08579581620988662
-0.4896688452812512	0.09813284784815461
-0.4896078101250012	0.1103774183144858
-0.4895467749687512	0.1225189922406742
-0.4894857398125012	0.13454680290828916
-0.4894247046562512	0.14645020712521042
-0.4893636695000012	0.15821885730081534
-0.4893026343437512	0.16984236526488544
-0.4892415991875012	0.1813103963889649
-0.4891805640312512	0.19261305027038556
-0.4891195288750012	0.20374047503064793
-0.4890584937187512	0.21468250512883308
-0.4889974585625012	0.22542956923553123
-0.4889364234062512	0.23597262674469707
-0.4888753882500012	0.24630219924076527
-0.4888143530937512	0.25640885530943125
-0.4887533179375012	0.2662838909083551
-0.4886922827812512	0.27591886016219014
-0.4886312476250012	0.2853051076643919
-0.4885702124687512	0.2944341148203128
-0.4885091773125012	0.303298000473052
-0.4884481421562512	0.3118891940770148
-0.4883871070000012	0.3201998447269613
-0.4883260718437512	0.32822246612968803
-0.4882650366875012	0.33595025546172186
-0.4882040015312512	0.3433763914142763
-0.4881429663750012	0.35049420325506303
-0.4880819312187512	0.357297377481976
-0.4880208960625012	0.36377986651226046
-0.4879598609062512	0.3699360545642873
-0.4878988257500012	0.37576053960823774
-0.4878377905937512	0.381248023229887
-0.4877767554375012	0.3863936129443858
-0.4877157202812512	0.3911928828173301
-0.4876546851250012	0.39564159467413174
-0.4875936499687512	0.3997356731817817
-0.4875326148125012	0.40347151549341
-0.4874715796562512	0.4068459007858715
-0.4874105445000012	0.4098557719476013
-0.4873495093437512	0.41249841065228365
-0.4872884741875012	0.41477149607922875
-0.4872274390312512	0.4166730120309548
-0.4871664038750012	0.4182012684227741
-0.4871053687187512	0.41935488494790263
-0.4870443335625012	0.42013278937209625
-0.4869832984062512	0.4205343007864321
-0.4869222632500012	0.4205590804289966
-0.4868612280937512	0.42020705526393387
-0.4868001929375012	0.4194785039135204
-0.4867391577812512	0.41837407621460776
-0.4866781226250012	0.4168947318880395
-0.4866170874687512	0.41504176473099946
-0.4865560523125012	0.41281679718564107
-0.4864950171562512	0.4102217733967081
-0.4864339820000012	0.4072589908943452
-0.4863729468437512	0.403931062220395
-0.4863119116875012	0.4002409228659234
-0.4862508765312512	0.3961918100080522
-0.4861898413750012	0.39178724635051076
-0.4861288062187512	0.38703122316788585
-0.4860677710625012	0.38192803930662467
-0.4860067359062512	0.3764819853512535
-0.4859457007500012	0.37069782845321797
-0.4858846655937512	0.36458097027222625
-0.4858236304375012	0.35813678249735625
-0.4857625952812512	0.3513707888030701
-0.4857015601250012	0.3442890458458585
-0.4856405249687512	0.33689790529318764
-0.4855794898125012	0.32920393128460973
-0.4855184546562512	0.32121388266714146
-0.4854574195000012	0.31293485851079816
-0.4853963843437512	0.30437429627255014
-0.4853353491875012	0.29553972257093214
-0.4852743140312512	0.2864389556926263
-0.4852132788750012	0.277080137474095
-0.4851522437187512	0.26747156986187554
-0.4850912085625012	0.257621905952107
-0.4850301734062512	0.24753989088985615
-0.4849691382500012	0.2372342382457136
-0.4849081030937512	0.22671421375982437
-0.4848470679375012	0.21598948263277035
-0.4847860327812512	0.20506953958323215
-0.4847249976250012	0.19396384346925158
-0.4846639624687512	0.18268221453612019
-0.4846029273125012	0.17123498887440944
-0.4845418921562512	0.15963260742062374
-0.4844808570000012	0.14788508387538768
-0.4844198218437512	0.13600264336994675
-0.4843587866875012	0.12399625735059594
-0.4842977515312512	0.11187683064712346
-0.4842367163750012	0.09965498543661551
-0.4841756812187512	0.08734141627297787
-0.4841146460625012	0.07494715424203202
-0.4840536109062512	0.0624837315286491
-0.4839925757500012	0.04996225608841462
-0.4839315405937512	0.037393408125615986
-0.4838705054375012	0.024788592637069715
-0.4838094702812512	0.012159420812444343
-0.4837484351250012	-0.0004828959163710468
-0.4836873999687512	-0.013127083628220054
-0.4836263648125012	-0.0257618147428085
-0.4835653296562512	-0.03837588405135823
-0.4835042945000012	-0.050957956663355196
-0.4834432593437512	-0.0634963707971462
-0.4833822241875012	-0.07597994039183471
-0.4833211890312512	-0.08839799341699922
-0.4832601538750012	-0.1007390743639157
-0.4831991187187512	-0.11299166450892151
-0.4831380835625012	-0.12514510911578502
-0.4830770484062512	-0.13718863452160066
-0.4830160132500012	-0.14911119292423353
-0.4829549780937512	-0.16090195360596996
-0.4828939429375012	-0.17255027557053104
-0.4828329077812512	-0.18404584201620725
-0.4827718726250012	-0.1953783838011433
-0.4827108374687512	-0.2065372990939989
-0.4826498023125012	-0.217512445106417
-0.4825887671562512	-0.22829435983948668
-0.4825277320000012	-0.2388732725159749
-0.4824666968437512	-0.24923914655224125
-0.4824056616875012	-0.25938254196584204
-0.4823446265312512	-0.269294771461673
-0.4822835913750012	-0.27896695513822123
-0.4822225562187512	-0.2883896851658234
-0.4821615210625012	-0.2975543687703406
-0.4821004859062512	-0.30645318667392074
-0.4820394507500012	-0.31507797188935244
-0.4819784155937512	-0.3234206332130279
-0.4819173804375012	-0.33147352155773124
-0.4818563452812512	-0.3392292657451084
-0.4817953101250012	-0.3466809059996616
-0.4817342749687512	-0.3538217197008719
-0.4816732398125012	-0.36064502146271216
-0.4816122046562512	-0.36714437861439464
-0.4815511695000012	-0.3733138164497976
-0.4814901343437512	-0.3791478161049517
-0.4814290991875012	-0.3846410794369459
-0.4813680640312512	-0.38978833020266157
-0.4813070288750012	-0.3945846211129427
-0.4812459937187512	-0.39902559377214997
-0.4811849585625012	-0.40310720541972217
-0.4811239234062512	-0.4068255967465036
-0.4810628882500012	-0.4101771655963233
-0.4810018530937512	-0.41315861861075226
-0.4809408179375012	-0.4157671519270921
-0.4808797827812512	-0.41800034643617273
-0.4808187476250012	-0.41985595741891424
-0.4807577124687512	-0.421332034100745
-0.4806966773125012	-0.4224270561765729
-0.4806356421562512	-0.42313988765437877
-0.4805746070000012	-0.42346968216702113
-0.4805135718437512	-0.42341592335758166
-0.4804525366875012	-0.4229784493682755
-0.4803915015312512	-0.4221574254940578
-0.4803304663750012	-0.4209533751223805
-0.4802694312187512	-0.41936718474396173
-0.4802083960625012	-0.4174000874810243
-0.4801473609062512	-0.4150535978692814
-0.4800863257500012	-0.4123295677329088
-0.4800252905937512	-0.4092302837297807
-0.4799642554375012	-0.40575834292638485
-0.4799032202812512	-0.40191661197810674
-0.4798421851250012	-0.39770825318197767
-0.4797811499687512	-0.39313685262037185
-0.4797201148125012	-0.38820644227764617
-0.4796590796562512	-0.382921157565541
-0.4795980445000012	-0.3772853771708898
-0.4795370093437512	-0.37130406964479157
-0.4794759741875012	-0.3649825214465429
-0.4794149390312512	-0.3583260467689883
-0.4793539038750012	-0.3513403440191072
-0.4792928687187512	-0.34403162983784835
-0.4792318335625012	-0.3364062769746112
-0.4791707984062512	-0.32847084904991575
-0.4791097632500012	-0.320232225589425
-0.4790487280937512	-0.31169764252089727
-0.4789876929375012	-0.30287466664723295
-0.4789266577812512	-0.2937710542943615
-0.4788656226250012	-0.2843946379821204
-0.4788045874687512	-0.27475356291836944
-0.4787435523125012	-0.2648565534255417
-0.4786825171562512	-0.254712326300871
-0.4786214820000012	-0.24432961565038383
-0.4785604468437512	-0.23371774780773097
-0.4784994116875012	-0.22288603269189805
-0.4784383765312512	-0.2118437844083136
-0.4783773413750012	-0.20060108071246083
-0.4783163062187512	-0.18916808987643302
-0.4782552710625012	-0.17755451637342093
-0.4781942359062512	-0.16577041421424465
-0.4781332007500012	-0.15382666050604377
-0.4780721655937512	-0.1417340904183539
-0.4780111304375012	-0.12950300694501943
-0.4779500952812512	-0.11714411800861745
-0.4778890601250012	-0.10466869246343619
-0.4778280249687512	-0.09208798651074386
-0.4777669898125012	-0.0794130196389153
-0.4777059546562512	-0.06665478855323206
-0.4776449195000012	-0.05382494866287248
-0.4775838843437512	-0.040935137143928726
-0.4775228491875012	-0.027996518737253725
-0.4774618140312512	-0.01502060137135963
-0.4774007788750012	-0.0020190947694131095
-0.4773397437187512	0.010996259856509328
-0.4772787085625012	0.024013895045875325
-0.4772176734062512	0.03702242929824576
-0.4771566382500012	0.05001001762335274
-0.4770956030937512	0.06296494507539405
-0.4770345679375012	0.07587575576564884
-0.4769735327812512	0.08873078162488743
-0.4769124976250012	0.10151863436043318
-0.4768514624687512	0.11422786069457552
-0.4767904273125012	0.12684682623056165
-0.4767293921562512	0.1393642398441203
-0.4766683570000012	0.1517690139324411
-0.4766073218437512	0.16405011380865728
-0.4765462866875012	0.17619625816334278
-0.4764852515312512	0.18819631609414472
-0.4764242163750012	0.20003980010095143
-0.4763631812187512	0.2117161664100055
-0.4763021460625012	0.22321463644672487
-0.4762411109062512	0.23452472844064265
-0.4761800757500012	0.2456364235765987
-0.4761190405937512	0.2565397851302604
-0.4760580054375012	0.26722473525630414
-0.4759969702812512	0.2776815451817348
-0.4759359351250012	0.2879009862410059
-0.4758748999687512	0.29787384855482474
-0.4758138648125012	0.30759084992457497
-0.4757528296562512	0.3170430878303956
-0.4756917945000012	0.32622216913471846
-0.4756307593437512	0.33511986056034543
-0.4755697241875012	0.3437279577843695
-0.4755086890312512	0.3520384672852864
-0.4754476538750012	0.3600438379798007
-0.4753866187187512	0.36773689866765974
-0.4753255835625012	0.37511059827814236
-0.4752645484062512	0.3821581161052924
-0.4752035132500012	0.3888729757011933
-0.4751424780937512	0.39524903002641215
-0.4750814429375012	0.4012803963898731
-0.4750204077812512	0.4069614909548122
-0.4749593726250012	0.4122871605503404
-0.4748983374687512	0.4172524213049522
-0.4748373023125012	0.4218525634606199
-0.4747762671562512	0.42608333760349243
-0.4747152320000012	0.4299407951097137
-0.4746541968437512	0.4334213780356469
-0.4745931616875012	0.4365217750473164
-0.4745321265312512	0.4392389000394445
-0.4744710913750012	0.4415701567660603
-0.4744100562187512	0.44351336838580097
-0.4743490210625012	0.44506665506575843
-0.4742879859062512	0.4462283737776213
-0.4742269507500012	0.44699721550937493
-0.4741659155937512	0.4473723646839777
-0.4741048804375012	0.4473533678936657
-0.4740438452812512	0.44694003544776867
-0.4739828101250012	0.44613250140348143
-0.4739217749687512	0.4449313054773537
-0.4738607398125012	0.44333739579651743
-0.4737997046562512	0.44135200278905895
-0.4737386695000012	0.4389766809003162
-0.4736776343437512	0.43621339231882383
-0.4736165991875012	0.43306446815881466
-0.4735555640312512	0.4295325791225086
-0.4734945288750012	0.42562064510596714
-0.4734334937187512	0.4213319296342227
-0.4733724585625012	0.4166702052874162
-0.4733114234062512	0.4116395639831289
-0.4732503882500012	0.4062442673098675
-0.4731893530937512	0.4004888564978237
-0.4731283179375012	0.3943783411908395
-0.4730672827812512	0.3879182268632431
-0.4730062476250012	0.38111415748762617
-0.4729452124687512	0.3739718706269639
-0.4728841773125012	0.36649760471871545
-0.4728231421562512	0.35869801308861815
-0.4727621070000012	0.35057998396172624
-0.4727010718437512	0.34215069179126806
-0.4726400366875012	0.33341740651621166
-0.4725790015312512	0.32438772306712776
-0.4725179663750012	0.3150697518625958
-0.4724569312187512	0.3054718319239185
-0.4723958960625012	0.2956024368861607
-0.4723348609062512	0.2854700506933207
-0.4722738257500012	0.27508353918819595
-0.4722127905937512	0.2644523963447958
-0.4721517554375012	0.25358623006156517
-0.4720907202812512	0.2424944750151834
-0.4720296851250012	0.23118660129276872
-0.4719686499687512	0.21967278904332366
-0.4719076148125012	0.20796371382180626
-0.4718465796562512	0.19606972292803232
-0.4717855445000012	0.18400104729443226
-0.4717245093437512	0.17176829260302906
-0.4716634741875012	0.15938264273698358
-0.4716024390312512	0.14685541881557562
-0.4715414038750012	0.13419746302180505
-0.4714803687187512	0.12141980566924974
-0.4714193335625012	0.10853415787151739
-0.4713582984062512	0.09555221783522362
-0.4712972632500012	0.08248532710957604
-0.4712362280937512	0.06934489353252092
-0.4711751929375012	0.0561429463646849
-0.4711141577812512	0.04289165641062556
-0.4710531226250012	0.029602559490370377
-0.4709920874687512	0.016287066275124454
-0.4709310523125012	0.002957350480072514
-0.4708700171562512	-0.010373976071384313
-0.4708089820000012	-0.02369518628654464
-0.4707479468437512	-0.03699512850375401
-0.4706869116875012	-0.05026168479677309
-0.4706258765312512	-0.06348223897173316
-0.4705648413750012	-0.0766450800139102
-0.4705038062187512	-0.08973888762207055
-0.4704427710625012	-0.1027518557951428
-0.4703817359062512	-0.11567208638259976
-0.4703207007500012	-0.1284878176915316
-0.4702596655937512	-0.14118770114519644
-0.4701986304375012	-0.15376053454323577
-0.4701375952812512	-0.16619469864988506
-0.4700765601250012	-0.1784790461895849
-0.4700155249687512	-0.19060284386507906
-0.4699544898125012	-0.20255487540966882
-0.4698934546562512	-0.21432416900566748
-0.4698324195000012	-0.22590054705289797
-0.4697713843437512	-0.2372736922032839
-0.4697103491875012	-0.24843294383197956
