Time	Frequency
-0.5000095361562487	0.2641984526332694
-0.49994850099999866	0.27440588796454535
-0.49988746584374866	0.28436653074196155
-0.49982643068749866	0.2940723846811228
-0.49976539553124866	0.30351392313735365
-0.49970436037499866	0.31268185235286405
-0.49964332521874866	0.32156823078126795
-0.49958229006249866	0.33016515373433225
-0.49952125490624866	0.3384645350601461
-0.49946021974999866	0.34645858817296965
-0.49939918459374866	0.35414005306930463
-0.49933814943749866	0.36150183546818504
-0.49927711428124866	0.36853715085326383
-0.49921607912499866	0.37523965878518506
-0.49915504396874866	0.38160292289865455
-0.49909400881249866	0.38762100148194567
-0.49903297365624866	0.3932886594637886
-0.49897193849999866	0.39860049735082087
-0.49891090334374866	0.40355138515130184
-0.49884986818749866	0.40813684822073903
-0.49878883303124866	0.41235260138792085
-0.49872779787499866	0.4161947779081609
-0.49866676271874866	0.4196598330915727
-0.49860572756249866	0.4227442287859786
-0.49854469240624866	0.4254450334868189
-0.49848365724999866	0.42776000499783756
-0.49842262209374866	0.4296869091677604
-0.49836158693749866	0.4312236230133194
-0.49830055178124866	0.4323686326081405
-0.49823951662499866	0.43312094171640575
-0.49817848146874866	0.43347980162560745
-0.49811744631249866	0.43344468623911586
-0.49805641115624866	0.4330154701845174
-0.49799537599999866	0.43219247704944813
-0.49793434084374866	0.4309763594619338
-0.49787330568749866	0.42936813580802924
-0.49781227053124866	0.4273691657558648
-0.49775123537499866	0.4249811077483737
-0.49769020021874866	0.42220605916644766
-0.49762916506249866	0.41904646400586015
-0.49756812990624866	0.4155050674586091
-0.49750709474999866	0.41158511507252504
-0.49744605959374866	0.40728997729928734
-0.49738502443749866	0.40262324608860517
-0.49732398928124866	0.39758941581659735
-0.49726295412499866	0.3921931699949302
-0.49720191896874866	0.3864388989380098
-0.49714088381249866	0.3803316056063494
-0.49707984865624866	0.3738771573799961
-0.49701881349999866	0.36708156126087405
-0.49695777834374866	0.35995062631528996
-0.49689674318749866	0.3524905891743862
-0.49683570803124866	0.3447083130789064
-0.49677467287499866	0.336610853729983
-0.49671363771874866	0.3282056772638021
-0.49665260256249866	0.31950056990816683
-0.49659156740624866	0.31050297943870225
-0.49653053224999866	0.30122059338100066
-0.49646949709374866	0.29166239449306375
-0.49640846193749866	0.2818377514090241
-0.49634742678124866	0.2717550889038769
-0.49628639162499866	0.2614226390298057
-0.49622535646874866	0.2508499640425363
-0.49616432131249866	0.24004787712348477
-0.49610328615624866	0.22902620589673922
-0.49604225099999866	0.21779357526358456
-0.49598121584374866	0.20636029765131336
-0.49592018068749866	0.19473798360273692
-0.49585914553124866	0.18293698119963855
-0.49579811037499866	0.17096735695194873
-0.49573707521874866	0.15884027197893108
-0.49567604006249866	0.1465668195228443
-0.49561500490624866	0.13415814596936645
-0.49555396974999866	0.12162605144909504
-0.49549293459374866	0.10898169281038772
-0.49543189943749866	0.09623609987416842
-0.49537086428124866	0.08340121626346858
-0.49530982912499866	0.07048911441436445
-0.49524879396874866	0.05751178062438283
-0.49518775881249866	0.04448065753231546
-0.49512672365624866	0.031406985589163765
-0.49506568849999866	0.018303461030834942
-0.49500465334374866	0.005182995476071491
-0.49494361818749866	-0.00794329176539354
-0.49488258303124866	-0.021064317084437907
-0.49482154787499866	-0.03416716508217448
-0.49476051271874866	-0.047238918350935556
-0.49469947756249866	-0.060268384971783405
-0.49463844240624866	-0.07324432178861537
-0.49457740724999866	-0.0861541114160117
-0.49451637209374866	-0.09898556794543135
-0.49445533693749866	-0.11172728618303406
-0.49439430178124866	-0.124367583467665
-0.49433326662499866	-0.13689495131332088
-0.49427223146874866	-0.14929765362577818
-0.49421119631249866	-0.16156394702741364
-0.49415016115624866	-0.1736831649384344
-0.49408912599999866	-0.1856441824332387
-0.49402809084374866	-0.19743524854478386
-0.49396705568749866	-0.20904582394055884
-0.49390602053124866	-0.2204655941075612
-0.49384498537499866	-0.23168380043285783
-0.49378395021874866	-0.2426898837741873
-0.49372291506249866	-0.25347346393780396
-0.49366187990624866	-0.2640251117050504
-0.49360084474999866	-0.27433534943178994
-0.49353980959374866	-0.28439374982867405
-0.49347877443749866	-0.29419110700516377
-0.49341773928124866	-0.3037190832281842
-0.49335670412499866	-0.3129684569814832
-0.49329566896874866	-0.321930332410445
-0.49323463381249866	-0.3305967485439479
-0.49317359865624866	-0.3389597850263822
-0.49311256349999866	-0.34701141380006745
-0.49305152834374866	-0.3547439558495615
-0.49299049318749866	-0.362150480797901
-0.49292945803124866	-0.3692243476210171
-0.49286842287499866	-0.3759586805129679
-0.49280738771874866	-0.3823469800019939
-0.49274635256249866	-0.3883834592139994
-0.49268531740624866	-0.39406256094813535
-0.49262428224999866	-0.39937897815646906
-0.49256324709374866	-0.40432769398137
-0.49250221193749866	-0.4089038358383284
-0.49244117678124866	-0.4131031949844589
-0.49238014162499866	-0.4169220355049758
-0.49231910646874866	-0.4203565453973513
-0.49225807131249866	-0.42340338913311637
-0.49219703615624866	-0.4260597684963339
-0.49213600099999866	-0.4283231019338772
-0.49207496584374866	-0.4301911905870489
-0.49201393068749866	-0.43166222561077694
-0.49195289553124866	-0.43273474515131316
-0.49189186037499866	-0.43340762954766504
-0.49183082521874866	-0.43368011284673447
-0.49176979006249866	-0.4335518608986086
-0.49170875490624866	-0.4330229485603054
-0.49164771974999866	-0.4320937492958268
-0.49158668459374866	-0.43076492637222885
-0.49152564943749866	-0.4290375398954528
-0.49146461428124866	-0.426913155371815
-0.49140357912499866	-0.42439375118096667
-0.49134254396874866	-0.4214814947869341
-0.49128150881249866	-0.4181787498829426
-0.49122047365624866	-0.4144884434578389
-0.49115943849999866	-0.41041414971936385
-0.49109840334374866	-0.4059595766750522
-0.49103736818749866	-0.401128512880668
-0.49097633303124866	-0.39592514521054617
-0.49091529787499866	-0.39035424609972547
-0.49085426271874866	-0.38442123049980603
-0.49079322756249866	-0.3781314321828998
-0.49073219240624866	-0.3714900674654567
-0.49067115724999866	-0.3645033547056223
-0.49061012209374866	-0.3571779238888887
-0.49054908693749866	-0.34952014091733685
-0.49048805178124866	-0.34153721530811043
-0.49042701662499866	-0.3332365743236721
-0.49036598146874866	-0.32462518506200627
-0.49030494631249866	-0.3157111053229091
-0.49024391115624866	-0.30650306166550706
-0.49018287599999866	-0.29700917504881674
-0.49012184084374866	-0.2872377341695574
-0.49006080568749866	-0.2771978293323524
-0.48999977053124866	-0.2668992358754042
-0.48993873537499866	-0.25635128707235294
-0.48987770021874866	-0.24556264249738044
-0.48981666506249866	-0.2345436961206231
-0.48975562990624866	-0.22330588034937782
-0.48969459474999866	-0.2118585850367356
-0.48963355959374866	-0.20021114346295862
-0.48957252443749866	-0.1883752467380404
-0.48951148928124866	-0.17636272832917452
-0.48945045412499866	-0.16418411132730326
-0.48938941896874866	-0.15184980868994602
-0.48932838381249866	-0.1393712888840313
-0.48926734865624866	-0.1267605939820389
-0.48920631349999866	-0.11402969704062935
-0.48914527834374866	-0.10119023454595324
-0.48908424318749866	-0.088253227974928
-0.48902320803124866	-0.07523063069910428
-0.48896217287499866	-0.062135328645667814
-0.48890113771874866	-0.04897949569203958
-0.48884010256249866	-0.03577494284246861
-0.48877906740624866	-0.022533403436406696
-0.48871803224999866	-0.009267127980390033
-0.48865699709374866	0.004010677637874643
-0.48859596193749866	0.01728763000027361
-0.48853492678124866	0.030552520639911047
-0.48847389162499866	0.043793095979999544
-0.48841285646874866	0.05699591830128815
-0.48835182131249866	0.07014890637524246
-0.48829078615624866	0.08324094021763538
-0.48822975099999866	0.09625937271878249
-0.48816871584374866	0.10919125915176446
-0.48810768068749866	0.12202515264200241
-0.48804664553124866	0.1347497847668199
-0.48798561037499866	0.1473529677239671
-0.48792457521874866	0.15982220814754491
-0.48786354006249866	0.1721459670558472
-0.48780250490624866	0.18431386339507588
-0.48774146974999866	0.19631447077748224
-0.48768043459374866	0.2081352501901717
-0.48761939943749866	0.21976559081831576
-0.48755836428124866	0.23119578981186809
-0.48749732912499866	0.24241447691485482
-0.48743629396874866	0.25341060076095784
-0.48737525881249866	0.26417446050428484
-0.48731422365624866	0.274695951037739
-0.48725318849999866	0.28496505596994165
-0.48719215334374866	0.29497249710166157
-0.48713111818749866	0.30470870943866835
-0.48707008303124866	0.3141641308082431
-0.48700904787499866	0.32333017858754853
-0.48694801271874866	0.33219870868494533
-0.48688697756249866	0.3407610738159815
-0.48682594240624866	0.34900879025477227
-0.48676490724999866	0.3569343616013393
-0.48670387209374866	0.36453058955292905
-0.48664283693749866	0.37179007674150705
-0.48658180178124866	0.37870589258987786
-0.48652076662499866	0.3852716682263803
-0.48645973146874866	0.3914809953965861
-0.48639869631249866	0.39732792286439034
-0.48633766115624866	0.4028071784149437
-0.48627662599999866	0.40791350930800135
-0.48621559084374866	0.41264177489377146
-0.48615455568749866	0.41698742458733873
-0.48609352053124866	0.4209465410495512
-0.48603248537499866	0.42451538050366
-0.48597145021874866	0.42769020585725054
-0.48591041506249866	0.4304678233173891
-0.48584937990624866	0.4328458095348289
-0.48578834474999866	0.4348218693861266
-0.48572730959374866	0.43639373958646055
-0.48566627443749866	0.4375598145304472
-0.48560523928124866	0.43831903605497324
-0.48554420412499866	0.43867053235298975
-0.48548316896874866	0.438613751716729
-0.48542213381249866	0.43814861428964474
-0.48536109865624866	0.4372753874133386
-0.48530006349999866	0.4359947382529859
-0.48523902834374866	0.4343077632201351
-0.48517799318749866	0.43221582282809595
-0.48511695803124866	0.4297207310931976
-0.48505592287499866	0.4268247096106367
-0.48499488771874866	0.42353019028980443
-0.48493385256249866	0.41984006109550276
-0.48487281740624866	0.4157578063647784
-0.48481178224999866	0.41128715440742436
-0.48475074709374866	0.40643176813987547
-0.48468971193749866	0.40119593526692404
-0.48462867678124866	0.39558487477925214
-0.48456764162499866	0.38960370863418164
-0.48450660646874866	0.38325736620853096
-0.48444557131249866	0.3765516282593624
-0.48438453615624866	0.3694929882090648
-0.48432350099999866	0.3620878350405999
-0.48426246584374866	0.35434276211964716
-0.48420143068749866	0.34626485682070207
-0.48414039553124866	0.3378615859755387
-0.48407936037499866	0.32914061666468836
-0.48401832521874866	0.3201098588723771
-0.48395729006249866	0.31077787750068947
-0.48389625490624866	0.3011531999620017
-0.48383521974999866	0.29124424840260077
-0.48377418459374866	0.28106043018428467
-0.48371314943749866	0.2706115515053845
-0.48365211428124866	0.25990677244024335
-0.48359107912499866	0.24895559363754957
-0.48353004396874866	0.23776872702961743
-0.48346900881249866	0.22635676784460348
-0.48340797365624866	0.21472969416509086
-0.48334693849999866	0.20289818400245002
-0.48328590334374866	0.19087336886423517
-0.48322486818749866	0.1786664193866186
-0.48316383303124866	0.16628906879890507
-0.48310279787499866	0.15375233679358075
-0.48304176271874866	0.1410672127074456
-0.48298072756249866	0.12824629552088768
-0.48291969240624866	0.11530186439914973
-0.48285865724999866	0.10224526597798467
-0.48279762209374866	0.08908828068014701
-0.48273658693749866	0.07584360694608729
-0.48267555178124866	0.06252386675076534
-0.48261451662499866	0.049141117744451894
-0.48255348146874866	0.03570788861798808
-0.48249244631249866	0.022236399263544804
-0.48243141115624866	0.008739088783263172
-0.48237037599999866	-0.004770733087689182
-0.48230934084374866	-0.018280623030896302
-0.48224830568749866	-0.031778460478005734
-0.48218727053124866	-0.04525179627985834
-0.48212623537499866	-0.058687736768835666
-0.48206520021874866	-0.07207313807393254
-0.48200416506249866	-0.08539615314778688
-0.48194312990624866	-0.09864479540772088
-0.48188209474999866	-0.1118058277276429
-0.48182105959374866	-0.12486708291614189
-0.48176002443749866	-0.1378167337839632
-0.48169898928124866	-0.15064223092498893
-0.48163795412499866	-0.16333197049369036
-0.48157691896874866	-0.1758741390836183
-0.48151588381249866	-0.18825621040485357
-0.48145484865624866	-0.2004668687879137
-0.48139381349999866	-0.2124954147882524
-0.48133277834374866	-0.22433025810865592
-0.48127174318749866	-0.23595952080291724
-0.48121070803124866	-0.2473725813780427
-0.48114967287499866	-0.2585593093775972
-0.48108863771874866	-0.26950893125383174
-0.48102760256249866	-0.28021095902290066
-0.48096656740624866	-0.29065526137454795
-0.48090553224999866	-0.3008319415912734
-0.48084449709374866	-0.3107317049448361
-0.48078346193749866	-0.32034533902665296
-0.48072242678124866	-0.3296635394313707
-0.48066139162499866	-0.33867724026464757
-0.48060035646874866	-0.34737799346514286
-0.48053932131249866	-0.3557580124901016
-0.48047828615624866	-0.363809358347116
-0.48041725099999866	-0.37152393782503484
-0.48035621584374866	-0.3788944249115667
-0.48029518068749866	-0.38591412913598794
-0.48023414553124866	-0.3925764323810765
-0.48017311037499866	-0.3988749113741575
-0.48011207521874866	-0.4048034225814394
-0.48005104006249866	-0.41035620537300604
-0.47999000490624866	-0.41552823024526897
-0.47992896974999866	-0.4203146358619026
-0.47986793459374866	-0.4247105303600197
-0.47980689943749866	-0.4287117246124717
-0.47974586428124866	-0.43231442745631926
-0.47968482912499866	-0.4355151291358235
-0.47962379396874866	-0.4383108303237979
-0.47956275881249866	-0.4406986861333346
-0.47950172365624866	-0.4426762180552026
-0.47944068849999866	-0.4442415709574782
-0.47937965334374866	-0.4453932545146912
-0.47931861818749866	-0.4461299910472237
-0.47925758303124866	-0.4464508798708478
-0.47919654787499866	-0.44635553806987366
-0.47913551271874866	-0.44584397426835787
-0.47907447756249866	-0.4449165704006965
-0.47901344240624866	-0.4435740758930777
-0.47895240724999866	-0.44181752409710057
-0.47889137209374866	-0.4396484175545523
-0.47883033693749866	-0.4370688114084715
-0.47876930178124866	-0.43408103468175857
-0.47870826662499866	-0.43068763895743084
-0.47864723146874866	-0.4268916643346921
-0.47858619631249866	-0.42269661765405087
-0.47852516115624866	-0.41810629804718746
-0.47846412599999866	-0.41312495705672697
-0.47840309084374866	-0.40775724103847355
-0.47834205568749866	-0.40200784949382773
-0.47828102053124866	-0.3958819773355712
-0.47821998537499866	-0.38938551313082836
-0.47815895021874866	-0.3825245123658194
-0.47809791506249866	-0.37530534429048584
-0.47803687990624866	-0.3677343745489233
-0.47797584474999866	-0.35981828255673487
-0.47791480959374866	-0.35156516330052806
-0.47785377443749866	-0.34298294182251954
-0.47779273928124866	-0.3340786273842565
-0.47773170412499866	-0.32486041122791615
-0.47767066896874866	-0.3153376288703933
-0.47760963381249866	-0.3055192110626614
-0.47754859865624866	-0.29541375034931805
-0.47748756349999866	-0.285030481878876
-0.47742652834374866	-0.2743796581433888
-0.47736549318749866	-0.26347127022716144
-0.47730445803124866	-0.2523148085018211
-0.47724342287499866	-0.24092103247746818
-0.47718238771874866	-0.22930114403293633
-0.47712135256249866	-0.21746538001235755
-0.47706031740624866	-0.20542450815707744
-0.47699928224999866	-0.19319036246333837
-0.47693824709374866	-0.1807745610186231
-0.47687721193749866	-0.16818839042189226
-0.47681617678124866	-0.1554435458540244
-0.47675514162499866	-0.14255183409503716
-0.47669410646874866	-0.12952564555989796
-0.47663307131249866	-0.11637780018304922
-0.47657203615624866	-0.10311972610149675
-0.47651100099999866	-0.08976346067655105
-0.47644996584374866	-0.07632267150979685
-0.47638893068749866	-0.0628099441089196
-0.47632789553124866	-0.04923730055750639
-0.47626686037499866	-0.03561751131945968
-0.47620582521874866	-0.0219637127479232
-0.47614479006249866	-0.008288932970663982
-0.47608375490624866	0.005394274149146396
-0.47602271974999866	0.019073004156500706
-0.47596168459374866	0.03273414354028899
-0.47590064943749866	0.04636522935477558
-0.47583961428124866	0.05995331764702833
-0.47577857912499866	0.07348506405247576
-0.47571754396874866	0.08694794622607477
-0.47565650881249866	0.1003296969428312
-0.47559547365624866	0.11361758787014536
-0.47553443849999866	0.1267986588900943
-0.47547340334374866	0.13986038258022973
-0.47541236818749866	0.15279069165856457
-0.47535133303124866	0.16557762353907612
-0.47529029787499866	0.17820905229781808
-0.47522926271874866	0.19067239824301316
-0.47516822756249866	0.20295574270523753
-0.47510719240624866	0.21504845206840648
-0.47504615724999866	0.2269390854661801
-0.47498512209374866	0.23861524849469007
-0.47492408693749866	0.25006602349411855
-0.47486305178124866	0.26128134409163184
-0.47480201662499866	0.2722505986910012
-0.47474098146874866	0.28296289035803
-0.47467994631249866	0.2934074243207057
-0.47461891115624866	0.30357485960909275
-0.47455787599999866	0.3134565285101355
-0.47449684084374866	0.3230420713380224
-0.47443580568749866	0.33232141151819816
-0.47437477053124866	0.34128681217629553
-0.47431373537499866	0.3499302517372269
-0.47425270021874866	0.3582427053100586
-0.47419166506249866	0.36621596077617513
-0.47413062990624866	0.37384258297445955
-0.47406959474999866	0.3811157119197775
-0.47400855959374866	0.38802836828587584
-0.47394752443749866	0.39457333093756247
-0.47388648928124866	0.40074448940919755
-0.47382545412499866	0.4065363154551484
-0.47376441896874866	0.41194300695084446
-0.47370338381249866	0.41695916148013357
-0.47364234865624866	0.42158005590540926
-0.47358131349999866	0.42580130357981444
-0.47352027834374866	0.42961877107149676
-0.47345924318749866	0.4330286995230548
-0.47339820803124866	0.4360276897392043
-0.47333717287499866	0.43861282781973604
-0.47327613771874866	0.44078169447884247
-0.47321510256249866	0.4425320378530113
-0.47315406740624866	0.44386197919820464
-0.47309303224999866	0.444770242514728
-0.47303199709374866	0.4452559057517136
-0.47297096193749866	0.44531835572621503
-0.47290992678124866	0.4449573736489291
-0.47284889162499866	0.4441732194990929
-0.47278785646874866	0.44296656004781165
-0.47272682131249866	0.4413383691118824
-0.47266578615624866	0.4392900963096293
-0.47260475099999866	0.43682363423540754
-0.47254371584374866	0.43394114362002273
-0.47248268068749866	0.43064521454836985
-0.47242164553124866	0.42693890332961676
-0.47236061037499866	0.42282561246966266
-0.47229957521874866	0.4183092357179469
-0.47223854006249866	0.4133938877875193
-0.47217750490624866	0.4080838628374173
-0.47211646974999866	0.4023843616872072
-0.47205543459374866	0.3963009508250802
-0.47199439943749866	0.38983882994765306
-0.47193336428124866	0.38300396908554313
-0.47187232912499866	0.37580320171384907
-0.47181129396874866	0.36824320556378537
-0.47175025881249866	0.3603307840522948
-0.47168922365624866	0.35207325033411796
-0.47162818849999866	0.3434787338079445
-0.47156715334374866	0.3345554772055344
-0.47150611818749866	0.32531122328970424
-0.47144508303124866	0.3157548507669091
-0.47138404787499866	0.30589590715368187
-0.47132301271874866	0.2957431034954914
-0.47126197756249866	0.2853059323974242
-0.47120094240624866	0.27459487487712164
-0.47113990724999866	0.26361959254389855
-0.47107887209374866	0.2523901816121781
-0.47101783693749866	0.24091788012708928
-0.47095680178124866	0.22921321113922793
-0.47089576662499866	0.21728704631210613
-0.47083473146874866	0.20515112189646176
-0.47077369631249866	0.19281665676459653
-0.47071266115624866	0.1802952957741642
-0.47065162599999866	0.16759891188082077
-0.47059059084374866	0.15473952300766744
-0.47052955568749866	0.14172978773920003
-0.47046852053124866	0.12858154032685704
-0.47040748537499866	0.11530700923984812
-0.47034645021874866	0.1019194624108164
