Time	Frequency
-0.5000524515937457	0.5105268341803114
-0.4999914164374957	0.5091364260496151
-0.4999303812812457	0.5070688964243365
-0.4998693461249957	0.5043328601698055
-0.4998083109687457	0.5009309367210535
-0.4997472758124957	0.496863196134843
-0.4996862406562457	0.492143103917149
-0.4996252054999957	0.4867678541845772
-0.4995641703437457	0.4807511940197436
-0.4995031351874957	0.47409967837532857
-0.4994421000312457	0.46681752438402
-0.4993810648749957	0.45892268901726696
-0.4993200297187457	0.4504171156351352
-0.4992589945624957	0.4413182844726642
-0.4991979594062457	0.43163616375273045
-0.4991369242499957	0.42138046739192997
-0.4990758890937457	0.4105727722881551
-0.4990148539374957	0.3992180309827809
-0.4989538187812457	0.38733827582800046
-0.4988927836249957	0.3749470531404436
-0.4988317484687457	0.3620579608247955
-0.4987707133124957	0.3486959955872336
-0.4987096781562457	0.33486932153138455
-0.4986486429999957	0.3206034981751518
-0.4985876078437457	0.305914999017193
-0.4985265726874957	0.2908212498063066
-0.4984655375312457	0.27534978126334403
-0.4984045023749957	0.25951085824412606
-0.4983434672187457	0.24333394733724475
-0.4982824320624957	0.22683819067428285
-0.4982213969062457	0.2100423230324419
-0.4981603617499957	0.19297636639743557
-0.4980993265937457	0.17565397276710176
-0.4980382914374957	0.15810567772018866
-0.4979772562812457	0.1403520472202951
-0.4979162211249957	0.12241500435060217
-0.4978551859687457	0.10432479759347636
-0.4977941508124957	0.0860963459366887
-0.4977331156562457	0.06776303745643603
-0.4976720804999957	0.04934540440314916
-0.4976110453437457	0.030865555194248932
-0.4975500101874957	0.012355539948883087
-0.4974889750312457	-0.006168367570292682
-0.4974279398749957	-0.024673858260335153
-0.4973669047187457	-0.043140481604434164
-0.4973058695624957	-0.06154407653832031
-0.4972448344062457	-0.07985373381868137
-0.4971837992499957	-0.09805402044939053
-0.4971227640937457	-0.11611202802793412
-0.4970617289374957	-0.13400849000398485
-0.4970006937812457	-0.15171968981589393
-0.4969396586249957	-0.16921548090644747
-0.4968786234687457	-0.1864819065042998
-0.4968175883124957	-0.20348721437489756
-0.4967565531562457	-0.22021329403757
-0.4966955179999957	-0.2366378188272539
-0.4966344828437457	-0.25273292691929533
-0.4965734476874957	-0.2684861095659487
-0.4965124125312457	-0.2838676566533888
-0.4964513773749957	-0.2988617876093017
-0.4963903422187457	-0.3134479328914655
-0.4963293070624957	-0.3276016106381848
-0.4962682719062457	-0.34131238175011025
-0.4962072367499957	-0.3545527728184088
-0.4961462015937457	-0.3673108357707315
-0.4960851664374957	-0.37956834497724745
-0.4960241312812457	-0.39130393964152277
-0.4959630961249957	-0.40251085521380897
-0.4959020609687457	-0.413164669594266
-0.4958410258124957	-0.42325669430139345
-0.4957799906562457	-0.4327724728416807
-0.4957189554999957	-0.44169485807195036
-0.4956579203437457	-0.45001996681667233
-0.4955968851874957	-0.4577274020529553
-0.4955358500312457	-0.46481312670893044
-0.4954748148749957	-0.47126601339177104
-0.4954137797187457	-0.47707347164207137
-0.4953527445624957	-0.48223551241588786
-0.4952917094062457	-0.48673585956647647
-0.4952306742499957	-0.49057543319648067
-0.4951696390937457	-0.49374693324522934
-0.4951086039374957	-0.4962423163773484
-0.4950475687812457	-0.49806599294272935
-0.4949865336249957	-0.49920636684540864
-0.4949254984687457	-0.4996689643797248
-0.4948644633124957	-0.4994504860871929
-0.4948034281562457	-0.4985481667280895
-0.4947423929999957	-0.49697070199809734
-0.4946813578437457	-0.49471092811130196
-0.4946203226874957	-0.4917792650462132
-0.4945592875312457	-0.4881766033093407
-0.4944982523749957	-0.4839053849543941
-0.4944372172187457	-0.47897843831648085
-0.4943761820624957	-0.47339289915010635
-0.4943151469062457	-0.4671641915453682
-0.4942541117499957	-0.46029743129686856
-0.4941930765937457	-0.45279979631237277
-0.4941320414374957	-0.4446879380742169
-0.4940710062812457	-0.4359634176210921
-0.4940099711249957	-0.42664652653300117
-0.4939489359687457	-0.4167460099199303
-0.4938879008124957	-0.4062733132154289
-0.4938268656562457	-0.39524900731956397
-0.4937658304999957	-0.38367881169993906
-0.4937047953437457	-0.3715870354291011
-0.4936437601874957	-0.3589857780862668
-0.4935827250312457	-0.34589047425433606
-0.4935216898749957	-0.3323249738536237
-0.4934606547187457	-0.31829892632353385
-0.4933996195624957	-0.303839948028879
-0.4933385844062457	-0.28896262390021615
-0.4932775492499957	-0.27368645339268405
-0.4932165140937457	-0.2580377262996752
-0.4931554789374957	-0.24202887854426494
-0.4930944437812457	-0.22569114123875988
-0.4930334086249957	-0.20904058600482006
-0.4929723734687457	-0.19209930468946576
-0.4929113383124957	-0.1748964930814155
-0.4928503031562457	-0.1574464131526234
-0.4927892679999957	-0.13978218338844473
-0.4927282328437457	-0.1219217460315441
-0.4926671976874957	-0.10388907023987749
-0.4926061625312457	-0.08571464130680657
-0.4925451273749957	-0.06741420822528492
-0.4924840922187457	-0.049022045424918115
-0.4924230570624957	-0.030557096706381168
-0.4923620219062457	-0.012044348286366451
-0.4923009867499957	0.006485281129760725
-0.4922399515937457	0.02501502068208632
-0.4921789164374957	0.043510893049405905
-0.4921178812812457	0.06195378285793568
-0.4920568461249957	0.08031750590176266
-0.4919958109687457	0.0985725655661508
-0.4919347758124957	0.11670242273764515
-0.4918737406562457	0.13467264566453327
-0.4918127054999957	0.15246570944110696
-0.4917516703437457	0.17005635912451272
-0.4916906351874957	0.18741537828197147
-0.4916296000312457	0.2045269957886168
-0.4915685648749957	0.22135965456257203
-0.4915075297187457	0.23789708828912368
-0.4914464945624957	0.2541136740247198
-0.4913854594062457	0.26998416054255536
-0.4913244242499957	0.2854949023676195
-0.4912633890937457	0.3006143074933262
-0.4912023539374957	0.31532991162763313
-0.4911413187812457	0.32961915853113744
-0.4910802836249957	0.3434580207161987
-0.4910192484687457	0.35683579749245353
-0.4909582133124957	0.36972479036220535
-0.4908971781562457	0.38211445604178434
-0.4908361429999957	0.3939850471992291
-0.4907751078437457	0.40531733337633347
-0.4907140726874957	0.4161029912064779
-0.4906530375312457	0.4263174760423441
-0.4905920023749957	0.4359545907736402
-0.4905309672187457	0.4449977908773903
-0.4904699320624957	0.4534320100324624
-0.4904088969062457	0.4612526065212544
-0.4903478617499957	0.4684391020445297
-0.4902868265937457	0.4749896172653004
-0.4902257914374957	0.4808912741809065
-0.4901647562812457	0.4861337309051721
-0.4901037211249957	0.4907164063001023
-0.4900426859687457	0.49462327767182834
-0.4899816508124957	0.4978571118560106
-0.4899206156562457	0.500409090107636
-0.4898595804999957	0.5022738754597245
-0.4897985453437457	0.503455099864383
-0.4897375101874957	0.5039415275081438
-0.4896764750312457	0.5037407944782928
-0.4896154398749957	0.5028482205539144
-0.4895544047187457	0.5012636634504765
-0.4894933695624957	0.4989951186901421
-0.4894323344062457	0.49603619167039054
-0.4893712992499957	0.4923993883735797
-0.4893102640937457	0.488084159573782
-0.4892492289374957	0.48309561167703996
-0.4891881937812457	0.47744615662699247
-0.4891271586249957	0.47113397383806166
-0.4890661234687457	0.46417618697120927
-0.4890050883124957	0.45657663955738315
-0.4889440531562457	0.448345411819285
-0.4888830179999957	0.43949869131600805
-0.4888219828437457	0.43003947028599065
-0.4887609476874957	0.4199893231756299
-0.4886999125312457	0.4093555400539409
-0.4886388773749957	0.3981532287661603
-0.4885778422187457	0.38640244800782536
-0.4885168070624957	0.3741098632069556
-0.4884557719062457	0.36130114994767204
-0.4883947367499957	0.3479872397244224
-0.4883337015937457	0.3341873586026648
-0.4882726664374957	0.31992490846202304
-0.4882116312812457	0.3052097171790676
-0.4881505961249957	0.2900706370508155
-0.4880895609687457	0.27452280776034793
-0.4880285258124957	0.25858872807086103
-0.4879674906562457	0.24229243567910977
-0.4879064554999957	0.2256482540570025
-0.4878454203437457	0.20868924317013873
-0.4877843851874957	0.19143027761790413
-0.4877233500312457	0.17389667704219025
-0.4876623148749957	0.1561166076615644
-0.4876012797187457	0.1381055380278833
-0.4875402445624957	0.11989721207447443
-0.4874792094062457	0.101509286211121
-0.4874181742499957	0.08296957849897424
-0.4873571390937457	0.0643060865257907
-0.4872961039374957	0.04553599534741163
-0.4872350687812457	0.02669521776406572
-0.4871740336249957	0.007800976374053056
-0.4871129984687457	-0.011118016659718202
-0.4870519633124957	-0.03003220419177864
-0.4869909281562457	-0.04892464835318911
-0.4869298929999957	-0.06775978156815479
-0.4868688578437457	-0.0865191450462396
-0.4868078226874957	-0.10517441952599438
-0.4867467875312457	-0.12369756660024893
-0.4866857523749957	-0.14207068795514685
-0.4866247172187457	-0.16025912207955995
-0.4865636820624957	-0.17824594555893047
-0.4865026469062457	-0.19600284935763912
-0.4864416117499957	-0.2135038443903494
-0.4863805765937457	-0.2307322022368951
-0.4863195414374957	-0.24765406578490282
-0.4862585062812457	-0.26425461096575037
-0.4861974711249957	-0.28050759178906665
-0.4861364359687457	-0.2963893008910318
-0.4860754008124957	-0.31188410134594774
-0.4860143656562457	-0.3269608215452593
-0.4859533304999957	-0.34160802500123383
-0.4858922953437457	-0.3558010540765342
-0.4858312601874957	-0.3695191391241874
-0.4857702250312457	-0.38274973836254644
-0.4857091898749957	-0.3954646865385464
-0.4856481547187457	-0.40765576155716454
-0.4855871195624957	-0.41930147126360556
-0.4855260844062457	-0.4303847132410251
-0.4854650492499957	-0.44089591889428165
-0.4854040140937457	-0.45081113498497866
-0.4853429789374957	-0.4601263113913056
-0.4852819437812457	-0.4688229809263386
-0.4852209086249957	-0.4768880455181239
-0.4851598734687457	-0.4843163542515607
-0.4850988383124957	-0.4910888711234242
-0.4850378031562457	-0.4972048206119349
-0.4849767679999957	-0.5026494166291929
-0.4849157328437457	-0.507415708224799
-0.4848546976874957	-0.5115023646565662
-0.4847936625312457	-0.5148941466008445
-0.4847326273749957	-0.5175955454758158
-0.4846715922187457	-0.5195964619149515
-0.4846105570624957	-0.5208946419889867
-0.4845495219062457	-0.521492975258742
-0.4844884867499957	-0.5213814235314967
-0.4844274515937457	-0.5205693075148033
-0.4843664164374957	-0.5190509206677486
-0.4843053812812457	-0.5168293544420637
-0.4842443461249957	-0.5139117529712635
-0.4841833109687457	-0.5102931227951132
-0.4841222758124957	-0.5059877550486296
-0.4840612406562457	-0.5009943482059378
-0.4840002054999957	-0.4953212500987471
-0.4839391703437457	-0.48897974689969664
-0.4838781351874957	-0.4819697271830662
-0.4838171000312457	-0.4743105080944167
-0.4837560648749957	-0.46600500400375605
-0.4836950297187457	-0.4570661354373986
-0.4836339945624957	-0.4475095268022191
-0.4835729594062457	-0.437340093461292
-0.4835119242499957	-0.4265809108101885
-0.4834508890937457	-0.4152389676403428
-0.4833898539374957	-0.4033323285400649
-0.4833288187812457	-0.39087963149585986
-0.4832677836249957	-0.3778902048037853
-0.4832067484687457	-0.36439154867509965
-0.4831457133124957	-0.35039345154978524
-0.4830846781562457	-0.3359180879362744
-0.4830236429999957	-0.3209878230455872
-0.4829626078437457	-0.30561545020662223
-0.4829015726874957	-0.28983140957874504
-0.4828405375312457	-0.2736483588937779
-0.4827795023749957	-0.257092315859831
-0.4827184672187457	-0.2401885882787454
-0.4826574320624957	-0.22295218736147793
-0.4825963969062457	-0.20541532347764785
-0.4825353617499957	-0.18759439593480434
-0.4824743265937457	-0.16951857109236462
-0.4824132914374957	-0.1512128062616941
-0.4823522562812457	-0.13269493284653347
-0.4822912211249957	-0.11400045152765295
-0.4822301859687457	-0.09514600482262497
-0.4821691508124957	-0.07616219196625813
-0.4821081156562457	-0.05707550921470232
-0.4820470804999957	-0.037905178383322635
-0.4819860453437457	-0.01868772718833794
-0.4819250101874957	0.0005601419558704918
-0.4818639750312457	0.01980710761006285
-0.4818029398749957	0.03902558582002466
-0.4817419047187457	0.058196167611626735
-0.4816808695624957	0.07728333237949449
-0.4816198344062457	0.09626978808482542
-0.4815587992499957	0.11512391449916909
-0.4814977640937457	0.1338199850281424
-0.4814367289374957	0.15233832974212422
-0.4813756937812457	0.17064399121109294
-0.4813146586249957	0.18872187089883474
-0.4812536234687457	0.20654075831617372
-0.4811925883124957	0.22407596227040308
-0.4811315531562457	0.24131009025645675
-0.4810705179999957	0.2582101529330892
-0.4810094828437457	0.2747616468343236
-0.4809484476874957	0.29093582541738255
-0.4808874125312457	0.30671193608201314
-0.4808263773749957	0.32207316298082483
-0.4807653422187457	0.33698852165934357
-0.4807043070624957	0.35144768425993766
-0.4806432719062457	0.36542465199499113
-0.4805822367499957	0.37890112129289133
-0.4805212015937457	0.39186280270078205
-0.4804601664374957	0.40428300286646385
-0.4803991312812457	0.4161549896889042
-0.4803380961249957	0.42745514284848085
-0.4802770609687457	0.4381692960253733
-0.4802160258124957	0.4482871882453935
-0.4801549906562457	0.45778616689127327
-0.4800939554999957	0.46666300935614663
-0.4800329203437457	0.4748979565266536
-0.4799718851874957	0.4824818339098477
-0.4799108500312457	0.48940813692675894
-0.4798498148749957	0.4956586184531487
-0.4797887797187457	0.5012346465739019
-0.4797277445624957	0.5061208878443222
-0.4796667094062457	0.5103129266163801
-0.4796056742499957	0.5138084013348811
-0.4795446390937457	0.5165944299011459
-0.4794836039374957	0.5186769163384124
-0.4794225687812457	0.52004482329701
-0.4793615336249957	0.5206994017294395
-0.4793004984687457	0.5206426279942162
-0.4792394633124957	0.5198665340472497
-0.4791784281562457	0.5183820928644497
-0.4791173929999957	0.5161829706365819
-0.4790563578437457	0.5132756359326254
-0.4789953226874957	0.5096665522656806
-0.4789342875312457	0.5053530921068046
-0.4788732523749957	0.5003508720443733
-0.4788122172187457	0.4946581290106621
-0.4787511820624957	0.48828688030713363
-0.4786901469062457	0.48124768657629596
-0.4786291117499957	0.4735428569967517
-0.4785680765937457	0.465192956430887
-0.4785070414374957	0.4562005270847485
-0.4784460062812457	0.44658231606828425
-0.4783849711249957	0.43635317212556024
-0.4783239359687457	0.4255201979425602
-0.4782629008124957	0.41410785947674367
-0.4782018656562457	0.40212317106197903
-0.4781408304999957	0.3895874619530079
-0.4780797953437457	0.3765184578276571
-0.4780187601874957	0.36292810654313673
-0.4779577250312457	0.34884500531939483
-0.4778966898749957	0.33427899566227626
-0.4778356547187457	0.31925532572827037
-0.4777746195624957	0.3037952372644726
-0.4777135844062457	0.28791443837600705
-0.4776525492499957	0.27164412636098745
-0.4775915140937457	0.25499689694699684
-0.4775304789374957	0.23800182642409526
-0.4774694437812457	0.22068250428119507
-0.4774084086249957	0.2030571259192976
-0.4773473734687457	0.18515941434616603
-0.4772863383124957	0.16700411487727443
-0.4772253031562457	0.1486224189049289
-0.4771642679999957	0.1300403605872142
-0.4771032328437457	0.11127807765686472
-0.4770421976874957	0.0923690879177658
-0.4769811625312457	0.07333111543247414
-0.4769201273749957	0.05419794192969969
-0.4768590922187457	0.03499353907305934
-0.4767980570624957	0.015740236862864573
-0.4767370219062457	-0.0035260759260925295
-0.4766759867499957	-0.022789168433291308
-0.4766149515937457	-0.04201438645949786
-0.4765539164374957	-0.061177163698725924
-0.4764928812812457	-0.08025597072323402
-0.4764318461249957	-0.09921443252109073
-0.4763708109687457	-0.11803628826745674
-0.4763097758124957	-0.13668858278682844
-0.4762487406562457	-0.15514738587026128
-0.4761877054999957	-0.17339092814145043
-0.4761266703437457	-0.1913850475839166
-0.4760656351874957	-0.2091147412879297
-0.4760046000312457	-0.2265477294468205
-0.4759435648749957	-0.2436626313598589
-0.4758825297187457	-0.2604389304628557
-0.4758214945624957	-0.27684455136198544
-0.4757604594062457	-0.2928671440014753
-0.4756994242499957	-0.3084761118582728
-0.4756383890937457	-0.32365269281514536
-0.4755773539374957	-0.3383791601842957
-0.4755163187812457	-0.35262666699376544
-0.4754552836249957	-0.36638518171997186
-0.4753942484687457	-0.37962691980702934
-0.4753332133124957	-0.3923374966054046
-0.4752721781562457	-0.4045019164547963
-0.4752111429999957	-0.4160945887465614
-0.4751501078437457	-0.4271095592274941
-0.4750890726874957	-0.4375229134656794
-0.4750280375312457	-0.4473240365164476
-0.4749670023749957	-0.4565013368511676
-0.4749059672187457	-0.46503418944175706
-0.4748449320624957	-0.47292082392242796
-0.4747838969062457	-0.48014111488637945
-0.4747228617499957	-0.48668929242894055
-0.4746618265937457	-0.49255791596651183
-0.4746007914374957	-0.49773129769538527
-0.4745397562812457	-0.5022121526217541
-0.4744787211249957	-0.5059849662940727
-0.4744176859687457	-0.5090491429997496
-0.4743566508124957	-0.5114014797107447
-0.4742956156562457	-0.5130316633408629
-0.4742345804999957	-0.5139471652671904
-0.4741735453437457	-0.5141372413758428
-0.4741125101874957	-0.513606739670528
-0.4740514750312457	-0.5123568267973496
-0.4739904398749957	-0.5103827477028635
-0.4739294047187457	-0.5076968469361365
-0.4738683695624957	-0.5042929766247867
-0.4738073344062457	-0.5001816560166602
-0.4737462992499957	-0.495368625777341
-0.4736852640937457	-0.48985420866268037
-0.4736242289374957	-0.4836556015266686
-0.4735631937812457	-0.4767715746941942
-0.4735021586249957	-0.4692178809791283
-0.4734411234687457	-0.4610044493184916
-0.4733800883124957	-0.4521366803019769
-0.4733190531562457	-0.4426364483872452
-0.4732580179999957	-0.4325072688510105
-0.4731969828437457	-0.421769462228731
-0.4731359476874957	-0.4104365704570839
-0.4730749125312457	-0.39851946999850424
-0.4730138773749957	-0.3860443436558371
-0.4729528422187457	-0.373017948904857
-0.4728918070624957	-0.3594649361514424
-0.4728307719062457	-0.3454031727192452
-0.4727697367499957	-0.3308478852848574
-0.4727087015937457	-0.3158278180237707
-0.4726476664374957	-0.30035326328454753
-0.4725866312812457	-0.28445359467797765
-0.4725255961249957	-0.26814939317301284
-0.4724645609687457	-0.2514586223960264
-0.4724035258124957	-0.23441304180423056
-0.4723424906562457	-0.21702660378104374
-0.4722814554999957	-0.19933112419058968
-0.4722204203437457	-0.18134882228570007
-0.4721593851874957	-0.1631012544474688
-0.4720983500312457	-0.14462199576170612
-0.4720373148749957	-0.12592669540590218
-0.4719762797187457	-0.1070495709195741
-0.4719152445624957	-0.08801395049768712
-0.4718542094062457	-0.0688435374764159
-0.4717931742499957	-0.04957319326430248
-0.4717321390937457	-0.030219224429037395
-0.4716711039374957	-0.010816927526595212
-0.4716100687812457	0.008609289740676833
-0.4715490336249957	0.028034713063553606
-0.4714879984687457	0.04742526558452366
-0.4714269633124957	0.06676353236632242
-0.4713659281562457	0.08601357541000125
-0.4713048929999957	0.10515321527336112
-0.4712438578437457	0.12415657768325426
-0.4711828226874957	0.14298932421265637
-0.4711217875312457	0.16163662608113488
-0.4710607523749957	0.1800628110008786
-0.4709997172187457	0.19824583482066646
-0.4709386820624957	0.2161618671101785
-0.4708776469062457	0.23377884730216933
-0.4708166117499957	0.2510825720383692
-0.4707555765937457	0.26803866297234547
-0.4706945414374957	0.284628033892209
-0.4706335062812457	0.30082904492041196
-0.4705724711249957	0.31661190007325674
-0.4705114359687457	0.3319642984414602
-0.4704504008124957	0.3468547797665477
-0.4703893656562457	0.36126794598930195
-0.4703283304999957	0.37518407435982926
-0.4702672953437457	0.3885767314346709
-0.4702062601874957	0.4014374301550036
-0.4701452250312457	0.4137377112901775
-0.4700841898749957	0.4254658560782817
-0.4700231547187457	0.43660575920567934
-0.4699621195624957	0.4471350729325039
-0.4699010844062457	0.45704898604688726
-0.4698400492499957	0.46632329631799296
-0.4697790140937457	0.4749506478953933
-0.4697179789374957	0.4829186282398895
-0.4696569437812457	0.4902101042118285
