Time	Frequency
-0.5000156953749979	-0.36496610837035
-0.4999546602187479	-0.3579073241453653
-0.4998936250624979	-0.35052423560471546
-0.4998325899062479	-0.34282335452829954
-0.4997715547499979	-0.3348114525538483
-0.4997105195937479	-0.3264957892659561
-0.4996494844374979	-0.317883874881511
-0.4995884492812479	-0.3089834734312638
-0.4995274141249979	-0.29980237996842585
-0.4994663789687479	-0.2903487383811684
-0.4994053438124979	-0.28063141268322034
-0.4993443086562479	-0.2706591711787658
-0.4992832734999979	-0.2604404642217823
-0.4992222383437479	-0.2499847381892431
-0.4991612031874979	-0.23930180127939266
-0.4991001680312479	-0.22840069215074754
-0.4990391328749979	-0.2172913768313727
-0.4989780977187479	-0.20598440366879792
-0.4989170625624979	-0.19448931609507122
-0.4988560274062479	-0.18281644424302215
-0.4987949922499979	-0.1709770737523515
-0.4987339570937479	-0.15898138354116936
-0.4986729219374979	-0.1468399152661367
-0.4986118867812479	-0.13456440420213564
-0.4985508516249979	-0.12216551127222984
-0.4984898164687479	-0.10965410044511485
-0.4984287813124979	-0.0970423716240553
-0.4983677461562479	-0.08434146799720471
-0.4983067109999979	-0.07156211801626572
-0.4982456758437479	-0.0587164581913944
-0.4981846406874979	-0.045816793150101856
-0.4981236055312479	-0.032874223497527125
-0.4980625703749979	-0.019899941464149237
-0.4980015352187479	-0.006906267470028236
-0.4979405000624979	0.006094641502050065
-0.4978794649062479	0.019091198192541348
-0.4978184297499979	0.0320719021326561
-0.4977573945937479	0.04502504044451617
-0.4976963594374979	0.05793846613633216
-0.4976353242812479	0.0708001815251346
-0.4975742891249979	0.08359885481816169
-0.4975132539687479	0.09632312922590973
-0.4974522188124979	0.10896100365262332
-0.4973911836562479	0.12150083446149408
-0.4973301484999979	0.13393155602198947
-0.4972691133437479	0.14624163171880708
-0.4972080781874979	0.15841969956445015
-0.4971470430312479	0.17045497041163715
-0.4970860078749979	0.18233644518569675
-0.4970249727187479	0.19405306251213508
-0.4969639375624979	0.20559385696442445
-0.4969029024062479	0.21694855332353735
-0.4968418672499979	0.22810739439518815
-0.4967808320937479	0.2390595136071566
-0.4967197969374979	0.249794235705429
-0.4966587617812479	0.26030270986192017
-0.4965977266249979	0.2705756489257723
-0.4965366914687479	0.2806026080779618
-0.4964756563124979	0.2903743949642144
-0.4964146211562479	0.299882892192195
-0.4963535859999979	0.30911911910340195
-0.4962925508437479	0.3180740285499594
-0.4962315156874979	0.32673966175737507
-0.4961704805312479	0.33510830428426364
-0.4961094453749979	0.3431721965092996
-0.4960484102187479	0.3509237569131271
-0.4959873750624979	0.3583556094216602
-0.4959263399062479	0.36546109431017987
-0.4958653047499979	0.37223404236978697
-0.4958042695937479	0.3786679293310465
-0.4957432344374979	0.3847563005653317
-0.4956821992812479	0.39049383578899804
-0.4956211641249979	0.39587568095094317
-0.4955601289687479	0.4008964701173473
-0.4954990938124979	0.40555123230911594
-0.4954380586562479	0.409835878936354
-0.4953770234999979	0.413746509109596
-0.4953159883437479	0.41727935841778296
-0.4952549531874979	0.4204311017176187
-0.4951939180312479	0.4231987559903284
-0.4951328828749979	0.42557964345362975
-0.4950718477187479	0.42757151044175806
-0.4950108125624979	0.4291724763691896
-0.4949497774062479	0.430381001572997
-0.4948887422499979	0.4311958450692909
-0.4948277070937479	0.43161608000866025
-0.4947666719374979	0.4316412405362937
-0.4947056367812479	0.4312712839322692
-0.4946446016249979	0.43050646151773403
-0.4945835664687479	0.4293472501838024
-0.4945225313124979	0.4277945745064159
-0.4944614961562479	0.4258499002829433
-0.4944004609999979	0.42351485222301716
-0.4943394258437479	0.4207913789767252
-0.4942783906874979	0.4176819803692145
-0.4942173555312479	0.4141893200987425
-0.4941563203749979	0.41031638354893774
-0.4940952852187479	0.40606684725936615
-0.4940342500624979	0.4014445359871057
-0.4939732149062479	0.3964532389487215
-0.4939121797499979	0.39109752016065663
-0.4938511445937479	0.3853824220114484
-0.4937901094374979	0.37931293400304833
-0.4937290742812479	0.372894546677507
-0.4936680391249979	0.36613300557723455
-0.4936070039687479	0.359034197062209
-0.4935459688124979	0.3516047764840705
-0.4934849336562479	0.3438517321645469
-0.4934238984999979	0.33578172186777877
-0.4933628633437479	0.32740173577760595
-0.4933018281874979	0.31871976247537326
-0.4932407930312479	0.3097439686819184
-0.4931797578749979	0.3004822155273326
-0.4931187227187479	0.2909425408633871
-0.4930576875624979	0.2811336892828867
-0.4929966524062479	0.2710652671196067
-0.4929356172499979	0.2607463228613541
-0.4928745820937479	0.250185320915415
-0.4928135469374979	0.23939218941018187
-0.4927525117812479	0.2283774910054133
-0.4926914766249979	0.2171510730293218
-0.4926304414687479	0.2057228145338662
-0.4925694063124979	0.19410275560176937
-0.4925083711562479	0.18230177355522678
-0.4924473359999979	0.17033163150266475
-0.4923863008437479	0.15820276279716028
-0.4923252656874979	0.1459250937636999
-0.4922642305312479	0.13351049084975636
-0.4922031953749979	0.120971293169158
-0.4921421602187479	0.1083185777103579
-0.4920811250624979	0.09556294473004256
-0.4920200899062479	0.08271631954614606
-0.4919590547499979	0.06979152304796964
-0.4918980195937479	0.05679992345111019
-0.4918369844374979	0.04375282965056028
-0.4917759492812479	0.030662618950788152
-0.4917149141249979	0.01754143898356075
-0.4916538789687479	0.00440141163563696
-0.4915928438124979	-0.008745655361522369
-0.4915318086562479	-0.02188789713487867
-0.4914707734999979	-0.03501288316177242
-0.4914097383437479	-0.048108325565080504
-0.4913487031874979	-0.06116229402948916
-0.4912876680312479	-0.0741634101056623
-0.4912266328749979	-0.08709953437944015
-0.4911655977187479	-0.09995772674321268
-0.4911045625624979	-0.11272670868090766
-0.4910435274062479	-0.1253956793063845
-0.4909824922499979	-0.13795193996938154
-0.4909214570937479	-0.15038348072721744
-0.4908604219374979	-0.16268011093216553
-0.4907993867812479	-0.1748299281798497
-0.4907383516249979	-0.18682073374017408
-0.4906773164687479	-0.1986427624009667
-0.4906162813124979	-0.2102853145471976
-0.4905552461562479	-0.22173629142565043
-0.4904942109999979	-0.2329853529614451
-0.4904331758437479	-0.2440228873322495
-0.4903721406874979	-0.254838466328349
-0.4903111055312479	-0.2654217402848165
-0.4902500703749979	-0.2757627268879374
-0.4901890352187479	-0.2858520103193792
-0.4901280000624979	-0.2956805844671374
-0.4900669649062479	-0.3052391189680068
-0.4900059297499979	-0.3145183679706447
-0.4899448945937479	-0.3235098548836356
-0.4898838594374979	-0.3322055095375762
-0.4898228242812479	-0.3405970539759398
-0.4897617891249979	-0.34867647399024054
-0.4897007539687479	-0.3564363716806953
-0.4896397188124979	-0.36386954218835427
-0.4895786836562479	-0.37096891387384573
-0.4895176484999979	-0.3777278096231174
-0.4894566133437479	-0.3841401107371737
-0.4893955781874979	-0.3901997504473699
-0.4893345430312479	-0.39590060492162893
-0.4892735078749979	-0.4012375343269829
-0.4892124727187479	-0.40620592069633304
-0.4891514375624979	-0.410800665199709
-0.4890904024062479	-0.4150172169135954
-0.4890293672499979	-0.41885183322225444
-0.4889683320937479	-0.42230083167942617
-0.4889072969374979	-0.4253608890809685
-0.4888462617812479	-0.4280290435617048
-0.4887852266249979	-0.4303025953570888
-0.4887241914687479	-0.43217939025889723
-0.4886631563124979	-0.433657598168186
-0.4886021211562479	-0.43473566436516986
-0.4885410859999979	-0.43541246731820304
-0.4884800508437479	-0.43568723224608963
-0.4884190156874979	-0.4355595567880359
-0.4883579805312479	-0.43502944643583563
-0.4882969453749979	-0.43409724952449197
-0.4882359102187479	-0.43276362578049576
-0.4881748750624979	-0.4310296895358225
-0.4881138399062479	-0.428896993388063
-0.4880528047499979	-0.4263672638191301
-0.4879917695937479	-0.4234426197408779
-0.4879307344374979	-0.4201257595508394
-0.4878696992812479	-0.4164196279882007
-0.4878086641249979	-0.41232738734766383
-0.4877476289687479	-0.4078526718139411
-0.4876865938124979	-0.40299959791089535
-0.4876255586562479	-0.3977724690782914
-0.4875645234999979	-0.3921758330765473
-0.4875034883437479	-0.3862148727642222
-0.4874424531874979	-0.37989504018806325
-0.4873814180312479	-0.37322183898330924
-0.4873203828749979	-0.36620137893373483
-0.4872593477187479	-0.3588401324513646
-0.4871983125624979	-0.3511445206454737
-0.4871372774062479	-0.34312164597223066
-0.4870762422499979	-0.334779163642586
-0.4870152070937479	-0.3261242562576944
-0.4869541719374979	-0.31716450770786997
-0.4868931367812479	-0.30790867739816724
-0.4868321016249979	-0.2983652973382364
-0.4867710664687479	-0.2885424982326357
-0.4867100313124979	-0.27844942509100895
-0.4866489961562479	-0.2680956312852119
-0.4865879609999979	-0.25749035487658656
-0.4865269258437479	-0.246643332561224
-0.4864658906874979	-0.2355643544537624
-0.4864048555312479	-0.22426363809810537
-0.4863438203749979	-0.21275206204632643
-0.4862827852187479	-0.20103964536757193
-0.4862217500624979	-0.18913673309050116
-0.4861607149062479	-0.17705495604416818
-0.4860996797499979	-0.16480578103798785
-0.4860386445937479	-0.1523998393818033
-0.4859776094374979	-0.1398478623634577
-0.4859165742812479	-0.12716236010574675
-0.4858555391249979	-0.11435576015112264
-0.4857945039687479	-0.10143843828726194
-0.4857334688124979	-0.08842201228953925
-0.4856724336562479	-0.07531992071815259
-0.4856113984999979	-0.06214402184401644
-0.4855503633437479	-0.04890545751428739
-0.4854893281874979	-0.03561686080158843
-0.4854282930312479	-0.022291104810953043
-0.4853672578749979	-0.008940141495645726
-0.4853062227187479	0.004424116228831798
-0.4852451875624979	0.017788971498101283
-0.4851841524062479	0.031141639117371365
-0.4851231172499979	0.044470175592116995
-0.4850620820937479	0.05776266773895858
-0.4850010469374979	0.07100622103878003
-0.4849400117812479	0.08418831628269773
-0.4848789766249979	0.09729737891559632
-0.4848179414687479	0.1103211041181756
-0.4847569063124979	0.12324706599066858
-0.4846958711562479	0.1360635938158199
-0.4846348359999979	0.14875872398650605
-0.4845738008437479	0.16132054223235928
-0.4845127656874979	0.17373746723802727
-0.4844517305312479	0.18599786415084568
-0.4843906953749979	0.1980904603765135
-0.4843296602187479	0.21000406925268414
-0.4842686250624979	0.22172735460330448
-0.4842075899062479	0.2332493974502418
-0.4841465547499979	0.2445596001165915
-0.4840855195937479	0.25564748657476977
-0.4840244844374979	0.2665026643963792
-0.4839634492812479	0.27711478101096315
-0.4839024141249979	0.2874740212139364
-0.4838413789687479	0.29757097349894485
-0.4837803438124979	0.30739596951140646
-0.4837193086562479	0.31693950206153804
-0.4836582734999979	0.3261931585966174
-0.4835972383437479	0.3351484905102311
-0.4835362031874979	0.34379617986010014
-0.4834751680312479	0.35212830764906106
-0.4834141328749979	0.36013796998439934
-0.4833530977187479	0.36781707263190516
-0.4832920625624979	0.37515779120454873
-0.4832310274062479	0.3821537803718221
-0.4831699922499979	0.38879882915281133
-0.4831089570937479	0.39508617266487966
-0.4830479219374979	0.4010095643680765
-0.4829868867812479	0.40656384025370307
-0.4829258516249979	0.41174390138283606
-0.4828648164687479	0.41654447799589217
-0.4828037813124979	0.4209609387163672
-0.4827427461562479	0.424989267673496
-0.4826817109999979	0.4286256073361927
-0.4826206758437479	0.4318663587876275
-0.4825596406874979	0.4347084118437516
-0.4824986055312479	0.4371490266588718
-0.4824375703749979	0.4391857883072007
-0.4823765352187479	0.4408167178105031
-0.4823155000624979	0.44204017172111243
-0.4822544649062479	0.44285482684322186
-0.4821934297499979	0.4432598315903067
-0.4821323945937479	0.44325473067543425
-0.4820713594374979	0.44283937073773744
-0.4820103242812479	0.4420139835933271
-0.4819492891249979	0.4407792273101905
-0.4818882539687479	0.43913614939439316
-0.4818272188124979	0.437086145374171
-0.4817661836562479	0.4346309714191653
-0.4817051484999979	0.4317727776455371
-0.4816441133437479	0.4285141516383488
-0.4815830781874979	0.42485802597482436
-0.4815220430312479	0.42080758970664073
-0.4814610078749979	0.4163664698341534
-0.4813999727187479	0.411538742036647
-0.4813389375624979	0.4063288640065211
-0.4812779024062479	0.40074157661060006
-0.4812168672499979	0.3947817415115133
-0.4811558320937479	0.3884547693868474
-0.4810947969374979	0.38176672554498176
-0.4810337617812479	0.3747237523922906
-0.4809727266249979	0.36733213324650255
-0.4809116914687479	0.3595985138521018
-0.4808506563124979	0.35152994872335575
-0.4807896211562479	0.34313417368737387
-0.4807285859999979	0.3344191052109867
-0.4806675508437479	0.3253923311589107
-0.4806065156874979	0.31606190845236465
-0.4805454805312479	0.3064367375636466
-0.4804844453749979	0.2965261069583525
-0.4804234102187479	0.2863391205644537
-0.4803623750624979	0.2758844699305827
-0.4803013399062479	0.26517186399679143
-0.4802403047499979	0.2542119637281742
-0.4801792695937479	0.2430147170715533
-0.4801182344374979	0.23159027517690586
-0.4800571992812479	0.21994918353195783
-0.4799961641249979	0.20810189010742472
-0.4799351289687479	0.1960599180766262
-0.4798740938124979	0.18383482317157396
-0.4798130586562479	0.1714373076787386
-0.4797520234999979	0.15887867883644569
-0.4796909883437479	0.14617094142765127
-0.4796299531874979	0.13332608762938544
-0.4795689180312479	0.12035591954510956
-0.4795078828749979	0.10727237140021764
-0.4794468477187479	0.0940878567556026
-0.4793858125624979	0.08081449934839562
-0.4793247774062479	0.0674641911770283
-0.4792637422499979	0.054050078752841214
-0.4792027070937479	0.04058523540991013
-0.4791416719374979	0.02708080927419234
-0.4790806367812479	0.013549158600571942
-0.4790196016249979	4.638164595468939e-06
-0.4789585664687479	-0.013540269443701262
-0.4788975313124979	-0.02707444744898347
-0.4788364961562479	-0.04058507765798199
-0.4787754609999979	-0.05405826025255246
-0.4787144258437479	-0.06748146211932668
-0.4786533906874979	-0.08084302000265241
-0.4785923555312479	-0.0941304534043482
-0.4785313203749979	-0.10733101691392014
-0.4784702852187479	-0.12043217255077965
-0.4784092500624979	-0.13342138070501744
-0.4783482149062479	-0.1462867415012507
-0.4782871797499979	-0.15901687726441494
-0.4782261445937479	-0.17159956653280967
-0.4781651094374979	-0.184022220231726
-0.4781040742812479	-0.19627319452398703
-0.4780430391249979	-0.20834171089111392
-0.4779820039687479	-0.22021678192627145
-0.4779209688124979	-0.23188651891514825
-0.4778599336562479	-0.2433395495898069
-0.4777988984999979	-0.2545655701786841
-0.4777378633437479	-0.2655543141171777
-0.4776768281874979	-0.27629534148949525
-0.4776157930312479	-0.28677828030847524
-0.4775547578749979	-0.29699311707891535
-0.4774937227187479	-0.30693025647676553
-0.4774326875624979	-0.31658066886108355
-0.4773716524062479	-0.32593539739181976
-0.4773106172499979	-0.3349850019642749
-0.4772495820937479	-0.34372072137262216
-0.4771885469374979	-0.35213497789953063
-0.4771275117812479	-0.36022000030092294
-0.4770664766249979	-0.3679674215865865
-0.4770054414687479	-0.37536972859159073
-0.4769444063124979	-0.38242054336660125
-0.4768833711562479	-0.38911322947421634
-0.4768223359999979	-0.395440890303953
-0.4767613008437479	-0.401397485170261
-0.4767002656874979	-0.4069777052308348
-0.4766392305312479	-0.4121761877964381
-0.4765781953749979	-0.41698772066097134
-0.4765171602187479	-0.42140773454824804
-0.4764561250624979	-0.42543205704926745
-0.4763950899062479	-0.42905678258344637
-0.4763340547499979	-0.43227842174237896
-0.4762730195937479	-0.4350938090198737
-0.4762119844374979	-0.43750015393233527
-0.4761509492812479	-0.4394951364475495
-0.4760899141249979	-0.44107678734555605
-0.4760288789687479	-0.44224349048747996
-0.4759678438124979	-0.44299402590135567
-0.4759068086562479	-0.4433275726560525
-0.4758457734999979	-0.44324371118748346
-0.4757847383437479	-0.4427423925935256
-0.4757237031874979	-0.44182402536015036
-0.4756626680312479	-0.44048936918977083
-0.4756016328749979	-0.4387394394512224
-0.4755405977187479	-0.43657580361322834
-0.4754795625624979	-0.4340005114737831
-0.4754185274062479	-0.43101583782256214
-0.4753574922499979	-0.4276243795019797
-0.4752964570937479	-0.4238291495891295
-0.4752354219374979	-0.41963374611846543
-0.4751743867812479	-0.41504215418754214
-0.4751133516249979	-0.4100583490075398
-0.4750523164687479	-0.40468676522482805
-0.4749912813124979	-0.3989326534091189
-0.4749302461562479	-0.39280138647013746
-0.4748692109999979	-0.3862983164142508
-0.4748081758437479	-0.37942955204997814
-0.4747471406874979	-0.3722016473002371
-0.4746861055312479	-0.3646211292400881
-0.4746250703749979	-0.3566950250430783
-0.4745640352187479	-0.34843079617419176
-0.4745030000624979	-0.3398361053097237
-0.4744419649062479	-0.33091897445426083
-0.4743809297499979	-0.3216876841312551
-0.4743198945937479	-0.31215068442516836
-0.4742588594374979	-0.30231707678012054
-0.4741978242812479	-0.29219629505291045
-0.4741367891249979	-0.2817971923441992
-0.4740757539687479	-0.27112959881569754
-0.4740147188124979	-0.2602042608601783
-0.4739536836562479	-0.24903062997027642
-0.4738926484999979	-0.23761885711597683
-0.4738316133437479	-0.22598064849894037
-0.4737705781874979	-0.21412668713067015
-0.4737095430312479	-0.20206734651095096
-0.4736485078749979	-0.18981430978392672
-0.4735874727187479	-0.17737945581184433
-0.4735264375624979	-0.16477421251503505
-0.4734654024062479	-0.15201048085477878
-0.4734043672499979	-0.139100160503682
-0.4733433320937479	-0.12605492581308142
-0.4732822969374979	-0.11288774362963767
-0.4732212617812479	-0.0996115365685971
-0.4731602266249979	-0.08623769988974642
-0.4730991914687479	-0.07277843359837725
-0.4730381563124979	-0.059247586662940416
-0.4729771211562479	-0.04565831259814532
-0.4729160859999979	-0.03202226923940617
-0.4728550508437479	-0.01835197410319056
-0.4727940156874979	-0.004661367783934395
-0.4727329805312479	0.009036442255623214
-0.4726719453749979	0.02272912625064214
-0.4726109102187479	0.03640389495049084
-0.4725498750624979	0.05004769229470259
-0.4724888399062479	0.0636473078967474
-0.4724278047499979	0.07718978960355713
-0.4723667695937479	0.09066273897319058
-0.4723057344374979	0.10405339129076414
-0.4722446992812479	0.1173487117597049
-0.4721836641249979	0.13053622382469285
-0.4721226289687479	0.14360366857416565
-0.4720615938124979	0.156538513444418
-0.4720005586562479	0.1693281367142648
-0.4719395234999979	0.18196057665498833
-0.4718784883437479	0.1944244101279802
-0.4718174531874979	0.2067074294857703
-0.4717564180312479	0.21879718854935423
-0.4716953828749979	0.2306828432599585
-0.4716343477187479	0.24235376192947197
-0.4715733125624979	0.25379800999456575
-0.4715122774062479	0.265004334346813
-0.4714512422499979	0.27596260259681704
-0.4713902070937479	0.2866625385774367
-0.4713291719374979	0.2970937649989311
-0.4712681367812479	0.3072461412127146
-0.4712071016249979	0.31710984497543226
-0.4711460664687479	0.32667554357776163
-0.4710850313124979	0.335934500172661
-0.4710239961562479	0.344877717739071
-0.4709629609999979	0.3534959956175997
-0.4709019258437479	0.3617813048424956
-0.4708408906874979	0.3697263193634024
-0.4707798555312479	0.37732304506636516
-0.4707188203749979	0.3845636393179509
-0.4706577852187479	0.39144153379647234
-0.4705967500624979	0.3979504283529293
-0.4705357149062479	0.4040836783645198
-0.4704746797499979	0.40983511922071375
-0.4704136445937479	0.41519942963394024
-0.4703526094374979	0.4201715515845822
-0.4702915742812479	0.4247464332027022
-0.4702305391249979	0.42891953176645214
-0.4701695039687479	0.4326868440543161
-0.4701084688124979	0.4360447111143767
-0.4700474336562479	0.4389897886287488
-0.4699863984999979	0.4415190347855862
-0.4699253633437479	0.44362996941859645
-0.4698643281874979	0.44532052877335665
-0.4698032930312479	0.446588862784892
-0.4697422578749979	0.44743359558226864
-0.4696812227187479	0.4478538430835942
-0.4696201875624979	0.4478490724666659
