Time	Frequency
-0.5000467299687443	0.4785935818372869
-0.49998569481249433	0.4701076338041011
-0.49992465965624433	0.4609284399758311
-0.49986362449999433	0.4510689793041606
-0.49980258934374433	0.4405434401660421
-0.49974155418749433	0.42936695579654166
-0.49968051903124433	0.41755517581698826
-0.49961948387499433	0.4051254111280665
-0.49955844871874433	0.3920959477731453
-0.49949741356249433	0.3784850187972324
-0.49943637840624433	0.3643119178641593
-0.49937534324999433	0.3495975962404724
-0.49931430809374433	0.3343638920720443
-0.49925327293749433	0.31863269362938906
-0.49919223778124433	0.30242613570688126
-0.49913120262499433	0.28576753644599456
-0.49907016746874433	0.2686818855280775
-0.49900913231249433	0.25119444694274623
-0.49894809715624433	0.23332994692323114
-0.49888706199999433	0.2151142767402354
-0.49882602684374433	0.19657409301470663
-0.49876499168749433	0.17773641710660554
-0.49870395653124433	0.15862932936338198
-0.49864292137499433	0.13928027088104053
-0.49858188621874433	0.11971711379564952
-0.49852085106249433	0.09996925158889802
-0.49845981590624433	0.08006517879992311
-0.49839878074999433	0.06003349384390073
-0.49833774559374433	0.039904291159727004
-0.49827671043749433	0.01970713407116505
-0.49821567528124433	-0.0005289094517471068
-0.49815464012499433	-0.020773990182308844
-0.49809360496874433	-0.04099841478384082
-0.49803256981249433	-0.06117274294767439
-0.49797153465624433	-0.08126693101106654
-0.49791049949999433	-0.1012512009457907
-0.49784946434374433	-0.12109688100737805
-0.49778842918749433	-0.14077511192535017
-0.49772739403124433	-0.1602561099779943
-0.49766635887499433	-0.1795109275166739
-0.49760532371874433	-0.19851195133730573
-0.49754428856249433	-0.2172316379957663
-0.49748325340624433	-0.2356420429805721
-0.49742221824999433	-0.2537152052672599
-0.49736118309374433	-0.2714245262498022
-0.49730014793749433	-0.28874501159394206
-0.49723911278124433	-0.30565128754818727
-0.49717807762499433	-0.3221173663651168
-0.49711704246874433	-0.33811861351584205
-0.49705600731249433	-0.353632026744591
-0.49699497215624433	-0.36863501982639724
-0.49693393699999433	-0.3831052094517061
-0.49687290184374433	-0.3970208830882724
-0.49681186668749433	-0.4103614011971521
-0.49675083153124433	-0.4231071537984183
-0.49668979637499433	-0.43523931458000187
-0.49662876121874433	-0.4467400026264371
-0.49656772606249433	-0.45759200654881127
-0.49650669090624433	-0.46777895566980876
-0.49644565574999433	-0.4772859760402002
-0.49638462059374433	-0.4860990696782377
-0.49632358543749433	-0.4942048527827568
-0.49626255028124433	-0.5015912332067322
-0.49620151512499433	-0.5082473285266838
-0.49614047996874433	-0.5141631409431194
-0.49607944481249433	-0.5193297073589472
-0.49601840965624433	-0.5237393224383037
-0.49595737449999433	-0.5273854160466726
-0.49589633934374433	-0.5302623870528089
-0.49583530418749433	-0.5323658154824183
-0.49577426903124433	-0.5336924982592561
-0.49571323387499433	-0.5342403328582349
-0.49565219871874433	-0.5340083819487305
-0.49559116356249433	-0.5329968178634512
-0.49553012840624433	-0.5312069316729715
-0.49546909324999433	-0.5286412902549102
-0.49540805809374433	-0.5253036208281013
-0.49534702293749433	-0.5211986360857169
-0.49528598778124433	-0.5163321960004343
-0.49522495262499433	-0.5107114089730772
-0.49516391746874433	-0.5043444684758428
-0.49510288231249433	-0.49724067145900286
-0.49504184715624433	-0.4894104081162605
-0.49498081199999433	-0.4808650107743656
-0.49491977684374433	-0.47161699904430004
-0.49485874168749433	-0.46168000450078106
-0.49479770653124433	-0.45106863255988483
-0.49473667137499433	-0.4397985563323588
-0.49467563621874433	-0.4278859873134201
-0.49461460106249433	-0.41534836525287416
-0.49455356590624433	-0.4022048909199981
-0.49449253074999433	-0.3884746707642554
-0.49443149559374433	-0.3741769786136245
-0.49437046043749433	-0.3593334631064415
-0.49430942528124433	-0.34396680968939697
-0.49424839012499433	-0.32809906448182496
-0.49418735496874433	-0.3117531706462489
-0.49412631981249433	-0.29495348713123953
-0.49406528465624433	-0.2777251161119136
-0.49400424949999433	-0.26009361962885347
-0.49394321434374433	-0.2420847648186287
-0.49388217918749433	-0.22372515783295246
-0.49382114403124433	-0.20504202631181428
-0.49376010887499433	-0.18606263713745422
-0.49369907371874433	-0.16681537857291456
-0.49363803856249433	-0.1473293757584009
-0.49357700340624433	-0.12763285776707223
-0.49351596824999433	-0.10775434678421573
-0.49345493309374433	-0.08772388198846467
-0.49339389793749433	-0.06757152719289583
-0.49333286278124433	-0.047326911116291545
-0.49327182762499433	-0.027019865927330775
-0.49321079246874433	-0.006680329004258845
-0.49314975731249433	0.013661348225460035
-0.49308872215624433	0.0339748511567356
-0.49302768699999433	0.05423024187727359
-0.49296665184374433	0.07439726178567187
-0.49290561668749433	0.09444588676177824
-0.49284458153124433	0.11434683744948738
-0.49278354637499433	0.1340706033250985
-0.49272251121874433	0.153587256891678
-0.49266147606249433	0.17286790984600095
-0.49260044090624433	0.1918843678175822
-0.49253940574999433	0.21060802238355014
-0.49247837059374433	0.22901111079595257
-0.49241733543749433	0.24706667600482088
-0.49235630028124433	0.2647473588682058
-0.49229526512499433	0.2820265441612134
-0.49223422996874433	0.29887917476431375
-0.49217319481249433	0.31528034812999584
-0.49211215965624433	0.33120518403468174
-0.49205112449999433	0.3466298386879361
-0.49199008934374433	0.36153142159028556
-0.49192905418749433	0.37588812769030533
-0.49186801903124433	0.38967868713975967
-0.49180698387499433	0.40288191480106944
-0.49174594871874433	0.41547813975518727
-0.49168491356249433	0.42744913810098367
-0.49162387840624433	0.438776916664068
-0.49156284324999433	0.449444371992538
-0.49150180809374433	0.4594357603410215
-0.49144077293749433	0.46873609320604964
-0.49137973778124433	0.4773313491908377
-0.49131870262499433	0.4852089028306016
-0.49125766746874433	0.4923572226425727
-0.49119663231249433	0.4987654102518117
-0.49113559715624433	0.5044235726351061
-0.49107456199999433	0.509323529342116
-0.49101352684374433	0.5134582591029241
-0.49095249168749433	0.5168213064669904
-0.49089145653124433	0.5194074756514662
-0.49083042137499433	0.5212131286945946
-0.49076938621874433	0.5222356213885105
-0.49070835106249433	0.5224732727858505
-0.49064731590624433	0.5219257350317231
-0.49058628074999433	0.5205939279145413
-0.49052524559374433	0.5184798221252718
-0.49046421043749433	0.5155865018685424
-0.49040317528124433	0.5119182841830007
-0.49034214012499433	0.5074807492315633
-0.49028110496874433	0.5022806207649745
-0.49022006981249433	0.49632557162687563
-0.49015903465624433	0.4896244003539648
-0.49009799949999433	0.4821872354590512
-0.49003696434374433	0.47402536323039834
-0.48997592918749433	0.46515101238640916
-0.48991489403124433	0.45557733066903816
-0.48985385887499433	0.44531858227383697
-0.48979282371874433	0.43439026464734226
-0.48973178856249433	0.4228089470678591
-0.48967075340624433	0.4105920185059323
-0.48960971824999433	0.3977575255364561
-0.48954868309374433	0.38432458518487184
-0.48948764793749433	0.370313766855182
-0.48942661278124433	0.35574622529265065
-0.48936557762499433	0.34064354847996353
-0.48930454246874433	0.3250283946816038
-0.48924350731249433	0.30892408121891696
-0.48918247215624433	0.29235501623969873
-0.48912143699999433	0.2753466126854427
-0.48906040184374433	0.2579239263536528
-0.48899936668749433	0.24011268754141085
-0.48893833153124433	0.22194029194835943
-0.48887729637499433	0.20343430832147483
-0.48881626121874433	0.1846222044249893
-0.48875522606249433	0.16553222377763155
-0.48869419090624433	0.14619322582508867
-0.48863315574999433	0.12663451983970236
-0.48857212059374433	0.10688557643057066
-0.48851108543749433	0.08697576896941701
-0.48845005028124433	0.06693507743974204
-0.48838901512499433	0.046794292157423104
-0.48832797996874433	0.02658400263168903
-0.48826694481249433	0.006333919750139536
-0.48820590965624433	-0.01392585876995065
-0.48814487449999433	-0.034163765844603865
-0.48808383934374433	-0.05434863059365305
-0.48802280418749433	-0.07445083501754743
-0.48796176903124433	-0.09444074841596191
-0.48790073387499433	-0.1142876445036245
-0.48783969871874433	-0.13396050230021558
-0.48777866356249433	-0.1534297701083188
-0.48771762840624433	-0.17266712772558593
-0.48765659324999433	-0.1916433302374124
-0.48759555809374433	-0.21032869171608043
-0.48753452293749433	-0.2286949666378849
-0.48747348778124433	-0.24671473822389856
-0.48741245262499433	-0.2643608277096019
-0.48735141746874433	-0.28160643070761654
-0.48729038231249433	-0.29842498615894775
-0.48722934715624433	-0.3147909695400484
-0.48716831199999433	-0.33067961418919684
-0.48710727684374433	-0.34606667971442734
-0.48704624168749433	-0.3609291890994576
-0.48698520653124433	-0.3752444402076204
-0.48692417137499433	-0.3889899050587005
-0.48686313621874433	-0.4021446673596319
-0.48680210106249433	-0.41468927275355283
-0.48674106590624433	-0.4266046709629899
-0.48668003074999433	-0.43787218944557443
-0.48661899559374433	-0.4484743333149046
-0.48655796043749433	-0.4583949961342489
-0.48649692528124433	-0.46761916513697577
-0.48643589012499433	-0.4761326576767203
-0.48637485496874433	-0.4839221727265108
-0.48631381981249433	-0.4909756256948221
-0.48625278465624433	-0.49728210361610864
-0.48619174949999433	-0.5028318007169891
-0.48613071434374433	-0.5076160541804725
-0.48606967918749433	-0.51162735193385
-0.48600864403124433	-0.5148593432909947
-0.48594760887499433	-0.5173067479693454
-0.48588657371874433	-0.518965517825732
-0.48582553856249433	-0.5198329472526982
-0.48576450340624433	-0.5199074166151962
-0.48570346824999433	-0.519188387158691
-0.48564243309374433	-0.5176766448400322
-0.48558139793749433	-0.5153742092724963
-0.48552036278124433	-0.5122842225983248
-0.48545932762499433	-0.5084110135593144
-0.48539829246874433	-0.5037600637448463
-0.48533725731249433	-0.49833806638734246
-0.48527622215624433	-0.49215300702717624
-0.48521518699999433	-0.48521401369508055
-0.48515415184374433	-0.4775310882762023
-0.48509311668749433	-0.46911532186559424
-0.48503208153124433	-0.4599793312739898
-0.48497104637499433	-0.4501368893310886
-0.48491001121874433	-0.4396024956565024
-0.48484897606249433	-0.4283914879302721
-0.48478794090624433	-0.4165203492333696
-0.48472690574999433	-0.4040071295138722
-0.48466587059374433	-0.3908708270772775
-0.48460483543749433	-0.37713061123767433
-0.48454380028124433	-0.3628067268880541
-0.48448276512499433	-0.3479208458281339
-0.48442172996874433	-0.332495304925798
-0.48436069481249433	-0.3165533117793936
-0.48429965965624433	-0.300118700379876
-0.48423862449999433	-0.28321572749253243
-0.48417758934374433	-0.26587010180727605
-0.48411655418749433	-0.2481080902982654
-0.48405551903124433	-0.229955827472765
-0.48399448387499433	-0.21144076991542451
-0.48393344871874433	-0.19259119863727195
-0.48387241356249433	-0.17343513099193048
-0.48381137840624433	-0.15400129918738906
-0.48375034324999433	-0.13431917726198764
-0.48368930809374433	-0.11441827080611958
-0.48362827293749433	-0.09432890756716412
-0.48356723778124433	-0.0740815162863837
-0.48350620262499433	-0.05370595221101592
-0.48344516746874433	-0.03323309584027159
-0.48338413231249433	-0.012694703216871528
-0.48332309715624433	0.00787827502460076
-0.48326206199999433	0.02845547500638536
-0.48320102684374433	0.04900569290632615
-0.48313999168749433	0.0694974411581515
-0.48307895653124433	0.08989939228716953
-0.48301792137499433	0.11018039296535959
-0.48295688621874433	0.13031064632417005
-0.48289585106249433	0.15025997685278844
-0.48283481590624433	0.16999676732631389
-0.48277378074999433	0.18949075938629914
-0.48271274559374433	0.20871331732925572
-0.48265171043749433	0.2276355820134375
-0.48259067528124433	0.24622824668806348
-0.48252964012499433	0.2644623531470102
-0.48246860496874433	0.2823103553074186
-0.48240756981249433	0.2997456789442617
-0.48234653465624433	0.31674153939174965
-0.48228549949999433	0.3332715991445204
-0.48222446434374433	0.3493106113503048
-0.48216342918749433	0.3648342062691086
-0.48210239403124433	0.37981873159656965
-0.48204135887499433	0.3942409601976984
-0.48198032371874433	0.4080787323335164
-0.48191928856249433	0.42131110210190964
-0.48185825340624433	0.4339175634893222
-0.48179721824999433	0.4458784929366707
-0.48173618309374433	0.45717550826857556
-0.48167514793749433	0.46779130398374225
-0.48161411278124433	0.4777095502543756
-0.48155307762499433	0.4869146198201969
-0.48149204246874433	0.4953920320008925
-0.48143100731249433	0.503128794466741
-0.48136997215624433	0.5101129212699043
-0.48130893699999433	0.516333301948762
-0.48124790184374433	0.5217799471080221
-0.48118686668749433	0.5264442225584781
-0.48112583153124433	0.5303188416548849
-0.48106479637499433	0.5333974849475538
-0.48100376121874433	0.5356748685075214
-0.48094272606249433	0.5371471379834281
-0.48088169090624433	0.5378117196959794
-0.48082065574999433	0.5376671436523338
-0.48075962059374433	0.5367131673735883
-0.48069858543749433	0.5349507619619581
-0.48063755028124433	0.5323821252773859
-0.48057651512499433	0.5290107647751848
-0.48051547996874433	0.5248413473903298
-0.48045444481249433	0.5198796406104838
-0.48039340965624433	0.5141327468251083
-0.48033237449999433	0.5076090150344795
-0.48027133934374433	0.5003178554482669
-0.48021030418749433	0.49226981553745075
-0.48014926903124433	0.4834765212327359
-0.48008823387499433	0.47395101027726644
-0.48002719871874433	0.4637076316301755
-0.47996616356249433	0.4527611282989847
-0.47990512840624433	0.44112724592851604
-0.47984409324999433	0.42882361958643483
-0.47978305809374433	0.4158688994728196
-0.47972202293749433	0.4022821102968431
-0.47966098778124433	0.38808302509351955
-0.47959995262499433	0.37329267645000047
-0.47953891746874433	0.3579334812217615
-0.47947788231249433	0.34202873122675137
-0.47941684715624433	0.32560200748786206
-0.47935581199999433	0.30867727067470185
-0.47929477684374433	0.29127985549934
-0.47923374168749433	0.27343633898477776
-0.47917270653124433	0.2551734831389807
-0.47911167137499433	0.23651850202616986
-0.47905063621874433	0.21749923879400018
-0.47898960106249433	0.19814416242457583
-0.47892856590624433	0.1784825251131964
-0.47886753074999433	0.1585439561329815
-0.47880649559374433	0.1383583490614114
-0.47874546043749433	0.1179561457531313
-0.47868442528124433	0.09736798520488005
-0.47862339012499433	0.07662464642178504
-0.47856235496874433	0.05575781272300356
-0.47850131981249433	0.034798910389753954
-0.47844028465624433	0.01377896239389089
-0.47837924949999433	-0.007269712572233714
-0.47831821434374433	-0.028315118929042832
-0.47825717918749433	-0.04932631669436513
-0.47819614403124433	-0.07027121766102948
-0.47813510887499433	-0.09111754733370094
-0.47807407371874433	-0.1118345529502559
-0.47801303856249433	-0.13239095808269416
-0.47795200340624433	-0.15275470467145205
-0.47789096824999433	-0.17289554731291915
-0.47782993309374433	-0.19278379242325222
-0.47776889793749433	-0.21238826434139543
-0.47770786278124433	-0.23167875164695806
-0.47764682762499433	-0.250627147815483
-0.47758579246874433	-0.26920480040369077
-0.47752475731249433	-0.28738259668189353
-0.47746372215624433	-0.3051331210576973
-0.47740268699999433	-0.32242989490980184
-0.47734165184374433	-0.33924645304961526
-0.47728061668749433	-0.3555570143056552
-0.47721958153124433	-0.3713368436136331
-0.47715854637499433	-0.38656200418402004
-0.47709751121874433	-0.4012091736398026
-0.47703647606249433	-0.415256127942307
-0.47697544090624433	-0.4286816976195474
-0.47691440574999433	-0.441465180998376
-0.47685337059374433	-0.45358672754066004
-0.47679233543749433	-0.4650280121534877
-0.47673130028124433	-0.47577195116495063
-0.47667026512499433	-0.48580197836670586
-0.47660922996874433	-0.49510235308530215
-0.47654819481249433	-0.5036589463811662
-0.47648715965624433	-0.5114587920093391
-0.47642612449999433	-0.518489800446427
-0.47636508934374433	-0.5247412199215048
-0.47630405418749433	-0.5302033680510974
-0.47624301903124433	-0.5348676827934151
-0.47618198387499433	-0.5387270321075442
-0.47612094871874433	-0.5417754055401558
-0.47605991356249433	-0.5440079574304515
-0.47599887840624433	-0.5454211653980771
-0.47593784324999433	-0.5460127202669487
-0.47587680809374433	-0.5457815517361484
-0.47581577293749433	-0.5447278802815809
-0.47575473778124433	-0.5428531057437666
-0.47569370262499433	-0.5401598335644383
-0.47563266746874433	-0.5366521855951137
-0.47557163231249433	-0.5323354242604686
-0.47551059715624433	-0.5272156050041832
-0.47544956199999433	-0.5213003671377866
-0.47538852684374433	-0.5145989149276795
-0.47532749168749433	-0.507121246058286
-0.47526645653124433	-0.4988783736444676
-0.47520542137499433	-0.4898826163214324
-0.47514438621874433	-0.4801475749038099
-0.47508335106249433	-0.4696882591436992
-0.47502231590624433	-0.4585204383364675
-0.47496128074999433	-0.44666039776676586
-0.47490024559374433	-0.43412623900242475
-0.47483921043749433	-0.42093751952331004
-0.47477817528124433	-0.4071138301768637
-0.47471714012499433	-0.39267570306041794
-0.47465610496874433	-0.37764547082925737
-0.47459506981249433	-0.3620461271965034
-0.47453403465624433	-0.34590082567683733
-0.47447299949999433	-0.329234086955052
-0.47441196434374433	-0.3120716291536178
-0.47435092918749433	-0.2944393271363667
-0.47428989403124433	-0.27636389339175366
-0.47422885887499433	-0.25787277514019624
-0.47416782371874433	-0.238994001661398
-0.47410678856249433	-0.21975670952905194
-0.47404575340624433	-0.20019007945773692
-0.47398471824999433	-0.1803233591124083
-0.47392368309374433	-0.1601869358326421
-0.47386264793749433	-0.13981198739627285
-0.47380161278124433	-0.11922955702631145
-0.47374057762499433	-0.09847056079952164
-0.47367954246874433	-0.07756650129757345
-0.47361850731249433	-0.056549374048645136
-0.47355747215624433	-0.035451713147282495
-0.47349643699999433	-0.01430589351609716
-0.47343540184374433	0.00685668793399543
-0.47337436668749433	0.02800383730635639
-0.47331333153124433	0.049102445277058045
-0.47325229637499433	0.07012041159031736
-0.47319126121874433	0.09102590223565388
-0.47313022606249433	0.11178681938187356
-0.47306919090624433	0.13237170766115333
-0.47300815574999433	0.1527490311563902
-0.47294712059374433	0.1728871943800221
-0.47288608543749433	0.19275562217305026
-0.47282505028124433	0.21232412306899043
-0.47276401512499433	0.2315625581720163
-0.47270297996874433	0.2504416844188968
-0.47264194481249433	0.26893241514308036
-0.47258090965624433	0.2870058367016352
-0.47251987449999433	0.3046350196169428
-0.47245883934374433	0.3217935035095316
-0.47239780418749433	0.3384539241601575
-0.47233676903124433	0.35459045071350775
-0.47227573387499433	0.3701791019629759
-0.47221469871874433	0.38519616530237855
-0.47215366356249433	0.3996182069750279
-0.47209262840624433	0.4134227634735541
-0.47203159324999433	0.42658886892546194
-0.47197055809374433	0.43909649567326636
-0.47190952293749433	0.4509263032334873
-0.47184848778124433	0.46206013264822965
-0.47178745262499433	0.47248071092151406
-0.47172641746874433	0.48217187020770125
-0.47166538231249433	0.49111891029693505
-0.47160434715624433	0.49930819061900616
-0.47154331199999433	0.5067269773331864
-0.47148227684374433	0.5133635824247388
-0.47142124168749433	0.5192077262681444
-0.47136020653124433	0.524250660357979
-0.47129917137499433	0.5284846385599733
-0.47123813621874433	0.5319028256479615
-0.47117710106249433	0.5344998690836658
-0.47111606590624433	0.5362718835407877
-0.47105503074999433	0.5372160400078974
-0.47099399559374433	0.5373307583789743
-0.47093296043749433	0.5366158460495551
-0.47087192528124433	0.5350722874219777
-0.47081089012499433	0.5327023916173851
-0.47074985496874433	0.5295098195719806
-0.47068881981249433	0.5254992816312823
-0.47062778465624433	0.5206767763460811
-0.47056674949999433	0.5150499251541569
-0.47050571434374433	0.5086274010232371
-0.47044467918749433	0.5014186100882501
-0.47038364403124433	0.4934345806308384
-0.47032260887499433	0.4846879447168916
