Time	Frequency
-0.50002479515625	-5.891456251239357e-24
-0.49996376	-5.905153268694201e-24
-0.49990272484375	-5.9116856648458094e-24
-0.4998416896875	-5.911046320826324e-24
-0.49978065453125	-5.903236126068379e-24
-0.499719619375	-5.8882649350754715e-24
-0.49965858421875	-5.8661516239338724e-24
-0.4995975490625	-5.8369236183519594e-24
-0.49953651390625	-5.8006168903667904e-24
-0.49947547875	-5.757276122373359e-24
-0.49941444359375	-5.706954805666234e-24
-0.4993534084375	-5.649715092054521e-24
-0.49929237328125	-5.585627791646143e-24
-0.499231338125	-5.514771217729159e-24
-0.49917030296875	-5.437231760387782e-24
-0.4991092678125	-5.353105358676743e-24
-0.49904823265625	-5.262495829421791e-24
-0.4989871975	-5.165515408292471e-24
-0.49892616234375	-5.062283165778799e-24
-0.4988651271875	-4.9529221338379646e-24
-0.49880409203125	-4.8375684306945064e-24
-0.498743056875	-4.716369633335573e-24
-0.49868202171875	-4.589470014508211e-24
-0.4986209865625	-4.457022004623951e-24
-0.49855995140625	-4.3191936587510604e-24
-0.49849891625	-4.176154288278329e-24
-0.49843788109375	-4.0280784480497305e-24
-0.4983768459375	-3.87514798358052e-24
-0.49831581078125	-3.7175490745807735e-24
-0.498254775625	-3.5554798374065764e-24
-0.49819374046875	-3.3891418647996555e-24
-0.4981327053125	-3.218732625090608e-24
-0.49807167015625	-3.0444592950584793e-24
-0.498010635	-2.866546254515172e-24
-0.49794959984375	-2.685215029616664e-24
-0.4978885646875	-2.5006769685212564e-24
-0.49782752953125	-2.313160745727516e-24
-0.497766494375	-2.1229061162276474e-24
-0.49770545921875	-1.9301418222498272e-24
-0.4976444240625	-1.735105464034596e-24
-0.49758338890625	-1.538041721377648e-24
-0.49752235375	-1.3391861520152526e-24
-0.49746131859375	-1.1387853758089229e-24
-0.4974002834375	-9.370943227827347e-25
-0.49733924828125	-7.343572236605019e-25
-0.497278213125	-5.308196962221896e-25
-0.49721717796875	-3.2673486161209855e-25
-0.4971561428125	-1.2235907720532577e-25
-0.49709510765625	8.205354142985596e-26
-0.4970340725	2.862604822410509e-25
-0.49697303734375	4.900094470000239e-25
-0.4969120021875	6.930344809631227e-25
-0.49685096703125	8.950914767579426e-25
-0.496789931875	1.095941638603243e-24
-0.49672889671875	1.29532721161307e-24
-0.4966678615625	1.4929976105062496e-24
-0.49660682640625	1.6887139079700692e-24
-0.49654579125	1.8822352995768593e-24
-0.49648475609375	2.0733205362825343e-24
-0.4964237209375	2.2617295358576105e-24
-0.49636268578125	2.4472328892498377e-24
-0.496301650625	2.629605612790053e-24
-0.49624061546875	2.8086119010139873e-24
-0.4961795803125	2.9840290126449835e-24
-0.49611854515625	3.1556520849914196e-24
-0.49605751	3.323262956198302e-24
-0.49599647484375	3.486643873189723e-24
-0.4959354396875	3.645600849758114e-24
-0.49587440453125	3.799941144311548e-24
-0.495813369375	3.9494650433650064e-24
-0.49575233421875	4.093985367848133e-24
-0.4956912990625	4.2333268982622205e-24
-0.49563026390625	4.3673182384121365e-24
-0.49556922875	4.495791131011498e-24
-0.49550819359375	4.61858043259291e-24
-0.4954471584375	4.735534756588501e-24
-0.49538612328125	4.846515829064396e-24
-0.495325088125	4.9513806587908844e-24
-0.49526405296875	5.049991936925263e-24
-0.4952030178125	5.142232793744148e-24
-0.49514198265625	5.227990560497533e-24
-0.4950809475	5.30715320022559e-24
-0.49501991234375	5.379620628489078e-24
-0.4949588771875	5.445303167743835e-24
-0.49489784203125	5.50411974782918e-24
-0.494836806875	5.555996124310604e-24
-0.49477577171875	5.6008642064836706e-24
-0.4947147365625	5.6386675182309945e-24
-0.49465370140625	5.669359625411021e-24
-0.49459266625	5.6929005448521454e-24
-0.49453163109375	5.709258948304705e-24
-0.4944705959375	5.718413194816299e-24
-0.49440956078125	5.720350975962473e-24
-0.494348525625	5.715068564141265e-24
-0.49428749046875	5.7025704759850934e-24
-0.4942264553125	5.682870936053806e-24
-0.49416542015625	5.6559936438280236e-24
-0.494104385	5.621970220519178e-24
-0.49404334984375	5.580840421413625e-24
-0.4939823146875	5.532653955926917e-24
-0.49392127953125	5.477471200029424e-24
-0.493860244375	5.4153589542266654e-24
-0.49379920921875	5.346390072421057e-24
-0.4937381740625	5.270649536716469e-24
-0.49367713890625	5.1882325152600645e-24
-0.49361610375	5.0992396653271104e-24
-0.49355506859375	5.003777973201271e-24
-0.4934940334375	4.901964480812372e-24
-0.49343299828125	4.7939270128193044e-24
-0.493371963125	4.679798262641985e-24
-0.49331092796875	4.559715506950544e-24
-0.4932498928125	4.4338273863094284e-24
-0.49318885765625	4.3022944327283465e-24
-0.4931278225	4.165277336635892e-24
-0.49306678734375	4.022938474338739e-24
-0.4930057521875	3.875457279441068e-24
-0.49294471703125	3.723020235668826e-24
-0.492883681875	3.5658141015101254e-24
-0.49282264671875	3.404033647051642e-24
-0.4927616115625	3.2378762041941552e-24
-0.49270057640625	3.0675461286494006e-24
-0.49263954125	2.8932592734019076e-24
-0.49257850609375	2.715235156447587e-24
-0.4925174709375	2.533690784574409e-24
-0.49245643578125	2.348844225802916e-24
-0.492395400625	2.1609307936058427e-24
-0.49233436546875	1.970191815531098e-24
-0.4922733303125	1.7768567178414597e-24
-0.49221229515625	1.5811617875035866e-24
-0.49215126	1.3833568025738373e-24
-0.49209022484375	1.1836885443246786e-24
-0.4920291896875	9.824013540005508e-25
-0.49196815453125	7.797489684101047e-25
-0.491907119375	5.7598654062063635e-25
-0.49184608421875	3.713613824681506e-25
-0.4917850490625	1.661291215035357e-25
-0.49172401390625	-3.944708242867568e-26
-0.49166297875	-2.4511221572132984e-25
-0.49160194359375	-4.506131261358221e-25
-0.4915409084375	-6.556932747501367e-25
-0.49147987328125	-8.600952358034659e-25
-0.491418838125	-1.0635618840890346e-24
-0.49135780296875	-1.2658360175338618e-24
-0.4912967678125	-1.4666648271817928e-24
-0.49123573265625	-1.6658062266641033e-24
-0.4911746975	-1.863006880045841e-24
-0.49111366234375	-2.0580053141265668e-24
-0.4910526271875	-2.2505673105099152e-24
-0.49099159203125	-2.4404593526190132e-24
-0.490930556875	-2.627431716797618e-24
-0.49086952171875	-2.8112512885835078e-24
-0.4908084865625	-2.9916894930180692e-24
-0.49074745140625	-3.1685114035886166e-24
-0.49068641625	-3.34149885897162e-24
-0.49062538109375	-3.510442859378166e-24
-0.4905643459375	-3.6751243944611975e-24
-0.49050331078125	-3.83532287902311e-24
-0.490442275625	-3.990840446726482e-24
-0.49038124046875	-4.141496065771704e-24
-0.4903202053125	-4.287091974441805e-24
-0.49025917015625	-4.4274304569944906e-24
-0.490198135	-4.56233981120128e-24
-0.49013709984375	-4.691654084330207e-24
-0.4900760646875	-4.815207143971602e-24
-0.49001502953125	-4.9328389039149825e-24
-0.489953994375	-5.044395629017025e-24
-0.48989295921875	-5.149736895963756e-24
-0.4898319240625	-5.248730521298733e-24
-0.48977088890625	-5.341246723574296e-24
-0.48970985375	-5.4271651630253406e-24
-0.48964881859375	-5.50637489556033e-24
-0.4895877834375	-5.578772546789107e-24
-0.48952674828125	-5.644264385387064e-24
-0.489465713125	-5.702763853908804e-24
-0.48940467796875	-5.754192804127485e-24
-0.4893436428125	-5.798483578030661e-24
-0.48928260765625	-5.835576236562687e-24
-0.4892215725	-5.86541872995715e-24
-0.48916053734375	-5.887969372155823e-24
-0.4890995021875	-5.9031961069869534e-24
-0.48903846703125	-5.911074818767852e-24
-0.488977431875	-5.911590075297812e-24
-0.48891639671875	-5.9047365619368474e-24
-0.4888553615625	-5.890518758265996e-24
-0.48879432640625	-5.868949118188895e-24
-0.48873329125	-5.8400482263775636e-24
-0.48867225609375	-5.803847952773433e-24
-0.4886112209375	-5.760390181903152e-24
-0.48855018578125	-5.7097224856100505e-24
-0.488489150625	-5.6519018234793335e-24
-0.48842811546875	-5.586996889659078e-24
-0.4883670803125	-5.515084409557709e-24
-0.48830604515625	-5.436248641389534e-24
-0.48824501	-5.3505816345019024e-24
-0.48818397484375	-5.258185852786211e-24
-0.4881229396875	-5.159172940440149e-24
-0.48806190453125	-5.053660379781986e-24
-0.488000869375	-4.941775990717398e-24
-0.48793983421875	-4.8236545125103376e-24
-0.4878787990625	-4.699435598996999e-24
-0.48781776390625	-4.569272083059941e-24
-0.48775672875	-4.433325182108701e-24
-0.48769569359375	-4.291756652175832e-24
-0.4876346584375	-4.1447345739354806e-24
-0.48757362328125	-3.9924410488197204e-24
-0.487512588125	-3.835066690739274e-24
-0.48745155296875	-3.67280050769932e-24
-0.4873905178125	-3.50583818812589e-24
-0.48732948265625	-3.334385065714425e-24
-0.4872684475	-3.1586484385832193e-24
-0.48720741234375	-2.9788498627267776e-24
-0.4871463771875	-2.795214160652353e-24
-0.48708534203125	-2.6079533661251978e-24
-0.487024306875	-2.417297757783683e-24
-0.48696327171875	-2.2234954800448034e-24
-0.4869022365625	-2.026781150599739e-24
-0.48684120140625	-1.8273866125369817e-24
-0.48678016625	-1.6255627912841604e-24
-0.48671913109375	-1.4215655210818927e-24
-0.4866580959375	-1.215641101016799e-24
-0.48659706078125	-1.0080413764593716e-24
-0.486536025625	-7.990237529141462e-25
-0.48647499046875	-5.888477542005909e-25
-0.4864139553125	-3.7777749346471306e-25
-0.48635292015625	-1.6607000384869145e-25
-0.486291885	4.601595785758259e-26
-0.48623084984375	2.582136428522242e-25
-0.4861698146875	4.702604699473582e-25
-0.48610877953125	6.818927701952489e-25
-0.486047744375	8.928474535297188e-25
-0.48598670921875	1.1028675533223204e-24
-0.4859256740625	1.3116876198367514e-24
-0.48586463890625	1.5190453851104758e-24
-0.48580360375	1.7246942640152784e-24
-0.48574256859375	1.928373111664792e-24
-0.4856815334375	2.1298152596866626e-24
-0.48562049828125	2.328783319662912e-24
-0.485559463125	2.5250399388423675e-24
-0.48549842796875	2.7183241937776716e-24
-0.4854373928125	2.908388883770311e-24
-0.48537635765625	3.09501155238605e-24
-0.4853153225	3.2779618304015014e-24
-0.48525428734375	3.4570017579013435e-24
-0.4851932521875	3.631905174291425e-24
-0.48513221703125	3.802458608035965e-24
-0.485071181875	3.968453431135692e-24
-0.48501014671875	4.12967689825608e-24
-0.4849491115625	4.2859238804738205e-24
-0.48488807640625	4.437001630937326e-24
-0.48482704125	4.582720976657708e-24
-0.48476600609375	4.7229007777225356e-24
-0.4847049709375	4.8573629429193104e-24
-0.48464393578125	4.985935827857104e-24
-0.484582900625	5.1084626667689915e-24
-0.48452186546875	5.224787459111459e-24
-0.4844608303125	5.334758024505133e-24
-0.48439979515625	5.438242304930007e-24
-0.48433876	5.535112954728602e-24
-0.48427772484375	5.6252374593503354e-24
-0.4842166896875	5.7085018764831456e-24
-0.48415565453125	5.784809312658008e-24
-0.484094619375	5.85405906463408e-24
-0.48403358421875	5.916158173874663e-24
-0.4839725490625	5.9710307438529054e-24
-0.48391151390625	6.0186069820411105e-24
-0.48385047875	6.0588235519013975e-24
-0.48378944359375	6.091628591266807e-24
-0.4837284084375	6.116979610347909e-24
-0.48366737328125	6.134842168504489e-24
-0.483606338125	6.145191343343818e-24
-0.48354530296875	6.148012702547616e-24
-0.4834842678125	6.1433006302441004e-24
-0.48342323265625	6.131057893845537e-24
-0.4833621975	6.111297734866423e-24
-0.48330116234375	6.084042976674923e-24
-0.4832401271875	6.049324701288288e-24
-0.48317909203125	6.007184138695654e-24
-0.483118056875	5.957672603962839e-24
-0.48305702171875	5.900848446301835e-24
-0.4829959865625	5.83677951171477e-24
-0.48293495140625	5.7655459747883606e-24
-0.48287391625	5.687234027104269e-24
-0.48281288109375	5.601936839775931e-24
-0.4827518459375	5.50976034696627e-24
-0.48269081078125	5.410819223464633e-24
-0.482629775625	5.3052339850678244e-24
-0.48256874046875	5.1931315876503695e-24
-0.4825077053125	5.0746513637293135e-24
-0.48244667015625	4.949943416497972e-24
-0.482385635	4.819158072156887e-24
-0.48232459984375	4.682454522648767e-24
-0.4822635646875	4.540004922896656e-24
-0.48220252953125	4.391986279375409e-24
-0.482141494375	4.238580576427865e-24
-0.48208045921875	4.079974779225987e-24
-0.4820194240625	3.9163686773725984e-24
-0.48195838890625	3.747968523735023e-24
-0.48189735375	3.574974853352284e-24
-0.48183631859375	3.39760568817415e-24
-0.4817752834375	3.216088971000969e-24
-0.48171424828125	3.0306394359485174e-24
-0.481653213125	2.841488164011851e-24
-0.48159217796875	2.6488801062474232e-24
-0.4815311428125	2.4530485024093837e-24
-0.48147010765625	2.254233416660753e-24
-0.4814090725	2.0526879071725337e-24
-0.48134803734375	1.8486638127250224e-24
-0.4812870021875	1.6424106907355473e-24
-0.48122596703125	1.4341861578626396e-24
-0.481164931875	1.2242553287739729e-24
-0.48110389671875	1.0128762465510496e-24
-0.4810428615625	8.003088833993818e-25
-0.48098182640625	5.868236476891754e-25
-0.48092079125	3.7268812447941786e-25
-0.48085975609375	1.5816561165082818e-25
-0.4807987209375	-5.647600555256799e-26
-0.48073768578125	-2.7096385871363228e-25
-0.480676650625	-4.850325933323761e-25
-0.48061561546875	-6.984197416780846e-25
-0.4805545803125	-9.108516834873864e-25
-0.48049354515625	-1.1220593120511099e-24
-0.48043251	-1.3317858926416144e-24
-0.48037147484375	-1.5397710669341955e-24
-0.4803104396875	-1.7457504763657077e-24
-0.48024940453125	-1.9494629376387747e-24
-0.480188369375	-2.1506530782257054e-24
-0.48012733421875	-2.3490749297454442e-24
-0.4800662990625	-2.544480463173496e-24
-0.48000526390625	-2.7366194808915843e-24
-0.47994422875	-2.9252526099497615e-24
-0.47988319359375	-3.1101434478572503e-24
-0.4798221584375	-3.2910601686769084e-24
-0.47976112328125	-3.4677780850564345e-24
-0.479700088125	-3.6400733537051555e-24
-0.47963905296875	-3.8077297919506426e-24
-0.4795780178125	-3.970537512498895e-24
-0.47951698265625	-4.1282910252918895e-24
-0.4794559475	-4.280794246826596e-24
-0.47939491234375	-4.427856567156242e-24
-0.4793338771875	-4.569289515543922e-24
-0.47927284203125	-4.704914878747317e-24
-0.479211806875	-4.8345675546158026e-24
-0.47915077171875	-4.958084541777195e-24
-0.4790897365625	-5.075305084331852e-24
-0.47902870140625	-5.1860819920410646e-24
-0.47896766625	-5.2902814067772384e-24
-0.47890663109375	-5.387771949194425e-24
-0.4788455959375	-5.478426487339889e-24
-0.47878456078125	-5.5621323640776205e-24
-0.478723525625	-5.638786153491295e-24
-0.47866249046875	-5.708290581653543e-24
-0.4786014553125	-5.770559136551738e-24
-0.47854042015625	-5.825512548997212e-24
-0.478479385	-5.873080420059921e-24
-0.47841834984375	-5.91320490187701e-24
-0.4783573146875	-5.9458359125489176e-24
-0.47829627953125	-5.9709312919261116e-24
-0.478235244375	-5.9884599096790265e-24
-0.47817420921875	-5.99840004734064e-24
-0.4781131740625	-6.0007390197292214e-24
-0.47805213890625	-5.9954742310719546e-24
-0.47799110375	-5.982613021147063e-24
-0.47793006859375	-5.9621717582735736e-24
-0.4778690334375	-5.934175820998865e-24
-0.47780799828125	-5.898660965707147e-24
-0.477746963125	-5.855672684218707e-24
-0.47768592796875	-5.805265609788173e-24
-0.4776248928125	-5.747504391536428e-24
-0.47756385765625	-5.6824611205810904e-24
-0.4775028225	-5.610216621178746e-24
-0.47744178734375	-5.530866102449951e-24
-0.4773807521875	-5.44451128621239e-24
-0.47731971703125	-5.351255994377695e-24
-0.477258681875	-5.251220828748537e-24
-0.47719764671875	-5.144537436260562e-24
-0.4771366115625	-5.031335179178592e-24
-0.47707557640625	-4.911757957627421e-24
-0.47701454125	-4.78596389824662e-24
-0.47695350609375	-4.6541072557676104e-24
-0.4768924709375	-4.516352581316146e-24
-0.47683143578125	-4.372882407391707e-24
-0.476770400625	-4.223876895423027e-24
-0.47670936546875	-4.0695198372641984e-24
-0.4766483303125	-3.910011981915591e-24
-0.47658729515625	-3.7455574396490585e-24
-0.47652626	-3.576363138003572e-24
-0.47646522484375	-3.402643086654455e-24
-0.4764041896875	-3.2246177256551556e-24
-0.47634315453125	-3.042517481294088e-24
-0.476282119375	-2.856572572333203e-24
-0.47622108421875	-2.6670168366874302e-24
-0.4761600490625	-2.4740936258950633e-24
-0.47609901390625	-2.278047283228801e-24
-0.47603797875	-2.0791303061205688e-24
-0.47597694359375	-1.8775956890605985e-24
-0.4759159084375	-1.673694656941146e-24
-0.47585487328125	-1.4676922996978637e-24
-0.475793838125	-1.2598525119929572e-24
-0.47573280296875	-1.0504369454445473e-24
-0.4756717678125	-8.397130775772305e-25
-0.47561073265625	-6.2794739810312745e-25
-0.4755496975	-4.1541443076426435e-25
-0.47548866234375	-2.0238855778872513e-25
-0.4754276271875	1.0865220662671206e-26
-0.47536659203125	2.240762764794505e-25
-0.475305556875	4.36966200285995e-25
-0.47524452171875	6.492614854616956e-25
-0.4751834865625	8.606964125438541e-25
-0.47512245140625	1.0709999574780442e-24
-0.47506141625	1.2798978765831264e-24
-0.47500038109375	1.4871257517149846e-24
-0.4749393459375	1.6924225069730803e-24
-0.47487831078125	1.8955232363120908e-24
-0.474817275625	2.096162103128656e-24
-0.47475624046875	2.294081898314779e-24
-0.4746952053125	2.489037880290609e-24
-0.47463417015625	2.6807793561905366e-24
-0.474573135	2.869048747775992e-24
-0.47451209984375	3.053609113377526e-24
-0.4744510646875	3.234233549355617e-24
-0.47439002953125	3.410679719098731e-24
-0.474328994375	3.582716239973496e-24
-0.47426795921875	3.7501332846669875e-24
-0.4742069240625	3.9127136243212256e-24
-0.47414588890625	4.070239512277277e-24
-0.47408485375	4.2225114650920106e-24
-0.47402381859375	4.369337095901421e-24
-0.4739627834375	4.5105247238769435e-24
-0.47390174828125	4.6458903057215384e-24
-0.473840713125	4.775257688813851e-24
-0.47377967796875	4.898460436870076e-24
-0.4737186428125	5.0153421178344804e-24
-0.47365760765625	5.1257485226929414e-24
-0.4735965725	5.229532749934563e-24
-0.47353553734375	5.326563491225783e-24
-0.4734745021875	5.4167156107204935e-24
-0.47341346703125	5.499866999277588e-24
-0.473352431875	5.575910164088079e-24
-0.47329139671875	5.64474787030763e-24
-0.4732303615625	5.7062856778981475e-24
-0.47316932640625	5.7604424279363686e-24
-0.47310829125	5.8071492577802405e-24
-0.47304725609375	5.846341557797585e-24
-0.4729862209375	5.877964681943057e-24
-0.47292518578125	5.901976764456941e-24
-0.472864150625	5.918344808657811e-24
-0.47280311546875	5.927044339758358e-24
-0.4727420803125	5.9280607157359445e-24
-0.47268104515625	5.9213894264116355e-24
-0.47262001	5.907036662694983e-24
-0.47255897484375	5.885017954221078e-24
-0.4724979396875	5.8553576501448834e-24
-0.47243690453125	5.818090680179512e-24
-0.472375869375	5.7732619231439054e-24
-0.47231483421875	5.720925843968956e-24
-0.4722537990625	5.661146123334766e-24
-0.47219276390625	5.593996148904858e-24
-0.47213172875	5.519559530376517e-24
-0.47207069359375	5.43792736735688e-24
-0.4720096584375	5.349201833341026e-24
-0.47194862328125	5.253494586609847e-24
-0.471887588125	5.150922401142826e-24
-0.47182655296875	5.041616263982806e-24
-0.4717655178125	4.9257151989520775e-24
-0.47170448265625	4.803359190288685e-24
-0.4716434475	4.674703906237592e-24
-0.47158241234375	4.539916468996528e-24
-0.4715213771875	4.399162850053929e-24
-0.47146034203125	4.252618876438146e-24
-0.471399306875	4.1004729582314485e-24
-0.47133827171875	3.942916922569571e-24
-0.4712772365625	3.780149289308935e-24
-0.47121620140625	3.612377261274783e-24
-0.47115516625	3.439814803731669e-24
-0.47109413109375	3.2626787873598635e-24
-0.4710330959375	3.0811918484767832e-24
-0.47097206078125	2.8955892127618825e-24
-0.470911025625	2.7061078328402917e-24
-0.47084999046875	2.5129847379737728e-24
-0.4707889553125	2.3164655251919972e-24
-0.47072792015625	2.116803009128726e-24
-0.470666885	1.9142526928747296e-24
-0.47060584984375	1.7090693570177665e-24
-0.4705448146875	1.5015159298159542e-24
-0.47048377953125	1.2918617118329371e-24
-0.470422744375	1.0803699547459848e-24
-0.47036170921875	8.673075182711797e-25
-0.4703006740625	6.52953392631278e-25
-0.47023963890625	4.375838897496284e-25
-0.47017860375	2.2146695866566907e-25
-0.47011756859375	4.881868529036718e-27
-0.4700565334375	-2.1188894912011343e-25
-0.46999549828125	-4.2857482655532415e-25
-0.469934463125	-6.448953911092607e-25
-0.46987342796875	-8.605671211164343e-25
-0.4698123928125	-1.0753198056124963e-24
-0.46975135765625	-1.2888792862627414e-24
-0.4696903225	-1.5009634524099354e-24
-0.46962928734375	-1.711300853025223e-24
-0.4695682521875	-1.9196302410098013e-24
-0.46950721703125	-2.12567807611387e-24
