Time	Frequency
-0.5000524520624978	-0.0937990753881962
-0.4999914169062478	-0.10872571386434596
-0.4999303817499978	-0.12354191596147712
-0.4998693465937478	-0.13823173475768744
-0.4998083114374978	-0.15277913520818695
-0.4997472762812478	-0.16716865009704543
-0.4996862411249978	-0.1813852807460833
-0.4996252059687478	-0.19541354718807138
-0.4995641708124978	-0.20923828116051515
-0.4995031356562478	-0.222844788078173
-0.4994421004999978	-0.2362184555023631
-0.4993810653437478	-0.24934520905451144
-0.4993200301874978	-0.2622110486763026
-0.4992589950312478	-0.2748016754304956
-0.4991979598749978	-0.2871034380017638
-0.4991369247187478	-0.29910385386640714
-0.4990758895624978	-0.31079012803006756
-0.4990148544062478	-0.3221489511676988
-0.4989538192499978	-0.3331681192992888
-0.4988927840937478	-0.34383642018106225
-0.4988317489374978	-0.3541423172925396
-0.4987707137812478	-0.3640742381081611
-0.4987096786249978	-0.37362166853945006
-0.4986486434687478	-0.38277451583337774
-0.4985876083124978	-0.3915227395046352
-0.4985265731562478	-0.3998569943286904
-0.4984655379999978	-0.40776825718371357
-0.4984045028437478	-0.4152478556121276
-0.4983434676874978	-0.42228787435556964
-0.4982824325312478	-0.42888067646613165
-0.4982213973749978	-0.43501908521612737
-0.4981603622187478	-0.44069653211598786
-0.4980993270624978	-0.44590663539240993
-0.4980382919062478	-0.45064375040788185
-0.4979772567499978	-0.45490303923583564
-0.4979162215937478	-0.4586797852139329
-0.4978551864374978	-0.4619695961710638
-0.4977941512812478	-0.46476886778473486
-0.4977331161249978	-0.46707470920731237
-0.4976720809687478	-0.4688846470024685
-0.4976110458124978	-0.4701965407765365
-0.4975500106562478	-0.47100879576146737
-0.4974889754999978	-0.4713205111190325
-0.4974279403437478	-0.4711313604197976
-0.4973669051874978	-0.47044148816452613
-0.4973058700312478	-0.4692515165605654
-0.4972448348749978	-0.46756255368411215
-0.4971837997187478	-0.4653763657601166
-0.4971227645624978	-0.4626953982216306
-0.4970617294062478	-0.4595223621801035
-0.4970006942499978	-0.45586042736056387
-0.4969396590937478	-0.45171360435879565
-0.4968786239374978	-0.44708635544004305
-0.4968175887812478	-0.4419835370501851
-0.4967565536249978	-0.4364104490382633
-0.4966955184687478	-0.4303729922473633
-0.4966344833124978	-0.42387785485253304
-0.4965734481562478	-0.416931867607643
-0.4965124129999978	-0.40954222047549294
-0.4964513778437478	-0.4017169183682714
-0.4963903426874978	-0.3934644341070547
-0.4963293075312478	-0.38479359142423747
-0.4962682723749978	-0.37571349443819013
-0.4962072372187478	-0.3662339203462881
-0.4961462020624978	-0.35636520180921916
-0.4960851669062478	-0.34611766361035395
-0.4960241317499978	-0.33550224369955084
-0.4959630965937478	-0.32453074259095
-0.4959020614374978	-0.3132148139857244
-0.4958410262812478	-0.3015660813955496
-0.4957799911249978	-0.28959743444640423
-0.4957189559687478	-0.27732211221081904
-0.4956579208124978	-0.2647527835404031
-0.4955968856562478	-0.25190292788105517
-0.4955358504999978	-0.23878675039042335
-0.4954748153437478	-0.22541821328660205
-0.4954137801874978	-0.21181151780079327
-0.4953527450312478	-0.19798151626739072
-0.4952917098749978	-0.18394315893491064
-0.4952306747187478	-0.1697112686145092
-0.4951696395624978	-0.1553014020040633
-0.4951086044062478	-0.1407294312734895
-0.4950475692499978	-0.1260104956150383
-0.4949865340937478	-0.11116035556221324
-0.4949254989374978	-0.09619562199898282
-0.4948644637812478	-0.08113242133234007
-0.4948034286249978	-0.06598686823413975
-0.4947423934687478	-0.05077503365726102
-0.4946813583124978	-0.035513150678545866
-0.4946203231562478	-0.020218529020151876
-0.4945592879999978	-0.00490777430010368
-0.4944982528437478	0.010403474009593345
-0.4944372176874978	0.025698364332100557
-0.4943761825312478	0.04095988054447905
-0.4943151473749978	0.05617189463549384
-0.4942541122187478	0.07131797976837229
-0.4941930770624978	0.08638133662671196
-0.4941320419062478	0.10134587980276044
-0.4940710067499978	0.11619573341341405
-0.4940099715937478	0.13091426895621236
-0.4939489364374978	0.1454856919857532
-0.4938879012812478	0.1598945606355752
-0.4938268661249978	0.17412459067749533
-0.4937658309687478	0.18816049551141176
-0.4937047958124978	0.2019876665407064
-0.4936437606562478	0.21559073070602447
-0.4935827254999978	0.22895445576528367
-0.4935216903437478	0.24206442106470416
-0.4934606551874978	0.2549067941179295
-0.4933996200312478	0.2674680117542477
-0.4933385848749978	0.2797337062564033
-0.4932775497187478	0.29168986924245394
-0.4932165145624978	0.30332441390988335
-0.4931554794062478	0.3146251126979823
-0.4930944442499978	0.32557903947589034
-0.4930334090937478	0.3361739269183619
-0.4929723739374978	0.3463983134743454
-0.4929113387812478	0.3562414678054172
-0.4928503036249978	0.3656927304516068
-0.4927892684687478	0.37474134376658214
-0.4927282333124978	0.3833774426023419
-0.4926671981562478	0.3915917524850475
-0.4926061629999978	0.39937509285584327
-0.4925451278437478	0.40671913334656074
-0.4924840926874978	0.41361600593194553
-0.4924230575312478	0.42005773162537235
-0.4923620223749978	0.42603712316469794
-0.4923009872187478	0.4315479897889495
-0.4922399520624978	0.43658434162165455
-0.4921789169062478	0.4411403575831116
-0.4921178817499978	0.4452108989032304
-0.4920568465937478	0.44879159522951995
-0.4919958114374978	0.451878565820636
-0.4919347762812478	0.454468318254629
-0.4918737411249978	0.4565578929572755
-0.4918127059687478	0.45814490624953064
-0.4917516708124978	0.4592275462232257
-0.4916906356562478	0.45980459682589486
-0.4916296004999978	0.4598753754854148
-0.4915685653437478	0.4594396532861117
-0.4915075301874978	0.45849777451287793
-0.4914464950312478	0.45705072619373655
-0.4913854598749978	0.4550999965513663
-0.4913244247187478	0.4526476280921737
-0.4912633895624978	0.44969620038409996
-0.4912023544062478	0.44624877037364813
-0.4911413192499978	0.4423090629255911
-0.4910802840937478	0.4378813192037755
-0.4910192489374978	0.43297019087197824
-0.4909582137812478	0.42758098586643917
-0.4908971786249978	0.4217195661890554
-0.4908361434687478	0.41539211313631336
-0.4907751083124978	0.4086053867837443
-0.4907140731562478	0.4013669256099993
-0.4906530379999978	0.3936844827691082
-0.4905920028437478	0.3855661679008618
-0.4905309676874978	0.3770209570031199
-0.4904699325312478	0.3680580824738741
-0.4904088973749978	0.3586870550033451
-0.4903478622187478	0.34891819883842246
-0.4902868270624978	0.3387623174571175
-0.4902257919062478	0.32823014426724817
-0.4901647567499978	0.31733275460563326
-0.4901037215937478	0.3060825001652384
-0.4900426864374978	0.2944920497290999
-0.4899816512812478	0.2825732848112569
-0.4899206161249978	0.2703387750413882
-0.4898595809687478	0.2578025365175527
-0.4897985458124978	0.244978524599412
-0.4897375106562478	0.23188022603684344
-0.4896764754999978	0.21852168752224344
-0.4896154403437478	0.2049176166202432
-0.4895544051874978	0.19108300648268986
-0.4894933700312478	0.1770332412067862
-0.4894323348749978	0.16278338422667485
-0.4893712997187478	0.1483483878552098
-0.4893102645624978	0.13374467130349485
-0.4892492294062478	0.11898858400833232
-0.4891881942499978	0.10409543283088644
-0.4891271590937478	0.08908164001009723
-0.4890661239374978	0.07396409265302534
-0.4890050887812478	0.05875912385595166
-0.4889440536249978	0.043483336316480145
-0.4888830184687478	0.028153250626342535
-0.4888219833124978	0.012785681885616356
-0.4887609481562478	-0.002602020623897011
-0.4886999129999978	-0.017992982755344226
-0.4886388778437478	-0.033370839940452125
-0.4885778426874978	-0.04871890982882013
-0.4885168075312478	-0.06401986332036717
-0.4884557723749978	-0.0792566542698354
-0.4883947372187478	-0.09441264980810746
-0.4883337020624978	-0.109471443208071
-0.4882726669062478	-0.12441684723142205
-0.4882116317499978	-0.1392319402688388
-0.4881505965937478	-0.15389998722692308
-0.4880895614374978	-0.1684053331983016
-0.4880285262812478	-0.18273203516013867
-0.4879674911249978	-0.19686411244872928
-0.4879064559687478	-0.21078633746074174
-0.4878454208124978	-0.22448291217323088
-0.4877843856562478	-0.23793822177767412
-0.4877233504999978	-0.2511384627267371
-0.4876623153437478	-0.2640691560377931
-0.4876012801874978	-0.27671469934760756
-0.4875402450312478	-0.2890613492736009
-0.4874792098749978	-0.3010964149792701
-0.4874181747187478	-0.31280639321717907
-0.4873571395624978	-0.3241775556157039
-0.4872961044062478	-0.3351970132696529
-0.4872350692499978	-0.34585316408936295
-0.4871740340937478	-0.3561345943594422
-0.4871129989374978	-0.36602937238001915
-0.4870519637812478	-0.375525925369558
-0.4869909286249978	-0.3846138353705059
-0.4869298934687478	-0.3932834993071785
-0.4868688583124978	-0.4015250990267873
-0.4868078231562478	-0.40932899047177707
-0.4867467879999978	-0.4166864007473284
-0.4866857528437478	-0.4235892215460405
-0.4866247176874978	-0.4300298087473075
-0.4865636825312478	-0.4360006364781121
-0.4865026473749978	-0.4414947907842752
-0.4864416122187478	-0.4465062957071359
-0.4863805770624978	-0.45102940097901517
-0.4863195419062478	-0.45505869811302346
-0.4862585067499978	-0.4585895035393754
-0.4861974715937478	-0.4616178380721241
-0.4861364364374978	-0.4641402166751766
-0.4860754012812478	-0.4661534117554753
-0.4860143661249978	-0.46765490813551985
-0.4859533309687478	-0.4686429795611696
-0.4858922958124978	-0.4691162437790291
-0.4858312606562478	-0.4690738320676965
-0.4857702254999978	-0.46851555121276445
-0.4857091903437478	-0.46744176933343595
-0.4856481551874978	-0.4658534004846439
-0.4855871200312478	-0.46375191511995684
-0.4855260848749978	-0.461139325517088
-0.4854650497187478	-0.4580182147000379
-0.4854040145624978	-0.4543918049273859
-0.4853429794062478	-0.45026380366662316
-0.4852819442499978	-0.44563838175594406
-0.4852209090937478	-0.4405204345582754
-0.4851598739374978	-0.43491532110472314
-0.4850988387812478	-0.4288288146821318
-0.4850378036249978	-0.422267522109999
-0.4849767684687478	-0.41523836166001166
-0.4849157333124978	-0.40774850595042866
-0.4848546981562478	-0.39980614117527763
-0.4847936629999978	-0.39141996182809224
-0.4847326278437478	-0.38259868245275397
-0.4846715926874978	-0.3733515398536837
-0.4846105575312478	-0.36368865048761306
-0.4845495223749978	-0.35362063073936933
-0.4844884872187478	-0.3431580658560048
-0.4844274520624978	-0.3323120719502804
-0.4843664169062478	-0.32109450254156113
-0.4843053817499978	-0.3095174713463193
-0.4842443465937478	-0.2975934906190812
-0.4841833114374978	-0.2853354059646778
-0.4841222762812478	-0.2727563969907812
-0.4840612411249978	-0.2598701284588515
-0.4840002059687478	-0.24669068841153288
-0.4839391708124978	-0.2332323838064556
-0.4838781356562478	-0.2195094775318078
-0.4838171004999978	-0.2055368419786349
-0.4837560653437478	-0.19133025844371213
-0.4836950301874978	-0.17690509765380832
-0.4836339950312478	-0.16227636544551843
-0.4835729598749978	-0.1474601699347633
-0.4835119247187478	-0.13247305354557193
-0.4834508895624978	-0.11733125668988924
-0.4833898544062478	-0.10205130530628156
-0.4833288192499978	-0.08664960356966887
-0.4832677840937478	-0.07114270604004448
-0.4832067489374978	-0.0555481984881092
-0.4831457137812478	-0.039883236565559005
-0.4830846786249978	-0.02416420159888938
-0.4830236434687478	-0.008408409006502289
-0.4829626083124978	0.007366550620897643
-0.4829015731562478	0.023143315862366048
-0.4828405379999978	0.038904774633720995
-0.4827795028437478	0.05463418771405741
-0.4827184676874978	0.07031376602627985
-0.4826574325312478	0.08592599503281874
-0.4825963973749978	0.10145450753078118
-0.4825353622187478	0.1168819766173997
-0.4824743270624978	0.1321911646505168
-0.4824132919062478	0.14736569243677908
-0.4823522567499978	0.1623886057258609
-0.4822912215937478	0.1772433487943382
-0.4822301864374978	0.19191396615431416
-0.4821691512812478	0.2063839718794065
-0.4821081161249978	0.2206373686237414
-0.4820470809687478	0.23465873916892024
-0.4819860458124978	0.24843240775625144
-0.4819250106562478	0.2619432222652768
-0.4818639754999978	0.2751764844139269
-0.4818029403437478	0.2881174508668473
-0.4817419051874978	0.30075164571904733
-0.4816808700312478	0.31306514931124385
-0.4816198348749978	0.3250447035488898
-0.4815587997187478	0.3366769008913154
-0.4814977645624978	0.34794845434857263
-0.4814367294062478	0.35884723646446226
-0.4813756942499978	0.3693613973211913
-0.4813146590937478	0.37947890519147937
-0.4812536239374978	0.3891883685573167
-0.4811925887812478	0.39847932588319723
-0.4811315536249978	0.4073415663897905
-0.4810705184687478	0.4157649070792467
-0.4810094833124978	0.4237400187101398
-0.4809484481562478	0.4312580643576341
-0.4808874129999978	0.43831054400330793
-0.4808263778437478	0.44488976546602177
-0.4807653426874978	0.45098820544840507
-0.4807043075312478	0.45659894969283366
-0.4806432723749978	0.46171591773989906
-0.4805822372187478	0.4663330997452593
-0.4805212020624978	0.4704452325549299
-0.4804601669062478	0.47404790005732733
-0.4803991317499978	0.4771368750987334
-0.4803380965937478	0.47970850072818666
-0.4802770614374978	0.4817598647665354
-0.4802160262812478	0.48328856900491046
-0.4801549911249978	0.4842927624888681
-0.4800939559687478	0.4847711788450415
-0.4800329208124978	0.4847231281767268
-0.4799718856562478	0.48414852275880443
-0.4799108504999978	0.48304787161593504
-0.4798498153437478	0.48142216546940764
-0.4797887801874978	0.47927295298772
-0.4797277450312478	0.476602610193145
-0.4796667098749978	0.4734140329003499
-0.4796056747187478	0.46971029884068455
-0.4795446395624978	0.4654952674389714
-0.4794836044062478	0.4607737706748857
-0.4794225692499978	0.455550869746399
-0.4793615340937478	0.44983178179702515
-0.4793004989374978	0.44362275883553354
-0.4792394637812478	0.4369309383045876
-0.4791784286249978	0.4297631673206055
-0.4791173934687478	0.4221269825340889
-0.4790563583124978	0.4140312700424669
-0.4789953231562478	0.40548456740338923
-0.4789342879999978	0.39649573816037165
-0.4788732528437478	0.38707502264134097
-0.4788122176874978	0.3772328632704097
-0.4787511825312478	0.3669796560848401
-0.4786901473749978	0.356326366499158
-0.4786291122187478	0.3452849261466043
-0.4785680770624978	0.33386763819441073
-0.4785070419062478	0.3220866569453261
-0.4784460067499978	0.30995481636227995
-0.4783849715937478	0.2974856095618292
-0.4783239364374978	0.28469257076889515
-0.4782629012812478	0.271589718300935
-0.4782018661249978	0.2581915672912428
-0.4781408309687478	0.24451270896476146
-0.4780797958124978	0.23056816246994444
-0.4780187606562478	0.21637317120223687
-0.4779577254999978	0.20194323344510232
-0.4778966903437478	0.1872946130051148
-0.4778356551874978	0.17244347550776146
-0.4777746200312478	0.1574054959662837
-0.4777135848749978	0.14219723550127647
-0.4776525497187478	0.1268362331279764
-0.4775915145624978	0.11133934754943019
-0.4775304794062478	0.09572281086744905
-0.4774694442499978	0.08000384271676271
-0.4774084090937478	0.06420081327924705
-0.4773473739374978	0.04833103394288324
-0.4772863387812478	0.03241076852190294
-0.4772253036249978	0.01645812147381038
-0.4771642684687478	0.0004916670144792291
-0.4771032333124978	-0.015471693391609143
-0.4770421981562478	-0.03141467277979248
-0.4769811629999978	-0.04731923868289401
-0.4769201278437478	-0.06316788008506358
-0.4768590926874978	-0.07894295756660212
-0.4767980575312478	-0.09462687187912955
-0.4767370223749978	-0.11020282164348563
-0.4766759872187478	-0.12565345642547843
-0.4766149520624978	-0.14096104555179828
-0.4765539169062478	-0.15610902615625583
-0.4764928817499978	-0.17108098154830842
-0.4764318465937478	-0.185859993235062
-0.4763708114374978	-0.20042941947516843
-0.4763097762812478	-0.21477329263339082
-0.4762487411249978	-0.22887594380535695
-0.4761877059687478	-0.24272154418077294
-0.4761266708124978	-0.25629467520693733
-0.4760656356562478	-0.2695803852853739
-0.4760046004999978	-0.28256372262205937
-0.4759435653437478	-0.29523018617820485
-0.4758825301874978	-0.3075661220579685
-0.4758214950312478	-0.3195578246908705
-0.4757604598749978	-0.331191375657709
-0.4756994247187478	-0.34245403059006213
-0.4756383895624978	-0.3533336034894665
-0.4755773544062478	-0.3638177154131893
-0.4755163192499978	-0.37389477170863766
-0.4754552840937478	-0.38355346373578636
-0.4753942489374978	-0.3927828257481245
-0.4753332137812478	-0.40157300803452967
-0.4752721786249978	-0.4099141124261485
-0.4752111434687478	-0.4177963300835085
-0.4751501083124978	-0.42521120917194377
-0.4750890731562478	-0.4321507544749707
-0.4750280379999978	-0.4386067860062109
-0.4749670028437478	-0.44457198117954694
-0.4749059676874978	-0.4500399848194169
-0.4748449325312478	-0.4550045725562601
-0.4747838973749978	-0.4594599860019228
-0.4747228622187478	-0.4634014076980507
-0.4746618270624978	-0.46682441547118614
-0.4746007919062478	-0.46972496672302505
-0.4745397567499978	-0.4720997937995422
-0.4744787215937478	-0.473946304190559
-0.4744176864374978	-0.475262412637016
-0.4743566512812478	-0.4760465175957707
-0.4742956161249978	-0.4762976200529314
-0.4742345809687478	-0.4760154324931728
-0.4741735458124978	-0.47520027249004876
-0.4741125106562478	-0.4738529500180401
-0.4740514754999978	-0.4719748776287118
-0.4739904403437478	-0.4695681411965962
-0.4739294051874978	-0.4666353233307221
-0.4738683700312478	-0.4631795375120669
-0.4738073348749978	-0.4592047335572888
-0.4737462997187478	-0.4547154467806112
-0.4736852645624978	-0.44971630750229213
-0.4736242294062478	-0.4442126942896176
-0.4735631942499978	-0.4382111100588227
-0.4735021590937478	-0.43171821386384646
-0.4734411239374978	-0.42474097199298033
-0.4733800887812478	-0.4172870807841642
-0.4733190536249978	-0.4093647194373957
-0.4732580184687478	-0.400983022719612
-0.4731969833124978	-0.3921514238929206
-0.4731359481562478	-0.38287921677465414
-0.4730749129999978	-0.37317688005290706
-0.4730138778437478	-0.3630554460413212
-0.4729528426874978	-0.35252583876813964
-0.4728918075312478	-0.34160017081374555
-0.4728307723749978	-0.33029071063891485
-0.4727697372187478	-0.3186093580312935
-0.4727087020624978	-0.3065694097643012
-0.4726476669062478	-0.29418485239265885
-0.4725866317499978	-0.2814692037257253
-0.4725255965937478	-0.26843634788589477
-0.4724645614374978	-0.255101127568467
-0.4724035262812478	-0.2414784267006026
-0.4723424911249978	-0.22758325822879105
-0.4722814559687478	-0.21343156311967548
-0.4722204208124978	-0.19903908338366774
-0.4721593856562478	-0.18442156840260268
-0.4720983504999978	-0.16959558547353396
-0.4720373153437478	-0.1545778469127952
-0.4719762801874978	-0.1393851511179796
-0.4719152450312478	-0.1240344250643993
-0.4718542098749978	-0.10854293806838847
-0.4717931747187478	-0.09292814129080387
-0.4717321395624978	-0.07720724792996088
-0.4716711044062478	-0.06139795821131935
-0.4716100692499978	-0.04551861521953905
-0.4715490340937478	-0.029586877254105116
-0.4714879989374978	-0.013619666092150071
-0.4714269637812478	0.002364637481378813
-0.4713659286249978	0.018346949009074
-0.4713048934687478	0.034309934043177795
-0.4712438583124978	0.05023654784146169
-0.4711828231562478	0.06610839443577556
-0.4711217879999978	0.08190679852860851
-0.4710607528437478	0.09761407392173707
-0.4709997176874978	0.11321352065610578
-0.4709386825312478	0.12868766395750417
-0.4708776473749978	0.14401764665737213
-0.4708166122187478	0.15918620003640144
-0.4707555770624978	0.17417784104555722
-0.4706945419062478	0.1889751957360371
-0.4706335067499978	0.20356012480484295
-0.4705724715937478	0.217916925365558
-0.4705114364374978	0.23203023215843932
-0.4704504012812478	0.24588321131564858
-0.4703893661249978	0.25945984252156323
-0.4703283309687478	0.2727453993885206
-0.4702672958124978	0.2857249200188174
-0.4702062606562478	0.29838335862370363
-0.4701452254999978	0.31070605180808425
-0.4700841903437478	0.32267919748283264
-0.4700231551874978	0.3342897917623353
-0.4699621200312478	0.34552422021590223
-0.4699010848749978	0.3563690673770221
-0.4698400497187478	0.3668126677266633
-0.4697790145624978	0.3768433806596018
-0.4697179794062478	0.3864489712523492
