Time	Frequency
-0.5000039000000029	-0.4001518589013838
-0.49994286484375294	-0.40427609329310804
-0.49988182968750294	-0.40805403217367003
-0.49982079453125294	-0.4114819454533888
-0.49975975937500294	-0.4145566552036472
-0.49969872421875294	-0.41727539047716106
-0.49963768906250294	-0.41963562308972935
-0.49957665390625294	-0.42163513751041
-0.49951561875000294	-0.4232719432733914
-0.49945458359375294	-0.42454442566660383
-0.49939354843750294	-0.4254513616028853
-0.49933251328125294	-0.42599174882542323
-0.49927147812500294	-0.4261648888980489
-0.49921044296875294	-0.42597046303836755
-0.49914940781250294	-0.42540846969399504
-0.49908837265625294	-0.4244792074208272
-0.49902733750000294	-0.423183275854765
-0.49896630234375294	-0.42152158314470917
-0.49890526718750294	-0.41949540387449535
-0.49884423203125294	-0.4171063643017497
-0.49878319687500294	-0.41435632075598555
-0.49872216171875294	-0.4112473941666494
-0.49866112656250294	-0.40778214832437537
-0.49860009140625294	-0.40396349597462305
-0.49853905625000294	-0.3997944822064311
-0.49847802109375294	-0.39527849824566297
-0.49841698593750294	-0.3904193974060298
-0.49835595078125294	-0.3852211721863351
-0.49829491562500294	-0.37968811683002096
-0.49823388046875294	-0.3738249551402749
-0.49817284531250294	-0.36763651955556537
-0.49811181015625294	-0.3611280359924873
-0.49805077500000294	-0.35430509842833685
-0.49798973984375294	-0.34717330299831617
-0.49792870468750294	-0.33973866835308
-0.49786766953125294	-0.3320076928214083
-0.49780663437500294	-0.3239869089605496
-0.49774559921875294	-0.31568289932385485
-0.49768456406250294	-0.3071027700483705
-0.49762352890625294	-0.2982540922935372
-0.49756249375000294	-0.28914431268066215
-0.49750145859375294	-0.27978100149898755
-0.49744042343750294	-0.2701722334141624
-0.49737938828125294	-0.2603263583535925
-0.49731835312500294	-0.2502517680771318
-0.49725731796875294	-0.23995697442250097
-0.49719628281250294	-0.22945087873073786
-0.49713524765625294	-0.21874252861523896
-0.49707421250000294	-0.20784092273615887
-0.49701317734375294	-0.19675554820498614
-0.49695214218750294	-0.18549620291633212
-0.49689110703125294	-0.1740722706530898
-0.49683007187500294	-0.16249328719176664
-0.49676903671875294	-0.1507696055599654
-0.49670800156250294	-0.13891159999740715
-0.49664696640625294	-0.12692910525563175
-0.49658593125000294	-0.11483220790437942
-0.49652489609375294	-0.10263167503513548
-0.49646386093750294	-0.09033820373549561
-0.49640282578125294	-0.07796221393720303
-0.49634179062500294	-0.06551428230603407
-0.49628075546875294	-0.053005116578817
-0.49621972031250294	-0.04044583937809227
-0.49615868515625294	-0.027847393366501674
-0.49609765000000294	-0.015220156516608054
-0.49603661484375294	-0.002575298799259721
-0.49597557968750294	0.01007595938626844
-0.49591454453125294	0.022722983402454315
-0.49585350937500294	0.035354612318846325
-0.49579247421875294	0.04795987526258575
-0.49573143906250294	0.060528225643339505
-0.49567040390625294	0.07304850879550563
-0.49560936875000294	0.08550941312481115
-0.49554833359375294	0.0979005140337923
-0.49548729843750294	0.11021148172491133
-0.49542626328125294	0.12243107505842751
-0.49536522812500294	0.1345484189864419
-0.49530419296875294	0.14655351795555752
-0.49524315781250294	0.15843594808323766
-0.49518212265625294	0.1701849565047962
-0.49512108750000294	0.18179037535518364
-0.49506005234375294	0.19324235865122308
-0.49499901718750294	0.20453096015463273
-0.49493798203125294	0.21564611992985114
-0.49487694687500294	0.22657792630481155
-0.49481591171875294	0.23731715233428824
-0.49475487656250294	0.24785470397772913
-0.49469384140625294	0.25818101131076965
-0.49463280625000294	0.2682868752477143
-0.49457177109375294	0.27816373084513857
-0.49451073593750294	0.2878029947862294
-0.49444970078125294	0.29719612702199477
-0.49438866562500294	0.30633502166206017
-0.49432763046875294	0.3152116481924455
-0.49426659531250294	0.32381793106516177
-0.49420556015625294	0.3321464976000658
-0.49414452500000294	0.34019043913679964
-0.49408348984375294	0.347942519444295
-0.49402245468750294	0.3553955313646182
-0.49396141953125294	0.3625430329820134
-0.49390038437500294	0.3693791364196324
-0.49383934921875294	0.3758977762326561
-0.49377831406250294	0.38209295178385455
-0.49371727890625294	0.3879592308604151
-0.49365624375000294	0.39349155689538695
-0.49359520859375294	0.39868506038725365
-0.49353417343750294	0.40353516972923853
-0.49347313828125294	0.4080375986664292
-0.49341210312500294	0.4121882605665183
-0.49335106796875294	0.4159835285983213
-0.49329003281250294	0.41942013352174545
-0.49322899765625294	0.42249493993459314
-0.49316796250000294	0.42520520914266813
-0.49310692734375294	0.42754855173094686
-0.49304589218750294	0.4295228405154377
-0.49298485703125294	0.4311263190053552
-0.49292382187500294	0.4323575348803552
-0.49286278671875294	0.4332153602801025
-0.49280175156250294	0.4336989938933015
-0.49274071640625294	0.43380794027082215
-0.49267968125000294	0.433542079991257
-0.49261864609375294	0.4329016134255351
-0.49255761093750294	0.43188702125736567
-0.49249657578125294	0.4304991279764117
-0.49243554062500294	0.4287391288086906
-0.49237450546875294	0.42660853152481304
-0.49231347031250294	0.42410913235432435
-0.49225243515625294	0.4212430781195235
-0.49219140000000294	0.4180128015821412
-0.49213036484375294	0.4144210832749525
-0.49206932968750294	0.41047112828779814
-0.49200829453125294	0.4061663175852492
-0.49194725937500294	0.4015102828526905
-0.49188622421875294	0.396507085816655
-0.49182518906250294	0.3911610920518152
-0.49176415390625294	0.3854770436794231
-0.49170311875000294	0.3794599162848899
-0.49164208359375294	0.37311471670093044
-0.49158104843750294	0.36644695234471464
-0.49152001328125294	0.35946270358479626
-0.49145897812500294	0.3521680487775453
-0.49139794296875294	0.34456916264250104
-0.49133690781250294	0.3366727292732646
-0.49127587265625294	0.3284857150221564
-0.49121483750000294	0.32001521097291963
-0.49115380234375294	0.31126861633540853
-0.49109276718750294	0.3022536359498133
-0.49103173203125294	0.2929783385371723
-0.49097069687500294	0.28345066997446006
-0.49090966171875294	0.2736785390069155
-0.49084862656250294	0.2636709774508061
-0.49078759140625294	0.2534372117507371
-0.49072655625000294	0.24298562548813493
-0.49066552109375294	0.2323250787865339
-0.49060448593750294	0.22146535779725507
-0.49054345078125294	0.21041622534343354
-0.49048241562500294	0.19918717723902948
-0.49042138046875294	0.1877878339174881
-0.49036034531250294	0.17622827629005033
-0.49029931015625294	0.16451900176008957
-0.49023827500000294	0.1526702244173265
-0.49017723984375294	0.1406918975373762
-0.49011620468750294	0.12859480599054024
-0.49005516953125294	0.11639013992505823
-0.48999413437500294	0.10408815541237884
-0.48993309921875294	0.0916992396667701
-0.48987206406250294	0.07923490136003311
-0.48981102890625294	0.06670631248084981
-0.48974999375000294	0.05412411871919463
-0.48968895859375294	0.04149933144731246
-0.48962792343750294	0.02884318866085469
-0.48956688828125294	0.016167023492960994
-0.48950585312500294	0.003482000209876807
-0.48944481796875294	-0.009200887657566218
-0.48938378281250294	-0.02187039788456182
-0.48932274765625294	-0.03451526221675859
-0.48926171250000294	-0.04712432236943522
-0.48920067734375294	-0.05968638852050626
-0.48913964218750294	-0.07219041896900222
-0.48907860703125294	-0.08462548622806446
-0.48901757187500294	-0.09698050629910036
-0.48895653671875294	-0.10924433838380412
-0.48889550156250294	-0.1214063027848547
-0.48883446640625294	-0.13345587932945746
-0.48877343125000294	-0.1453820680363128
-0.48871239609375294	-0.1571741845725974
-0.48865136093750294	-0.16882221407314682
-0.48859032578125294	-0.1803157539129078
-0.48852929062500294	-0.19164423903566438
-0.48846825546875294	-0.20279789118498054
-0.48840722031250294	-0.2137669777691747
-0.48834618515625294	-0.22454144717706936
-0.48828515000000294	-0.23511180113463157
-0.48822411484375294	-0.24546892639494555
-0.48816307968750294	-0.25560346376862675
-0.48810204453125294	-0.2655061458004203
-0.48804100937500294	-0.2751683728090576
-0.48797997421875294	-0.28458179156148655
-0.48791893906250294	-0.2937378223218225
-0.48785790390625294	-0.30262817689674243
-0.48779686875000294	-0.31124506906699634
-0.48773583359375294	-0.31958084181275503
-0.48767479843750294	-0.3276280607404171
-0.48761376328125294	-0.33537962959370615
-0.48755272812500294	-0.3428284989382037
-0.48749169296875294	-0.34996795764758426
-0.48743065781250294	-0.3567918203067756
-0.48736962265625294	-0.363293920720432
-0.48730858750000294	-0.36946839646196183
-0.48724755234375294	-0.3753098491945067
-0.48718651718750294	-0.38081286561094513
-0.48712548203125294	-0.3859724874825934
-0.48706444687500294	-0.3907843597328066
-0.48700341171875294	-0.39524407138340956
-0.48694237656250294	-0.3993473860955553
-0.48688134140625294	-0.4030907071241569
-0.48682030625000294	-0.4064708132122314
-0.48675927109375294	-0.40948457401697047
-0.48669823593750294	-0.4121291706863256
-0.48663720078125294	-0.4144022466580598
-0.48657616562500294	-0.41630173919456936
-0.48651513046875294	-0.4178259005260043
-0.48645409531250294	-0.41897333405262294
-0.48639306015625294	-0.4197429438684562
-0.48633202500000294	-0.42013398407892283
-0.48627098984375294	-0.42014605768444957
-0.48620995468750294	-0.41977910213484365
-0.48614891953125294	-0.4190333790623001
-0.48608788437500294	-0.41790949692551943
-0.48602684921875294	-0.41640841204268764
-0.48596581406250294	-0.41453137399230794
-0.48590477890625294	-0.41228001825220034
-0.48584374375000294	-0.4096563180465049
-0.48578270859375294	-0.40666248029280117
-0.48572167343750294	-0.40330112888627634
-0.48566063828125294	-0.399575290067409
-0.48559960312500294	-0.3954882087959157
-0.48553856796875294	-0.391043364392108
-0.48547753281250294	-0.3862446477283845
-0.48541649765625294	-0.3810964277549046
-0.48535546250000294	-0.37560326769546626
-0.48529442734375294	-0.3697698840815099
-0.48523339218750294	-0.36360136899176027
-0.48517235703125294	-0.3571032454775021
-0.48511132187500294	-0.3502813649118766
-0.48505028671875294	-0.34314169563599145
-0.48498925156250294	-0.3356904804916872
-0.48492821640625294	-0.32793438505812783
-0.48486718125000294	-0.31988029451334976
-0.48480614609375294	-0.3115353039599461
-0.48474511093750294	-0.30290686010282536
-0.48468407578125294	-0.2940027021670031
-0.48462304062500294	-0.2848305942611531
-0.48456200546875294	-0.27539862861588704
-0.48450097031250294	-0.2657155062893638
-0.48443993515625294	-0.25578973496482316
-0.48437890000000294	-0.2456297403650804
-0.48431786484375294	-0.23524490400247602
-0.48425682968750294	-0.224644867917512
-0.48419579453125294	-0.2138386192536992
-0.48413475937500294	-0.20283544769700737
-0.48407372421875294	-0.19164563352580247
-0.48401268906250294	-0.1802794392556652
-0.48395165390625294	-0.1687466291884662
-0.48389061875000294	-0.15705739629106247
-0.48382958359375294	-0.14522234583955246
-0.48376854843750294	-0.1332519524837072
-0.48370751328125294	-0.12115707284353841
-0.48364647812500294	-0.10894873708474083
-0.48358544296875294	-0.09663749458544947
-0.48352440781250294	-0.08423416281070599
-0.48346337265625294	-0.07175017689897747
-0.48340233750000294	-0.05919696234270493
-0.48334130234375294	-0.04658571438760458
-0.48328026718750294	-0.03392726074940129
-0.48321923203125294	-0.021232840883173863
-0.48315819687500294	-0.008514561435736267
-0.48309716171875294	0.00421612069704163
-0.48303612656250294	0.016948352156066757
-0.48297509140625294	0.029670710975926214
-0.48291405625000294	0.042371625875988
-0.48285302109375294	0.05503933825008865
-0.48279198593750294	0.06766228408248022
-0.48273095078125294	0.08022986778790625
-0.48266991562500294	0.09273087386581201
-0.48260888046875294	0.10515315532967487
-0.48254784531250294	0.1174855738964871
-0.48248681015625294	0.12971769500969482
-0.48242577500000294	0.14183835495002023
-0.48236473984375294	0.1538361777883103
-0.48230370468750294	0.16570051306160175
-0.48224266953125294	0.1774207752569877
-0.48218163437500294	0.18898615542896244
-0.48212059921875294	0.2003863625935697
-0.48205956406250294	0.21161112973548477
-0.48199852890625294	0.22264995911926969
-0.48193749375000294	0.23349300612895035
-0.48187645859375294	0.24413071433340555
-0.48181542343750294	0.25455313348682734
-0.48175438828125294	0.26475061793609633
-0.48169335312500294	0.27471416625787515
-0.48163231796875294	0.2844348368655494
-0.48157128281250294	0.29390361321011127
-0.48151024765625294	0.30311165877877766
-0.48144921250000294	0.3120506577626878
-0.48138817734375294	0.32071269707806827
-0.48132714218750294	0.32908978538869005
-0.48126610703125294	0.337174082102489
-0.48120507187500294	0.34495814926223
-0.48114403671875294	0.3524348573350142
-0.48108300156250294	0.35959746847447155
-0.48102196640625294	0.36643948313891134
-0.48096093125000294	0.37295438572539297
-0.48089989609375294	0.3791359736514992
-0.48083886093750294	0.38497871092349856
-0.48077782578125294	0.39047733794960254
-0.48071679062500294	0.39562659298702774
-0.48065575546875294	0.40042158796910515
-0.48059472031250294	0.40485784389221613
-0.48053368515625294	0.40893114415840204
-0.48047265000000294	0.4126377519973076
-0.48041161484375294	0.41597421607687995
-0.48035057968750294	0.4189371322630723
-0.48028954453125294	0.42152356427511845
-0.48022850937500294	0.4237312017249839
-0.48016747421875294	0.425557889844098
-0.48010643906250294	0.42700157394238947
-0.48004540390625294	0.42806075205880173
-0.47998436875000294	0.428734400595709
-0.47992333359375294	0.42902165779645557
-0.47986229843750294	0.42892198263144393
-0.47980126328125294	0.4284352773704101
-0.47974022812500294	0.4275617610731933
-0.47967919296875294	0.42630198978684364
-0.47961815781250294	0.4246569138323413
-0.47955712265625294	0.4226277773484859
-0.47949608750000294	0.4202161270349164
-0.47943505234375294	0.4174239034367548
-0.47937401718750294	0.4142534387359286
-0.47931298203125294	0.4107074683881817
-0.47925194687500294	0.4067888510105524
-0.47919091171875294	0.40250067951453694
-0.47912987656250294	0.397846828701513
-0.47906884140625294	0.39283142590645315
-0.47900780625000294	0.3874584918828828
-0.47894677109375294	0.3817325499467826
-0.47888573593750294	0.37565873142831985
-0.47882470078125294	0.3692423602725049
-0.47876366562500294	0.36248881143249334
-0.47870263046875294	0.35540391116695846
-0.47864159531250294	0.3479939965058181
-0.47858056015625294	0.3402654877900894
-0.47851952500000294	0.332224990945899
-0.47845848984375294	0.32387957487329794
-0.47839745468750294	0.3152366547631363
-0.47833641953125294	0.3063038480184937
-0.47827538437500294	0.29708882424410943
-0.47821434921875294	0.2875995863091337
-0.47815331406250294	0.27784474492146666
-0.47809227890625294	0.2678329119806751
-0.47803124375000294	0.2575726830224404
-0.47797020859375294	0.2470731280777679
-0.47790917343750294	0.23634365076471214
-0.47784813828125294	0.2253937485496366
-0.47778710312500294	0.21423304282138453
-0.47772606796875294	0.2028713524066124
-0.47766503281250294	0.19131870237392307
-0.47760399765625294	0.1795854982025012
-0.47754296250000294	0.16768226289030586
-0.47748192734375294	0.15561928574155912
-0.47742089218750294	0.1434071312334677
-0.47735985703125294	0.13105697778961842
-0.47729882187500294	0.11857999781459469
-0.47723778671875294	0.10598691475214908
-0.47717675156250294	0.0932888012988044
-0.47711571640625294	0.08049737202250674
-0.47705468125000294	0.06762400630886561
-0.47699364609375294	0.05467985571734434
-0.47693261093750294	0.041676642215487385
-0.47687157578125294	0.028626233687589
-0.47681054062500294	0.015539970698025055
-0.47674950546875294	0.0024293611613406306
-0.47668847031250294	-0.010693406616775853
-0.47662743515625294	-0.02381658365576834
-0.47656640000000294	-0.03692884751143365
-0.47650536484375294	-0.050018339252865814
-0.47644432968750294	-0.06307311445785364
-0.47638329453125294	-0.07608147676305166
-0.47632225937500294	-0.08903190831567301
-0.47626122421875294	-0.10191288304794141
-0.47620018906250294	-0.11471263604851309
-0.47613915390625294	-0.12741966209240146
-0.47607811875000294	-0.14002267046763534
-0.47601708359375294	-0.15251027401279643
-0.47595604843750294	-0.16487119539786246
-0.47589501328125294	-0.17709434237853064
-0.47583397812500294	-0.18916878378255872
-0.47577294296875294	-0.2010836417792758
-0.47571190781250294	-0.21282800223332354
-0.47565087265625294	-0.2243911752207594
-0.47558983750000294	-0.23576305830523137
-0.47552880234375294	-0.24693360046881271
-0.47546776718750294	-0.25789222307592785
-0.47540673203125294	-0.2686286659122972
-0.47534569687500294	-0.27913376225061004
-0.47528466171875294	-0.28939854590302083
-0.47522362656250294	-0.29941315395699414
-0.47516259140625294	-0.3091678007188475
-0.47510155625000294	-0.31865418119512307
-0.47504052109375294	-0.32786443146416944
-0.47497948593750294	-0.33678971984416045
-0.47491845078125294	-0.3454212908872579
-0.47485741562500294	-0.353751642532263
-0.47479638046875294	-0.36177356917417725
-0.47473534531250294	-0.36947952972491543
-0.47467431015625294	-0.3768624153953921
-0.47461327500000294	-0.3839155965115133
-0.47455223984375294	-0.39063243312352464
-0.47449120468750294	-0.39700672162195555
-0.47443016953125294	-0.40303294281622726
-0.47436913437500294	-0.40870554251101243
-0.47430809921875294	-0.414019013931222
-0.47424706406250294	-0.41896846488853096
-0.47418602890625294	-0.42354944332913097
-0.47412499375000294	-0.4277577739746907
-0.47406395859375294	-0.43158951509797844
-0.47400292343750294	-0.43504096794984914
-0.47394188828125294	-0.4381088668425692
-0.47388085312500294	-0.4407904253257585
-0.47381981796875294	-0.44308316594022257
-0.47375878281250294	-0.4449847902944966
-0.47369774765625294	-0.4464933725148562
-0.47363671250000294	-0.4476074958105165
-0.47357567734375294	-0.4483260728289913
-0.47351464218750294	-0.44864827361133114
-0.47345360703125294	-0.44857363703852426
-0.47339257187500294	-0.4481020956190746
-0.47333153671875294	-0.4472339456819407
-0.47327050156250294	-0.4459698513560817
-0.47320946640625294	-0.44431081012345186
-0.47314843125000294	-0.44225815098957555
-0.47308739609375294	-0.4398135550690965
-0.47302636093750294	-0.4369791047100575
-0.47296532578125294	-0.4337572834544345
-0.47290429062500294	-0.43015081287415496
-0.47284325546875294	-0.42616275688825406
-0.47278222031250294	-0.42179660412378406
-0.47272118515625294	-0.4170561215684031
-0.47266015000000294	-0.41194552713107985
-0.47259911484375294	-0.40646933828747295
-0.47253807968750294	-0.40063216664441564
-0.47247704453125294	-0.39443918376826564
-0.47241600937500294	-0.3878960389313332
-0.47235497421875294	-0.38100836784214787
-0.47229393906250294	-0.3737821284788631
-0.47223290390625294	-0.366223937039698
-0.47217186875000294	-0.35834053306018476
-0.47211083359375294	-0.3501385889730314
-0.47204979843750294	-0.3416254222138566
-0.47198876328125294	-0.3328089984251007
-0.47192772812500294	-0.3236970382344846
-0.47186669296875294	-0.3142972034494837
-0.47180565781250294	-0.30461806352551896
-0.47174462265625294	-0.29466865257162006
-0.47168358750000294	-0.28445764518462413
-0.47162255234375294	-0.2739938508744627
-0.47156151718750294	-0.2632866987639078
-0.47150048203125294	-0.2523459849996325
-0.47143944687500294	-0.24118155050226608
-0.47137841171875294	-0.2298032352256288
-0.47131737656250294	-0.21822108570025012
-0.47125634140625294	-0.20644546291416815
-0.47119530625000294	-0.1944871489414423
-0.47113427109375294	-0.18235700013521847
-0.47107323593750294	-0.1700655697241506
-0.47101220078125294	-0.1576238755682598
-0.47095116562500294	-0.1450432595137355
-0.47089013046875294	-0.1323348555506047
-0.47082909531250294	-0.11951030187911288
-0.47076806015625294	-0.10658117106544322
-0.47070702500000294	-0.09355871896547462
-0.47064598984375294	-0.08045482980613136
-0.47058495468750294	-0.06728140835079563
-0.47052391953125294	-0.05405022794659955
-0.47046288437500294	-0.04077331665066616
