Time	Frequency
-0.5000525135312444	1.6876449298643454e-24
-0.49999147837499436	1.851401960944825e-24
-0.49993044321874436	2.0124045446318724e-24
-0.49986940806249436	2.1703957120064058e-24
-0.49980837290624436	2.3251282201314907e-24
-0.49974733774999436	2.4763603376998116e-24
-0.49968630259374436	2.623851583923374e-24
-0.49962526743749436	2.7673698858717744e-24
-0.49956423228124436	2.906691496666144e-24
-0.49950319712499436	3.0415973660471374e-24
-0.49944216196874436	3.1718732262961746e-24
-0.49938112681249436	3.297312803528358e-24
-0.49932009165624436	3.417718881594332e-24
-0.49925905649999436	3.532903687130351e-24
-0.49919802134374436	3.642684808637535e-24
-0.49913698618749436	3.746884738762096e-24
-0.49907595103124436	3.845340628526839e-24
-0.49901491587499436	3.9379014320346036e-24
-0.49895388071874436	4.0244171332115605e-24
-0.49889284556249436	4.104745321530717e-24
-0.49883181040624436	4.1787629077093625e-24
-0.49877077524999436	4.246356893264093e-24
-0.49870974009374436	4.3074159214650856e-24
-0.49864870493749436	4.361838982410939e-24
-0.49858766978124436	4.409540692082756e-24
-0.49852663462499436	4.4504484731742456e-24
-0.49846559946874436	4.484496010552042e-24
-0.49840456431249436	4.511624793320574e-24
-0.49834352915624436	4.5317912335322796e-24
-0.49828249399999436	4.544964388780005e-24
-0.49822145884374436	4.5511219266402744e-24
-0.49816042368749436	4.55025124413724e-24
-0.49809938853124436	4.5423519600835005e-24
-0.49803835337499436	4.527436161004634e-24
-0.49797731821874436	4.5055264855551135e-24
-0.49791628306249436	4.476654915655e-24
-0.49785524790624436	4.440863761766002e-24
-0.49779421274999436	4.398209423171975e-24
-0.49773317759374436	4.348760483963761e-24
-0.49767214243749436	4.2925902097954514e-24
-0.49761110728124436	4.229783006871898e-24
-0.49755007212499436	4.16044087721503e-24
-0.49748903696874436	4.084671891241495e-24
-0.49742800181249436	4.002590516737693e-24
-0.49736696665624436	3.914326376364029e-24
-0.49730593149999436	3.820018168275477e-24
-0.49724489634374436	3.719811638814752e-24
-0.49718386118749436	3.6138638623041805e-24
-0.49712282603124436	3.50234143292601e-24
-0.49706179087499436	3.385417882601595e-24
-0.49700075571874436	3.2632757467684e-24
-0.49693972056249436	3.136107549195347e-24
-0.49687868540624436	3.004113225404168e-24
-0.49681765024999436	2.867498766688498e-24
-0.49675661509374436	2.7264769684423865e-24
-0.49669557993749436	2.58127141047404e-24
-0.49663454478124436	2.43211094342618e-24
-0.49657350962499436	2.2792264467292983e-24
-0.49651247446874436	2.122860265913772e-24
-0.49645143931249436	1.963259745020942e-24
-0.49639040415624436	1.8006726744089408e-24
-0.49632936899999436	1.6353545711029651e-24
-0.49626833384374436	1.4675672034507424e-24
-0.49620729868749436	1.2975778199230455e-24
-0.49614626353124436	1.1256510272968514e-24
-0.49608522837499436	9.520501216034492e-25
-0.49602419321874436	7.770564631500191e-25
-0.49596315806249436	6.009518014891175e-25
-0.49590212290624436	4.2400274140167685e-25
-0.49584108774999436	2.464878034596136e-25
-0.49578005259374436	6.869438711475456e-26
-0.49571901743749436	-1.0910176631495123e-25
-0.49565798228124436	-2.866229856360701e-25
-0.49559694712499436	-4.635824086166243e-25
-0.49553591196874436	-6.397017464885333e-25
-0.49547487681249436	-8.147109057806165e-25
-0.49541384165624436	-9.883314920923167e-25
-0.49535280649999436	-1.1602826145905969e-24
-0.49529177134374436	-1.3302952912614024e-24
-0.49523073618749436	-1.4981066655156859e-24
-0.49516970103124436	-1.663450336573656e-24
-0.49510866587499436	-1.8260616655926473e-24
-0.49504763071874436	-1.9856836576169056e-24
-0.49498659556249436	-2.142066676919121e-24
-0.49492556040624436	-2.2949656932216547e-24
-0.49486452524999436	-2.444137731092925e-24
-0.49480349009374436	-2.589345121784979e-24
-0.49474245493749436	-2.7303597457284047e-24
-0.49468141978124436	-2.866959809747762e-24
-0.49462038462499436	-2.9989278406849387e-24
-0.49455934946874436	-3.126056915194304e-24
-0.49449831431249436	-3.248148141865823e-24
-0.49443727915624436	-3.3650057900213605e-24
-0.49437624399999436	-3.476445091092628e-24
-0.49431520884374436	-3.58229158191865e-24
-0.49425417368749436	-3.682377329928735e-24
-0.49419313853124436	-3.776546296346579e-24
-0.49413210337499436	-3.864649217256619e-24
-0.49407106821874436	-3.9465444864944504e-24
-0.49401003306249436	-4.022105728000338e-24
-0.49394899790624436	-4.091215108717497e-24
-0.49388796274999436	-4.1537615452867604e-24
-0.49382692759374436	-4.2096459298384144e-24
-0.49376589243749436	-4.25878223421409e-24
-0.49370485728124436	-4.30109457196636e-24
-0.49364382212499436	-4.3365155309646e-24
-0.49358278696874436	-4.364989066797692e-24
-0.49352175181249436	-4.386471279632248e-24
-0.49346071665624436	-4.4009297615459216e-24
-0.49339968149999436	-4.408343480605627e-24
-0.49333864634374436	-4.408701434681875e-24
-0.49327761118749436	-4.402003253152956e-24
-0.49321657603124436	-4.388261338085817e-24
-0.49315554087499436	-4.367499205122607e-24
-0.49309450571874436	-4.339751038348134e-24
-0.49303347056249436	-4.305062626900614e-24
-0.49297243540624436	-4.2634907030802734e-24
-0.49291140024999436	-4.215102406579311e-24
-0.49285036509374436	-4.1599750379797655e-24
-0.49278932993749436	-4.0981995826878306e-24
-0.49272829478124436	-4.029877483052084e-24
-0.49266725962499436	-3.95511594094402e-24
-0.49260622446874436	-3.87403536377478e-24
-0.49254518931249436	-3.786769357555004e-24
-0.49248415415624436	-3.6934585410313136e-24
-0.49242311899999436	-3.5942513215294955e-24
-0.49236208384374436	-3.48930626503674e-24
-0.49230104868749436	-3.378795528742641e-24
-0.49224001353124436	-3.2628987985716364e-24
-0.49217897837499436	-3.1417991070754824e-24
-0.49211794321874436	-3.0156914883861814e-24
-0.49205690806249436	-2.884778961892901e-24
-0.49199587290624436	-2.7492716144938143e-24
-0.49193483774999436	-2.6093939734529627e-24
-0.49187380259374436	-2.4653700549226977e-24
-0.49181276743749436	-2.3174220364354288e-24
-0.49175173228124436	-2.1657917669026315e-24
-0.49169069712499436	-2.0107320036885266e-24
-0.49162966196874436	-1.852488768842233e-24
-0.49156862681249436	-1.6913124357193294e-24
-0.49150759165624436	-1.5274649835846814e-24
-0.49144655649999436	-1.3612109609681138e-24
-0.49138552134374436	-1.1928182273407398e-24
-0.49132448618749436	-1.022560555920485e-24
-0.49126345103124436	-8.50711675667645e-25
-0.49120241587499436	-6.7754346859407775e-25
-0.49114138071874436	-5.033369170439718e-25
-0.49108034556249436	-3.283829068131746e-25
-0.49101931040624436	-1.5295862525208902e-25
-0.49095827524999436	2.2663314053639336e-26
-0.49089724009374436	1.9819180412566154e-25
-0.49083620493749436	3.733374051397831e-25
-0.49077516978124436	5.478193837749693e-25
-0.49071413462499436	7.213580427560863e-25
-0.49065309946874436	8.936788392642128e-25
-0.49059206431249436	1.0644993139858916e-24
-0.49053102915624436	1.2335332639590286e-24
-0.49046999399999436	1.4005141206436442e-24
-0.49040895884374436	1.5651782754623689e-24
-0.49034792368749436	1.727250732486313e-24
-0.49028688853124436	1.8864677609627534e-24
-0.49022585337499436	2.0425764777383983e-24
-0.49016481821874436	2.1953217915504494e-24
-0.49010378306249436	2.3444532940874977e-24
-0.49004274790624436	2.4897301705581424e-24
-0.48998171274999436	2.6309186231444655e-24
-0.48992067759374436	2.7677875041119245e-24
-0.48985964243749436	2.9001107198763706e-24
-0.48979860728124436	3.0276746240051082e-24
-0.48973757212499436	3.150274714916074e-24
-0.48967653696874436	3.2677100605814756e-24
-0.48961550181249436	3.379784740680633e-24
-0.48955446665624436	3.486314386905547e-24
-0.48949343149999436	3.587129697048466e-24
-0.48943239634374436	3.68206663914078e-24
-0.48937136118749436	3.770964786692116e-24
-0.48931032603124436	3.853677030493817e-24
-0.48924929087499436	3.930069799880271e-24
-0.48918825571874436	4.000016933172163e-24
-0.48912722056249436	4.063400695653278e-24
-0.48906618540624436	4.120116834900379e-24
-0.48900515024999436	4.170071318309667e-24
-0.48894411509374436	4.2131788564330014e-24
-0.48888307993749436	4.249366377873578e-24
-0.48882204478124436	4.2785724149798365e-24
-0.48876100962499436	4.300746990379277e-24
-0.48869997446874436	4.315851321818018e-24
-0.48863893931249436	4.323856344902203e-24
-0.48857790415624436	4.324745141506521e-24
-0.48851686899999436	4.318513569888022e-24
-0.48845583384374436	4.305168036395696e-24
-0.48839479868749436	4.284726370419935e-24
-0.48833376353124436	4.2572183201906616e-24
-0.48827272837499436	4.222683761048884e-24
-0.48821169321874436	4.18117430948581e-24
-0.48815065806249436	4.132755036976773e-24
-0.48808962290624436	4.077499958456653e-24
-0.48802858774999436	4.015492803269801e-24
-0.48796755259374436	3.946832169800956e-24
-0.48790651743749436	3.871626092304985e-24
-0.48784548228124436	3.7899890055019986e-24
-0.48778444712499436	3.70205034772413e-24
-0.48772341196874436	3.607951632867156e-24
-0.48766237681249436	3.507838809518729e-24
-0.48760134165624436	3.401869383576995e-24
-0.48754030649999436	3.290212831516654e-24
-0.48747927134374436	3.1730455636053634e-24
-0.48741823618749436	3.050552999029318e-24
-0.48735720103124436	2.9229307556296493e-24
-0.48729616587499436	2.790383503833103e-24
-0.48723513071874436	2.6531197318482053e-24
-0.48717409556249436	2.511357071931803e-24
-0.48711306040624436	2.365325579073316e-24
-0.48705202524999436	2.2152563920901952e-24
-0.48699099009374436	2.0613887861714693e-24
-0.48692995493749436	1.9039727234979076e-24
-0.48686891978124436	1.74325761010643e-24
-0.48680788462499436	1.579497994998309e-24
-0.48674684946874436	1.412957103907115e-24
-0.48668581431249436	1.243905494489742e-24
-0.48662477915624436	1.0726176852977392e-24
-0.48656374399999436	8.993649216082514e-25
-0.48650270884374436	7.2442075684149175e-25
-0.48644167368749436	5.480669999301175e-25
-0.48638063853124436	3.705926328155313e-25
-0.48631960337499436	1.9229031442568578e-25
-0.48625856821874436	1.3440760594539706e-26
-0.48619753306249436	-1.6568022625859663e-25
-0.48613649790624436	-3.4477360746256676e-25
-0.48607546274999436	-5.235405754414945e-25
-0.48601442759374436	-7.017027777474898e-25
-0.48595339243749436	-8.789729803278468e-25
-0.48589235728124436	-1.0550599704842472e-24
-0.48583132212499436	-1.2296834613457971e-24
-0.48577028696874436	-1.4025591455251433e-24
-0.48570925181249436	-1.5734029078444883e-24
-0.48564821665624436	-1.7419393314266003e-24
-0.48558718149999436	-1.9078966022788146e-24
-0.48552614634374436	-2.071007882843268e-24
-0.48546511118749436	-2.231006218463517e-24
-0.48540407603124436	-2.387624422839437e-24
-0.48534304087499436	-2.5406116427003655e-24
-0.48528200571874436	-2.6897257074428168e-24
-0.48522097056249436	-2.83471764202747e-24
-0.48515993540624436	-2.9753463944198333e-24
-0.48509890024999436	-3.1113856965039455e-24
-0.48503786509374436	-3.2426155890894368e-24
-0.48497682993749436	-3.368820476637555e-24
-0.48491579478124436	-3.489789306828084e-24
-0.48485475962499436	-3.605323629130814e-24
-0.48479372446874436	-3.7152367120230544e-24
-0.48473268931249436	-3.819346235022065e-24
-0.48467165415624436	-3.9174793936235144e-24
-0.48461061899999436	-4.0094729676630066e-24
-0.48454958384374436	-4.095173609499576e-24
-0.48448854868749436	-4.174440690369997e-24
-0.48442751353124436	-4.247142090814497e-24
-0.48436647837499436	-4.313153707176316e-24
-0.48430544321874436	-4.372364175330694e-24
-0.48424440806249436	-4.4246740135536255e-24
-0.48418337290624436	-4.4699932691768724e-24
-0.48412233774999436	-4.508244397600018e-24
-0.48406130259374436	-4.5393608778283605e-24
-0.48400026743749436	-4.563285351887874e-24
-0.48393923228124436	-4.5799738422504376e-24
-0.48387819712499436	-4.589395873437902e-24
-0.48381716196874436	-4.591530279656445e-24
-0.48375612681249436	-4.58636679253377e-24
-0.48369509165624436	-4.573908769054766e-24
-0.48363405649999436	-4.554171214395645e-24
-0.48357302134374436	-4.527179607257617e-24
-0.48351198618749436	-4.4929713883157505e-24
-0.48345095103124436	-4.451596768267453e-24
-0.48338991587499436	-4.403117401049367e-24
-0.48332888071874436	-4.3476045945763494e-24
-0.48326784556249436	-4.285141355439354e-24
-0.48320681040624436	-4.215824538458354e-24
-0.48314577524999436	-4.139759595806685e-24
-0.48308474009374436	-4.057062028332678e-24
-0.48302370493749436	-3.9678623329610164e-24
-0.48296266978124436	-3.872298469811393e-24
-0.48290163462499436	-3.770515466239579e-24
-0.48284059946874436	-3.662673312937846e-24
-0.48277956431249436	-3.5489431717222396e-24
-0.48271852915624436	-3.429501853371973e-24
-0.48265749399999436	-3.3045351780536405e-24
-0.48259645884374436	-3.174240042104376e-24
-0.48253542368749436	-3.0388217490231393e-24
-0.48247438853124436	-2.8984927456402286e-24
-0.48241335337499436	-2.7534736737164605e-24
-0.48235231821874436	-2.6039964113078638e-24
-0.48229128306249436	-2.4502979745776882e-24
-0.48223024790624436	-2.292614592794371e-24
-0.48216921274999436	-2.1311974040784135e-24
-0.48210817759374436	-1.966310357875632e-24
-0.48204714243749436	-1.7982102947323102e-24
-0.48198610728124436	-1.6271579593400958e-24
-0.48192507212499436	-1.4534298753097858e-24
-0.48186403696874436	-1.2773064384464904e-24
-0.48180300181249436	-1.0990627388236913e-24
-0.48174196665624436	-9.189783503432686e-25
-0.48168093149999436	-7.37346174451244e-25
-0.48161989634374436	-5.544572343727496e-25
-0.48155886118749436	-3.7059782150955763e-25
-0.48149782603124436	-1.8606101334175163e-25
-0.48143679087499436	-1.1416280461352616e-27
-0.48137575571874436	1.8386260630788345e-25
-0.48131472056249436	3.6865527077719784e-25
-0.48125368540624436	5.529474768308412e-25
-0.48119265024999436	7.3644276856654035e-25
-0.48113161509374436	9.188427443944078e-25
-0.48107057993749436	1.099859229615608e-24
-0.48100954478124436	1.2792062445896855e-24
-0.48094850962499436	1.4565950087950925e-24
-0.48088747446874436	1.6317373851661335e-24
-0.48082643931249436	1.8043540673217965e-24
-0.48076540415624436	1.974172585863021e-24
-0.48070436899999436	2.140921151780547e-24
-0.48064333384374436	2.3043301075399817e-24
-0.48058229868749436	2.464135393539679e-24
-0.48052126353124436	2.6200822980735856e-24
-0.48046022837499436	2.7719240363979856e-24
-0.48039919321874436	2.919416564964567e-24
-0.48033815806249436	3.0623194971251124e-24
-0.48027712290624436	3.2004043543167552e-24
-0.48021608774999436	3.3334524847573416e-24
-0.48015505259374436	3.461248186457272e-24
-0.48009401743749436	3.583585461798142e-24
-0.48003298228124436	3.700270631558387e-24
-0.47997194712499436	3.81111641192528e-24
-0.47991091196874436	3.9159418667962955e-24
-0.47984987681249436	4.014577267033939e-24
-0.47978884165624436	4.1068668945359104e-24
-0.47972780649999436	4.192665467756078e-24
-0.47966677134374436	4.271833333804885e-24
-0.47960573618749436	4.344239513845671e-24
-0.47954470103124436	4.409768530969772e-24
-0.47948366587499436	4.4683178905333944e-24
-0.47942263071874436	4.5197938454241176e-24
-0.47936159556249436	4.564112844295384e-24
-0.47930056040624436	4.601202331815438e-24
-0.47923952524999436	4.63100321127116e-24
-0.47917849009374436	4.653469164999293e-24
-0.47911745493749436	4.668563905318164e-24
-0.47905641978124436	4.676263003958129e-24
-0.47899538462499436	4.676554872510703e-24
-0.47893434946874436	4.6694392378263786e-24
-0.47887331431249436	4.6549274201899506e-24
-0.47881227915624436	4.6330441673439145e-24
-0.47875124399999436	4.603825522193436e-24
-0.47869020884374436	4.567318200264761e-24
-0.47862917368749436	4.523581820794332e-24
-0.47856813853124436	4.472687999256138e-24
-0.47850710337499436	4.414718706286429e-24
-0.47844606821874436	4.349768592545e-24
-0.47838503306249436	4.27794470202519e-24
-0.47832399790624436	4.199361617566192e-24
-0.47826296274999436	4.11414582858987e-24
-0.47820192759374436	4.0224379572830984e-24
-0.47814089243749436	3.924388012308503e-24
-0.47807985728124436	3.820153975063994e-24
-0.47801882212499436	3.709901921222869e-24
-0.47795778696874436	3.593813191695313e-24
-0.47789675181249436	3.47208093433761e-24
-0.47783571665624436	3.344897719376716e-24
-0.47777468149999436	3.2124673744442898e-24
-0.47771364634374436	3.0750103960142065e-24
-0.47765261118749436	2.932749996374738e-24
-0.47759157603124436	2.785914755391985e-24
-0.47753054087499436	2.634744410689644e-24
-0.47746950571874436	2.4794846517972436e-24
-0.47740847056249436	2.3203858383258694e-24
-0.47734743540624436	2.1577074484732867e-24
-0.47728640024999436	1.9917168380259223e-24
-0.47722536509374436	1.8226835733160735e-24
-0.47716432993749436	1.6508785067167892e-24
-0.47710329478124436	1.4765803970046578e-24
-0.47704225962499436	1.3000770302539013e-24
-0.47698122446874436	1.1216551214177027e-24
-0.47692018931249436	9.416039829968775e-25
-0.47685915415624436	7.602165427901933e-25
-0.47679811899999436	5.777835327836849e-25
-0.47673708384374436	3.9460627380249127e-25
-0.47667604868749436	2.1098779404771546e-25
-0.47661501353124436	2.7218829466405206e-26
-0.47655397837499436	-1.564022545742993e-25
-0.47649294321874436	-3.395700879437273e-25
-0.47643190806249436	-5.2198807281604105e-25
-0.47637087290624436	-7.033621646114725e-25
-0.47630983774999436	-8.833954597304102e-25
-0.47624880259374436	-1.0617934799822493e-24
-0.47618776743749436	-1.2382682548577749e-24
-0.47612673228124436	-1.412531055177275e-24
-0.47606569712499436	-1.5842938182028633e-24
-0.47600466196874436	-1.7532816643704573e-24
-0.47594362681249436	-1.919222841758946e-24
-0.47588259165624436	-2.08183925622811e-24
-0.47582155649999436	-2.2408646517243743e-24
-0.47576052134374436	-2.396047281782265e-24
-0.47569948618749436	-2.5471329400962653e-24
-0.47563845103124436	-2.6938701186832038e-24
-0.47557741587499436	-2.836021788236098e-24
-0.47551638071874436	-2.9733597914992202e-24
-0.47545534556249436	-3.1056566921981598e-24
-0.47539431040624436	-3.2326946278258743e-24
-0.47533327524999436	-3.354271537511026e-24
-0.47527224009374436	-3.470188937190964e-24
-0.47521120493749436	-3.580253094113132e-24
-0.47515016978124436	-3.684286165550091e-24
-0.47508913462499436	-3.7821220640234435e-24
-0.47502809946874436	-3.873599771866104e-24
-0.47496706431249436	-3.958567692096106e-24
-0.47490602915624436	-4.036888061269189e-24
-0.47484499399999436	-4.1084350125692545e-24
-0.47478395884374436	-4.173093059769861e-24
-0.47472292368749436	-4.2307556368444616e-24
-0.47466188853124436	-4.281326713019823e-24
-0.47460085337499436	-4.324725197566846e-24
-0.47453981821874436	-4.360883161342772e-24
-0.47447878306249436	-4.389741638757476e-24
-0.47441774790624436	-4.4112521767575416e-24
-0.47435671274999436	-4.425380387333288e-24
-0.47429567759374436	-4.432104877757813e-24
-0.47423464243749436	-4.431415328563688e-24
-0.47417360728124436	-4.423313580824859e-24
-0.47411257212499436	-4.407814060452848e-24
-0.47405153696874436	-4.384942224437357e-24
-0.47399050181249436	-4.354736393345073e-24
-0.47392946665624436	-4.317248563194234e-24
-0.47386843149999436	-4.272540444680892e-24
-0.47380739634374436	-4.220685246998853e-24
-0.47374636118749436	-4.1617697900522066e-24
-0.47368532603124436	-4.0958927588112524e-24
-0.47362429087499436	-4.0231630176339484e-24
-0.47356325571874436	-3.943700072931822e-24
-0.47350222056249436	-3.8576360368658175e-24
-0.47344118540624436	-3.765113009569434e-24
-0.47338015024999436	-3.6662860681291494e-24
-0.47331911509374436	-3.561318906629179e-24
-0.47325807993749436	-3.450380540738048e-24
-0.47319704478124436	-3.3336582490857626e-24
-0.47313600962499436	-3.211348269134529e-24
-0.47307497446874436	-3.0836489572598652e-24
-0.47301393931249436	-2.95077201079528e-24
-0.47295290415624436	-2.8129373762224808e-24
-0.47289186899999436	-2.6703727174698065e-24
-0.47283083384374436	-2.523319121891752e-24
-0.47276979868749436	-2.372019301323457e-24
-0.47270876353124436	-2.216716070912841e-24
-0.47264772837499436	-2.0576701655864185e-24
-0.47258669321874436	-1.8951522267266864e-24
-0.47252565806249436	-1.7294263596421358e-24
-0.47246462290624436	-1.5607655664377113e-24
-0.47240358774999436	-1.3894552153379794e-24
-0.47234255259374436	-1.21577427072717e-24
