Time	Frequency
-0.500024795531246	-0.4688499403029129
-0.499963760374996	-0.4708817733954978
-0.499902725218746	-0.47233856813368247
-0.499841690062496	-0.47321853425447824
-0.499780654906246	-0.47352051713347937
-0.499719619749996	-0.4732441304886335
-0.499658584593746	-0.47238972459741396
-0.499597549437496	-0.47095825526040774
-0.499536514281246	-0.4689514107955802
-0.499475479124996	-0.46637161052884535
-0.499414443968746	-0.46322184587849025
-0.499353408812496	-0.4595059297290329
-0.499292373656246	-0.4552284452804005
-0.499231338499996	-0.4503942921635443
-0.499170303343746	-0.44500921858761355
-0.499109268187496	-0.43908008019361006
-0.499048233031246	-0.43261384881824766
-0.498987197874996	-0.4256179392384031
-0.498926162718746	-0.4181010554030126
-0.498865127562496	-0.410072433226798
-0.498804092406246	-0.4015415629614389
-0.498743057249996	-0.39251864778671497
-0.498682022093746	-0.38301456995171534
-0.498620986937496	-0.37304077786915046
-0.498559951781246	-0.36260954007804647
-0.498498916624996	-0.351733581361289
-0.498437881468746	-0.34042541312479296
-0.498376846312496	-0.3286987040072345
-0.498315811156246	-0.3165684286393479
-0.498254775999996	-0.3040489515419786
-0.498193740843746	-0.29115484875656145
-0.498132705687496	-0.27790209786910924
-0.498071670531246	-0.2643069312291394
-0.498010635374996	-0.25038555619379366
-0.497949600218746	-0.23615486933980717
-0.497888565062496	-0.22163220164329211
-0.497827529906246	-0.20683504720833173
-0.497766494749996	-0.19178122712799942
-0.497705459593746	-0.17648920000442983
-0.497644424437496	-0.16097774356053574
-0.497583389281246	-0.14526519101983898
-0.497522354124996	-0.12937049255552543
-0.497461318968746	-0.11331357198185674
-0.497400283812496	-0.09711373443398438
-0.497339248656246	-0.08079028334088219
-0.497278213499996	-0.064363448696119
-0.497217178343746	-0.04785312278576104
-0.497156143187496	-0.03127909341805392
-0.497095108031246	-0.014661931946949733
-0.497034072874996	0.001978126643158729
-0.496973037718746	0.018621271473612373
-0.496912002562496	0.03524697228330941
-0.496850967406246	0.05183467468850633
-0.496789932249996	0.06836455552647679
-0.496728897093746	0.08481651188449701
-0.496667861937496	0.10117010698145265
-0.496606826781246	0.11740544208303563
-0.496545791624996	0.13350301157371158
-0.496484756468746	0.14944299717650678
-0.496423721312496	0.16520552777062222
-0.496362686156246	0.18077178482384956
-0.496301650999996	0.19612289958440748
-0.496240615843746	0.21123938827990313
-0.496179580687496	0.2261029608629383
-0.496118545531246	0.240695883942818
-0.496057510374996	0.2549998390479048
-0.495996475218746	0.2689970739951367
-0.495935440062496	0.2826708230182046
-0.495874404906246	0.29600424825595234
-0.495813369749996	0.30898045590195433
-0.495752334593746	0.3215836872590324
-0.495691299437496	0.33379892280246504
-0.495630264281246	0.34561079752585877
-0.495569229124996	0.35700418378411064
-0.495508193968746	0.36796514301769134
-0.495447158812496	0.37848077244768075
-0.495386123656246	0.38853802139993
-0.495325088499996	0.398123642392281
-0.495264053343746	0.4072257225964208
-0.495203018187496	0.4158334704753925
-0.495141983031246	0.4239362242044749
-0.495080947874996	0.4315236085345038
-0.495019912718746	0.438585846050454
-0.494958877562496	0.4451141163958049
-0.494897842406246	0.4511004426195649
-0.494836807249996	0.45653732634660465
-0.494775772093746	0.4614176819237413
-0.494714736937496	0.4657349984327189
-0.494653701781246	0.46948379986670535
-0.494592666624996	0.47265951281393337
-0.494531631468746	0.4752578737511935
-0.494470596312496	0.47727514412968036
-0.494409561156246	0.4787085701142166
-0.494348525999996	0.4795562123026889
-0.494287490843746	0.479816692814929
-0.494226455687496	0.4794892803148877
-0.494165420531246	0.4785740213904625
-0.494104385374996	0.47707169161332746
-0.494043350218746	0.4749837732268593
-0.493982315062496	0.47231248551877103
-0.493921279906246	0.46906074126493796
-0.493860244749996	0.4652321004508265
-0.493799209593746	0.46083080550497696
-0.493738174437496	0.4558618946286064
-0.493677139281246	0.4503312161639961
-0.493616104124996	0.4442451378537203
-0.493555068968746	0.4376104987549296
-0.493494033812496	0.43043500662570006
-0.493432998656246	0.4227272340491514
-0.493371963499996	0.4144963796632947
-0.493310928343746	0.4057520175582913
-0.493249893187496	0.39650407906356744
-0.493188858031246	0.38676356187012934
-0.493127822874996	0.37654248980831617
-0.493066787718746	0.36585297951290396
-0.493005752562496	0.3547072489869709
-0.492944717406246	0.3431183804409536
-0.492883682249996	0.3311006285508509
-0.492822647093746	0.31866863188321054
-0.492761611937496	0.3058366978035417
-0.492700576781246	0.29261990508752245
-0.492639541624996	0.2790347158884359
-0.492578506468746	0.26509737776082365
-0.492517471312496	0.25082393358341315
-0.492456436156246	0.23623170999895376
-0.492395400999996	0.22133867513800115
-0.492334365843746	0.20616273338812577
-0.492273330687496	0.19072182721910916
-0.492212295531246	0.1750339504187797
-0.492151260374996	0.1591183134474446
-0.492090225218746	0.14299515248586916
-0.492029190062496	0.12668345453490287
-0.491968154906246	0.11020165115235969
-0.491907119749996	0.09357016611597935
-0.491846084593746	0.07681001608777306
-0.491785049437496	0.059941038207354386
-0.491724014281246	0.04298325050022833
-0.491662979124996	0.025957061440027497
-0.491601943968746	0.008883207851792857
-0.491540908812496	-0.008217096067266927
-0.491479873656246	-0.0253234652114089
-0.491418838499996	-0.04241564492180293
-0.491357803343746	-0.05947254828057425
-0.491296768187496	-0.07647321616260465
-0.491235733031246	-0.09339711890916341
-0.491174697874996	-0.11022407129408367
-0.491113662718746	-0.12693358940302965
-0.491052627562496	-0.14350483460482333
-0.490991592406246	-0.15991780409476453
-0.490930557249996	-0.17615302512850806
-0.490869522093746	-0.1921906535530768
-0.490808486937496	-0.2080104781874991
-0.490747451781246	-0.22359318093871916
-0.490686416624996	-0.23892080528742393
-0.490625381468746	-0.2539744577072299
-0.490564346312496	-0.2687345526278422
-0.490503311156246	-0.28318355196665423
-0.490442275999996	-0.29730477589054766
-0.490381240843746	-0.3110802868321435
-0.490320205687496	-0.32449264960918905
-0.490259170531246	-0.33752597230815046
-0.490198135374996	-0.35016432064584385
-0.490137100218746	-0.36239203615960325
-0.490076065062496	-0.37419433336354746
-0.490015029906246	-0.38555640865614804
-0.489953994749996	-0.3964640695180045
-0.489892959593746	-0.40690428801498335
-0.489831924437496	-0.41686429229226774
-0.489770889281246	-0.4263314483387572
-0.489709854124996	-0.4352939313413202
-0.489648818968746	-0.4437409043534766
-0.489587783812496	-0.45166195246704416
-0.489526748656246	-0.4590470090228553
-0.489465713499996	-0.46588693278858173
-0.489404678343746	-0.47217322146387647
-0.489343643187496	-0.4778978599776834
-0.489282608031246	-0.48305381768177175
-0.489221572874996	-0.48763463516001815
-0.489160537718746	-0.49163424203283984
-0.489099502562496	-0.4950475935594902
-0.489038467406246	-0.4978704753444486
-0.488977432249996	-0.5000990898188344
-0.488916397093746	-0.5017303687289981
-0.488855361937496	-0.5027621525171814
-0.488794326781246	-0.5031929695550358
-0.488733291624996	-0.5030219859925341
-0.488672256468746	-0.5022491308272995
-0.488611221312496	-0.5008750985506121
-0.488550186156246	-0.4989013075755565
-0.488489150999996	-0.49632987793734573
-0.488428115843746	-0.49316365134174006
-0.488367080687496	-0.4894062757993833
-0.488306045531246	-0.48506205220136983
-0.488245010374996	-0.48013593271154165
-0.488183975218746	-0.474633712972872
-0.488122940062496	-0.468561812316756
-0.488061904906246	-0.46192735299026705
-0.488000869749996	-0.45473823028830535
-0.487939834593746	-0.4470028554037694
-0.487878799437496	-0.43873037607778564
-0.487817764281246	-0.42993063382188573
-0.487756729124996	-0.4206141547884942
-0.487695693968746	-0.41079213100151946
-0.487634658812496	-0.4004760460538612
-0.487573623656246	-0.38967821170168687
-0.487512588499996	-0.37841180217912546
-0.487451553343746	-0.36669024535700045
-0.487390518187496	-0.35452747097876264
-0.487329483031246	-0.3419380538935503
-0.487268447874996	-0.328937220265511
-0.487207412718746	-0.3155406592053763
-0.487146377562496	-0.30176429708063857
-0.487085342406246	-0.28762479511565847
-0.487024307249996	-0.2731393407022357
-0.486963272093746	-0.25832519273556365
-0.486902236937496	-0.24320013610950666
-0.486841201781246	-0.22778260236347606
-0.486780166624996	-0.21209136943522158
-0.486719131468746	-0.19614516358588685
-0.486658096312496	-0.1799630170060317
-0.486597061156246	-0.1635648654307622
-0.486536025999996	-0.14697072510807715
-0.486474990843746	-0.13020016368740928
-0.486413955687496	-0.1132734231595633
-0.486352920531246	-0.09621167079181107
-0.486291885374996	-0.07903551141110066
-0.486230850218746	-0.06176501921128487
-0.486169815062496	-0.044421237925701976
-0.486108779906246	-0.0270261495349915
-0.486047744749996	-0.009600492662407697
-0.485986709593746	0.00783562682380758
-0.485925674437496	0.025259963811731182
-0.485864639281246	0.042650939285057476
-0.485803604124996	0.05998877122452467
-0.485742568968746	0.07725192443088595
-0.485681533812496	0.09441849943013453
-0.485620498656246	0.11146834705500454
-0.485559463499996	0.128381243097358
-0.485498428343746	0.14513600797855655
-0.485437393187496	0.16171185032046603
-0.485376358031246	0.17808899852120325
-0.485315322874996	0.19424781657438642
-0.485254287718746	0.21016849001302626
-0.485193252562496	0.22583138041818915
-0.485132217406246	0.24121725326681012
-0.485071182249996	0.2563075378590181
-0.485010147093746	0.2710840745487143
-0.484949111937496	0.28552876777984204
-0.484888076781246	0.29962385902968586
-0.484827041624996	0.31335195778605923
-0.484766006468746	0.3266963278262013
-0.484704971312496	0.3396411586879951
-0.484643936156246	0.3521705842724224
-0.484582900999996	0.3642687765528792
-0.484521865843746	0.37592098853266054
-0.484460830687496	0.38711343711138974
-0.484399795531246	0.39783252358326027
-0.484338760374996	0.4080646352670496
-0.484277725218746	0.41779728418044754
-0.484216690062496	0.42701901499398254
-0.484155654906246	0.43571832951660294
-0.484094619749996	0.4438843587146714
-0.484033584593746	0.4515073620003238
-0.483972549437496	0.4585781300056955
-0.483911514281246	0.4650877624725637
-0.483850479124996	0.4710281986693881
-0.483789443968746	0.47639238785018284
-0.483728408812496	0.48117379895532664
-0.483667373656246	0.4853664765195733
-0.483606338499996	0.48896524321537926
-0.483545303343746	0.49196567964825194
-0.483484268187496	0.49436419280499094
-0.483423233031246	0.4961578891000407
-0.483362197874996	0.49734448918425084
-0.483301162718746	0.49792249291476115
-0.483240127562496	0.49789127307963327
-0.483179092406246	0.49725092664874215
-0.483118057249996	0.4960021737608433
-0.483057022093746	0.4941465067183209
-0.482995986937496	0.49168627153743133
-0.482934951781246	0.4886245482497828
-0.482873916624996	0.4849651033100039
-0.482812881468746	0.4807123529684758
-0.482751846312496	0.47587144593448555
-0.482690811156246	0.4704485488687007
-0.482629775999996	0.46445044392350465
-0.482568740843746	0.45788425871912064
-0.482507705687496	0.4507580418868527
-0.482446670531246	0.44308068423325925
-0.482385635374996	0.43486173784156534
-0.482324600218746	0.4261113820512006
-0.482263565062496	0.41684027104390065
-0.482202529906246	0.4070596454664512
-0.482141494749996	0.39678156029644956
-0.482080459593746	0.3860192919725144
-0.482019424437496	0.37478603067422833
-0.481958389281246	0.363094649994722
-0.481897354124996	0.3509601473249283
-0.481836318968746	0.33839826386141736
-0.481775283812496	0.325423652113722
-0.481714248656246	0.312052240381696
-0.481653213499996	0.29830109733170185
-0.481592178343746	0.2841868052112125
-0.481531143187496	0.26972681555080613
-0.481470108031246	0.25493953606862746
-0.481409072874996	0.23984283276480578
-0.481348037718746	0.2244548457122158
-0.481287002562496	0.2087952156001873
-0.481225967406246	0.19288374698054225
-0.481164932249996	0.17673950775347375
-0.481103897093746	0.1603821776706208
-0.481042861937496	0.1438324658595556
-0.480981826781246	0.12711109248020813
-0.480920791624996	0.11023845122916663
-0.480859756468746	0.09323528134088611
-0.480798721312496	0.07612281612609961
-0.480737686156246	0.05892236092416018
-0.480676650999996	0.041655230657853176
-0.480615615843746	0.02434280944473778
-0.480554580687496	0.007006355452326115
-0.480493545531246	-0.010332693532863887
-0.480432510374996	-0.0276521916584141
-0.480371475218746	-0.04493073789091464
-0.480310440062496	-0.06214771453582273
-0.480249404906246	-0.07928139367549314
-0.480188369749996	-0.09630992541500916
-0.480127334593746	-0.11321234714279675
-0.480066299437496	-0.12996790688039778
-0.480005264281246	-0.1465558632167682
-0.479944229124996	-0.1629554628387559
-0.479883193968746	-0.179146093250151
-0.479822158812496	-0.1951076787669544
-0.479761123656246	-0.21082047016406896
-0.479700088499996	-0.22626473250736098
-0.479639053343746	-0.24142138033951474
-0.479578018187496	-0.25627173176413043
-0.479516983031246	-0.2707967152412845
-0.479455947874996	-0.28497818098412325
-0.479394912718746	-0.2987992100949343
-0.479333877562496	-0.3122421739924689
-0.479272842406246	-0.3252896589876728
-0.479211807249996	-0.3379259380021844
-0.479150772093746	-0.3501354010122727
-0.479089736937496	-0.36190242279552853
-0.479028701781246	-0.37321230631052243
-0.478967666624996	-0.3840507642419099
-0.478906631468746	-0.39440429455364195
-0.478845596312496	-0.40426021095969894
-0.478784561156246	-0.4136058080405635
-0.478723525999996	-0.4224292457604242
-0.478662490843746	-0.43071965827162495
-0.478601455687496	-0.43846647646527437
-0.478540420531246	-0.4456599640368257
-0.478479385374996	-0.4522910528354178
-0.478418350218746	-0.45835121344263885
-0.478357315062496	-0.4638328896298191
-0.478296279906246	-0.4687291533851648
-0.478235244749996	-0.4730335935512622
-0.478174209593746	-0.47674074963441365
-0.478113174437496	-0.4798459286794721
-0.478052139281246	-0.4823450244372944
-0.477991104124996	-0.48423479140454734
-0.477930068968746	-0.4855127363005686
-0.477869033812496	-0.4861770496149244
-0.477807998656246	-0.48622677230879674
-0.477746963499996	-0.4856616778518336
-0.477685928343746	-0.4844822464873155
-0.477624893187496	-0.482689848006293
-0.477563858031246	-0.4802866031788724
-0.477502822874996	-0.47727521513537335
-0.477441787718746	-0.4736592107152353
-0.477380752562496	-0.4694430453818369
-0.477319717406246	-0.4646319070297169
-0.477258682249996	-0.4592315321986664
-0.477197647093746	-0.4532483476895154
-0.477136611937496	-0.44668972100359067
-0.477075576781246	-0.43956380352655355
-0.477014541624996	-0.431879260782717
-0.476953506468746	-0.42364537276686537
-0.476892471312496	-0.4148724300810985
-0.476831436156246	-0.40557125760829
-0.476770400999996	-0.3957529877643071
-0.476709365843746	-0.385429961757316
-0.476648330687496	-0.3746150872420473
-0.476587295531246	-0.3633214123567504
-0.476526260374996	-0.35156295632869394
-0.476465225218746	-0.3393543413447232
-0.476404190062496	-0.32671063739973544
-0.476343154906246	-0.3136475219817412
-0.476282119749996	-0.30018114292846354
-0.476221084593746	-0.2863282230042984
-0.476160049437496	-0.2721060168639153
-0.476099014281246	-0.25753212311831714
-0.476037979124996	-0.2426244269643013
-0.475976943968746	-0.22740173953973222
-0.475915908812496	-0.21188327859824474
-0.475854873656246	-0.196087690947883
-0.475793838499996	-0.18003457963408706
-0.475732803343746	-0.16374466826222017
-0.475671768187496	-0.1472381225731559
-0.475610733031246	-0.1305350118634495
-0.475549697874996	-0.11365618915741661
-0.475488662718746	-0.09662309526632315
-0.475427627562496	-0.07945700372627354
-0.475366592406246	-0.06217900755756989
-0.475305557249996	-0.04481093286720113
-0.475244522093746	-0.027374624585839065
-0.475183486937496	-0.009891377578841691
-0.475122451781246	0.007616610088615442
-0.475061416624996	0.02512707231024909
-0.475000381468746	0.042618827285092864
-0.474939346312496	0.06006954468007989
-0.474878311156246	0.07745675683466598
-0.474817275999996	0.09475977626960387
-0.474756240843746	0.11195687615537833
-0.474695205687496	0.1290252764060813
-0.474634170531246	0.1459439466158269
-0.474573135374996	0.16269246240973922
-0.474512100218746	0.17924920772781336
-0.474451065062496	0.1955931041289215
-0.474390029906246	0.21170405536949002
-0.474328994749996	0.22756133171972112
-0.474267959593746	0.24314482922993774
-0.474206924437496	0.2584354556689998
-0.474145889281246	0.2734137843758253
-0.474084854124996	0.2880607971734973
-0.474023818968746	0.30235776671426495
-0.473962783812496	0.316286206539889
-0.473901748656246	0.32982929430253016
-0.473840713499996	0.3429703451156601
-0.473779678343746	0.35569147279194474
-0.473718643187496	0.3679762428379104
-0.473657608031246	0.3798101649952044
-0.473596572874996	0.39117828796052656
-0.473535537718746	0.40206530961835757
-0.473474502562496	0.412457142098603
-0.473413467406246	0.42234113344639335
-0.473352432249996	0.43170482768115825
-0.473291397093746	0.44053558042772445
-0.473230361937496	0.4488220666679472
-0.473169326781246	0.45655404497141605
-0.473108291624996	0.46372122831358115
-0.473047256468746	0.47031424089508134
-0.472986221312496	0.4763247772655402
-0.472925186156246	0.48174483461289125
-0.472864150999996	0.48656715763204567
-0.472803115843746	0.4907854441735309
-0.472742080687496	0.49439414860800324
-0.472681045531246	0.49738841541352835
-0.472620010374996	0.49976400425588186
-0.472558975218746	0.5015175683722731
-0.472497940062496	0.5026466541839071
-0.472436904906246	0.5031494507315151
-0.472375869749996	0.5030249113282973
-0.472314834593746	0.5022728341880598
-0.472253799437496	0.50089380126912
-0.472192764281246	0.4988891836341575
-0.472131729124996	0.4962610718274125
-0.472070693968746	0.49301233407893824
-0.472009658812496	0.4891467526162551
-0.471948623656246	0.48466881123639566
-0.471887588499996	0.47958363499254975
-0.471826553343746	0.47389724237236314
-0.471765518187496	0.46761647256638006
-0.471704483031246	0.4607486936048871
-0.471643447874996	0.4533020885563411
-0.471582412718746	0.4452859629965044
-0.471521377562496	0.4367098300161201
-0.471460342406246	0.42758357924005863
-0.471399307249996	0.41791874941089574
-0.471338272093746	0.40772747600527054
-0.471277236937496	0.39702164487318986
-0.471216201781246	0.38581406313340966
-0.471155166624996	0.37411883835102544
-0.471094131468746	0.36195060763931003
-0.471033096312496	0.3493239216291125
-0.470972061156246	0.3362539541740892
-0.470911025999996	0.32275711558976233
-0.470849990843746	0.30885020814997677
-0.470788955687496	0.2945501098993083
-0.470727920531246	0.27987436958381284
-0.470666885374996	0.2648413430709424
-0.470605850218746	0.24946947223618712
-0.470544815062496	0.23377736923043818
-0.470483779906246	0.217784872159721
-0.470422744749996	0.20151222470396626
-0.470361709593746	0.18497874775728892
-0.470300674437496	0.16820471719365304
-0.470239639281246	0.15121204863034046
-0.470178604124996	0.13402135594863923
-0.470117568968746	0.11665308565448264
-0.470056533812496	0.09912980711524852
-0.469995498656246	0.08147360035886995
-0.469934463499996	0.0637055752875943
-0.469873428343746	0.04584780236196308
-0.469812393187496	0.027922841355518067
-0.469751358031246	0.009953318671496616
-0.469690322874996	-0.008038427488747966
-0.469629287718746	-0.026030711047025982
-0.469568252562496	-0.04400089628059543
-0.469507217406246	-0.06192567936632171
-0.469446182249996	-0.07978317110970058
-0.469385147093746	-0.09755166877991617
-0.469324111937496	-0.11520844438776226
-0.469263076781246	-0.13273122890270583
-0.469202041624996	-0.15009830342180203
-0.469141006468746	-0.1672879733914215
-0.469079971312496	-0.18427896336144797
-0.469018936156246	-0.2010498035912896
-0.468957900999996	-0.21757907363820966
-0.468896865843746	-0.23384628160898563
