Time	Frequency
-0.5000153721250058	0.48775924773538454
-0.4999543369687558	0.48192644400817575
-0.4998933018125058	0.475424583921188
-0.4998322666562558	0.4682623309422015
-0.4997712315000058	0.46044875297730586
-0.4997101963437558	0.45199408740505703
-0.4996491611875058	0.4429099007573184
-0.4995881260312558	0.4332081796342887
-0.4995270908750058	0.42290151215994437
-0.4994660557187558	0.4120039030434612
-0.4994050205625058	0.40053013335121196
-0.4993439854062558	0.388495448176877
-0.4992829502500058	0.3759158690042374
-0.4992219150937558	0.3628082020021709
-0.4991608799375058	0.3491905552990929
-0.4990998447812558	0.3350815507179527
-0.4990388096250058	0.3204995846362099
-0.4989777744687558	0.3054643417973958
-0.4989167393125058	0.2899968611711966
-0.4988557041562558	0.27411793869933465
-0.4987946690000058	0.2578486633572036
-0.4987336338437558	0.2412114749691269
-0.4986725986875058	0.2242294101604829
-0.4986115635312558	0.2069253110622035
-0.4985505283750058	0.18932218196205786
-0.4984894932187558	0.17144417426330422
-0.4984284580625058	0.15331651057842272
-0.4983674229062558	0.13496396093728696
-0.4983063877500058	0.11641066216851265
-0.4982453525937558	0.0976818273495171
-0.4981843174375058	0.07880388655444892
-0.4981232822812558	0.05980305427125102
-0.4980622471250058	0.04070466928440457
-0.4980012119687558	0.02153415943264221
-0.4979401768125058	0.002318948870798607
-0.4978791416562558	-0.016913886909275224
-0.4978181065000058	-0.03613981852716561
-0.4977570713437558	-0.05533245051062735
-0.4976960361875058	-0.07446357417611019
-0.4976350010312558	-0.09350746562288388
-0.4975739658750058	-0.11243887834435652
-0.4975129307187558	-0.1312313996916834
-0.4974518955625058	-0.1498592248138225
-0.4973908604062558	-0.168296419186455
-0.4973298252500058	-0.1865169139510018
-0.4972687900937558	-0.2044964247722537
-0.4972077549375058	-0.2222109463508004
-0.4971467197812558	-0.23963501557535752
-0.4970856846250058	-0.25674408959845524
-0.4970246494687558	-0.27351526325165626
-0.4969636143125058	-0.2899255845936779
-0.4969025791562558	-0.30595226963847777
-0.4968415440000058	-0.3215726930024482
-0.4967805088437558	-0.33676514735369434
-0.4967194736875058	-0.3515094950703621
-0.4966584385312558	-0.3657849729538642
-0.4965974033750058	-0.3795709535160944
-0.4965363682187558	-0.3928490651097235
-0.4964753330625058	-0.4056014171843568
-0.4964142979062558	-0.4178094799144867
-0.4963532627500058	-0.4294559961178354
-0.4962922275937558	-0.4405256069694338
-0.4962311924375058	-0.45100294946395103
-0.4961701572812558	-0.4608727325442508
-0.4961091221250058	-0.47012140975773925
-0.4960480869687558	-0.4787365029387811
-0.4959870518125058	-0.48670572862217265
-0.4959260166562558	-0.4940177969965048
-0.4958649815000058	-0.5006625917567076
-0.4958039463437558	-0.50663077086254
-0.4957429111875058	-0.5119139924256665
-0.4956818760312558	-0.5165048755928326
-0.4956208408750058	-0.5203967908573764
-0.4955598057187558	-0.5235841773234169
-0.4954987705625058	-0.5260626116276654
-0.4954377354062558	-0.527828495833678
-0.4953767002500058	-0.5288791742215266
-0.4953156650937558	-0.5292130716480022
-0.4952546299375058	-0.5288295846880702
-0.4951935947812558	-0.527729090198264
-0.4951325596250058	-0.5259129327842558
-0.4950715244687558	-0.5233834721707322
-0.4950104893125058	-0.5201440974962087
-0.4949494541562558	-0.5161991768673416
-0.4948884190000058	-0.5115539054896774
-0.4948273838437558	-0.5062144909671971
-0.4947663486875058	-0.5001884251283472
-0.4947053135312558	-0.49348387120037285
-0.4946442783750058	-0.48610977510554815
-0.4945832432187558	-0.4780762610646287
-0.4945222080625058	-0.4693942993474467
-0.4944611729062558	-0.46007593192137514
-0.4944001377500058	-0.4501339316516042
-0.4943391025937558	-0.43958164220018564
-0.4942780674375058	-0.4284337226152545
-0.4942170322812558	-0.41670556923443425
-0.4941559971250058	-0.4044131786560906
-0.4940949619687558	-0.3915737072925731
-0.4940339268125058	-0.3782044822505348
-0.4939728916562558	-0.36432373905378396
-0.4939118565000058	-0.34995139735116765
-0.4938508213437558	-0.3351069678666055
-0.4937897861875058	-0.31981022259053066
-0.4937287510312558	-0.3040827396053754
-0.4936677158750058	-0.28794656855877304
-0.4936066807187558	-0.2714239234800519
-0.4935456455625058	-0.25453730220942455
-0.4934846104062558	-0.23730970243577046
-0.4934235752500058	-0.21976545562416333
-0.4933625400937558	-0.2019289752790729
-0.4933015049375058	-0.18382454344620638
-0.4932404697812558	-0.16547748611826557
-0.4931794346250058	-0.146913086004679
-0.4931183994687558	-0.1281565440063376
-0.4930573643125058	-0.10923421043038907
-0.4929963291562558	-0.09017271390956069
-0.4929352940000058	-0.07099819977666856
-0.4928742588437558	-0.05173689965640561
-0.4928132236875058	-0.032415417064539265
-0.4927521885312558	-0.013060855560379716
-0.4926911533750058	0.006299692372452008
-0.4926301182187558	0.025639771852098387
-0.4925690830625058	0.0449327954272257
-0.4925080479062558	0.06415154907415425
-0.4924470127500058	0.08326930529056849
-0.4923859775937558	0.10226019105436823
-0.4923249424375058	0.12109764602207314
-0.4922639072812558	0.1397547367685855
-0.4922028721250058	0.15820618425538435
-0.4921418369687558	0.17642698351806602
-0.4920808018125058	0.19439096809005277
-0.4920197666562558	0.21207315641977326
-0.4919587315000058	0.22944973591886986
-0.4918976963437558	0.24649616565466612
-0.4918366611875058	0.26318843529998154
-0.4917756260312558	0.2795037033078965
-0.4917145908750058	0.29541955246678586
-0.4916535557187558	0.31091395064257465
-0.4915925205625058	0.32596472761934187
-0.4915314854062558	0.3405507690638022
-0.4914704502500058	0.3546529033582842
-0.4914094150937558	0.3682515662496977
-0.4913483799375058	0.38132690622685794
-0.4912873447812558	0.39386073811085043
-0.4912263096250058	0.4058362562381156
-0.4911652744687558	0.4172371921018956
-0.4911042393125058	0.42804731994553397
-0.4910432041562558	0.4382511802152349
-0.4909821690000058	0.4478348242675616
-0.4909211338437558	0.4567853171018503
-0.4908600986875058	0.4650904072566052
-0.4907990635312558	0.47273830248742843
-0.4907380283750058	0.4797181138544855
-0.4906769932187558	0.48602041109566346
-0.4906159580625058	0.49163673333499586
-0.4905549229062558	0.49655930818501537
-0.4904938877500058	0.5007812428569157
-0.4904328525937558	0.5042966624010029
-0.4903718174375058	0.5071007982692213
-0.4903107822812558	0.509189970129622
-0.4902497471250058	0.5105614319794596
-0.4901887119687558	0.5112132765420672
-0.4901276768125058	0.5111446527248795
-0.4900666416562558	0.5103558839171665
-0.4900056065000058	0.5088482614359698
-0.4899445713437558	0.5066239710103883
-0.4898835361875058	0.5036862234009638
-0.4898225010312558	0.5000393435194753
-0.4897614658750058	0.49568862887972476
-0.4897004307187558	0.49064022838389093
-0.4896393955625058	0.4849013502393947
-0.4895783604062558	0.478480302756502
-0.4895173252500058	0.47138624276207824
-0.4894562900937558	0.46362916024321243
-0.4893952549375058	0.4552201298889465
-0.4893342197812558	0.44617122016335764
-0.4892731846250058	0.4364952188026506
-0.4892121494687558	0.4262058100515177
-0.4891511143125058	0.4153176628743239
-0.4890900791562558	0.40384626845762206
-0.4890290440000058	0.39180787327342187
-0.4889680088437558	0.37921964147591564
-0.4889069736875058	0.36609941275583724
-0.4888459385312558	0.35246545527394796
-0.4887849033750058	0.33833738318307083
-0.4887238682187558	0.3237356953455256
-0.4886628330625058	0.30868065730306643
-0.4886017979062558	0.2931933008996279
-0.4885407627500058	0.2772958072749445
-0.4884797275937558	0.2610110548738587
-0.4884186924375058	0.2443623299440296
-0.4883576572812558	0.2273726962382263
-0.4882966221250058	0.2100659849753597
-0.4882355869687558	0.19246747108587092
-0.4881745518125058	0.17460223295615654
-0.4881135166562558	0.15649498635824385
-0.4880524815000058	0.1381716028610907
-0.4879914463437558	0.11965856629256823
-0.4879304111875058	0.10098178908230862
-0.4878693760312558	0.08216769031998683
-0.4878083408750058	0.06324327931226988
-0.4877473057187558	0.04423525932524484
-0.4876862705625058	0.025170843962943553
-0.4876252354062558	0.006077267660691366
-0.4875642002500058	-0.013018791313209838
-0.4875031650937558	-0.03209005493735877
-0.4874421299375058	-0.051108997503726675
-0.4873810947812558	-0.0700486692067387
-0.4873200596250058	-0.0888823803340168
-0.4872590244687558	-0.10758326211548039
-0.4871979893125058	-0.12612438542258825
-0.4871369541562558	-0.14447939207341534
-0.4870759190000058	-0.16262226499705265
-0.4870148838437558	-0.18052701932477114
-0.4869538486875058	-0.1981681309579237
-0.4868928135312558	-0.21552052049001494
-0.4868317783750058	-0.2325592581772167
-0.4867707432187558	-0.24925991296758612
-0.4867097080625058	-0.26559875309327347
-0.4866486729062558	-0.2815523535213264
-0.4865876377500058	-0.2970979048487161
-0.4865266025937558	-0.3122132109979972
-0.4864655674375058	-0.32687650145127356
-0.4864045322812558	-0.34106669151185337
-0.4863434971250058	-0.3547633114836973
-0.4862824619687558	-0.3679470776047245
-0.4862214268125058	-0.3805991386616107
-0.4861603916562558	-0.39270045693627786
-0.4860993565000058	-0.40423388672572086
-0.4860383213437558	-0.41518356827675745
-0.4859772861875058	-0.42553313322858155
-0.4859162510312558	-0.43526717232049866
-0.4858552158750058	-0.44437201773922447
-0.4857941807187558	-0.45283475603527973
-0.4857331455625058	-0.4606427551927687
-0.4856721104062558	-0.4677843321214916
-0.4856110752500058	-0.47424939970916447
-0.4855500400937558	-0.4800285763116572
-0.4854890049375058	-0.485113048776741
-0.4854279697812558	-0.4894953948368258
-0.4853669346250058	-0.49316911903714344
-0.4853058994687558	-0.4961285335752527
-0.4852448643125058	-0.4983692030644651
-0.4851838291562558	-0.4998876641046393
-0.4851227940000058	-0.5006813346665417
-0.4850617588437558	-0.5007487549507998
-0.4850007236875058	-0.5000895319180674
-0.4849396885312558	-0.49870423383274937
-0.4848786533750058	-0.4965945072800604
-0.4848176182187558	-0.49376302470367744
-0.4847565830625058	-0.4902134192980122
-0.4846955479062558	-0.4859504281092657
-0.4846345127500058	-0.48097977848071927
-0.4845734775937558	-0.47530818746410547
-0.4845124424375058	-0.4689434161652306
-0.4844514072812558	-0.46189412834595756
-0.4843903721250058	-0.4541700003772179
-0.4843293369687558	-0.4457817338229147
-0.4842683018125058	-0.43674096024694464
-0.4842072666562558	-0.42706021417725426
-0.4841462315000058	-0.41675286066594175
-0.4840851963437558	-0.4058331846290579
-0.4840241611875058	-0.39431659463256796
-0.4839631260312558	-0.38221933714240064
-0.4839020908750058	-0.369557971045562
-0.4838410557187558	-0.3563500327983999
-0.4837800205625058	-0.3426145256158123
-0.4837189854062558	-0.3283708349323026
-0.4836579502500058	-0.31363844043872974
-0.4835969150937558	-0.2984381159004803
-0.4835358799375058	-0.2827917071403993
-0.4834748447812558	-0.26672083031679544
-0.4834138096250058	-0.250247993113533
-0.4833527744687558	-0.233397041261906
-0.4832917393125058	-0.21619147135961317
-0.4832307041562558	-0.19865512271282212
-0.4831696690000058	-0.18081318040249073
-0.4831086338437558	-0.1626911583201144
-0.4830475986875058	-0.14431429864986073
-0.4829865635312558	-0.12570842970819712
-0.4829255283750058	-0.10690040083207386
-0.4828644932187558	-0.08791678340084612
-0.4828034580625058	-0.06878408089168062
-0.4827424229062558	-0.049529865539921045
-0.4826813877500058	-0.030181614618226982
-0.4826203525937558	-0.010766343378678225
-0.4825593174375058	0.008688368097783467
-0.4824982822812558	0.028154476384774554
-0.4824372471250058	0.04760395914641027
-0.4823762119687558	0.0670095542000775
-0.4823151768125058	0.08634425796163492
-0.4822541416562558	0.10557976378358958
-0.4821931065000058	0.12468798236093108
-0.4821320713437558	0.14364247051342074
-0.4820710361875058	0.16241656388339715
-0.4820100010312558	0.1809827256223695
-0.4819489658750058	0.19931409144269113
-0.4818879307187558	0.21738509467225256
-0.4818268955625058	0.23516984192965917
-0.4817658604062558	0.2526419906375696
-0.4817048252500058	0.2697770364928406
-0.4816437900937558	0.2865511301593236
-0.4815827549375058	0.30293929859123914
-0.4815217197812558	0.3189173214170442
-0.4814606846250058	0.33446266901196375
-0.4813996494687558	0.34955375070404926
-0.4813386143125058	0.36416878043296036
-0.4812775791562558	0.378285488483162
-0.4812165440000058	0.39188324154536003
-0.4811555088437558	0.4049434050780606
-0.4810944736875058	0.4174473135156952
-0.4810334385312558	0.42937599588208014
-0.4809724033750058	0.44071164237034743
-0.4809113682187558	0.45143835204249616
-0.4808503330625058	0.4615407773668787
-0.4807892979062558	0.4710035196243983
-0.4807282627500058	0.4798126148130572
-0.4806672275937558	0.48795535937877965
-0.4806061924375058	0.4954195308534517
-0.4805451572812558	0.5021941239262983
-0.4804841221250058	0.5082690148783343
-0.4804230869687558	0.513634729304813
-0.4803620518125058	0.5182833040192824
-0.4803010166562558	0.5222078363637024
-0.4802399815000058	0.5254020308370784
-0.4801789463437558	0.5278606472160774
-0.4801179111875058	0.5295796338299393
-0.4800568760312558	0.5305561440809899
-0.4799958408750058	0.5307883022936559
-0.4799348057187558	0.5302750503123181
-0.4798737705625058	0.5290164957625545
-0.4798127354062558	0.5270139039066928
-0.4797517002500058	0.5242695347416664
-0.4796906650937558	0.5207867920830441
-0.4796296299375058	0.5165700842636468
-0.4795685947812558	0.5116246247317293
-0.4795075596250058	0.5059567795850216
-0.4794465244687558	0.499574255635713
-0.4793854893125058	0.49248570249359874
-0.4793244541562558	0.48470042771044264
-0.4792634190000058	0.4762285621967402
-0.4792023838437558	0.4670817477832885
-0.4791413486875058	0.4572729915902577
-0.4790803135312558	0.44681539858141406
-0.4790192783750058	0.4357227459541496
-0.4789582432187558	0.4240104419734407
-0.4788972080625058	0.4116948627291772
-0.4788361729062558	0.39879311422547514
-0.4787751377500058	0.38532284404198597
-0.4787141025937558	0.371302309222533
-0.4786530674375058	0.3567509031086294
-0.4785920322812558	0.34168913884477825
-0.4785309971250058	0.32613827830891406
-0.4784699619687558	0.3101195909895659
-0.4784089268125058	0.2936547891501403
-0.4783478916562558	0.2767670415328852
-0.4782868565000058	0.2594803547856051
-0.4782258213437558	0.24181897796355367
-0.4781647861875058	0.22380726900233405
-0.4781037510312558	0.20546980679494026
-0.4780427158750058	0.18683248518299
-0.4779816807187558	0.1679220503045109
-0.4779206455625058	0.14876486796728144
-0.4778596104062558	0.12938740126976692
-0.4777985752500058	0.109816593078886
-0.4777375400937558	0.09008004783866576
-0.4776765049375058	0.07020576471320927
-0.4776154697812558	0.05022177944659903
-0.4775544346250058	0.03015621801697806
-0.4774933994687558	0.010036481086673082
-0.4774323643125058	-0.010109213279998797
-0.4773713291562558	-0.030251100367506098
-0.4773102940000058	-0.050361261472149886
-0.4772492588437558	-0.07041257583509515
-0.4771882236875058	-0.09037599946972906
-0.4771271885312558	-0.11022287613733966
-0.4770661533750058	-0.12992586926017358
-0.4770051182187558	-0.14945720117019998
-0.4769440830625058	-0.16878881409341728
-0.4768830479062558	-0.18789370805115585
-0.4768220127500058	-0.20674533369511736
-0.4767609775937558	-0.2253164781309159
-0.4766999424375058	-0.24358055994751318
-0.4766389072812558	-0.261512445403422
-0.4765778721250058	-0.2790869938207917
-0.4765168369687558	-0.2962786361803156
-0.4764558018125058	-0.31306296669683503
-0.4763947666562558	-0.3294168021658851
-0.4763337315000058	-0.3453167963124873
-0.4762726963437558	-0.3607401757382067
-0.4762116611875058	-0.37566537342853595
-0.4761506260312558	-0.39007109895214287
-0.4760895908750058	-0.4039367627654449
-0.4760285557187558	-0.4172429975915279
-0.4759675205625058	-0.4299707269639085
-0.4759064854062558	-0.4421016270361103
-0.4758454502500058	-0.4536190301828393
-0.4757844150937558	-0.4645066215006317
-0.4757233799375058	-0.4747482359910676
-0.4756623447812558	-0.4843293047994937
-0.4756013096250058	-0.49323677073977507
-0.4755402744687558	-0.5014581628553088
-0.4754792393125058	-0.508981288383944
-0.4754182041562558	-0.515795083585847
-0.4753571690000058	-0.5218902666344697
-0.4752961338437558	-0.5272583649043553
-0.4752350986875058	-0.5318914484340102
-0.4751740635312558	-0.535782865912277
-0.4751130283750058	-0.5389270934897734
-0.4750519932187558	-0.5413195727741664
-0.4749909580625058	-0.5429569402384871
-0.4749299229062558	-0.5438368526750003
-0.4748688877500058	-0.5439579666704758
-0.4748078525937558	-0.5433201025663613
-0.4747468174375058	-0.5419240630749742
-0.4746857822812558	-0.5397717960912403
-0.4746247471250058	-0.5368665071967628
-0.4745637119687558	-0.5332121497829417
-0.4745026768125058	-0.5288137844629308
-0.4744416416562558	-0.5236778652645087
-0.4743806065000058	-0.517811580894652
-0.4743195713437558	-0.5112232057933216
-0.4742585361875058	-0.5039222307587632
-0.4741975010312558	-0.49591883338549897
-0.4741364658750058	-0.48722439113952465
-0.4740754307187558	-0.47785163882904974
-0.4740143955625058	-0.4678137424454032
-0.4739533604062558	-0.4571244172860918
-0.4738923252500058	-0.4457992799795611
-0.4738312900937558	-0.43385517832279263
-0.4737702549375058	-0.42130857189638815
-0.4737092197812558	-0.40817657189599665
-0.4736481846250058	-0.3944783957498644
-0.4735871494687558	-0.38023438578458457
-0.4735261143125058	-0.36546439438987816
-0.4734650791562558	-0.3501888819247885
-0.4734040440000058	-0.3344301387509685
-0.4733430088437558	-0.3182107839305393
-0.4732819736875058	-0.3015534926490207
-0.4732209385312558	-0.2844822541450561
-0.4731599033750058	-0.2670220251303262
-0.4730988682187558	-0.24919741575232807
-0.4730378330625058	-0.2310332457690294
-0.4729767979062558	-0.21255576353454778
-0.4729157627500058	-0.19379189560715995
-0.4728547275937558	-0.17476829990559536
-0.4727936924375058	-0.15551184943958943
-0.4727326572812558	-0.1360504215546586
-0.4726716221250058	-0.11641162419010574
-0.4726105869687558	-0.09662306273979343
-0.4725495518125058	-0.07671407595510717
-0.4724885166562558	-0.05671326828800779
-0.4724274815000058	-0.036648049734998966
-0.4723664463437558	-0.016547342098560156
-0.4723054111875058	0.0035592875974124463
-0.4722443760312558	0.02364302493059809
-0.4721833408750058	0.04367535106451438
-0.4721223057187558	0.06362822383557812
-0.4720612705625058	0.08347313339573667
-0.4720002354062558	0.10318019112253662
-0.4719392002500058	0.12272145599818705
-0.4718781650937558	0.14207051271635437
-0.4718171299375058	0.1611986748279644
-0.4717560947812558	0.1800778514431108
-0.4716950596250058	0.1986818206849187
-0.4716340244687558	0.21698369703488307
-0.4715729893125058	0.23495695428244368
-0.4715119541562558	0.25257622692583287
-0.4714509190000058	0.26981642710191905
-0.4713898838437558	0.2866521790140235
-0.4713288486875058	0.3030590887412792
-0.4712678135312558	0.3190147776821354
-0.4712067783750058	0.33449621234079496
-0.4711457432187558	0.3494798429061038
-0.4710847080625058	0.3639447762550363
-0.4710236729062558	0.37787133739104645
-0.4709626377500058	0.391238919623976
-0.4709016025937558	0.4040275044310999
-0.4708405674375058	0.416219074260838
-0.4707795322812558	0.4277968766022409
-0.4707184971250058	0.43874428131754273
-0.4706574619687558	0.44904501962689
-0.4705964268125058	0.45868409204434896
-0.4705353916562558	0.4676480282330468
-0.4704743565000058	0.47592432587366024
-0.4704133213437558	0.483500984841244
-0.4703522861875058	0.49036687659315487
-0.4702912510312558	0.4965121302039316
-0.4702302158750058	0.5019281709603741
-0.4701691807187558	0.5066074067513547
-0.4701081455625058	0.5105430190748392
-0.4700471104062558	0.513729313947722
-0.4699860752500058	0.5161618530286755
-0.4699250400937558	0.5178372606191483
-0.4698640049375058	0.5187531994096918
-0.4698029697812558	0.5189084376066629
-0.4697419346250058	0.5183028123513029
-0.4696808994687558	0.5169373181618229
-0.4696198643125058	0.5148140832763551
-0.4695588291562558	0.5119361339825026
