Time	Frequency
-0.5000209801250008	-6.07728719596905e-24
-0.49995994496875085	-6.2139963357732686e-24
-0.49989890981250085	-6.344797764051341e-24
-0.49983787465625085	-6.4695700151217765e-24
-0.49977683950000085	-6.5881904524017144e-24
-0.49971580434375085	-6.700534793452376e-24
-0.49965476918750085	-6.806489821493126e-24
-0.49959373403125085	-6.905951896043306e-24
-0.49953269887500085	-6.998822251020197e-24
-0.49947166371875085	-7.085003353204723e-24
-0.49941062856250085	-7.164406887727803e-24
-0.49934959340625085	-7.236957569157486e-24
-0.49928855825000085	-7.302581546575276e-24
-0.49922752309375085	-7.361205844213008e-24
-0.49916648793750085	-7.412771015299888e-24
-0.49910545278125085	-7.457229279761951e-24
-0.49904441762500085	-7.494531891390917e-24
-0.49898338246875085	-7.52463535100122e-24
-0.49892234731250085	-7.547510278950142e-24
-0.49886131215625085	-7.563133268185077e-24
-0.49880027700000085	-7.571483700422982e-24
-0.49873924184375085	-7.572549817419465e-24
-0.49867820668750085	-7.566328915969293e-24
-0.49861717153125085	-7.552824696632572e-24
-0.49855613637500085	-7.532047340310743e-24
-0.49849510121875085	-7.504013075580854e-24
-0.49843406606250085	-7.468746612602855e-24
-0.49837303090625085	-7.426281595255922e-24
-0.49831199575000085	-7.376656282068005e-24
-0.49825096059375085	-7.319915430023783e-24
-0.49818992543750085	-7.256112233852741e-24
-0.49812889028125085	-7.185306046761625e-24
-0.49806785512500085	-7.107565177074399e-24
-0.49800681996875085	-7.022964846183788e-24
-0.49794578481250085	-6.93158093167662e-24
-0.49788474965625085	-6.833500401115583e-24
-0.49782371450000085	-6.728821518252458e-24
-0.49776267934375085	-6.617642963089361e-24
-0.49770164418750085	-6.500070942488623e-24
-0.49764060903125085	-6.3762162866530444e-24
-0.49757957387500085	-6.246197513691433e-24
-0.49751853871875085	-6.110146301924448e-24
-0.49745750356250085	-5.968190721595349e-24
-0.49739646840625085	-5.820463263442591e-24
-0.49733543325000085	-5.667111467498085e-24
-0.49727439809375085	-5.5082852102515394e-24
-0.49721336293750085	-5.3441348937150386e-24
-0.49715232778125085	-5.174817929295461e-24
-0.49709129262500085	-5.00050240256054e-24
-0.49703025746875085	-4.8213617787900424e-24
-0.49696922231250085	-4.6375637753534454e-24
-0.49690818715625085	-4.4492801427329856e-24
-0.49684715200000085	-4.2567048493481044e-24
-0.49678611684375085	-4.060032123729727e-24
-0.49672508168750085	-3.8594401522562724e-24
-0.49666404653125085	-3.6551207266503056e-24
-0.49660301137500085	-3.447284275886708e-24
-0.49654197621875085	-3.2361359374165067e-24
-0.49648094106250085	-3.0218747758822236e-24
-0.49641990590625085	-2.8047062145467943e-24
-0.49635887075000085	-2.5848466857508193e-24
-0.49629783559375085	-2.3625177964846222e-24
-0.49623680043750085	-2.137931555119281e-24
-0.49617576528125085	-1.911301891075921e-24
-0.49611473012500085	-1.6828557904008446e-24
-0.49605369496875085	-1.4528180999107073e-24
-0.49599265981250085	-1.221416700442336e-24
-0.49593162465625085	-9.888747999309806e-25
-0.49587058950000085	-7.55411675604559e-25
-0.49580955434375085	-5.212660224028272e-25
-0.49574851918750085	-2.8667408285836297e-25
-0.49568748403125085	-5.1854547884246e-26
-0.49562644887500085	1.8296553507539946e-25
-0.49556541371875085	4.175442497114521e-25
-0.49550437856250085	6.516530350600779e-25
-0.49544334340625085	8.850720555211531e-25
-0.49538230825000085	1.1175632458076263e-24
-0.49532127309375085	1.3488946035919578e-24
-0.49526023793750085	1.578850078969622e-24
-0.49519920278125085	1.8071997629146553e-24
-0.49513816762500085	2.033709905363987e-24
-0.49507713246875085	2.2581666979291925e-24
-0.49501609731250085	2.480355422772765e-24
-0.49495506215625085	2.7000454079059318e-24
-0.49489402700000085	2.917016764344224e-24
-0.49483299184375085	3.1310691941426097e-24
-0.49477195668750085	3.341994227669181e-24
-0.49471092153125085	3.549570377203736e-24
-0.49464988637500085	3.753593212239603e-24
-0.49458885121875085	3.953874931969436e-24
-0.49452781606250085	4.150213063049811e-24
-0.49446678090625085	4.342404218462132e-24
-0.49440574575000085	4.530269801816356e-24
-0.49434471059375085	4.713627196351562e-24
-0.49428367543750085	4.8922840853942874e-24
-0.49422264028125085	5.066068672043873e-24
-0.49416160512500085	5.234815112591706e-24
-0.49410056996875085	5.398350859648074e-24
-0.49403953481250085	5.556514500698791e-24
-0.49397849965625085	5.709155014786395e-24
-0.49391746450000085	5.856120705518639e-24
-0.49385642934375085	5.9972600542658756e-24
-0.49379539418750085	6.132434810164452e-24
-0.49373435903125085	6.2615194466873826e-24
-0.49367332387500085	6.38438514753171e-24
-0.49361228871875085	6.500904288869181e-24
-0.49355125356250085	6.610961464911557e-24
-0.49349021840625085	6.714452281020898e-24
-0.49342918325000085	6.811276999625034e-24
-0.49336814809375085	6.901336743502385e-24
-0.49330711293750085	6.984539832598734e-24
-0.49324607778125085	7.060806424136785e-24
-0.49318504262500085	7.13006356062816e-24
-0.49312400746875085	7.192241520561374e-24
-0.49306297231250085	7.247277701921933e-24
-0.49300193715625085	7.29511824300208e-24
-0.49294090200000085	7.335716715239854e-24
-0.49287986684375085	7.369034005650686e-24
-0.49281883168750085	7.395036440195326e-24
-0.49275779653125085	7.413697859952712e-24
-0.49269676137500085	7.42500143421184e-24
-0.49263572621875085	7.428936408868922e-24
-0.49257469106250085	7.425498352366959e-24
-0.49251365590625085	7.414691480019327e-24
-0.49245262075000085	7.39652751256917e-24
-0.49239158559375085	7.371024676021633e-24
-0.49233055043750085	7.338208468557391e-24
-0.49226951528125085	7.29811220108105e-24
-0.49220848012500085	7.250776018899939e-24
-0.49214744496875085	7.196247602315883e-24
-0.49208640981250085	7.134583032913392e-24
-0.49202537465625085	7.065842640708316e-24
-0.49196433950000085	6.990094054443612e-24
-0.49190330434375085	6.907415771518684e-24
-0.49184226918750085	6.81789088063548e-24
-0.49178123403125085	6.721607117463736e-24
-0.49172019887500085	6.618661122760427e-24
-0.49165916371875085	6.509157498473527e-24
-0.49159812856250085	6.3932047017313766e-24
-0.49153709340625085	6.2709186725477285e-24
-0.49147605825000085	6.142424452938199e-24
-0.49141502309375085	6.0078474012531456e-24
-0.49135398793750085	5.867322127952107e-24
-0.49129295278125085	5.720994691565199e-24
-0.49123191762500085	5.569006368750566e-24
-0.49117088246875085	5.411508032671315e-24
-0.49110984731250085	5.248665532955952e-24
-0.49104881215625085	5.080636858798257e-24
-0.49098777700000085	4.9075862416917214e-24
-0.49092674184375085	4.729693824465339e-24
-0.49086570668750085	4.547138335275575e-24
-0.49080467153125085	4.360099203433714e-24
-0.49074363637500085	4.168762552438588e-24
-0.49068260121875085	3.973325015998207e-24
-0.49062156606250085	3.773982261589696e-24
-0.49056053090625085	3.5709290440292815e-24
-0.49049949575000085	3.364375302259052e-24
-0.49043846059375085	3.1545274579600426e-24
-0.49037742543750085	2.9415910852416005e-24
-0.49031639028125085	2.725785075007096e-24
-0.49025535512500085	2.50732535816766e-24
-0.49019431996875085	2.286431060568888e-24
-0.49013328481250085	2.063326493607002e-24
-0.49007224965625085	1.838230220788027e-24
-0.49001121450000085	1.6113684221463278e-24
-0.48995017934375085	1.3829767244025432e-24
-0.48988914418750085	1.153285990296845e-24
-0.48982810903125085	9.22519040489625e-25
-0.48976707387500085	6.909045503424771e-25
-0.48970603871875085	4.586855930366835e-25
-0.48964500356250085	2.2609834273081204e-25
-0.48958396840625085	-6.631377584898226e-27
-0.48952293325000085	-2.392677064741646e-25
-0.48946189809375085	-4.715728420819078e-25
-0.48940086293750085	-7.033149902389752e-25
-0.48933982778125085	-9.342597787940212e-25
-0.48927879262500085	-1.1641753165085286e-24
-0.48921775746875085	-1.3928284520261974e-24
-0.48915672231250085	-1.6199828197898823e-24
-0.48909568715625085	-1.8454157174151086e-24
-0.48903465200000085	-2.068907444968494e-24
-0.48897361684375085	-2.2902223166781226e-24
-0.48891258168750085	-2.5091255802534027e-24
-0.48885154653125085	-2.7254088215990986e-24
-0.48879051137500085	-2.938863886768495e-24
-0.48872947621875085	-3.149256926013978e-24
-0.48866844106250085	-3.356376753622517e-24
-0.48860740590625085	-3.56002685834643e-24
-0.48854637075000085	-3.759984627461055e-24
-0.48848533559375085	-3.956048609665908e-24
-0.48842430043750085	-4.148036965036033e-24
-0.48836326528125085	-4.335745804176104e-24
-0.48830223012500085	-4.518973482586138e-24
-0.48824119496875085	-4.697540846069571e-24
-0.48818015981250085	-4.8712740350508506e-24
-0.48811912465625085	-5.039990925122244e-24
-0.48805808950000085	-5.2035174421714176e-24
-0.48799705434375085	-5.361689504618063e-24
-0.48793601918750085	-5.5143422194930846e-24
-0.48787498403125085	-5.6613233589117774e-24
-0.48781394887500085	-5.8024860508664036e-24
-0.48775291371875085	-5.93768078624614e-24
-0.48769187856250085	-6.0667680269608416e-24
-0.48763084340625085	-6.189617991250274e-24
-0.48756980825000085	-6.306106723556933e-24
-0.48750877309375085	-6.416113200548211e-24
-0.48744773793750085	-6.519521151603962e-24
-0.48738670278125085	-6.616226273268325e-24
-0.48732566762500085	-6.70613109315678e-24
-0.48726463246875085	-6.789139349352692e-24
-0.48720359731250085	-6.865164488474846e-24
-0.48714256215625085	-6.934129780325444e-24
-0.48708152700000085	-6.995962126549918e-24
-0.48702049184375085	-7.050596284601701e-24
-0.48695945668750085	-7.097975416012502e-24
-0.48689842153125085	-7.138048407152932e-24
-0.48683738637500085	-7.170771594521296e-24
-0.48677635121875085	-7.196110454336041e-24
-0.48671531606250085	-7.214037640067165e-24
-0.48665428090625085	-7.224530932992964e-24
-0.48659324575000085	-7.227576477760716e-24
-0.48653221059375085	-7.223169473615465e-24
-0.48647117543750085	-7.211312232092693e-24
-0.48641014028125085	-7.192014080513999e-24
-0.48634910512500085	-7.165290746110579e-24
-0.48628806996875085	-7.13116571113673e-24
-0.48622703481250085	-7.089672448986594e-24
-0.48616599965625085	-7.040851267545607e-24
-0.48610496450000085	-6.984746483233274e-24
-0.48604392934375085	-6.921411717763388e-24
-0.48598289418750085	-6.850909767363671e-24
-0.48592185903125085	-6.773308976166384e-24
-0.48586082387500085	-6.688685686216197e-24
-0.48579978871875085	-6.597121536199599e-24
-0.48573875356250085	-6.4987062399972306e-24
-0.48567771840625085	-6.393538713487669e-24
-0.48561668325000085	-6.2817194735658986e-24
-0.48555564809375085	-6.163360806822019e-24
-0.48549461293750085	-6.038584018470361e-24
-0.48543357778125085	-5.907506021772758e-24
-0.48537254262500085	-5.7702573237747635e-24
-0.48531150746875085	-5.6269789916720365e-24
-0.48525047231250085	-5.4778108078232015e-24
-0.48518943715625085	-5.322904102336041e-24
-0.48512840200000085	-5.162410297300466e-24
-0.48506736684375085	-4.9964854115839804e-24
-0.48500633168750085	-4.825302330071534e-24
-0.48494529653125085	-4.649033821764351e-24
-0.48488426137500085	-4.467851798205466e-24
-0.48482322621875085	-4.281932944032069e-24
-0.48476219106250085	-4.091467946999775e-24
-0.48470115590625085	-3.8966549165583204e-24
-0.48464012075000085	-3.6976809325742475e-24
-0.48457908559375085	-3.494743869522779e-24
-0.48451805043750085	-3.2880546536013557e-24
-0.48445701528125085	-3.077814866826573e-24
-0.48439598012500085	-2.8642374346051536e-24
-0.48433494496875085	-2.64754514274642e-24
-0.48427390981250085	-2.427945896974219e-24
-0.48421287465625085	-2.205659379802062e-24
-0.48415183950000085	-1.9809190369593563e-24
-0.48409080434375085	-1.753947025839279e-24
-0.48402976918750085	-1.5249718565889892e-24
-0.48396873403125085	-1.2942259640387763e-24
-0.48390769887500085	-1.0619385869045319e-24
-0.48384666371875085	-8.283504883948508e-25
-0.48378562856250085	-5.936939529634824e-25
-0.48372459340625085	-3.5820022953485086e-25
-0.48366355825000085	-1.2212156444849765e-25
-0.48360252309375085	1.143034551536508e-25
-0.48354148793750085	3.5085144051563156e-25
-0.48348045278125085	5.8728027201946845e-25
-0.48341941762500085	8.233356753773422e-25
-0.48335838246875085	1.0587782552102166e-24
-0.48329734731250085	1.2933807496797091e-24
-0.48323631215625085	1.5269062345141823e-24
-0.48317527700000085	1.7591129166171386e-24
-0.48311424184375085	1.9897584295960518e-24
-0.48305320668750085	2.2186083372555173e-24
-0.48299217153125085	2.4454388632824263e-24
-0.48293113637500085	2.6700183063715317e-24
-0.48287010121875085	2.8921147550364758e-24
-0.48280906606250085	3.1114967314891094e-24
-0.48274803090625085	3.327939094908735e-24
-0.48268699575000085	3.541230587851894e-24
-0.48262596059375085	3.7511553153544446e-24
-0.48256492543750085	3.957491788344214e-24
-0.48250389028125085	4.16001904646649e-24
-0.48244285512500085	4.358538204474343e-24
-0.48238181996875085	4.552860155972787e-24
-0.48232078481250085	4.742770519730093e-24
-0.48225974965625085	4.928066762986923e-24
-0.48219871450000085	5.108571697429297e-24
-0.48213767934375085	5.284099801057358e-24
-0.48207664418750085	5.454463555166039e-24
-0.48201560903125085	5.61948917377387e-24
-0.48195457387500085	5.779009049171787e-24
-0.48189353871875085	5.9328549355266846e-24
-0.48183250356250085	6.080867393852128e-24
-0.48177146840625085	6.2228969696660944e-24
-0.48171043325000085	6.358794202591051e-24
-0.48164939809375085	6.488414535297237e-24
-0.48158836293750085	6.611625665508416e-24
-0.48152732778125085	6.728300648322576e-24
-0.48146629262500085	6.838314747840107e-24
-0.48140525746875085	6.941552040778114e-24
-0.48134422231250085	7.037904581636775e-24
-0.48128318715625085	7.12727140362226e-24
-0.48122215200000085	7.20955800198921e-24
-0.48116111684375085	7.284674737694278e-24
-0.48110008168750085	7.352541404399257e-24
-0.48103904653125085	7.41308611204475e-24
-0.48097801137500085	7.466242504308197e-24
-0.48091697621875085	7.511951696265637e-24
-0.48085594106250085	7.550163020925658e-24
-0.48079490590625085	7.580833372652146e-24
-0.48073387075000085	7.60392653718429e-24
-0.48067283559375085	7.619414102341129e-24
-0.48061180043750085	7.62727620681847e-24
-0.48055076528125085	7.627500156831065e-24
-0.48048973012500085	7.620080629675198e-24
-0.48042869496875085	7.605020678136098e-24
-0.48036765981250085	7.582329947468839e-24
-0.48030662465625085	7.552026088324764e-24
-0.48024558950000085	7.514136400896421e-24
-0.48018455434375085	7.468694509940574e-24
-0.48012351918750085	7.415740535068662e-24
-0.48006248403125085	7.355322966875268e-24
-0.48000144887500085	7.287498555465856e-24
-0.47994041371875085	7.212332126958455e-24
-0.47987937856250085	7.12989458045092e-24
-0.47981834340625085	7.040262988906845e-24
-0.47975730825000085	6.943524770037123e-24
-0.47969627309375085	6.839774987052878e-24
-0.47963523793750085	6.729111352314363e-24
-0.47957420278125085	6.61164037186418e-24
-0.47951316762500085	6.4874779720681846e-24
-0.47945213246875085	6.356748008396284e-24
-0.47939109731250085	6.2195794706337715e-24
-0.47933006215625085	6.076096961042833e-24
-0.47926902700000085	5.926442749181018e-24
-0.47920799184375085	5.770780131983376e-24
-0.47914695668750085	5.6092543592780265e-24
-0.47908592153125085	5.442010831293781e-24
-0.47902488637500085	5.269226320435455e-24
-0.47896385121875085	5.091078680777416e-24
-0.47890281606250085	4.907734961817603e-24
-0.47884178090625085	4.719377869901066e-24
-0.47878074575000085	4.5262006342076296e-24
-0.47871971059375085	4.3283855693021204e-24
-0.47865867543750085	4.126125816881496e-24
-0.47859764028125085	3.9196423220562306e-24
-0.47853660512500085	3.709140041239629e-24
-0.47847556996875085	3.494804037611155e-24
-0.47841453481250085	3.27685385426257e-24
-0.47835349965625085	3.0555262454454082e-24
-0.47829246450000085	2.8310395835674717e-24
-0.47823142934375085	2.6036079020723916e-24
-0.47817039418750085	2.3734517194874136e-24
-0.47810935903125085	2.1408111047209348e-24
-0.47804832387500085	1.9059287363569978e-24
-0.47798728871875085	1.6690303865634224e-24
-0.47792625356250085	1.430348878119069e-24
-0.47786521840625085	1.1901264189988214e-24
-0.47780418325000085	9.486077388702173e-25
-0.47774314809375085	7.060383156531641e-25
-0.47768211293750085	4.626578000846821e-25
-0.47762107778125085	2.1870571444904927e-25
-0.47756004262500085	-2.557072911422142e-26
-0.47749900746875085	-2.6991646926536656e-25
-0.47743797231250085	-5.140874445880474e-25
-0.47737693715625085	-7.578496043575345e-25
-0.47731590200000085	-1.0009540302374901e-24
-0.47725486684375085	-1.2431446185730441e-24
-0.47719383168750085	-1.48417830342806e-24
-0.47713279653125085	-1.7238245674553998e-24
-0.47707176137500085	-1.961841143734106e-24
-0.47701072621875085	-2.1979736503980268e-24
-0.47694969106250085	-2.4319865995907862e-24
-0.47688865590625085	-2.6636520968243817e-24
-0.47682762075000085	-2.8927345476364047e-24
-0.47676658559375085	-3.119000360949188e-24
-0.47670555043750085	-3.3422170844496075e-24
-0.47664451528125085	-3.5621583966765525e-24
-0.47658348012500085	-3.778605900245756e-24
-0.47652244496875085	-3.991342782926446e-24
-0.47646140981250085	-4.200152507930192e-24
-0.47640037465625085	-4.4048159557134e-24
-0.47633933950000085	-4.605125301230244e-24
-0.47627830434375085	-4.800887406293287e-24
-0.47621726918750085	-4.99190248801223e-24
-0.47615623403125085	-5.1779732326306876e-24
-0.47609519887500085	-5.358905582289885e-24
-0.47603416371875085	-5.534512030808818e-24
-0.47597312856250085	-5.704631844274465e-24
-0.47591209340625085	-5.869090548378932e-24
-0.47585105825000085	-6.027700445636622e-24
-0.47579002309375085	-6.180310117691355e-24
-0.47572898793750085	-6.326772960276928e-24
-0.47566795278125085	-6.466930388483552e-24
-0.47560691762500085	-6.600642806940699e-24
-0.47554588246875085	-6.727775052433054e-24
-0.47548484731250085	-6.84818979396468e-24
-0.47542381215625085	-6.961769527476894e-24
-0.47536277700000085	-7.068402936282368e-24
-0.47530174184375085	-7.167974428474335e-24
-0.47524070668750085	-7.260381435488078e-24
-0.47517967153125085	-7.34553196484307e-24
-0.47511863637500085	-7.423337707845263e-24
-0.47505760121875085	-7.493719149505541e-24
-0.47499656606250085	-7.556604446836435e-24
-0.47493553090625085	-7.611927913127448e-24
-0.47487449575000085	-7.659631415158305e-24
-0.47481346059375085	-7.699665682535447e-24
-0.47475242543750085	-7.731990694986425e-24
-0.47469139028125085	-7.756572757425242e-24
-0.47463035512500085	-7.77338412277778e-24
-0.47456931996875085	-7.782406708266782e-24
-0.47450828481250085	-7.783631591092682e-24
-0.47444724965625085	-7.77705589331697e-24
-0.47438621450000085	-7.76268495988689e-24
-0.47432517934375085	-7.740534072994852e-24
-0.47426414418750085	-7.710624376355844e-24
-0.47420310903125085	-7.672982622447133e-24
-0.47414207387500085	-7.627647116134572e-24
-0.47408103871875085	-7.574666408644062e-24
-0.47402000356250085	-7.51409279770891e-24
-0.47395896840625085	-7.445983852915502e-24
-0.47389793325000085	-7.370407343384208e-24
-0.47383689809375085	-7.287442490579914e-24
-0.47377586293750085	-7.197174829350288e-24
-0.47371482778125085	-7.099693035319809e-24
-0.47365379262500085	-6.995093534728001e-24
-0.47359275746875085	-6.883482160954745e-24
-0.47353172231250085	-6.764975085769212e-24
-0.47347068715625085	-6.639693523369662e-24
-0.47340965200000085	-6.5077598788020935e-24
-0.47334861684375085	-6.369309893646686e-24
-0.47328758168750085	-6.224486940987205e-24
-0.47322654653125085	-6.0734302248420926e-24
-0.47316551137500085	-5.9162964286257675e-24
-0.47310447621875085	-5.753257756488493e-24
-0.47304344106250085	-5.5844681283784266e-24
-0.47298240590625085	-5.410088834139745e-24
-0.47292137075000085	-5.23031307363873e-24
-0.47286033559375085	-5.0453266885834516e-24
-0.47279930043750085	-4.855309495509827e-24
-0.47273826528125085	-4.660454924596349e-24
-0.47267723012500085	-4.460961195177956e-24
-0.47261619496875085	-4.257033712045132e-24
-0.47255515981250085	-4.048883270500431e-24
-0.47249412465625085	-3.8367248619223145e-24
-0.47243308950000085	-3.6207666037416644e-24
-0.47237205434375085	-3.4012221731968236e-24
-0.47231101918750085	-3.1783342958807093e-24
-0.47224998403125085	-2.95232968356442e-24
