Time	Frequency
-0.500037193218752	0.4127557433994245
-0.49997615806250195	0.4093236051165434
-0.49991512290625195	0.40553901705644607
-0.49985408775000195	0.40140504978678837
-0.49979305259375195	0.39692513760384923
-0.49973201743750195	0.392102941083444
-0.49967098228125195	0.3869423372908934
-0.49960994712500195	0.3814476278859504
-0.49954891196875195	0.37562352868223203
-0.49948787681250195	0.36947493251156033
-0.49942684165625195	0.3630067248538949
-0.49936580650000195	0.35622419274540335
-0.49930477134375195	0.349133382522897
-0.49924373618750195	0.3417404356688792
-0.49918270103125195	0.33405122951897753
-0.49912166587500195	0.3260719530238597
-0.49906063071875195	0.3178095883102207
-0.49899959556250195	0.30927162491549737
-0.49893856040625195	0.3004650818460551
-0.49887752525000195	0.29139675368282597
-0.49881649009375195	0.28207460087007874
-0.49875545493750195	0.272507176244281
-0.49869441978125195	0.2627023177999416
-0.49863338462500195	0.25266787445293093
-0.49857234946875195	0.2424126396073254
-0.49851131431250195	0.23194574399166765
-0.49845027915625195	0.2212758927366136
-0.49838924400000195	0.21041184339008362
-0.49832820884375195	0.1993631419596633
-0.49826717368750195	0.18813948657709756
-0.49820613853125195	0.17675018221440975
-0.49814510337500195	0.16520488077690149
-0.49808406821875195	0.15351365088057403
-0.49802303306250195	0.14168653987632063
-0.49796199790625195	0.12973362267990354
-0.49790096275000195	0.1176650837856661
-0.49783992759375195	0.10549130665482759
-0.49777889243750195	0.09322282683173522
-0.49771785728125195	0.08087016369334188
-0.49765682212500195	0.06844390607193972
-0.49759578696875195	0.05595470758140426
-0.49753475181250195	0.04341319872679287
-0.49747371665625195	0.03083037150269116
-0.49741268150000195	0.018217229092411313
-0.49735164634375195	0.005584292839107817
-0.49729061118750195	-0.007057671589342515
-0.49722957603125195	-0.019697450778407073
-0.49716854087500195	-0.03232405934302523
-0.49710750571875195	-0.04492682409086412
-0.49704647056250195	-0.05749492393427484
-0.49698543540625195	-0.07001739434145712
-0.49692440025000195	-0.08248342219483817
-0.49686336509375195	-0.09488221359808283
-0.49680232993750195	-0.10720301795060538
-0.49674129478125195	-0.11943540484117235
-0.49668025962500195	-0.13156870566335988
-0.49661922446875195	-0.14359210897699073
-0.49655818931250195	-0.15549548079114034
-0.49649715415625195	-0.16726867553210237
-0.49643611900000195	-0.17890130154626208
-0.49637508384375195	-0.19038328150144135
-0.49631404868750195	-0.20170454922465064
-0.49625301353125195	-0.2128553026657263
-0.49619197837500195	-0.22382624450578525
-0.49613094321875195	-0.234607738276567
-0.49606990806250195	-0.24519000648448577
-0.49600887290625195	-0.25556403948240547
-0.49594783775000195	-0.26572109539636535
-0.49588680259375195	-0.27565224962316753
-0.49582576743750195	-0.28534879191727036
-0.49576473228125195	-0.29480222565912045
-0.49570369712500195	-0.30400432572337094
-0.49564266196875195	-0.3129473252286647
-0.49558162681250195	-0.32162339618706315
-0.49552059165625195	-0.33002460587290816
-0.49545955650000195	-0.3381438446439496
-0.49539852134375195	-0.3459744474662762
-0.49533748618750195	-0.3535092602325622
-0.49527645103125195	-0.3607413966681484
-0.49521541587500195	-0.3676647886977465
-0.49515438071875195	-0.3742736448336624
-0.49509334556250195	-0.38056215685380423
-0.49503231040625195	-0.3865245661949202
-0.49497127525000195	-0.39215560781110453
-0.49491024009375195	-0.39745057571867815
-0.49484920493750195	-0.4024048361381566
-0.49478816978125195	-0.407014036898835
-0.49472713462500195	-0.4112741757700528
-0.49466609946875195	-0.41518131853576745
-0.49460506431250195	-0.418732054326876
-0.49454402915625195	-0.4219234853809894
-0.49448299400000195	-0.4247527825014096
-0.49442195884375195	-0.42721732637231424
-0.49436092368750195	-0.42931487413572234
-0.49429988853125195	-0.4310436526083603
-0.49423885337500195	-0.43240223995187954
-0.49417781821875195	-0.433389348852287
-0.49411678306250195	-0.4340040079621421
-0.49405574790625195	-0.434245701335189
-0.49399471275000195	-0.4341142409888411
-0.49393367759375195	-0.4336096824482314
-0.49387264243750195	-0.4327323995847251
-0.49381160728125195	-0.43148315641824253
-0.49375057212500195	-0.42986306498029914
-0.49368953696875195	-0.4278735008110225
-0.49362850181250195	-0.425516080342913
-0.49356746665625195	-0.42279283002902773
-0.49350643150000195	-0.41970622851968153
-0.49344539634375195	-0.41625900644188135
-0.49338436118750195	-0.4124540109724537
-0.49332332603125195	-0.4082943608519231
-0.49326229087500195	-0.4037838721738887
-0.49320125571875195	-0.39892670295655247
-0.49314022056250195	-0.39372678838156927
-0.49307918540625195	-0.38818851279959027
-0.49301815025000195	-0.38231693144115736
-0.49295711509375195	-0.3761171685266173
-0.49289607993750195	-0.3695945317472632
-0.49283504478125195	-0.3627547286008402
-0.49277400962500195	-0.3556037744620844
-0.49271297446875195	-0.3481478477391966
-0.49265193931250195	-0.3403933665598673
-0.49259090415625195	-0.3323472559799733
-0.49252986900000195	-0.32401662132709785
-0.49246883384375195	-0.3154085690548543
-0.49240779868750195	-0.3065305549048058
-0.49234676353125195	-0.29739045812844106
-0.49228572837500195	-0.28799635700721193
-0.49222469321875195	-0.27835639507129323
-0.49216365806250195	-0.2684789639113228
-0.49210262290625195	-0.2583727192089226
-0.49204158775000195	-0.24804650418915833
-0.49198055259375195	-0.23750939852452682
-0.49191951743750195	-0.22677066243435937
-0.49185848228125195	-0.2158397115349858
-0.49179744712500195	-0.20472608894055064
-0.49173641196875195	-0.1934393902677522
-0.49167537681250195	-0.18198960831577599
-0.49161434165625195	-0.17038711045053545
-0.49155330650000195	-0.15864186114785891
-0.49149227134375195	-0.14676378756798994
-0.49143123618750195	-0.13476356749376206
-0.49137020103125195	-0.12265215849472369
-0.49130916587500195	-0.11043997019476567
-0.49124813071875195	-0.09813729508014157
-0.49118709556250195	-0.0857551578968953
-0.49112606040625195	-0.07330477283208758
-0.49106502525000195	-0.06079702247773241
-0.49100399009375195	-0.0482426284259988
-0.49094295493750195	-0.035652562591993085
-0.49088191978125195	-0.023038229172091022
-0.49082088462500195	-0.010410737447747408
-0.49075984946875195	0.0022190595770053365
-0.49069881431250195	0.014839929126840408
-0.49063777915625195	0.027440667634532224
-0.49057674400000195	0.040010264221608714
-0.49051570884375195	0.052537670928402544
-0.49045467368750195	0.06501180031763042
-0.49039363853125195	0.07742152313995407
-0.49033260337500195	0.08975603527720118
-0.49027156821875195	0.10200462809810883
-0.49021053306250195	0.11415625837610216
-0.49014949790625195	0.12620009025238538
-0.49008846275000195	0.13812568153675506
-0.49002742759375195	0.149922568682243
-0.48996639243750195	0.16158023639394525
-0.48990535728125195	0.17308835586522706
-0.48984432212500195	0.18443680698553425
-0.48978328696875195	0.19561543644272436
-0.48972225181250195	0.20661439373385163
-0.48966121665625195	0.21742423299903166
-0.48960018150000195	0.22803519704717426
-0.48953914634375195	0.23843767193046525
-0.48947811118750195	0.2486225905479456
-0.48941707603125195	0.25858101992175403
-0.48935604087500195	0.2683042886876101
-0.48929500571875195	0.27778365363285656
-0.48923397056250195	0.2870103518481356
-0.48917293540625195	0.2959763830609643
-0.48911190025000195	0.3046742092262177
-0.48905086509375195	0.31309597257213745
-0.48898982993750195	0.32123374270239385
-0.48892879478125195	0.32908042208251614
-0.48886775962500195	0.3366294489484713
-0.48880672446875195	0.3438739258649925
-0.48874568931250195	0.3508071874023116
-0.48868465415625195	0.35742321358190415
-0.48862361900000195	0.36371613390870644
-0.48856258384375195	0.36968036137273574
-0.48850154868750195	0.3753105820344508
-0.48844051353125195	0.3806016335827111
-0.48837947837500195	0.38554886191836296
-0.48831844321875195	0.3901479628762766
-0.48825740806250195	0.39439477107286697
-0.48819637290625195	0.39828537455809626
-0.48813533775000195	0.40181629172173633
-0.48807430259375195	0.4049844938396726
-0.48801326743750195	0.4077870948640755
-0.48795223228125195	0.41022146648199775
-0.48789119712500195	0.4122854575658008
-0.48783016196875195	0.41397722597392633
-0.48776912681250195	0.41529519981318613
-0.48770809165625195	0.41623817495792964
-0.48764705650000195	0.4168052860408496
-0.48758602134375195	0.4169959453418316
-0.48752498618750195	0.4168099514435605
-0.48746395103125195	0.4162474756971515
-0.48740291587500195	0.4153089301713035
-0.48734188071875195	0.4139950689853512
-0.48728084556250195	0.4123070664851338
-0.48721981040625195	0.410246407757786
-0.48715877525000195	0.4078148245859597
-0.48709774009375195	0.40501440412529793
-0.48703670493750195	0.4018476615384862
-0.48697566978125195	0.39831736274065105
-0.48691463462500195	0.3944265408609301
-0.48685359946875195	0.3901786934992775
-0.48679256431250195	0.3855775610624572
-0.48673152915625195	0.3806270539835923
-0.48667049400000195	0.3753315822250099
-0.48660945884375195	0.36969598218945343
-0.48654842368750195	0.3637251934681821
-0.48648738853125195	0.357424306887033
-0.48642635337500195	0.3507988877898629
-0.48636531821875195	0.3438549815093726
-0.48630428306250195	0.3365987495948018
-0.48624324790625195	0.329036497921507
-0.48618221275000195	0.32117494520172724
-0.48612117759375195	0.3130210264009983
-0.48606014243750195	0.30458194016921036
-0.48599910728125195	0.2958654131529642
-0.48593807212500195	0.28687913909398977
-0.48587703696875195	0.2776307772465121
-0.48581600181250195	0.2681287152587599
-0.48575496665625195	0.25838155107589095
-0.48569393150000195	0.24839783878999003
-0.48563289634375195	0.23818661962592655
-0.48557186118750195	0.22775676307405127
-0.48551082603125195	0.21711725292320705
-0.48544979087500195	0.20627815021095386
-0.48538875571875195	0.19524935210121425
-0.48532772056250195	0.18403999245312472
-0.48526668540625195	0.17265990146825924
-0.48520565025000195	0.1611198205710278
-0.48514461509375195	0.14943023615339834
-0.48508357993750195	0.1376012077914924
-0.48502254478125195	0.12564303416784725
-0.48496150962500195	0.11356655217038147
-0.48490047446875195	0.1013829542041233
-0.48483943931250195	0.0891031480537313
-0.48477840415625195	0.07673756505519665
-0.48471736900000195	0.064297240674454
-0.48465633384375195	0.05179396350756408
-0.48459529868750195	0.0392388188441644
-0.48453426353125195	0.02664254044737618
-0.48447322837500195	0.014016663557860163
-0.48441219321875195	0.0013726816076610232
-0.48435115806250195	-0.01127818886138215
-0.48429012290625195	-0.023924519791827397
-0.48422908775000195	-0.036555093373850746
-0.48416805259375195	-0.04915855876496206
-0.48410701743750195	-0.0617233418804084
-0.48404598228125195	-0.07423834429280211
-0.48398494712500195	-0.08669246762961517
-0.48392391196875195	-0.09907421923650668
-0.48386287681250195	-0.11137233879334406
-0.48380184165625195	-0.12357611800323608
-0.48374080650000195	-0.1356745552132069
-0.48367977134375195	-0.14765624359118135
-0.48361873618750195	-0.15951073357602438
-0.48355770103125195	-0.17122767792432103
-0.48349666587500195	-0.18279579372052884
-0.48343563071875195	-0.19420459080020966
-0.48337459556250195	-0.20544442263983204
-0.48331356040625195	-0.21650500521186133
-0.48325252525000195	-0.22737586280459468
-0.48319149009375195	-0.23804715865823853
-0.48313045493750195	-0.24850940967316945
-0.48306941978125195	-0.2587532157063738
-0.48300838462500195	-0.2687694088925309
-0.48294734946875195	-0.2785485999081837
-0.48288631431250195	-0.28808144303822764
-0.48282527915625195	-0.2973597303535799
-0.48276424400000195	-0.30637548084003124
-0.48270320884375195	-0.3151199861699064
-0.48264217368750195	-0.32358485967566025
-0.48258113853125195	-0.33176264846783277
-0.48252010337500195	-0.33964610981857835
-0.48245906821875195	-0.34722787036313874
-0.48239803306250195	-0.3545009170809411
-0.48233699790625195	-0.36145852271766804
-0.48227596275000195	-0.3680941582189916
-0.48221492759375195	-0.37440176565050154
-0.48215389243750195	-0.3803756428768343
-0.48209285728125195	-0.3860102782686562
-0.48203182212500195	-0.39130018432350017
-0.48197078696875195	-0.39624031833207357
-0.48190975181250195	-0.40082633931836725
-0.48184871665625195	-0.40505391511643524
-0.48178768150000195	-0.4089188563471066
-0.48172664634375195	-0.4124175757287416
-0.48166561118750195	-0.41554673392212577
-0.48160457603125195	-0.4183032212701791
-0.48154354087500195	-0.4206844020586113
-0.48148250571875195	-0.42268795182943003
-0.48142147056250195	-0.42431179771652977
-0.48136043540625195	-0.42555422750949623
-0.48129940025000195	-0.4264139051782508
-0.48123836509375195	-0.42688985373419863
-0.48117732993750195	-0.4269814081955461
-0.48111629478125195	-0.426688232336709
-0.48105525962500195	-0.42601034333086824
-0.48099422446875195	-0.4249481112176824
-0.48093318931250195	-0.4235022588649279
-0.48087215415625195	-0.4216738239373682
-0.48081111900000195	-0.41946421568001435
-0.48075008384375195	-0.41687520470845957
-0.48068904868750195	-0.41390883130381845
-0.48062801353125195	-0.4105674610826133
-0.48056697837500195	-0.4068538901446916
-0.48050594321875195	-0.40277133290337697
-0.48044490806250195	-0.3983231189606654
-0.48038387290625195	-0.3935127849001026
-0.48032283775000195	-0.3883446355829132
-0.48026180259375195	-0.38282325241160975
-0.48020076743750195	-0.37695300177564667
-0.48013973228125195	-0.3707388657674088
-0.48007869712500195	-0.364186524700269
-0.48001766196875195	-0.35730153611127147
-0.47995662681250195	-0.3500896087324366
-0.47989559165625195	-0.3425571733919877
-0.47983455650000195	-0.3347108249892288
-0.47977352134375195	-0.3265571572920215
-0.47971248618750195	-0.3181033816843564
-0.47965145103125195	-0.30935703898392586
-0.47959041587500195	-0.30032555775528763
-0.47952938071875195	-0.2910166962823986
-0.47946834556250195	-0.28143880009380584
-0.47940731040625195	-0.2716003963259147
-0.47934627525000195	-0.2615099660959967
-0.47928524009375195	-0.2511761490020334
-0.47922420493750195	-0.2406081809047578
-0.47916316978125195	-0.2298156258679701
-0.47910213462500195	-0.21880767385288438
-0.47904109946875195	-0.20759390278633122
-0.47898006431250195	-0.19618462102583675
-0.47891902915625195	-0.1845897624577093
-0.47885799400000195	-0.17281915919590335
-0.47879695884375195	-0.16088352791582794
-0.47873592368750195	-0.1487937040615786
-0.47867488853125195	-0.1365599958936623
-0.47861385337500195	-0.1241932345024411
-0.47855281821875195	-0.11170464966077075
-0.47849178306250195	-0.09910499062695566
-0.47843074790625195	-0.0864054559547174
-0.47836971275000195	-0.07361776161972781
-0.47830867759375195	-0.06075300816804963
-0.47824764243750195	-0.047822353729088614
-0.47818660728125195	-0.03483749453121597
-0.47812557212500195	-0.02180994938914855
-0.47806453696875195	-0.008751496417726212
-0.47800350181250195	0.004325972892770869
-0.47794246665625195	0.017411514566318478
-0.47788143150000195	0.03049368476839523
-0.47782039634375195	0.04355978395204364
-0.47775936118750195	0.056598136318731826
-0.47769832603125195	0.0695979841306724
-0.47763729087500195	0.08254772875851357
-0.47757625571875195	0.09543518748782373
-0.47751522056250195	0.10824861869759712
-0.47745418540625195	0.12097713427930029
-0.47739315025000195	0.13360946320604955
-0.47733211509375195	0.1461337452973143
-0.47727107993750195	0.1585390033969222
-0.47721004478125195	0.17081433264924298
-0.47714900962500195	0.1829482723791157
-0.47708797446875195	0.19493004293499683
-0.47702693931250195	0.20674928924544886
-0.47696590415625195	0.21839511241405363
-0.47690486900000195	0.22985674587420482
-0.47684383384375195	0.2411242430711492
-0.47678279868750195	0.25218750877480234
-0.47672176353125195	0.26303629084135116
-0.47666072837500195	0.27366096897408176
-0.47659969321875195	0.28405199231311207
-0.47653865806250195	0.2941998917854533
-0.47647762290625195	0.3040955221689262
-0.47641658775000195	0.3137299200877882
-0.47635555259375195	0.3230945035745523
-0.47629451743750195	0.3321806579056553
-0.47623348228125195	0.3409800063084
-0.47617244712500195	0.3494848946248166
-0.47611141196875195	0.35768758327451206
-0.47605037681250195	0.3655802559071943
-0.47598934165625195	0.3731558468694265
-0.47592830650000195	0.38040779739135344
-0.47586727134375195	0.3873293592610987
-0.47580623618750195	0.3939138797665332
-0.47574520103125195	0.4001554646010662
-0.47568416587500195	0.4060486964120144
-0.47562313071875195	0.41158805996506503
-0.47556209556250195	0.41676823037848243
-0.47550106040625195	0.4215844880530664
-0.47544002525000195	0.42603251910668727
-0.47537899009375195	0.4301082361508133
-0.47531795493750195	0.43380774930649574
-0.47525691978125195	0.437127518254346
-0.47519588462500195	0.44006452047144157
-0.47513484946875195	0.4426160234316967
-0.47507381431250195	0.44477955086878024
-0.47501277915625195	0.44655301297548944
-0.47495174400000195	0.44793466279073296
-0.47489070884375195	0.448923110370645
-0.47482967368750195	0.4495173444095589
-0.47476863853125195	0.4497167072608495
-0.47470760337500195	0.4495208417296623
-0.47464656821875195	0.44892973645079054
-0.47458553306250195	0.4479438194465276
-0.47452449790625195	0.44656386809627757
-0.47446346275000195	0.4447909068841697
-0.47440242759375195	0.44262632006860914
-0.47434139243750195	0.4400720087470626
-0.47428035728125195	0.437130199702816
-0.47421932212500195	0.4338032061574572
-0.47415828696875195	0.43009379974234746
-0.47409725181250195	0.4260053836580863
-0.47403621665625195	0.4215415237999989
-0.47397518150000195	0.4167059062543184
-0.47391414634375195	0.4115026616809598
-0.47385311118750195	0.4059364370888307
-0.47379207603125195	0.40001222761973737
-0.47373104087500195	0.3937351546867528
-0.47367000571875195	0.3871105133541736
-0.47360897056250195	0.380144125585852
-0.47354793540625195	0.3728423895610611
-0.47348690025000195	0.3652117898484385
-0.47342586509375195	0.35725868395737864
-0.47336482993750195	0.3489900035644227
-0.47330379478125195	0.3404135350234677
-0.47324275962500195	0.33153689067398984
-0.47318172446875195	0.32236745315333226
-0.47312068931250195	0.3129133219578839
-0.47305965415625195	0.30318326440292326
-0.47299861900000195	0.2931860747565487
-0.47293758384375195	0.28293025390867754
-0.47287654868750195	0.27242464716679843
-0.47281551353125195	0.261678979987677
-0.47275447837500195	0.25070302050810644
-0.47269344321875195	0.23950633305959218
-0.47263240806250195	0.22809878366456646
-0.47257137290625195	0.21649033688852065
-0.47251033775000195	0.2046915515715552
-0.47244930259375195	0.19271346351009608
-0.47238826743750195	0.18056634762660942
-0.47232723228125195	0.16826053789474862
-0.47226619712500195	0.15580745322773157
-0.47220516196875195	0.1432186266037843
-0.47214412681250195	0.13050505267043494
-0.47208309165625195	0.11767775990277851
-0.47202205650000195	0.10474833199676255
-0.47196102134375195	0.09172865327186039
-0.47189998618750195	0.07863027947216406
-0.47183895103125195	0.06546476904919026
-0.47177791587500195	0.052244138185882735
-0.47171688071875195	0.0389800909233034
-0.47165584556250195	0.025684303864280465
-0.47159481040625195	0.012369161846347239
-0.47153377525000195	-0.0009533369821567672
-0.47147274009375195	-0.014271750521150975
-0.47141170493750195	-0.027574039043825386
-0.47135066978125195	-0.040847864576247485
-0.47128963462500195	-0.054081357723546754
-0.47122859946875195	-0.06726286429362406
-0.47116756431250195	-0.08038059712406599
-0.47110652915625195	-0.09342261774875917
-0.47104549400000195	-0.10637697787801159
-0.47098445884375195	-0.11923216959480379
-0.47092342368750195	-0.13197688181018777
-0.47086238853125195	-0.14459943009845566
-0.47080135337500195	-0.1570883296242742
-0.47074031821875195	-0.16943248026169508
-0.47067928306250195	-0.1816206809956437
-0.47061824790625195	-0.1936420388726079
-0.47055721275000195	-0.2054857780958497
-0.47049617759375195	-0.21714087450267552
-0.47043514243750195	-0.22859708282000554
