Time	Frequency
-0.500026187875001	-4.231673229397535e-24
-0.49996515271875097	-4.0338289600846456e-24
-0.49990411756250097	-3.83216869178832e-24
-0.49984308240625097	-3.626882397615818e-24
-0.49978204725000097	-3.418154439413818e-24
-0.49972101209375097	-3.206182406920585e-24
-0.49965997693750097	-2.991162733309934e-24
-0.49959894178125097	-2.773296744837723e-24
-0.49953790662500097	-2.552794001770454e-24
-0.49947687146875097	-2.3298512163365006e-24
-0.49941583631250097	-2.104669513848825e-24
-0.49935480115625097	-1.8774772501797536e-24
-0.49929376600000097	-1.6484897911342412e-24
-0.49923273084375097	-1.4178952233542095e-24
-0.49917169568750097	-1.1859199796007814e-24
-0.49911066053125097	-9.527995581517474e-25
-0.49904962537500097	-7.187319738339113e-25
-0.49898859021875097	-4.839375063298337e-25
-0.49892755506250097	-2.4864662074944763e-25
-0.49886651990625097	-1.3069139175787694e-26
-0.49880548475000097	2.2256966607535276e-25
-0.49874444959375097	4.580433045818455e-25
-0.49868341443750097	6.931421281768588e-25
-0.49862237928125097	9.27641103150551e-25
-0.49856134412500097	1.161312041999245e-24
-0.49850030896875097	1.3939473562555689e-24
-0.49843927381250097	1.6253283489127331e-24
-0.49837823865625097	1.8552234411851076e-24
-0.49831720350000097	2.0834244147544772e-24
-0.49825616834375097	2.3097290897511584e-24
-0.49819513318750097	2.533909992570311e-24
-0.49813409803125097	2.7557518442134377e-24
-0.49807306287500097	2.9750596166556087e-24
-0.49801202771875097	3.191619776338899e-24
-0.49795099256250097	3.405224359836407e-24
-0.49788995740625097	3.6156810402134165e-24
-0.49782892225000097	3.8227870420317435e-24
-0.49776788709375097	4.026340900433928e-24
-0.49770685193750097	4.2261540157106134e-24
-0.49764581678125097	4.422043312282159e-24
-0.49758478162500097	4.6138187238749616e-24
-0.49752374646875097	4.801293879218618e-24
-0.49746271131250097	4.984299212040783e-24
-0.49740167615625097	5.1626584500622896e-24
-0.49734064100000097	5.3361977920762795e-24
-0.49727960584375097	5.504758030890371e-24
-0.49721857068750097	5.668177266567983e-24
-0.49715753553125097	5.8263002747830914e-24
-0.49709650037500097	5.978976568067388e-24
-0.49703546521875097	6.126058347806113e-24
-0.49697443006250097	6.267405748128719e-24
-0.49691339490625097	6.402883876735256e-24
-0.49685235975000097	6.532368083027075e-24
-0.49679132459375097	6.655731436783277e-24
-0.49673028943750097	6.772848579548995e-24
-0.49666925428125097	6.883611043920969e-24
-0.49660821912500097	6.987917383392774e-24
-0.49654718396875097	7.085665310198386e-24
-0.49648614881250097	7.176755608712947e-24
-0.49642511365625097	7.261100111637629e-24
-0.49636407850000097	7.338617959124208e-24
-0.49630304334375097	7.409235332639296e-24
-0.49624200818750097	7.472885260811007e-24
-0.49618097303125097	7.529499028733134e-24
-0.49611993787500097	7.579018544360047e-24
-0.49605890271875097	7.621399885854712e-24
-0.49599786756250097	7.656600700636043e-24
-0.49593683240625097	7.684581311400769e-24
-0.49587579725000097	7.705311456459279e-24
-0.49581476209375097	7.718770725246771e-24
-0.49575372693750097	7.724942158508937e-24
-0.49569269178125097	7.723816134626227e-24
-0.49563165662500097	7.715392400639617e-24
-0.49557062146875097	7.699673716024012e-24
-0.49550958631250097	7.676670471071524e-24
-0.49544855115625097	7.646402742343139e-24
-0.49538751600000097	7.608895715991552e-24
-0.49532648084375097	7.564179904741383e-24
-0.49526544568750097	7.512294369721464e-24
-0.49520441053125097	7.453284867190104e-24
-0.49514337537500097	7.387202023799904e-24
-0.49508234021875097	7.3141061362748e-24
-0.49502130506250097	7.234063338712654e-24
-0.49496026990625097	7.147142600352601e-24
-0.49489923475000097	7.053423340953425e-24
-0.49483819959375097	6.952991340301373e-24
-0.49477716443750097	6.845935986296017e-24
-0.49471612928125097	6.732357262713553e-24
-0.49465509412500097	6.612358108259559e-24
-0.49459405896875097	6.4860425622458436e-24
-0.49453302381250097	6.3535306312208344e-24
-0.49447198865625097	6.2149496214945784e-24
-0.49441095350000097	6.070417989028871e-24
-0.49434991834375097	5.920065744444496e-24
-0.49428888318750097	5.764041315521066e-24
-0.49422784803125097	5.602486681255698e-24
-0.49416681287500097	5.435543411904408e-24
-0.49410577771875097	5.263368192823923e-24
-0.49404474256250097	5.0861254239518614e-24
-0.49398370740625097	4.903976939325228e-24
-0.49392267225000097	4.717086515653212e-24
-0.49386163709375097	4.5256303757022584e-24
-0.49380060193750097	4.329786472742419e-24
-0.49373956678125097	4.129736748720716e-24
-0.49367853162500097	3.9256690874063875e-24
-0.49361749646875097	3.7177659068792214e-24
-0.49355646131250097	3.506223152806721e-24
-0.49349542615625097	3.291243017084366e-24
-0.49343439100000097	3.073022025289696e-24
-0.49337335584375097	2.8517622299224322e-24
-0.49331232068750097	2.6276668754329504e-24
-0.49325128553125097	2.4009510308206614e-24
-0.49319025037500097	2.1718266570329468e-24
-0.49312921521875097	1.94049812618366e-24
-0.49306818006250097	1.7071909816453574e-24
-0.49300714490625097	1.4721250461374945e-24
-0.49294610975000097	1.235505584325653e-24
-0.49288507459375097	9.975626770525942e-25
-0.49282403943750097	7.585312904371322e-25
-0.49276300428125097	5.186171019993417e-25
-0.49270196912500097	2.7804018772766516e-25
-0.49264093396875097	3.704851226688713e-26
-0.49257989881250097	-2.0414030398854148e-25
-0.49251886365625097	-4.453185107209614e-25
-0.49245782850000097	-6.862392971952668e-25
-0.49239679334375097	-9.266708309432526e-25
-0.49233575818750097	-1.1664134003396154e-24
-0.49227472303125097	-1.4052337554893788e-24
-0.49221368787500097	-1.642884320837318e-24
-0.49215265271875097	-1.879157119155606e-24
-0.49209161756250097	-2.1138469134658467e-24
-0.49203058240625097	-2.3467176200295154e-24
-0.49196954725000097	-2.577537929742612e-24
-0.49190851209375097	-2.8061024646444724e-24
-0.49184747693750097	-3.0322040869749845e-24
-0.49178644178125097	-3.2556206873802537e-24
-0.49172540662500097	-3.4761398092307475e-24
-0.49166437146875097	-3.693555882721867e-24
-0.49160333631250097	-3.90766129625547e-24
-0.49154230115625097	-4.11825891089486e-24
-0.49148126600000097	-4.3251494946670715e-24
-0.49142023084375097	-4.528132871669194e-24
-0.49135919568750097	-4.727016414089663e-24
-0.49129816053125097	-4.921616186589518e-24
-0.49123712537500097	-5.111750104151228e-24
-0.49117609021875097	-5.2972287784675654e-24
-0.49111505506250097	-5.477881871665966e-24
-0.49105401990625097	-5.653544167474231e-24
-0.49099298475000097	-5.824039021510007e-24
-0.49093194959375097	-5.98920371551007e-24
-0.49087091443750097	-6.148887126132855e-24
-0.49080987928125097	-6.302941226210396e-24
-0.49074884412500097	-6.451212925285493e-24
-0.49068780896875097	-6.593555043576889e-24
-0.49062677381250097	-6.729839486152377e-24
-0.49056573865625097	-6.859940159656002e-24
-0.49050470350000097	-6.983728314560527e-24
-0.49044366834375097	-7.101079200108915e-24
-0.49038263318750097	-7.211884526210966e-24
-0.49032159803125097	-7.31604430821756e-24
-0.49026056287500097	-7.41345336988614e-24
-0.49019952771875097	-7.504015085180342e-24
-0.49013849256250097	-7.587642822034051e-24
-0.49007745740625097	-7.664259610291804e-24
-0.49001642225000097	-7.733791775852539e-24
-0.48995538709375097	-7.796165385125275e-24
-0.48989435193750097	-7.851321027094966e-24
-0.48983331678125097	-7.899208399803202e-24
-0.48977228162500097	-7.939779465939676e-24
-0.48971124646875097	-7.972991043917315e-24
-0.48965021131250097	-7.998808207670527e-24
-0.48958917615625097	-8.017208051752367e-24
-0.48952814100000097	-8.02817121687655e-24
-0.48946710584375097	-8.031681720606678e-24
-0.48940607068750097	-8.027735142230025e-24
-0.48934503553125097	-8.016334076620189e-24
-0.48928400037500097	-7.997486005651205e-24
-0.48922296521875097	-7.971206287710726e-24
-0.48916193006250097	-7.937516796562439e-24
-0.48910089490625097	-7.896448218751666e-24
-0.48903985975000097	-7.848038316226741e-24
-0.48897882459375097	-7.792326677166948e-24
-0.48891778943750097	-7.729363075947999e-24
-0.48885675428125097	-7.659210004777866e-24
-0.48879571912500097	-7.5819312863711e-24
-0.48873468396875097	-7.49759196795016e-24
-0.48867364881250097	-7.406267041373464e-24
-0.48861261365625097	-7.308049134595223e-24
-0.48855157850000097	-7.203033304244411e-24
-0.48849054334375097	-7.091302346408736e-24
-0.48842950818750097	-6.972958777527424e-24
-0.48836847303125097	-6.848125667208304e-24
-0.48830743787500097	-6.716916324491318e-24
-0.48824640271875097	-6.57944705622285e-24
-0.48818536756250097	-6.4358436126984195e-24
-0.48812433240625097	-6.286241481283004e-24
-0.48806329725000097	-6.1307874888408205e-24
-0.48800226209375097	-5.969622953213508e-24
-0.48794122693750097	-5.8028923221742675e-24
-0.48788019178125097	-5.630754083128588e-24
-0.48781915662500097	-5.453373316093294e-24
-0.48775812146875097	-5.270914343556336e-24
-0.48769708631250097	-5.083545125798181e-24
-0.48763605115625097	-4.8914454138047004e-24
-0.48757501600000097	-4.69478916072703e-24
-0.48751398084375097	-4.4937615884616575e-24
-0.48745294568750097	-4.2885640379660606e-24
-0.48739191053125097	-4.079375417206056e-24
-0.48733087537500097	-3.866388739458935e-24
-0.48726984021875097	-3.6498194476640655e-24
-0.48720880506250097	-3.429861517990356e-24
-0.48714776990625097	-3.2067185718622756e-24
-0.48708673475000097	-2.9806122229642935e-24
-0.48702569959375097	-2.751748101791477e-24
-0.48696466443750097	-2.5203339797541577e-24
-0.48690362928125097	-2.286599889475951e-24
-0.48684259412500097	-2.050770993232592e-24
-0.48678155896875097	-1.813052520073639e-24
-0.48672052381250097	-1.5736696104892163e-24
-0.48665948865625097	-1.332868301551303e-24
-0.48659845350000097	-1.0908654502001998e-24
-0.48653741834375097	-8.478743768369568e-25
-0.48647638318750097	-6.041399472952933e-25
-0.48641534803125097	-3.598992200383184e-25
-0.48635431287500097	-1.153695142592028e-25
-0.48629327771875097	1.2921857115473564e-25
-0.48623224256250097	3.736240050225638e-25
-0.48617120740625097	6.176201043498273e-25
-0.48611017225000097	8.609789146302446e-25
-0.48604913709375097	1.1034645604591118e-24
-0.48598810193750097	1.344850883166046e-24
-0.48592706678125097	1.5849065519434317e-24
-0.48586603162500097	1.8234060553981075e-24
-0.48580499646875097	2.0601305303764163e-24
-0.48574396131250097	2.2948399970429152e-24
-0.48568292615625097	2.5273149201739343e-24
-0.48562189100000097	2.7573487512910986e-24
-0.48556085584375097	2.984711606854932e-24
-0.48549982068750097	3.209187327148083e-24
-0.48543878553125097	3.430567366286884e-24
-0.48537775037500097	3.6486389401803914e-24
-0.48531671521875097	3.863191789534539e-24
-0.48525568006250097	4.07402056544252e-24
-0.48519464490625097	4.2809387887627824e-24
-0.48513360975000097	4.4837446768688384e-24
-0.48507257459375097	4.682224462219731e-24
-0.48501153943750097	4.87620115836034e-24
-0.48495050428125097	5.065510467677907e-24
-0.48488946912500097	5.249957625718387e-24
-0.48482843396875097	5.4293482408254124e-24
-0.48476739881250097	5.603525800007883e-24
-0.48470636365625097	5.772334654922033e-24
-0.48464532850000097	5.935608626402697e-24
-0.48458429334375097	6.093183784676784e-24
-0.48452325818750097	6.244902201139106e-24
-0.48446222303125097	6.39063477758276e-24
-0.48440118787500097	6.53024593657841e-24
-0.48434015271875097	6.663587783056237e-24
-0.48427911756250097	6.790535844204587e-24
-0.48421808240625097	6.910970018776619e-24
-0.48415704725000097	7.024775445546889e-24
-0.48409601209375097	7.131845105566806e-24
-0.48403497693750097	7.23207256861361e-24
-0.48397394178125097	7.325363403894497e-24
-0.48391290662500097	7.411625669255473e-24
-0.48385187146875097	7.490773670476954e-24
-0.48379083631250097	7.562738904287958e-24
-0.48372980115625097	7.627450896305442e-24
-0.48366876600000097	7.684839221246588e-24
-0.48360773084375097	7.734850825773888e-24
-0.48354669568750097	7.777441214965041e-24
-0.48348566053125097	7.81256751221759e-24
-0.48342462537500097	7.840193226011762e-24
-0.48336359021875097	7.860290651518889e-24
-0.48330255506250097	7.87284049858731e-24
-0.48324151990625097	7.87783033500268e-24
-0.48318048475000097	7.875254378427505e-24
-0.48311944959375097	7.865112475762054e-24
-0.48305841443750097	7.847413314992934e-24
-0.48299737928125097	7.822176137844936e-24
-0.48293634412500097	7.789421044138764e-24
-0.48287530896875097	7.749174422769914e-24
-0.48281427381250097	7.701480050949514e-24
-0.48275323865625097	7.646383797566755e-24
-0.48269220350000097	7.583931270138121e-24
-0.48263116834375097	7.514180763094664e-24
-0.48257013318750097	7.43720041749885e-24
-0.48250909803125097	7.353066167620442e-24
-0.48244806287500097	7.261856185380171e-24
-0.48238702771875097	7.163650125156612e-24
-0.48232599256250097	7.05854302393168e-24
-0.48226495740625097	6.946641882210647e-24
-0.48220392225000097	6.828049625604685e-24
-0.48214288709375097	6.702870474901956e-24
-0.48208185193750097	6.5712293067915696e-24
-0.48202081678125097	6.433259191843028e-24
-0.48195978162500097	6.289080974315876e-24
-0.48189874646875097	6.1388274984944654e-24
-0.48183771131250097	5.982652042895821e-24
-0.48177667615625097	5.820705339147933e-24
-0.48171564100000097	5.6531350451315195e-24
-0.48165460584375097	5.480096324068947e-24
-0.48159357068750097	5.301760387661129e-24
-0.48153253553125097	5.118302737534154e-24
-0.48147150037500097	4.9298917870494795e-24
-0.48141046521875097	4.736705600230559e-24
-0.48134943006250097	4.538932359775841e-24
-0.48128839490625097	4.3367610076501444e-24
-0.48122735975000097	4.130383199323939e-24
-0.48116632459375097	3.91999707349853e-24
-0.48110528943750097	3.705808495425265e-24
-0.48104425428125097	3.488017544682441e-24
-0.48098321912500097	3.266825226197515e-24
-0.48092218396875097	3.0424541067260425e-24
-0.48086114881250097	2.8151278616236243e-24
-0.48080011365625097	2.5850496025137426e-24
-0.48073907850000097	2.3524306479026675e-24
-0.48067804334375097	2.117514272898388e-24
-0.48061700818750097	1.8805303394609696e-24
-0.48055597303125097	1.6416834836431745e-24
-0.48049493787500097	1.4012109885337262e-24
-0.48043390271875097	1.1593614699087959e-24
-0.48037286756250097	9.163469281827845e-25
-0.48031183240625097	6.723942403527894e-25
-0.48025079725000097	4.277654904950855e-25
-0.48018976209375097	1.8269220159632572e-25
-0.48012872693750097	-6.261433271059986e-26
-0.48006769178125097	-3.079126094259882e-25
-0.48000665662500097	-5.529473417487177e-25
-0.47994562146875097	-7.974798637388855e-25
-0.47988458631250097	-1.0412958062484658e-24
-0.47982355115625097	-1.2841647154770153e-24
-0.47976251600000097	-1.5258272697755227e-24
-0.47970148084375097	-1.7660511496575445e-24
-0.47964044568750097	-2.0046265214400438e-24
-0.47957941053125097	-2.2413178633147278e-24
-0.47951837537500097	-2.4758786770880513e-24
-0.47945734021875097	-2.7080876476046008e-24
-0.47939630506250097	-2.9377360323394234e-24
-0.47933526990625097	-3.164595355413838e-24
-0.47927423475000097	-3.388430037374984e-24
-0.47921319959375097	-3.609035570452407e-24
-0.47915216443750097	-3.8262076226356495e-24
-0.47909112928125097	-4.039715804477249e-24
-0.47903009412500097	-4.2493596300247616e-24
-0.47896905896875097	-4.45495157074428e-24
-0.47890802381250097	-4.656274000403914e-24
-0.47884698865625097	-4.853123756828044e-24
-0.47878595350000097	-5.045326289432007e-24
-0.47872491834375097	-5.232702052277395e-24
-0.47866388318750097	-5.415051105917716e-24
-0.47860284803125097	-5.592186715268074e-24
-0.47854181287500097	-5.763956745440133e-24
-0.47848077771875097	-5.9301966879720246e-24
-0.47841974256250097	-6.090726170184142e-24
-0.47835870740625097	-6.245390196733352e-24
-0.47829767225000097	-6.394048314684145e-24
-0.47823663709375097	-6.536552132537676e-24
-0.47817560193750097	-6.672753825918991e-24
-0.47811456678125097	-6.80252219728015e-24
-0.47805353162500097	-6.925737903061606e-24
-0.47799249646875097	-7.042272512366441e-24
-0.47793146131250097	-7.152005022818552e-24
-0.47787042615625097	-7.254836384192029e-24
-0.47780939100000097	-7.350664335929268e-24
-0.47774835584375097	-7.439388134549565e-24
-0.47768732068750097	-7.520920645202803e-24
-0.47762628553125097	-7.59518098226621e-24
-0.47756525037500097	-7.662095951233452e-24
-0.47750421521875097	-7.721596523049173e-24
-0.47744318006250097	-7.773620218057267e-24
-0.47738214490625097	-7.81811656924803e-24
-0.47732110975000097	-7.85503922309324e-24
-0.47726007459375097	-7.88434702499671e-24
-0.47719903943750097	-7.906009822577222e-24
-0.47713800428125097	-7.92000427719842e-24
-0.47707696912500097	-7.926312369559336e-24
-0.47701593396875097	-7.92492430843544e-24
-0.47695489881250097	-7.915839269491059e-24
-0.47689386365625097	-7.899062999262172e-24
-0.47683282850000097	-7.874606230458948e-24
-0.47677179334375097	-7.842489629966284e-24
-0.47671075818750097	-7.802743289672888e-24
-0.47664972303125097	-7.75540099508995e-24
-0.47658868787500097	-7.700503367655743e-24
-0.47652765271875097	-7.63810032702705e-24
-0.47646661756250097	-7.568250591737204e-24
-0.47640558240625097	-7.491019216248547e-24
-0.47634454725000097	-7.40647396362072e-24
-0.47628351209375097	-7.314693410876795e-24
-0.47622247693750097	-7.215766729304455e-24
-0.47616144178125097	-7.109783647903767e-24
-0.47610040662500097	-6.996841139943768e-24
-0.47603937146875097	-6.87704933384464e-24
-0.47597833631250097	-6.750520219213693e-24
-0.47591730115625097	-6.617367324839845e-24
-0.47585626600000097	-6.477722038258227e-24
-0.47579523084375097	-6.331719398500987e-24
-0.47573419568750097	-6.179487703479505e-24
-0.47567316053125097	-6.021172757789346e-24
-0.47561212537500097	-5.856932046190766e-24
-0.47555109021875097	-5.6869210088957664e-24
-0.47549005506250097	-5.511296073619094e-24
-0.47542901990625097	-5.3302183829138905e-24
-0.47536798475000097	-5.143868205477981e-24
-0.47530694959375097	-4.9524310348453386e-24
-0.47524591443750097	-4.756079274145617e-24
-0.47518487928125097	-4.554994398009893e-24
-0.47512384412500097	-4.349375819947548e-24
-0.47506280896875097	-4.139426267757098e-24
-0.47500177381250097	-3.925340067924744e-24
-0.47494073865625097	-3.7073148874768774e-24
-0.47487970350000097	-3.485568109803705e-24
-0.47481866834375097	-3.2603156176849565e-24
-0.47475763318750097	-3.0317661625995653e-24
-0.47469659803125097	-2.8001386777811705e-24
-0.47463556287500097	-2.5656563729335676e-24
-0.47457452771875097	-2.3285467358950974e-24
-0.47451349256250097	-2.0890429666113715e-24
-0.47445245740625097	-1.8473633264022714e-24
-0.47439142225000097	-1.6037365394403993e-24
-0.47433038709375097	-1.358418011316189e-24
-0.47426935193750097	-1.1116354836412626e-24
-0.47420831678125097	-8.636097233894586e-25
-0.47414728162500097	-6.145943819148528e-25
-0.47408624646875097	-3.6483683689257173e-25
-0.47402521131250097	-1.1456605544354953e-25
-0.47396417615625097	1.359794437233615e-25
-0.47390314100000097	3.8654897731477526e-25
-0.47384210584375097	6.369017343851076e-25
-0.47378107068750097	8.86798619585066e-25
-0.47372003553125097	1.1359964464341613e-24
-0.47365900037500097	1.3842599067319811e-24
-0.47359796521875097	1.631344197836289e-24
-0.47353693006250097	1.8769998718323303e-24
-0.47347589490625097	2.1210016051927726e-24
-0.47341485975000097	2.3631260395530357e-24
-0.47335382459375097	2.6031157392212574e-24
-0.47329278943750097	2.8407274929971134e-24
-0.47323175428125097	3.0757629697173213e-24
-0.47317071912500097	3.3079939984738376e-24
-0.47310968396875097	3.5371647193106165e-24
-0.47304864881250097	3.763058321055648e-24
-0.47298761365625097	3.9854780181222056e-24
-0.47292657850000097	4.204206178040776e-24
-0.47286554334375097	4.4190082627079846e-24
-0.47280450818750097	4.629674051137426e-24
-0.47274347303125097	4.836017854497222e-24
-0.47268243787500097	5.03783791948408e-24
-0.47262140271875097	5.234929518374274e-24
-0.47256036756250097	5.427094764835816e-24
-0.47249933240625097	5.614144452935001e-24
-0.47243829725000097	5.795911546209503e-24
-0.47237726209375097	5.972216246191391e-24
-0.47231622693750097	6.1428723587890874e-24
-0.47225519178125097	6.307719305243721e-24
-0.47219415662500097	6.466595883695703e-24
