Time	Frequency
-0.5000347197812545	0.40347900238568035
-0.49997368462500447	0.4129078747417623
-0.49991264946875447	0.42182272714345226
-0.49985161431250447	0.43021467010196596
-0.49979057915625447	0.43807246187556864
-0.49972954400000447	0.44538706761798613
-0.49966850884375447	0.45214838796064544
-0.49960747368750447	0.4583490106460874
-0.49954643853125447	0.463981525560857
-0.49948540337500447	0.46903818216297233
-0.49942436821875447	0.47351373906500066
-0.49936333306250447	0.47740158342723726
-0.49930229790625447	0.4806983065689938
-0.49924126275000447	0.48339855357549066
-0.49918022759375447	0.4855002983959042
-0.49911919243750447	0.48699995976573845
-0.49905815728125447	0.4878962907516556
-0.49899712212500447	0.48818823713037
-0.49893608696875447	0.4878751103985318
-0.49887505181250447	0.4869581342295073
-0.49881401665625447	0.48543728977246664
-0.49875298150000447	0.4833159205732637
-0.49869194634375447	0.4805953778490314
-0.49863091118750447	0.477280433564072
-0.49856987603125447	0.4733740807734804
-0.49850884087500447	0.4688817611768033
-0.49844780571875447	0.46380911886138326
-0.49838677056250447	0.4581623846052791
-0.49832573540625447	0.45194911126478166
-0.49826470025000447	0.44517581182807076
-0.49820366509375447	0.43785248457915027
-0.49814262993750447	0.42998698047276046
-0.49808159478125447	0.4215905143494657
-0.49802055962500447	0.41267218656409915
-0.49795952446875447	0.40324369414200356
-0.49789848931250447	0.3933170309262497
-0.49783745415625447	0.382904426110613
-0.49777641900000447	0.372019165829657
-0.49771538384375447	0.3606738042790881
-0.49765434868750447	0.3488838967169113
-0.49759331353125447	0.33666304989522927
-0.49753227837500447	0.3240276583932604
-0.49747124321875447	0.31099219231983993
-0.49741020806250447	0.2975739794189572
-0.49734917290625447	0.2837891989938194
-0.49728813775000447	0.26965517358885394
-0.49722710259375447	0.25519030425209416
-0.49716606743750447	0.24041136051558024
-0.49710503228125447	0.22533789795809966
-0.49704399712500447	0.20998784634039933
-0.49698296196875447	0.19438178403961306
-0.49692192681250447	0.1785376073491575
-0.49686089165625447	0.16247626696204523
-0.49679985650000447	0.14621757782735478
-0.49673882134375447	0.12978151555487447
-0.49667778618750447	0.11318915302148781
-0.49661675103125447	0.09646102916098907
-0.49655571587500447	0.07961858489115087
-0.49649468071875447	0.06268135332545363
-0.49643364556250447	0.04567278564090327
-0.49637261040625447	0.028612770996474874
-0.49631157525000447	0.011523195593693912
-0.49625054009375447	-0.005575169278911708
-0.49618950493750447	-0.022660296904495936
-0.49612846978125447	-0.03971022690358776
-0.49606743462500447	-0.05670448477672502
-0.49600639946875447	-0.07362092995703715
-0.49594536431250447	-0.09043988638228889
-0.49588432915625447	-0.10713848197489152
-0.49582329400000447	-0.12369620182745437
-0.49576225884375447	-0.14009166634200163
-0.49570122368750447	-0.15630600854260895
-0.49564018853125447	-0.1723178522229468
-0.49557915337500447	-0.18810633663566034
-0.49551811821875447	-0.2036522691463873
-0.49545708306250447	-0.2189354106801519
-0.49539604790625447	-0.23393816776974063
-0.49533501275000447	-0.24863973340472956
-0.49527397759375447	-0.26302252690050426
-0.49521294243750447	-0.2770676488954852
-0.49515190728125447	-0.2907584310541556
-0.49509087212500447	-0.30407670131274656
-0.49502983696875447	-0.3170057220734532
-0.49496880181250447	-0.3295296639055265
-0.49490776665625447	-0.34163159052659087
-0.49484673150000447	-0.35329744872048385
-0.49478569634375447	-0.3645110070258145
-0.49472466118750447	-0.37525972502142985
-0.49466362603125447	-0.38552833881306553
-0.49460259087500447	-0.39530443438625795
-0.49454155571875447	-0.4045754455772148
-0.49448052056250447	-0.4133298179708152
-0.49441948540625447	-0.4215563337573299
-0.49435845025000447	-0.42924340113178544
-0.49429741509375447	-0.4363827320756101
-0.49423637993750447	-0.44296379223272797
-0.49417534478125447	-0.44897934006724893
-0.49411430962500447	-0.45442021603150934
-0.49405327446875447	-0.4592803877272082
-0.49399223931250447	-0.4635529023212732
-0.49393120415625447	-0.46723241882977096
-0.49387016900000447	-0.4703142971855902
-0.49380913384375447	-0.4727935246237121
-0.49374809868750447	-0.4746679055478778
-0.49368706353125447	-0.47593350600353157
-0.49362602837500447	-0.47658987609532405
-0.49356499321875447	-0.4766345249139238
-0.49350395806250447	-0.47606825849260653
-0.49344292290625447	-0.47489076362374727
-0.49338188775000447	-0.47310347443117223
-0.49332085259375447	-0.47070849577355073
-0.49325981743750447	-0.4677080555997132
-0.49319878228125447	-0.46410665482193836
-0.49313774712500447	-0.4599070064458176
-0.49307671196875447	-0.4551156668307815
-0.49301567681250447	-0.44973700316495685
-0.49295464165625447	-0.4437785818342678
-0.49289360650000447	-0.4372469124927351
-0.49283257134375447	-0.4301502351021732
-0.49277153618750447	-0.4224970174106543
-0.49271050103125447	-0.41429626267978725
-0.49264946587500447	-0.40555911406151485
-0.49258843071875447	-0.39629485879853527
-0.49252739556250447	-0.38651614803266454
-0.49246636040625447	-0.3762335928850831
-0.49240532525000447	-0.36546126592833983
-0.49234429009375447	-0.3542114855515357
-0.49228325493750447	-0.34249849220613743
-0.49222221978125447	-0.33033689974744074
-0.49216118462500447	-0.3177412784475017
-0.49210014946875447	-0.3047277368861749
-0.49203911431250447	-0.2913114810846571
-0.49197807915625447	-0.27751068854201716
-0.49191704400000447	-0.26334089449790565
-0.49185600884375447	-0.24882108153988824
-0.49179497368750447	-0.23396800143092297
-0.49173393853125447	-0.2188006036277087
-0.49167290337500447	-0.2033381450038175
-0.49161186821875447	-0.18759961839962105
-0.49155083306250447	-0.1716049953087122
-0.49148979790625447	-0.15537306007417387
-0.49142876275000447	-0.1389252397354704
-0.49136772759375447	-0.12228108585193702
-0.49130669243750447	-0.10546312332425377
-0.49124565728125447	-0.08849038307478825
-0.49118462212500447	-0.071384753436572
-0.49112358696875447	-0.054168197057738586
-0.49106255181250447	-0.036861670735250415
-0.49100151665625447	-0.0194870139932454
-0.49094048150000447	-0.0020657002274914135
-0.49087944634375447	0.015379249195322003
-0.49081841118750447	0.03282785306879942
-0.49075737603125447	0.050256584734650375
-0.49069634087500447	0.067644587593671
-0.49063530571875447	0.084969094470419
-0.49057427056250447	0.10220919510589697
-0.49051323540625447	0.1193430680747207
-0.49045220025000447	0.13634800619463738
-0.49039116509375447	0.1532043357734679
-0.49033012993750447	0.16988984252874362
-0.49026909478125447	0.1863839028312838
-0.49020805962500447	0.2026644342067888
-0.49014702446875447	0.21871279811859265
-0.49008598931250447	0.23450750892928093
-0.49002495415625447	0.25002907710935907
-0.48996391900000447	0.2652577181643604
-0.48990288384375447	0.280173547723565
-0.48984184868750447	0.2947588876878139
-0.48978081353125447	0.3089942373731024
-0.48971977837500447	0.32286247751329855
-0.48965874321875447	0.3363444608762844
-0.48959770806250447	0.3494247251213177
-0.48953667290625447	0.3620855787265174
-0.48947563775000447	0.3743113783221258
-0.48941460259375447	0.3860862510660278
-0.48935356743750447	0.3973950576937335
-0.48929253228125447	0.40822401093312466
-0.48923149712500447	0.41855815176763167
-0.48917046196875447	0.4283856172601522
-0.48910942681250447	0.43769202093174975
-0.48904839165625447	0.4464671615173815
-0.48898735650000447	0.4546985213909172
-0.48892632134375447	0.4623759158986361
-0.48886528618750447	0.46948929605836803
-0.48880425103125447	0.47602926324392
-0.48874321587500447	0.48198779648946616
-0.48868218071875447	0.4873559896752723
-0.48862114556250447	0.4921283005958968
-0.48856011040625447	0.49629684384298584
-0.48849907525000447	0.4998572213339399
-0.48843804009375447	0.5028034943599515
-0.48837700493750447	0.5051326885475425
-0.48831596978125447	0.5068409763165179
-0.48825493462500447	0.5079256066282211
-0.48819389946875447	0.5083854761432515
-0.48813286431250447	0.50821868236586
-0.48807182915625447	0.5074263611580194
-0.48801079400000447	0.5060076741845236
-0.48794975884375447	0.5039654114377439
-0.48788872368750447	0.501300478935552
-0.48782768853125447	0.4980167765561653
-0.48776665337500447	0.49411755019570275
-0.48770561821875447	0.4896074900769483
-0.48764458306250447	0.4844920115017915
-0.48758354790625447	0.47877631509799945
-0.48752251275000447	0.4724688543240587
-0.48746147759375447	0.4655753069817125
-0.48740044243750447	0.45810525910911176
-0.48733940728125447	0.45006681445999425
-0.48727837212500447	0.44147070125004073
-0.48721733696875447	0.43232654744684385
-0.48715630181250447	0.42264546828391664
-0.48709526665625447	0.4124396164972295
-0.48703423150000447	0.40172108480299873
-0.48697319634375447	0.39050401121718376
-0.48691216118750447	0.37880031092897637
-0.48685112603125447	0.3666259479849591
-0.48679009087500447	0.35399477214886566
-0.48672905571875447	0.3409233685633274
-0.48666802056250447	0.3274268995757799
-0.48660698540625447	0.3135223174186264
-0.48654595025000447	0.29922708065773407
-0.48648491509375447	0.28455801761062527
-0.48642387993750447	0.26953433482124683
-0.48636284478125447	0.254173523406142
-0.48630180962500447	0.2384958202559317
-0.48624077446875447	0.22251891407515717
-0.48617973931250447	0.20626423638490488
-0.48611870415625447	0.18975133255836485
-0.48605766900000447	0.1730004071776459
-0.48599663384375447	0.1560323648975948
-0.48593559868750447	0.13886842521057965
-0.48587456353125447	0.1215305122476985
-0.48581352837500447	0.10403840944597366
-0.48575249321875447	0.08641582023145575
-0.48569145806250447	0.06868341144515154
-0.48563042290625447	0.050864028388376906
-0.48556938775000447	0.03297915997874508
-0.48550835259375447	0.015051615512003088
-0.48544731743750447	-0.0028966183127721794
-0.48538628228125447	-0.020843004609233017
-0.48532524712500447	-0.03876452586046287
-0.48526421196875447	-0.05664061434571863
-0.48520317681250447	-0.07444700898353812
-0.48514214165625447	-0.09216257567564602
-0.48508110650000447	-0.10976441088340029
-0.48502007134375447	-0.1272318508097495
-0.48495903618750447	-0.14454175104199557
-0.48489800103125447	-0.16167269966780887
-0.48483696587500447	-0.1786041971104239
-0.48477593071875447	-0.19531389334750585
-0.48471489556250447	-0.2117817202343031
-0.48465386040625447	-0.2279861818149467
-0.48459282525000447	-0.24390849742556267
-0.48453179009375447	-0.2595269578007412
-0.48447075493750447	-0.2748232104623553
-0.48440971978125447	-0.2897776359739725
-0.48434868462500447	-0.3043717647621054
-0.48428764946875447	-0.3185871385903239
-0.48422661431250447	-0.33240527698451183
-0.48416557915625447	-0.34581035045904696
-0.48410454400000447	-0.3587843710893847
-0.48404350884375447	-0.3713118153544173
-0.48398247368750447	-0.38337539838446577
-0.48392143853125447	-0.3949621248416449
-0.48386040337500447	-0.4060565299610559
-0.48379936821875447	-0.41664446694718055
-0.48373833306250447	-0.4267125038176264
-0.48367729790625447	-0.4362481142009646
-0.48361626275000447	-0.44524053479361686
-0.48355522759375447	-0.4536764896807235
-0.48349419243750447	-0.46154698261920835
-0.48343315728125447	-0.4688409163971916
-0.48337212212500447	-0.4755503205558959
-0.48331108696875447	-0.4816657353077864
-0.48325005181250447	-0.4871800753914408
-0.48318901665625447	-0.4920863687643694
-0.48312798150000447	-0.4963780173717245
-0.48306694634375447	-0.5000505626769349
-0.48300591118750447	-0.5030980587110184
-0.48294487603125447	-0.5055181998161854
-0.48288384087500447	-0.5073064907949273
-0.48282280571875447	-0.5084620636551799
-0.48276177056250447	-0.5089823895930672
-0.48270073540625447	-0.5088675008779405
-0.48263970025000447	-0.5081174360710766
-0.48257866509375447	-0.5067327940544378
-0.48251762993750447	-0.5047161789465361
-0.48245659478125447	-0.5020689678271207
-0.48239555962500447	-0.4987959997119981
-0.48233452446875447	-0.4948999941488009
-0.48227348931250447	-0.4903871558648099
-0.48221245415625447	-0.48526212771189103
-0.48215141900000447	-0.4795323587628838
-0.48209038384375447	-0.4732045424459789
-0.48202934868750447	-0.4662866889136657
-0.48196831353125447	-0.45878851434462925
-0.48190727837500447	-0.45071791619326057
-0.48184624321875447	-0.44208670139251743
-0.48178520806250447	-0.43290463988013006
-0.48172417290625447	-0.4231846438242555
-0.48166313775000447	-0.41293783117746835
-0.48160210259375447	-0.4021779102820571
-0.48154106743750447	-0.39091829497168096
-0.48148003228125447	-0.3791734932934781
-0.48141899712500447	-0.3669585606508947
-0.48135796196875447	-0.3542880114440059
-0.48129692681250447	-0.3411798407424817
-0.48123589165625447	-0.3276488190522375
-0.48117485650000447	-0.3137132142056189
-0.48111382134375447	-0.29939009949914497
-0.48105278618750447	-0.28469871410294584
-0.48099175103125447	-0.26965680477596604
-0.48093071587500447	-0.254283768809267
-0.48086968071875447	-0.23859945717132997
-0.48080864556250447	-0.22262276062307365
-0.48074761040625447	-0.2063760049327555
-0.48068657525000447	-0.18987821357398066
-0.48062554009375447	-0.1731510561900806
-0.48056450493750447	-0.15621508129445522
-0.48050346978125447	-0.13909330983618734
-0.48044243462500447	-0.12180638806200862
-0.48038139946875447	-0.1043766738388041
-0.48032036431250447	-0.08682680991051739
-0.48025932915625447	-0.06917798594793227
-0.48019829400000447	-0.051454248577534625
-0.48013725884375447	-0.033676996788640445
-0.48007622368750447	-0.01587007774311381
-0.48001518853125447	0.001945062489967303
-0.47995415337500447	0.019744949271081648
-0.47989311821875447	0.03750734400452174
-0.47983208306250447	0.05520831414970003
-0.47977104790625447	0.07282607233603966
-0.47971001275000447	0.09033946490258588
-0.47964897759375447	0.10772391652223734
-0.47958794243750447	0.12495804487351929
-0.47952690728125447	0.14201919038935357
-0.47946587212500447	0.1588875270286806
-0.47940483696875447	0.17553937371109102
-0.47934380181250447	0.19195407119289443
-0.47928276665625447	0.20811081584418853
-0.47922173150000447	0.2239886505480922
-0.47916069634375447	0.23956740976334714
-0.47909966118750447	0.2548266598102107
-0.47903862603125447	0.26974834014009974
-0.47897759087500447	0.284310987388403
-0.47891655571875447	0.29849754391451555
-0.47885552056250447	0.3122891729280304
-0.47879448540625447	0.325668837890945
-0.47873345025000447	0.33861850750364103
-0.47867241509375447	0.35112169803054916
-0.47861137993750447	0.3631629306758448
-0.47855034478125447	0.37472586700141186
-0.47848930962500447	0.38579655393293094
-0.47842827446875447	0.39635935291682484
-0.47836723931250447	0.40640243966836026
-0.47830620415625447	0.4159112672909222
-0.47824516900000447	0.4248745379062723
-0.47818413384375447	0.43328000168816083
-0.47812309868750447	0.44111723049291757
-0.47806206353125447	0.44837632528377125
-0.47800102837500447	0.45504674195820327
-0.47793999321875447	0.461121220658528
-0.47787895806250447	0.4665905403546417
-0.47781792290625447	0.4714490436953119
-0.47775688775000447	0.4756887900892655
-0.47769585259375447	0.4793054058043691
-0.47763481743750447	0.48229345434730303
-0.47757378228125447	0.48464929944488555
-0.47751274712500447	0.48636993058595956
-0.47745171196875447	0.4874522105842523
-0.47739067681250447	0.4878958372437906
-0.47732964165625447	0.4876987130015272
-0.47726860650000447	0.48686246931366456
-0.47720757134375447	0.485386508023572
-0.47714653618750447	0.48327383169491156
-0.47708550103125447	0.48052617698402084
-0.47702446587500447	0.4771473936312955
-0.47696343071875447	0.47314169830064123
-0.47690239556250447	0.46851338003152976
-0.47684136040625447	0.4632694868005664
-0.47678032525000447	0.4574151861194892
-0.47671929009375447	0.45095925508674484
-0.47665825493750447	0.44390862616513077
-0.47659721978125447	0.4362732345189136
-0.47653618462500447	0.4280616572888747
-0.47647514946875447	0.41928553253968825
-0.47641411431250447	0.40995542547363156
-0.47635307915625447	0.40008233493535805
-0.47629204400000447	0.3896806785427809
-0.47623100884375447	0.3787620973265051
-0.47616997368750447	0.3673415631930647
-0.47610893853125447	0.3554323781825277
-0.47604790337500447	0.34305122780842107
-0.47598686821875447	0.33021312515368567
-0.47592583306250447	0.31693469440430877
-0.47586479790625447	0.30323235782770613
-0.47580376275000447	0.28912391491576894
-0.47574272759375447	0.27462868610813096
-0.47568169243750447	0.25976330949712023
-0.47562065728125447	0.2445477938465782
-0.47555962212500447	0.2290011488194077
-0.47549858696875447	0.21314476082639372
-0.47543755181250447	0.19699677394676174
-0.47537651665625447	0.18057943433244686
-0.47531548150000447	0.16391392500097773
-0.47525444634375447	0.14702037842915683
-0.47519341118750447	0.1299216275374821
-0.47513237603125447	0.11263927298171587
-0.47507134087500447	0.09519628411128728
-0.47501030571875447	0.07761327697261021
-0.47494927056250447	0.05991482816695267
-0.47488823540625447	0.042122693140240815
-0.47482720025000447	0.0242603831326083
-0.47476616509375447	0.0063503554692046086
-0.47470512993750447	-0.011583985786829518
-0.47464409478125447	-0.029518936584896238
-0.47458305962500447	-0.04743292110023501
-0.47452202446875447	-0.06530117223980655
-0.47446098931250447	-0.08310139542416814
-0.47439995415625447	-0.10080935088556342
-0.47433891900000447	-0.1184043435007868
-0.47427788384375447	-0.135862449564236
-0.47421684868750447	-0.15316040106454915
-0.47415581353125447	-0.17027612854444807
-0.47409477837500447	-0.18718797565860074
-0.47403374321875447	-0.20387409010967453
-0.47397270806250447	-0.22031145286400014
-0.47391167290625447	-0.23648069357255944
-0.47385063775000447	-0.25235870618916617
-0.47378960259375447	-0.2679265236301881
-0.47372856743750447	-0.2831629570810288
-0.47366753228125447	-0.29804830295415274
-0.47360649712500447	-0.3125632796057179
-0.47354546196875447	-0.32668878400710255
-0.47348442681250447	-0.3404068642331395
-0.47342339165625447	-0.3536983598322342
-0.47336235650000447	-0.36654742811639446
-0.47330132134375447	-0.37893568506761377
-0.47324028618750447	-0.39084836607913903
-0.47317925103125447	-0.4022686119757482
-0.47311821587500447	-0.41318198298483677
-0.47305718071875447	-0.42357382101985347
-0.47299614556250447	-0.4334304131544296
-0.47293511040625447	-0.44273931809060063
-0.47287407525000447	-0.45148700865169744
-0.47281304009375447	-0.4596632059266589
-0.47275200493750447	-0.467255466341557
-0.47269096978125447	-0.4742553467263169
-0.47262993462500447	-0.48065197665208576
-0.47256889946875447	-0.4864375948564006
-0.47250786431250447	-0.49160398802917726
-0.47244682915625447	-0.4961439818371148
-0.47238579400000447	-0.5000520021953813
-0.47232475884375447	-0.5033214786962308
-0.47226372368750447	-0.5059490828219217
-0.47220268853125447	-0.507929529262016
-0.47214165337500447	-0.5092614890507147
-0.47208061821875447	-0.5099413298736439
-0.47201958306250447	-0.5099687508937856
-0.47195854790625447	-0.5093427954683295
-0.47189751275000447	-0.5080637886525003
-0.47183647759375447	-0.5061335101304454
-0.47177544243750447	-0.5035530832989706
-0.47171440728125447	-0.500326659581564
-0.47165337212500447	-0.49645635728880233
-0.47159233696875447	-0.49194829757953484
-0.47153130181250447	-0.4868065666806722
-0.47147026665625447	-0.4810385911137356
-0.47140923150000447	-0.47465037234892044
-0.47134819634375447	-0.46764970590688243
-0.47128716118750447	-0.4600461491522587
-0.47122612603125447	-0.45184813288654413
-0.47116509087500447	-0.4430665172754532
-0.47110405571875447	-0.4337110213891516
-0.47104302056250447	-0.4237950440281534
-0.47098198540625447	-0.4133292359946658
-0.47092095025000447	-0.4023279691197094
-0.47085991509375447	-0.3908042177442206
-0.47079887993750447	-0.378772847881461
-0.47073784478125447	-0.36624911270142885
-0.47067680962500447	-0.3532476905391875
-0.47061577446875447	-0.33978678696393966
-0.47055473931250447	-0.32588191082129986
-0.47049370415625447	-0.31155155553308267
-0.47043266900000447	-0.2968125408807585
-0.47037163384375447	-0.28168504043406595
