Time	Frequency
-0.5000355362187534	-0.12252526346990765
-0.4999745010625034	-0.11045415984051299
-0.4999134659062534	-0.0982760704023515
-0.4998524307500034	-0.08600201416549276
-0.4997913955937534	-0.07364239433590763
-0.4997303604375034	-0.061207903588349606
-0.4996693252812534	-0.0487097940322414
-0.4996082901250034	-0.03615915614719308
-0.4995472549687534	-0.0235670322668587
-0.4994862198125034	-0.010944390712596966
-0.4994251846562534	0.0016978149713096865
-0.4993641495000034	0.01434820015330955
-0.4993031143437534	0.02699550880008536
-0.4992420791875034	0.03962867012868586
-0.4991810440312534	0.05223642500786381
-0.4991200088750034	0.06480785986409544
-0.4990589737187534	0.0773319705017784
-0.4989979385625034	0.08979715871571352
-0.4989369034062534	0.10219239803994994
-0.4988758682500034	0.11450728406077298
-0.4988148330937534	0.12673079718110963
-0.4987537979375034	0.13885163718684226
-0.4986927627812534	0.15085901595418347
-0.4986317276250034	0.16274276338059732
-0.4985706924687534	0.17449259929863015
-0.4985096573125034	0.1860972491502488
-0.4984486221562534	0.19754620196783676
-0.4983875870000034	0.20883036569820654
-0.4983265518437534	0.21993956941893827
-0.4982655166875034	0.23086300019915867
-0.4982044815312534	0.24159112099645674
-0.4981434463750034	0.25211503507528826
-0.4980824112187534	0.2624253137576246
-0.4980213760625034	0.2725121140637883
-0.4979603409062534	0.2823664608292003
-0.4978993057500034	0.291980146969281
-0.4978382705937534	0.3013444172926662
-0.4977772354375034	0.3104505101318678
-0.4977162002812534	0.31929036032995434
-0.4976551651250034	0.3278561678558033
-0.4975941299687534	0.3361404250899739
-0.4975330948125034	0.3441356392860383
-0.4974720596562534	0.3518341992727105
-0.4974110245000034	0.3592292171751077
-0.4973499893437534	0.3663144940680979
-0.4972889541875034	0.3730837082651101
-0.4972279190312534	0.3795302914606679
-0.4971668838750034	0.3856481545975707
-0.4971058487187534	0.3914322099699925
-0.4970448135625034	0.3968774801680152
-0.4969837784062534	0.4019786264691434
-0.4969227432500034	0.4067308243000844
-0.4968617080937534	0.4111298965539688
-0.4968006729375034	0.4151719045505261
-0.4967396377812534	0.41885308737485555
-0.4966786026250034	0.4221699915334963
-0.4966175674687534	0.425119576714657
-0.4965565323125034	0.4276990257549259
-0.4964954971562534	0.4299058364069242
-0.4964344620000034	0.43173802619933793
-0.4963734268437534	0.4331938798721102
-0.4963123916875034	0.4342718556468706
-0.4962513565312534	0.43497077887486846
-0.4961903213750034	0.43528992248075654
-0.4961292862187534	0.4352289203214766
-0.4960682510625034	0.4347876557626986
-0.4960072159062534	0.43396632495297394
-0.4959461807500034	0.4327654859022341
-0.4958851455937534	0.4311860370616444
-0.4958241104375034	0.42922928386342335
-0.4957630752812534	0.42689683673108897
-0.4957020401250034	0.42419052534102464
-0.4956410049687534	0.42111256834298055
-0.4955799698125034	0.4176655880674336
-0.4955189346562534	0.4138525505445508
-0.4954578995000034	0.4096766863934324
-0.4953968643437534	0.4051414171940225
-0.4953358291875034	0.40025059125943185
-0.4952747940312534	0.39500857896374963
-0.4952137588750034	0.38941992881853343
-0.4951527237187534	0.38348920559282657
-0.4950916885625034	0.37722154578671724
-0.4950306534062534	0.37062263577413057
-0.4949696182500034	0.3636979563951345
-0.4949085830937534	0.35645342024710097
-0.4948475479375034	0.3488957048686341
-0.4947865127812534	0.3410312252637401
-0.4947254776250034	0.3328664530735267
-0.4946644424687534	0.3244087434707615
-0.4946034073125034	0.31566581081269335
-0.4945423721562534	0.3066451072835147
-0.4944813370000034	0.29735418803535835
-0.4944203018437534	0.2878012627233694
-0.4943592666875034	0.27799499440971814
-0.4942982315312534	0.267944008509665
-0.4942371963750034	0.2576568440600859
-0.4941761612187534	0.24714238135954023
-0.4941151260625034	0.23641011466221878
-0.4940540909062534	0.2254696253371174
-0.4939930557500034	0.21433036971915237
-0.4939320205937534	0.20300196829269634
-0.4938709854375034	0.19149432090946855
-0.4938099502812534	0.17981793438436008
-0.4937489151250034	0.16798316326513155
-0.4936878799687534	0.15599993567426584
-0.4936268448125034	0.14387904068561838
-0.4935658096562534	0.13163130888934937
-0.4935047745000034	0.11926720457824742
-0.4934437393437534	0.1067980014074569
-0.4933827041875034	0.09423482794965038
-0.4933216690312534	0.08158836955890121
-0.4932606338750034	0.0688697612263482
-0.4931995987187534	0.0560904181817925
-0.4931385635625034	0.043261850656652244
-0.4930775284062534	0.03039539187434918
-0.4930164932500034	0.017502218527774505
-0.4929554580937534	0.004593566730368084
-0.4928944229375034	-0.008319055875358465
-0.4928333877812534	-0.02122374683432445
-0.4927723526250034	-0.0341091834966465
-0.4927113174687534	-0.04696437143071129
-0.4926502823125034	-0.0597777998437748
-0.4925892471562534	-0.07253794268357418
-0.4925282120000034	-0.08523335207272278
-0.4924671768437534	-0.09785286500797802
-0.4924061416875034	-0.1103854197541349
-0.4923451065312534	-0.1228198407061033
-0.4922840713750034	-0.1351450246884302
-0.4922230362187534	-0.14734985618167717
-0.4921620010625034	-0.15942368939207655
-0.4921009659062534	-0.17135582441443334
-0.4920399307500034	-0.18313549359652787
-0.4919788955937534	-0.19475227867698008
-0.4919178604375034	-0.20619570375730525
-0.4918568252812534	-0.21745585512841356
-0.4917957901250034	-0.22852272912429564
-0.4917347549687534	-0.23938590450378158
-0.4916737198125034	-0.2500359614386409
-0.4916126846562534	-0.2604639655274009
-0.4915516495000034	-0.2706603054554702
-0.4914906143437534	-0.2806152925893715
-0.4914295791875034	-0.2903202744728062
-0.4913685440312534	-0.299767201812827
-0.4913075088750034	-0.30894750462201936
-0.4912464737187534	-0.3178524660005477
-0.4911854385625034	-0.32647405827292486
-0.4911244034062534	-0.3348049504503544
-0.4910633682500034	-0.3428380443803606
-0.4910023330937534	-0.35056576575069837
-0.4909412979375034	-0.35798070191800596
-0.4908802627812534	-0.36507666685334506
-0.4908192276250034	-0.37184768524424816
-0.4907581924687534	-0.3782873618282295
-0.4906971573125034	-0.38438967537414914
-0.4906361221562534	-0.3901492261760038
-0.4905750870000034	-0.39556105364930405
-0.4905140518437534	-0.40062040884413974
-0.4904530166875034	-0.40532255203177375
-0.4903919815312534	-0.40966307837918614
-0.4903309463750034	-0.4136381975385808
-0.4902699112187534	-0.41724451182146327
-0.4902088760625034	-0.42047877561805963
-0.4901478409062534	-0.4233378460526167
-0.4900868057500034	-0.4258191027512709
-0.4900257705937534	-0.4279205030234915
-0.4899647354375034	-0.42964013794957784
-0.4899037002812534	-0.4309763455040284
-0.4898426651250034	-0.43192788923845216
-0.4897816299687534	-0.4324939142587932
-0.4897205948125034	-0.43267391482529904
-0.4896595596562534	-0.4324676751067296
-0.4895985245000034	-0.43187534592189103
-0.4895374893437534	-0.4308974960329279
-0.4894764541875034	-0.42953492246393216
-0.4894154190312534	-0.42778871157638076
-0.4893543838750034	-0.4256605447410255
-0.4892933487187534	-0.42315237591795013
-0.4892323135625034	-0.420266239009679
-0.4891712784062534	-0.4170047406415015
-0.4891102432500034	-0.41337089468726185
-0.4890492080937534	-0.40936777753819964
-0.4889881729375034	-0.40499899447791216
-0.4889271377812534	-0.4002686540587075
-0.4888661026250034	-0.3951808075450141
-0.4888050674687534	-0.38973978363419975
-0.4887440323125034	-0.38395066742974426
-0.4886829971562534	-0.3778188327974467
-0.4886219620000034	-0.37134955244128764
-0.4885609268437534	-0.3645484965654935
-0.4884998916875034	-0.3574218904326814
-0.4884388565312534	-0.3499761139421478
-0.4883778213750034	-0.3422178643484278
-0.4883167862187534	-0.3341541256239066
-0.4882557510625034	-0.32579209209043525
-0.4881947159062534	-0.31713922786850185
-0.4881336807500034	-0.3082031785093064
-0.4880726455937534	-0.29899218327216337
-0.4880116104375034	-0.2895146304448553
-0.4879505752812534	-0.2797787607652598
-0.4878895401250034	-0.26979338493791843
-0.4878285049687534	-0.2595675365769706
-0.4877674698125034	-0.24911026092489078
-0.4877064346562534	-0.23843122370448927
-0.4876453995000034	-0.22754014488849242
-0.4875843643437534	-0.21644636585970004
-0.4875233291875034	-0.2051599335071251
-0.4874622940312534	-0.1936914327624445
-0.4874012588750034	-0.18205099205970723
-0.4873402237187534	-0.17024896331724923
-0.4872791885625034	-0.1582961573962334
-0.4872181534062534	-0.1462032965441466
-0.4871571182500034	-0.1339813015489782
-0.4870960830937534	-0.12164106483844647
-0.4870350479375034	-0.10919375160716424
-0.4869740127812534	-0.09665113468534942
-0.4869129776250034	-0.08402425504434904
-0.4868519424687534	-0.07132376268706866
-0.4867909073125034	-0.05856147881669221
-0.4867298721562534	-0.04574990606665175
-0.4866688370000034	-0.032900446645898605
-0.4866078018437534	-0.020023608284682498
-0.4865467666875034	-0.007131057682782718
-0.4864857315312534	0.00576459260465805
-0.4864246963750034	0.01865134410016435
-0.4863636612187534	0.03151818433942494
-0.4863026260625034	0.04435404281057904
-0.4862415909062534	0.0571468051756153
-0.4861805557500034	0.06988440372656574
-0.4861195205937534	0.08255551016242539
-0.4860584854375034	0.09514875525425831
-0.4859974502812534	0.10765273007162968
-0.4859364151250034	0.12005629618492414
-0.4858753799687534	0.13234798164905906
-0.4858143448125034	0.14451615013422847
-0.4857533096562534	0.15655011556281623
-0.4856922745000034	0.16843938022523924
-0.4856312393437534	0.18017264614500336
-0.4855702041875034	0.19173900130268157
-0.4855091690312534	0.2031283444334693
-0.4854481338750034	0.21433032978307057
-0.4853870987187534	0.22533442600041179
-0.4853260635625034	0.2361306777581191
-0.4852650284062534	0.24670933035365283
-0.4852039932500034	0.2570606775075251
-0.4851429580937534	0.2671754610189252
-0.4850819229375034	0.2770442495555389
-0.4850208877812534	0.2866576974881909
-0.4849598526250034	0.2960073087199551
-0.4848988174687534	0.3050848213540959
-0.4848377823125034	0.31388178593395644
-0.4847767471562534	0.3223897778389727
-0.4847157120000034	0.3306008455288934
-0.4846546768437534	0.3385078755030779
-0.4845936416875034	0.3461039297484503
-0.4845326065312534	0.353381607682723
-0.4844715713750034	0.3603337769101572
-0.4844105362187534	0.3669543127485483
-0.4843495010625034	0.37323751421944296
-0.4842884659062534	0.37917742721957465
-0.4842274307500034	0.3847682477759261
-0.4841663955937534	0.390004728197131
-0.4841053604375034	0.3948822038239405
-0.4840443252812534	0.3993963663474572
-0.4839832901250034	0.40354275109494075
-0.4839222549687534	0.40731725591930545
-0.4838612198125034	0.41071659042577235
-0.4838001846562534	0.4137375679638158
-0.4837391495000034	0.41637719861046185
-0.4836781143437534	0.4186330491742346
-0.4836170791875034	0.42050288854176543
-0.4835560440312534	0.4219848097779763
-0.4834950088750034	0.42307744466831726
-0.4834339737187534	0.42377969451014047
-0.4833729385625034	0.4240907123715628
-0.4833119034062534	0.4240100775381254
-0.4832508682500034	0.4235377512920223
-0.4831898330937534	0.42267403195723485
-0.4831287979375034	0.4214195849123478
-0.4830677627812534	0.41977538973843903
-0.4830067276250034	0.41774277239539503
-0.4829456924687534	0.4153235266668086
-0.4828846573125034	0.41251970609329597
-0.4828236221562534	0.40933360473052127
-0.4827625870000034	0.40576809764425054
-0.4827015518437534	0.40182632286181486
-0.4826405166875034	0.3975116054385481
-0.4825794815312534	0.392827891634102
-0.4825184463750034	0.3877792747372599
-0.4824574112187534	0.38236989915945513
-0.4823963760625034	0.37660488566478795
-0.4823353409062534	0.3704897625254999
-0.4822743057500034	0.3640292599543815
-0.4822132705937534	0.35722883732996247
-0.4821522354375034	0.350095456850681
-0.4820912002812534	0.3426355684743866
-0.4820301651250034	0.3348551536393781
-0.4819691299687534	0.32676103511281185
-0.4819080948125034	0.31836089155089003
-0.4818470596562534	0.30966265273543
-0.4817860245000034	0.30067378944073575
-0.4817249893437534	0.29140186611279556
-0.4816639541875034	0.28185552395798674
-0.4816029190312534	0.27204380418533936
-0.4815418838750034	0.26197529495214805
-0.4814808487187534	0.2516588428125972
-0.4814198135625034	0.24110388245772466
-0.4813587784062534	0.2303198442367988
-0.4812977432500034	0.21931662952367065
-0.4812367080937534	0.20810444251774418
-0.4811756729375034	0.19669295551511065
-0.4811146377812534	0.1850923252374104
-0.4810536026250034	0.1733135190162182
-0.4809925674687534	0.1613673332583411
-0.4809315323125034	0.14926425227988274
-0.4808704971562534	0.13701514573445053
-0.4808094620000034	0.12463120958008914
-0.4807484268437534	0.11212373390806085
-0.4806873916875034	0.0995045354848045
-0.4806263565312534	0.08678466513734255
-0.4805653213750034	0.07397504042714306
-0.4805042862187534	0.06108812269818351
-0.4804432510625034	0.048135868257985034
-0.4803822159062534	0.03512946399418314
-0.4803211807500034	0.022080801018187136
-0.4802601455937534	0.00900193358317847
-0.4801991104375034	-0.004095132356686597
-0.4801380752812534	-0.017198538162044377
-0.4800770401250034	-0.030296652990341847
-0.4800160049687534	-0.04337713178541118
-0.4799549698125034	-0.05642759586700089
-0.4798939346562534	-0.06943690359062658
-0.4798328995000034	-0.08239352468631223
-0.4797718643437534	-0.09528466071236685
-0.4797108291875034	-0.10809821279828305
-0.4796497940312534	-0.12082333297662304
-0.4795887588750034	-0.1334487003677433
-0.4795277237187534	-0.14596193295720344
-0.4794666885625034	-0.15835127832024382
-0.4794056534062534	-0.17060603127852716
-0.4793446182500034	-0.18271505692965573
-0.4792835830937534	-0.19466686379140813
-0.4792225479375034	-0.2064504406100596
-0.4791615127812534	-0.21805497677236652
-0.4791004776250034	-0.22946981861061708
-0.4790394424687534	-0.24068469290312888
-0.4789784073125034	-0.2516891786934563
-0.4789173721562534	-0.2624727719564426
-0.4788563370000034	-0.27302562062779145
-0.4787953018437534	-0.2833382706209451
-0.4787342666875034	-0.29340116475595485
-0.4786732315312534	-0.303204887749255
-0.4786121963750034	-0.3127401968216109
-0.4785511612187534	-0.3219981015302133
-0.4784901260625034	-0.33097044993653574
-0.4784290909062534	-0.33964922535756775
-0.4783680557500034	-0.3480256493437909
-0.4783070205937534	-0.35609163255409804
-0.4782459854375034	-0.36384045991913544
-0.4781849502812534	-0.37126498233226074
-0.4781239151250034	-0.37835759860241464
-0.4780628799687534	-0.3851117780179971
-0.4780018448125034	-0.3915215123853584
-0.4779408096562534	-0.3975806508909612
-0.4778797745000034	-0.40328337427921074
-0.4778187393437534	-0.40862432240259067
-0.4777577041875034	-0.4135985006155958
-0.4776966690312534	-0.41820115115435696
-0.4776356338750034	-0.42242786825485873
-0.4775745987187534	-0.42627459295865044
-0.4775135635625034	-0.42973758249631483
-0.4774525284062534	-0.4328135484872621
-0.4773914932500034	-0.4354994596432027
-0.4773304580937534	-0.43779264079784325
-0.4772694229375034	-0.4396908114412516
-0.4772083877812534	-0.44119197446997704
-0.4771473526250034	-0.4422946087159363
-0.4770863174687534	-0.442997531348063
-0.4770252823125034	-0.44329981263828233
-0.4769642471562534	-0.4432009863163875
-0.4769032120000034	-0.4427009866790593
-0.4768421768437534	-0.4418000115356407
-0.4767811416875034	-0.440498606916895
-0.4767201065312534	-0.43879783121506244
-0.4766590713750034	-0.43669913366325913
-0.4765980362187534	-0.4342040692857316
-0.4765370010625034	-0.43131458777475135
-0.4764759659062534	-0.4280333122902147
-0.4764149307500034	-0.4243631011649718
-0.4763538955937534	-0.4203069748471615
-0.4762928604375034	-0.41586838043229535
-0.4762318252812534	-0.4110511307626173
-0.4761707901250034	-0.40585955639248184
-0.4761097549687534	-0.40029833389134384
-0.4760487198125034	-0.3943720635531917
-0.4759876846562534	-0.3880858863948437
-0.4759266495000034	-0.3814457128493255
-0.4758656143437534	-0.3744572759177683
-0.4758045791875034	-0.36712648500445655
-0.4757435440312534	-0.3594601837494942
-0.4756825088750034	-0.3514652250525745
-0.4756214737187534	-0.3431484652471998
-0.4755604385625034	-0.3345174332313103
-0.4754994034062534	-0.3255797758451772
-0.4754383682500034	-0.31634360229263464
-0.4753773330937534	-0.30681742484578256
-0.4753162979375034	-0.2970093093346052
-0.4752552627812534	-0.2869278895152555
-0.4751942276250034	-0.27658275585504244
-0.4751331924687534	-0.26598343644623584
-0.4750721573125034	-0.25513898146916136
-0.4750111221562534	-0.2440586447766198
-0.4749500870000034	-0.23275298169332106
-0.4748890518437534	-0.22123279545300864
-0.4748280166875034	-0.2095079299521572
-0.4747669815312534	-0.19758846684083942
-0.4747059463750034	-0.1854854056394481
-0.4746449112187534	-0.17321013142336436
-0.4745838760625034	-0.16077392499329754
-0.4745228409062534	-0.1481875059414934
-0.4744618057500034	-0.13546185606526748
-0.4744007705937534	-0.12260922676079054
-0.4743397354375034	-0.10964162707526429
-0.4742787002812534	-0.09656998401473346
-0.4742176651250034	-0.08340606540349309
-0.4741566299687534	-0.07016252172920875
-0.4740955948125034	-0.056851225751257325
-0.4740345596562534	-0.04348404856092985
-0.4739735245000034	-0.030073248668737677
-0.4739124893437534	-0.016630660321326738
-0.4738514541875034	-0.003168788554040536
-0.4737904190312534	0.01029939410000415
-0.4737293838750034	0.0237622595216157
-0.4736683487187534	0.037208399349247245
-0.4736073135625034	0.050624663081029024
-0.4735462784062534	0.06399800475918069
-0.4734852432500034	0.07731731035065677
-0.4734242080937534	0.09057088796056754
-0.4733631729375034	0.10374556903930521
-0.4733021377812534	0.11682934623506298
-0.4732411026250034	0.12981113676645178
-0.4731800674687534	0.14267860583453262
-0.4731190323125034	0.15541932422482324
-0.4730579971562534	0.16802244441673703
-0.4729969620000034	0.18047687733558115
-0.4729359268437534	0.19277032840816455
-0.4728748916875034	0.20489123375310853
-0.4728138565312534	0.21682916618854586
-0.4727528213750034	0.22857355191393572
-0.4726917862187534	0.2401131405644722
-0.4726307510625034	0.2514369499430815
-0.4725697159062534	0.2625349845468966
-0.4725086807500034	0.2733971721834844
-0.4724476455937534	0.2840133629065149
-0.4723866104375034	0.29437402511847616
-0.4723255752812534	0.3044693894431316
-0.4722645401250034	0.3142898811194588
-0.4722035049687534	0.32382706741152956
-0.4721424698125034	0.3330722112801161
-0.4720814346562534	0.34201609131195576
-0.4720203995000034	0.3506507215622184
-0.4719593643437534	0.3589687184489773
-0.4718983291875034	0.3669619877759691
-0.4718372940312534	0.3746227852797262
-0.4717762588750034	0.38194440627588894
-0.4717152237187534	0.38892026680286723
-0.4716541885625034	0.3955437497995742
-0.4715931534062534	0.4018085466883543
-0.4715321182500034	0.40770887597913663
-0.4714710830937534	0.4132394468949274
-0.4714100479375034	0.4183951200737675
-0.4713490127812534	0.4231710672240424
-0.4712879776250034	0.42756274553058293
-0.4712269424687534	0.4315659580845996
-0.4711659073125034	0.4351771859184305
-0.4711048721562534	0.4383931678876274
-0.4710438370000034	0.4412106828464355
-0.4709828018437534	0.44362695088796367
-0.4709217666875034	0.4456397814552788
-0.4708607315312534	0.4472474247147929
-0.4707996963750034	0.44844832042204286
-0.4707386612187534	0.4492411381886034
-0.4706776260625034	0.4496250707405257
-0.4706165909062534	0.4495997853288265
-0.4705555557500034	0.4491652768738772
-0.4704945205937534	0.44832188780439136
-0.4704334854375034	0.4470702727475534
-0.4703724502812534	0.4454114441139208
-0.4703114151250034	0.44334689439791636
-0.4702503799687534	0.44087860378639393
-0.4701893448125034	0.4380088131858819
-0.4701283096562534	0.43473986127860004
-0.4700672745000034	0.4310745980988859
-0.4700062393437534	0.42701667584525477
-0.4699452041875034	0.4225699310889908
-0.4698841690312534	0.4177379903393894
-0.4698231338750034	0.4125250525723572
-0.4697620987187534	0.4069362460132654
-0.4697010635625034	0.4009768871044276
-0.4696400284062534	0.39465217546397496
