Time	Frequency
-0.5000070271874932	0.32442328622070626
-0.49994599203124324	0.33640867694361637
-0.49988495687499324	0.3479978220371367
-0.49982392171874324	0.35918077032221124
-0.49976288656249324	0.3699384283961486
-0.49970185140624324	0.38026350796677627
-0.49964081624999324	0.3901373636070259
-0.49957978109374324	0.39955204861359206
-0.49951874593749324	0.4084954648899078
-0.49945771078124324	0.41695354274596774
-0.49939667562499324	0.4249212485985784
-0.49933564046874324	0.4323820803747829
-0.49927460531249324	0.4393329961468729
-0.49921357015624324	0.4457607844277573
-0.49915253499999324	0.4516596235213519
-0.49909149984374324	0.4570226114587729
-0.49903046468749324	0.4618391763144388
-0.49896942953124324	0.46610959738176255
-0.49890839437499324	0.4698211409272662
-0.49884735921874324	0.47297503730730556
-0.49878632406249324	0.4755633498769854
-0.49872528890624324	0.47758340056325344
-0.49866425374999324	0.4790347771343976
-0.49860321859374324	0.479910120017927
-0.49854218343749324	0.480214743256356
-0.49848114828124324	0.47994096543551756
-0.49842011312499324	0.4790942273207341
-0.49835907796874324	0.4776722597706216
-0.49829804281249324	0.4756757773981273
-0.49823700765624324	0.4731106346337364
-0.49817597249999324	0.46997316702618236
-0.49811493734374324	0.4662738028586425
-0.49805390218749324	0.4620102236484088
-0.49799286703124324	0.45719160556096156
-0.49793183187499324	0.45182145200947293
-0.49787079671874324	0.44590405728075494
-0.49780976156249324	0.4394512199744039
-0.49774872640624324	0.4324630700899076
-0.49768769124999324	0.42495487289328326
-0.49762665609374324	0.4169294058013041
-0.49756562093749324	0.40839881573998166
-0.49750458578124324	0.3993730378546579
-0.49744355062499324	0.38985968882690786
-0.49738251546874324	0.3798749008264386
-0.49732148031249324	0.3694230389535912
-0.49726044515624324	0.3585237509408263
-0.49719940999999324	0.3471841806379838
-0.49713837484374324	0.33541963713952005
-0.49707733968749324	0.3232452949449503
-0.49701630453124324	0.3106704166556521
-0.49695526937499324	0.2977167027038159
-0.49689423421874324	0.2843924879732243
-0.49683319906249324	0.2707189245383028
-0.49677216390624324	0.2567078519356276
-0.49671112874999324	0.24237698106169042
-0.49665009359374324	0.22774611478533294
-0.49658905843749324	0.21282624566111738
-0.49652802328124324	0.19764196481954627
-0.49646698812499324	0.18220489840137735
-0.49640595296874324	0.16653788352664164
-0.49634491781249324	0.15065671190869645
-0.49628388265624324	0.13457983660866638
-0.49622284749999324	0.11833015770900157
-0.49616181234374324	0.10192019330673029
-0.49610077718749324	0.08537661437789565
-0.49603974203124324	0.06871307271925012
-0.49597870687499324	0.05195248112852042
-0.49591767171874324	0.035114157711474143
-0.49585663656249324	0.018216434299398128
-0.49579560140624324	0.0012834356213617497
-0.49573456624999324	-0.015671599467699034
-0.49567353109374324	-0.032621053910822505
-0.49561249593749324	-0.049550069723939404
-0.49555146078124324	-0.06643654855433885
-0.49549042562499324	-0.08325969481254428
-0.49542939046874324	-0.10000292192276515
-0.49536835531249324	-0.11664050140787403
-0.49530732015624324	-0.13315948353708107
-0.49524628499999324	-0.14953385951754486
-0.49518524984374324	-0.16574859344985216
-0.49512421468749324	-0.1817835791496378
-0.49506317953124324	-0.19761639782559995
-0.49500214437499324	-0.21323369397136813
-0.49494110921874324	-0.2286108766331499
-0.49488007406249324	-0.24373554453228127
-0.49481903890624324	-0.2585845000592103
-0.49475800374999324	-0.2731426835731465
-0.49469696859374324	-0.2873934571781156
-0.49463593343749324	-0.3013157133005143
-0.49457489828124324	-0.31489912566365647
-0.49451386312499324	-0.32812061820814303
-0.49445282796874324	-0.3409699039137459
-0.49439179281249324	-0.3534280896864242
-0.49433075765624324	-0.3654811465867116
-0.49426972249999324	-0.37711689101671725
-0.49420868734374324	-0.3883160857946081
-0.49414765218749324	-0.3990720354387241
-0.49408661703124324	-0.4093652041764357
-0.49402558187499324	-0.4191882784585284
-0.49396454671874324	-0.42852711166824253
-0.49390351156249324	-0.43736929220217047
-0.49384247640624324	-0.44570817321502104
-0.49378144124999324	-0.45352783290489196
-0.49372040609374324	-0.46082560546890466
-0.49365937093749324	-0.467586209307905
-0.49359833578124324	-0.4738055544270032
-0.49353730062499324	-0.4794753873622744
-0.49347626546874324	-0.4845863023316739
-0.49341523031249324	-0.4891370681702781
-0.49335419515624324	-0.4931152930311924
-0.49329315999999324	-0.4965232304401625
-0.49323212484374324	-0.49935104373051054
-0.49317108968749324	-0.5015979046801717
-0.49311005453124324	-0.5032616270488194
-0.49304901937499324	-0.5043362461233244
-0.49298798421874324	-0.50482656392168
-0.49292694906249324	-0.5047245297016969
-0.49286591390624324	-0.5040367902394672
-0.49280487874999324	-0.5027594066181548
-0.49274384359374324	-0.5008952597655988
-0.49268280843749324	-0.49844845371919017
-0.49262177328124324	-0.49541653978466393
-0.49256073812499324	-0.4918100498119984
-0.49249970296874324	-0.48762593050272
-0.49243866781249324	-0.4828749664097754
-0.49237763265624324	-0.477559094936189
-0.49231659749999324	-0.4716848218057142
-0.49225556234374324	-0.4652624030963364
-0.49219452718749324	-0.45829300052792543
-0.49213349203124324	-0.4507924091058041
-0.49207245687499324	-0.44276253103957297
-0.49201142171874324	-0.43421772090492144
-0.49195038656249324	-0.42516595025636544
-0.49188935140624324	-0.41561683620192186
-0.49182831624999324	-0.40558588145671054
-0.49176728109374324	-0.3950781714758099
-0.49170624593749324	-0.38411415005276095
-0.49164521078124324	-0.37269978209203175
-0.49158417562499324	-0.36085260410326125
-0.49152314046874324	-0.34858640288462
-0.49146210531249324	-0.335912711252349
-0.49140107015624324	-0.322852179993048
-0.49134003499999324	-0.30941315089737464
-0.49127899984374324	-0.2956189569051322
-0.49121796468749324	-0.2814802219132854
-0.49115692953124324	-0.2670164205467385
-0.49109589437499324	-0.252245927728473
-0.49103485921874324	-0.23718175052925203
-0.49097382406249324	-0.22184870475658358
-0.49091278890624324	-0.20625801338434416
-0.49085175374999324	-0.19043370281762925
-0.49079071859374324	-0.17439086779318286
-0.49072968343749324	-0.15815072633774413
-0.49066864828124324	-0.1417341217198548
-0.49060761312499324	-0.12515495790963393
-0.49054657796874324	-0.10844046909341867
-0.49048554281249324	-0.09160392120324601
-0.49042450765624324	-0.07467102299950917
-0.49036347249999324	-0.057658522232035
-0.49030243734374324	-0.04058611006671593
-0.49024140218749324	-0.023478787802212735
-0.49018036703124324	-0.006350796730521447
-0.49011933187499324	0.010770772492447917
-0.49005829671874324	0.027871748387979182
-0.48999726156249324	0.044927406996282886
-0.48993622640624324	0.061918218030488886
-0.48987519124999324	0.0788259056429567
-0.48981415609374324	0.09562580691353426
-0.48975312093749324	0.11230420012795499
-0.48969208578124324	0.1288337957387166
-0.48963105062499324	0.14520103051967154
-0.48957001546874324	0.1613834645075456
-0.48950898031249324	0.17736014095176428
-0.48944794515624324	0.1931161351910088
-0.48938690999999324	0.2086273810771382
-0.48932587484374324	0.22388169025778598
-0.48926483968749324	0.23885381268770356
-0.48920380453124324	0.2535304486806169
-0.48914276937499324	0.2678933341565904
-0.48908173421874324	0.28192248768829953
-0.48902069906249324	0.29560622104212475
-0.48895966390624324	0.3089215290803631
-0.48889862874999324	0.32185919516608363
-0.48883759359374324	0.33439837351279417
-0.48877655843749324	0.34652643976743436
-0.48871552328124324	0.3582297679501236
-0.48865448812499324	0.3694906326408372
-0.48859345296874324	0.3803014271028365
-0.48853241781249324	0.39064196907401255
-0.48847138265624324	0.4005063439696521
-0.48841034749999324	0.4098788195890946
-0.48834931234374324	0.4187489844541443
-0.48828827718749324	0.4271084631353524
-0.48822724203124324	0.43494216288045806
-0.48816620687499324	0.4422475365436521
-0.48810517171874324	0.44900879885740663
-0.48804413656249324	0.4552235035037115
-0.48798310140624324	0.46088147432240145
-0.48792206624999324	0.4659752873721268
-0.48786103109374324	0.4705024828385756
-0.48779999593749324	0.4744516962681726
-0.48773896078124324	0.47782574268414085
-0.48767792562499324	0.4806134922722303
-0.48761689046874324	0.4828163284345959
-0.48755585531249324	0.48443045265176043
-0.48749482015624324	0.4854518449101123
-0.48743378499999324	0.4858845045605321
-0.48737274984374324	0.4857208691601854
-0.48731171468749324	0.4849686735980946
-0.48725067953124324	0.4836228158433378
-0.48718964437499324	0.4816886094146638
-0.48712860921874324	0.4791684515180369
-0.48706757406249324	0.476061737705727
-0.48700653890624324	0.4723787524779446
-0.48694550374999324	0.4681166769198656
-0.48688446859374324	0.4632878947741412
-0.48682343343749324	0.45789296268209606
-0.48676239828124324	0.4519406437179831
-0.48670136312499324	0.4454398606294183
-0.48664032796874324	0.4383940063202441
-0.48657929281249324	0.43081866304731586
-0.48651825765624324	0.42271516607785414
-0.48645722249999324	0.41410028620997297
-0.48639618734374324	0.4049805981792893
-0.48633515218749324	0.3953679528100343
-0.48627411703124324	0.38527702614849746
-0.48621308187499324	0.3747144026108756
-0.48615204671874324	0.363700201708776
-0.48609101156249324	0.35224044554280026
-0.48602997640624324	0.34035588928998567
-0.48596894124999324	0.3280577396066357
-0.48590790609374324	0.31535958785655566
-0.48584687093749324	0.3022818127540014
-0.48578583578124324	0.2888341291760166
-0.48572480062499324	0.2750407464584844
-0.48566376546874324	0.2609107211517976
-0.48560273031249324	0.2464661365661811
-0.48554169515624324	0.23172464525271164
-0.48548065999999324	0.2167013842251408
-0.48541962484374324	0.2014194565246105
-0.48535858968749324	0.18589074661158542
-0.48529755453124324	0.17014233145073587
-0.48523651937499324	0.15418755811638649
-0.48517548421874324	0.1380486088905434
-0.48511444906249324	0.12174561321270476
-0.48505341390624324	0.10529513572232509
-0.48499237874999324	0.088723716298235
-0.48493134359374324	0.07204442688432619
-0.48487030843749324	0.05528482141306234
-0.48480927328124324	0.03846002075459915
-0.48474823812499324	0.02159208158034102
-0.48468720296874324	0.004704916595791
-0.48462616781249324	-0.012185911227991482
-0.48456513265624324	-0.029053469773884524
-0.48450409749999324	-0.04588415746340383
-0.48444306234374324	-0.06265089753807254
-0.48438202718749324	-0.07933592898460576
-0.48432099203124324	-0.09591951954709255
-0.48425995687499324	-0.11237781199388319
-0.48419892171874324	-0.12869603305824276
-0.48413788656249324	-0.14484684983803583
-0.48407685140624324	-0.16081718986605217
-0.48401581624999324	-0.17658291158237965
-0.48395478109374324	-0.1921259994576278
-0.48389374593749324	-0.20742878964924308
-0.48383271078124324	-0.22246735120943673
-0.48377167562499324	-0.23723037985674805
-0.48371064046874324	-0.25169245370799515
-0.48364960531249324	-0.265841301439022
-0.48358857015624324	-0.27965606410949534
-0.48352753499999324	-0.29311901020575776
-0.48346649984374324	-0.30621790698774226
-0.48340546468749324	-0.31893029877532747
-0.48334442953124324	-0.33124691226425473
-0.48328339437499324	-0.34314595452069796
-0.48322235921874324	-0.35461733625307473
-0.48316132406249324	-0.3656455133169708
-0.48310028890624324	-0.37621440417314295
-0.48303925374999324	-0.3863159412967013
-0.48297821859374324	-0.3959305124141154
-0.48291718343749324	-0.4050531648054071
-0.48285614828124324	-0.41366684192085784
-0.48279511312499324	-0.4217638698002325
-0.48273407796874324	-0.42933436205031095
-0.48267304281249324	-0.4363645490702273
-0.48261200765624324	-0.4428521451213513
-0.48255097249999324	-0.44878201265175444
-0.48248993734374324	-0.454152845525561
-0.48242890218749324	-0.4589528874699375
-0.48236786703124324	-0.4631779145613055
-0.48230683187499324	-0.4668244229906227
-0.48224579671874324	-0.4698823389375474
-0.48218476156249324	-0.47235488767602174
-0.48212372640624324	-0.47423107402672526
-0.48206269124999324	-0.47551456699717304
-0.48200165609374324	-0.47620012332727407
-0.48194062093749324	-0.4762864209961886
-0.48187958578124324	-0.47577667477623614
-0.48181855062499324	-0.47466485394684726
-0.48175751546874324	-0.4729597532673202
-0.48169648031249324	-0.47065588008988973
-0.48163544515624324	-0.4677610137239059
-0.48157440999999324	-0.46427626948072315
-0.48151337484374324	-0.4602041040294116
-0.48145233968749324	-0.4555541911511449
-0.48139130453124324	-0.4503246975366159
-0.48133026937499324	-0.44452975119701293
-0.48126923421874324	-0.4381691860810068
-0.48120819906249324	-0.43125472000590503
-0.48114716390624324	-0.4237941767375063
-0.48108612874999324	-0.41579322338075053
-0.48102509359374324	-0.40726750272279794
-0.48096405843749324	-0.39821955557454314
-0.48090302328124324	-0.3886678090486005
-0.48084198812499324	-0.3786176789436961
-0.48078095296874324	-0.36808437251166776
-0.48071991781249324	-0.3570816579889165
-0.48065888265624324	-0.3456181144506341
-0.48059784749999324	-0.33371418935297664
-0.48053681234374324	-0.32137670043128075
-0.48047577718749324	-0.30862826867112214
-0.48041474203124324	-0.2954788496090275
-0.48035370687499324	-0.2819457574637516
-0.48029267171874324	-0.26804831995229367
-0.48023163656249324	-0.25379743294843243
-0.48017060140624324	-0.2392179038324274
-0.48010956624999324	-0.22432000509222966
-0.48004853109374324	-0.2091283980717503
-0.47998749593749324	-0.19365755320723513
-0.47992646078124324	-0.17792613187342
-0.47986542562499324	-0.16195803146137075
-0.47980439046874324	-0.14576544468888913
-0.47974335531249324	-0.12937576121605313
-0.47968232015624324	-0.1128025610905493
-0.47962128499999324	-0.0960709839353254
-0.47956024984374324	-0.0791993894628941
-0.47949921468749324	-0.062206570747442215
-0.47943817953124324	-0.04511865722860806
-0.47937714437499324	-0.02794953098295102
-0.47931610921874324	-0.010728057627197009
-0.47925507406249324	0.006531053246514024
-0.47919403890624324	0.023803473229465518
-0.47913300374999324	0.04106800824320483
-0.47907196859374324	0.05830636504880727
-0.47901093343749324	0.07549061380510032
-0.47894989828124324	0.09260775387240903
-0.47888886312499324	0.10963030310877324
-0.47882782796874324	0.12654171233844425
-0.47876679281249324	0.1433186974392008
-0.47870575765624324	0.15993890812606681
-0.47864472249999324	0.17638726151361608
-0.47858368734374324	0.1926364838900463
-0.47852265218749324	0.20867347734466477
-0.47846161703124324	0.22447232608300882
-0.47840058187499324	0.24001701592104419
-0.47833954671874324	0.25528791771964143
-0.47827851156249324	0.270262879548375
-0.47821747640624324	0.28492982051172766
-0.47815644124999324	0.29926240224482786
-0.47809540609374324	0.3132500460015028
-0.47803437093749324	0.3268706958477051
-0.47797333578124324	0.3401082225270263
-0.47791230062499324	0.3529487127677026
-0.47785126546874324	0.36537130692369085
-0.47779023031249324	0.3773667318946432
-0.47772919515624324	0.3889128562323854
-0.47766815999999324	0.4000015130215318
-0.47760712484374324	0.4106149683682354
-0.47754608968749324	0.4207397551514946
-0.47748505453124324	0.430367446282574
-0.47742401937499324	0.439478983801975
-0.47736298421874324	0.4480699108868143
-0.47730194906249324	0.4561229512066774
-0.47724091390624324	0.46363272239693737
-0.47717987874999324	0.47058780692663227
-0.47711884359374324	0.47697730357611734
-0.47705780843749324	0.48279819652917577
-0.47699677328124324	0.48803562371356585
-0.47693573812499324	0.4926902958226899
-0.47687470296874324	0.49675017831235485
-0.47681366781249324	0.5002133272061243
-0.47675263265624324	0.5030747228292162
-0.47669159749999324	0.5053270089749486
-0.47663056234374324	0.5069736372364243
-0.47656952718749324	0.5080042053307924
-0.47650849203124324	0.5084244133086241
-0.47644745687499324	0.5082280059185236
-0.47638642171874324	0.5074168157153093
-0.47632538656249324	0.5059931767663466
-0.47626435140624324	0.5039533390772862
-0.47620331624999324	0.5013066861681098
-0.47614228109374324	0.4980480086845847
-0.47608124593749324	0.49418778143584446
-0.47602021078124324	0.48972616660557783
-0.47595917562499324	0.4846687875253858
-0.47589814046874324	0.479024626573448
-0.47583710531249324	0.47279381751690136
-0.47577607015624324	0.4659916230103708
-0.47571503499999324	0.4586182225924054
-0.47565399984374324	0.4506882487957218
-0.47559296468749324	0.44220799747638545
-0.47553192953124324	0.4331866629664324
-0.47547089437499324	0.42363963617945083
-0.47540985921874324	0.4135707849092539
-0.47534882406249324	0.403000558282907
-0.47528778890624324	0.39193413786153475
-0.47522675374999324	0.38038921357809685
-0.47516571859374324	0.36837861049002446
-0.47510468343749324	0.3559147423649702
-0.47504364828124324	0.3430176889716002
-0.47498261312499324	0.3296947759364927
-0.47492157796874324	0.3159706731009567
-0.47486054281249324	0.3018555183627841
-0.47479950765624324	0.28737009308267336
-0.47473847249999324	0.2725311675920691
-0.47467743734374324	0.2573526054004629
-0.47461640218749324	0.24186078658183754
-0.47455536703124324	0.22606587811915416
-0.47449433187499324	0.209994232628454
-0.47443329671874324	0.19365974787439277
-0.47437226156249324	0.1770844722466314
-0.47431122640624324	0.16029082628327587
-0.47425019124999324	0.14329338708345196
-0.47418915609374324	0.12612070689139196
-0.47412812093749324	0.10878505852811228
-0.47406708578124324	0.09131377472963087
-0.47400605062499324	0.073725952776388
-0.47394501546874324	0.056042681199086036
-0.47388398031249324	0.03828734940008628
-0.47382294515624324	0.020476299515591143
-0.47376190999999324	0.0026398744169268498
-0.47370087484374324	-0.015208464951495072
-0.47363983968749324	-0.03304181845965617
-0.47357880453124324	-0.050840327674494167
-0.47351776937499324	-0.06858348493891239
-0.47345673421874324	-0.08624493787269111
-0.47339569906249324	-0.10381073318313389
-0.47333466390624324	-0.12125091128929069
-0.47327362874999324	-0.13855056738934304
-0.47321259359374324	-0.15568570320515232
-0.47315155843749324	-0.17263533431974956
-0.47309052328124324	-0.1893813898515536
-0.47302948812499324	-0.20589753790644272
-0.47296845296874324	-0.22217117740080589
-0.47290741781249324	-0.23817519122660394
-0.47284638265624324	-0.25389554644786927
-0.47278534749999324	-0.2693104714402311
-0.47272431234374324	-0.2843991469911664
-0.47266327718749324	-0.2991484453146694
-0.47260224203124324	-0.31353322606655515
-0.47254120687499324	-0.32754338524855686
-0.47248017171874324	-0.34115545663686375
-0.47241913656249324	-0.3543561468688337
-0.47235810140624324	-0.36712898757877366
-0.47229706624999324	-0.37945497649101134
-0.47223603109374324	-0.39132552029002665
-0.47217499593749324	-0.40271844908955234
-0.47211396078124324	-0.413626570642238
-0.47205292562499324	-0.42403110520278803
-0.47199189046874324	-0.43392161915127264
-0.47193085531249324	-0.44328803097670766
-0.47186982015624324	-0.45211312157708977
-0.47180878499999324	-0.4603932118806642
-0.47174774984374324	-0.46811083051802627
-0.47168671468749324	-0.4752628173504607
-0.47162567953124324	-0.48183651216976436
-0.47156464437499324	-0.4878238734189772
-0.47150360921874324	-0.49322116195453225
-0.47144257406249324	-0.49801538419604585
-0.47138153890624324	-0.5022084338424856
-0.47132050374999324	-0.5057876120090344
-0.47125946859374324	-0.5087538521536684
-0.47119843343749324	-0.5111014207607584
-0.47113739828124324	-0.5128258684059146
-0.47107636312499324	-0.5139301387728317
-0.47101532796874324	-0.514405319952159
-0.47095429281249324	-0.5142589661990512
-0.47089325765624324	-0.5134843520981159
-0.47083222249999324	-0.512086633039433
-0.47077118734374324	-0.510067093915316
-0.47071015218749324	-0.5074248359003654
-0.47064911703124324	-0.5041694976376695
-0.47058808187499324	-0.5002969938490364
-0.47052704671874324	-0.4958202366995519
-0.47046601156249324	-0.49073876525099336
-0.47040497640624324	-0.48506139834694084
-0.47034394124999324	-0.47879620109309684
