Time	Frequency
-0.5000324245312555	-3.646560370836034e-24
-0.4999713893750055	-3.577686428786494e-24
-0.4999103542187555	-3.5026113153641336e-24
-0.4998493190625055	-3.421460340036047e-24
-0.4997882839062555	-3.334371747216316e-24
-0.4997272487500055	-3.241494686590379e-24
-0.4996662135937555	-3.142983715011708e-24
-0.4996051784375055	-3.0390036345211216e-24
-0.4995441432812555	-2.929734300345331e-24
-0.4994831081250055	-2.8153624938950885e-24
-0.4994220729687555	-2.6960805656885654e-24
-0.4993610378125055	-2.5720925720721193e-24
-0.4993000026562555	-2.4436107556610812e-24
-0.4992389675000055	-2.3108520181530054e-24
-0.4991779323437555	-2.174043761037238e-24
-0.4991168971875055	-2.0334240082733706e-24
-0.4990558620312555	-1.8892321640292662e-24
-0.4989948268750055	-1.741710734256527e-24
-0.4989337917187555	-1.5911142116109557e-24
-0.4988727565625055	-1.4377049643582389e-24
-0.4988117214062555	-1.2817447806411016e-24
-0.4987506862500055	-1.1234979370392706e-24
-0.4986896510937555	-9.632373377018194e-25
-0.4986286159375055	-8.012419526152527e-25
-0.4985675807812555	-6.377904492124881e-25
-0.4985065456250055	-4.731603485282742e-25
-0.4984455104687555	-3.076346541826011e-25
-0.4983844753125055	-1.4150172647663932e-25
-0.4983234401562555	2.4952703888625634e-26
-0.4982624050000055	1.9144255673117067e-25
-0.4982013698437555	3.57678303333812e-25
-0.4981403346875055	5.233750573481274e-25
-0.4980792995312555	6.882504754800922e-25
-0.4980182643750055	8.520159989279723e-25
-0.4979572292187555	1.0143850704293599e-24
-0.4978961940625055	1.1750808105070691e-24
-0.4978351589062555	1.333826996547227e-24
-0.4977741237500055	1.4903468095437652e-24
-0.4977130885937555	1.6443698401751106e-24
-0.4976520534375055	1.7956297006867575e-24
-0.4975910182812555	1.943863187859333e-24
-0.4975299831250055	2.0888135392744643e-24
-0.4974689479687555	2.230230104325861e-24
-0.4974079128125055	2.3678684775273242e-24
-0.4973468776562555	2.5014893335445503e-24
-0.4972858425000055	2.6308586399156222e-24
-0.4972248073437555	2.7557527926422134e-24
-0.4971637721875055	2.875957184001174e-24
-0.4971027370312555	2.9912604461221727e-24
-0.4970417018750055	3.1014596339016368e-24
-0.4969806667187555	3.2063661872183583e-24
-0.4969196315625055	3.305798856238451e-24
-0.4968585964062555	3.399581309082251e-24
-0.4967975612500055	3.4875492050463424e-24
-0.4967365260937555	3.5695501229671294e-24
-0.4966754909375055	3.6454411699552895e-24
-0.4966144557812555	3.715089818852275e-24
-0.4965534206250055	3.778373645493423e-24
-0.4964923854687555	3.835180874209902e-24
-0.4964313503125055	3.885411524310078e-24
-0.4963703151562555	3.928977420108037e-24
-0.4963092800000055	3.965802018213354e-24
-0.4962482448437555	3.995820115005303e-24
-0.4961872096875055	4.018977659252829e-24
-0.4961261745312555	4.035232529230436e-24
-0.4960651393750055	4.044555199672318e-24
-0.4960041042187555	4.046928307885878e-24
-0.4959430690625055	4.042346182923489e-24
-0.4958820339062555	4.030814956206467e-24
-0.4958209987500055	4.0123529117419704e-24
-0.4957599635937555	3.9869907479893444e-24
-0.4956989284375055	3.954770920874224e-24
-0.4956378932812555	3.915747386211616e-24
-0.4955768581250055	3.869986551048933e-24
-0.4955158229687555	3.817566763870003e-24
-0.4954547878125055	3.758576955196875e-24
-0.4953937526562555	3.693117699142834e-24
-0.4953327175000055	3.621301745597472e-24
-0.4952716823437555	3.543252218650725e-24
-0.4952106471875055	3.459103176641623e-24
-0.4951496120312555	3.368999075985169e-24
-0.4950885768750055	3.2730946052133356e-24
-0.4950275417187555	3.1715563898377976e-24
-0.4949665065625055	3.06455935448476e-24
-0.4949054714062555	2.9522864850748744e-24
-0.4948444362500055	2.8349316673689356e-24
-0.4947834010937555	2.7126983868708725e-24
-0.4947223659375055	2.585799296627893e-24
-0.4946613307812555	2.454453504533868e-24
-0.4946002956250055	2.318885382899388e-24
-0.4945392604687555	2.179329437299525e-24
-0.4944782253125055	2.0360303369740495e-24
-0.4944171901562555	1.889237363732642e-24
-0.4943561550000055	1.7392017701109373e-24
-0.4942951198437555	1.5861816350086826e-24
-0.4942340846875055	1.430445280159776e-24
-0.4941730495312555	1.2722639427201409e-24
-0.4941120143750055	1.1119106554679036e-24
-0.4940509792187555	9.496632462656938e-25
-0.4939899440625055	7.858019124717715e-25
-0.4939289089062555	6.206131513040652e-25
-0.4938678737500055	4.5438595565696e-25
-0.4938068385937555	2.874049802486436e-25
-0.4937458034375055	1.199596686300895e-25
-0.4936847682812555	-4.765400322473992e-26
-0.4936237331250055	-2.151448862473419e-25
-0.4935626979687555	-3.8222663801696536e-25
-0.4935016628125055	-5.486082774604643e-25
-0.4934406276562555	-7.139961543476901e-25
-0.4933795925000055	-8.781020708758617e-25
-0.4933185573437555	-1.0406433987247409e-24
-0.4932575221875055	-1.2013385251812601e-24
-0.4931964870312555	-1.359905439100541e-24
-0.4931354518750055	-1.5160665849550777e-24
-0.4930744167187555	-1.6695508915550516e-24
-0.4930133815625055	-1.820091047602484e-24
-0.4929523464062555	-1.9674254370527596e-24
-0.4928913112500055	-2.1112984549046127e-24
-0.4928302760937555	-2.251456444329916e-24
-0.4927692409375055	-2.3876531405835786e-24
-0.4927082057812555	-2.5196546030176532e-24
-0.4926471706250055	-2.647231549813001e-24
-0.4925861354687555	-2.7701585826382582e-24
-0.4925251003125055	-2.888221057876869e-24
-0.4924640651562555	-3.0012138369202417e-24
-0.4924030300000055	-3.1089387902751062e-24
-0.4923419948437555	-3.211207774783453e-24
-0.4922809596875055	-3.3078435039788767e-24
-0.4922199245312555	-3.398676470695258e-24
-0.4921588893750055	-3.483546002443459e-24
-0.4920978542187555	-3.562304998917857e-24
-0.4920368190625055	-3.634817358738575e-24
-0.4919757839062555	-3.700953959864037e-24
-0.4919147487500055	-3.760598189713557e-24
-0.4918537135937555	-3.813648053113346e-24
-0.4917926784375055	-3.8600107106956526e-24
-0.4917316432812555	-3.8996031403098875e-24
-0.4916706081250055	-3.932356011201235e-24
-0.4916095729687555	-3.9582126163198926e-24
-0.4915485378125055	-3.977127592848294e-24
-0.4914875026562555	-3.9890676077661565e-24
-0.4914264675000055	-3.994011258834309e-24
-0.4913654323437555	-3.991949707901693e-24
-0.4913043971875055	-3.982886710584679e-24
-0.4912433620312555	-3.9668376515188915e-24
-0.4911823268750055	-3.943830551477407e-24
-0.4911212917187555	-3.913905634943151e-24
-0.4910602565625055	-3.877114853357184e-24
-0.4909992214062555	-3.833523111910038e-24
-0.4909381862500055	-3.783206527703094e-24
-0.4908771510937555	-3.726252297525388e-24
-0.4908161159375055	-3.662760655435791e-24
-0.4907550807812555	-3.592843068346703e-24
-0.4906940456250055	-3.516621601894836e-24
-0.4906330104687555	-3.4342303398719894e-24
-0.4905719753125055	-3.345814079687709e-24
-0.4905109401562555	-3.2515263683821888e-24
-0.4904499050000055	-3.151531674572672e-24
-0.4903888698437555	-3.046008108055365e-24
-0.4903278346875055	-2.9351419404022343e-24
-0.4902667995312555	-2.8191245763849742e-24
-0.4902057643750055	-2.6981588998496764e-24
-0.4901447292187555	-2.572459584012145e-24
-0.4900836940625055	-2.442248194987852e-24
-0.4900226589062555	-2.3077524182798086e-24
-0.4899616237500055	-2.1692074774685155e-24
-0.4899005885937555	-2.026857539489413e-24
-0.4898395534375055	-1.880953963192582e-24
-0.4897785182812555	-1.7317527496444917e-24
-0.4897174831250055	-1.5795154667884444e-24
-0.4896564479687555	-1.4245103504421823e-24
-0.4895954128125055	-1.2670111395039024e-24
-0.4895343776562555	-1.1072945903947995e-24
-0.4894733425000055	-9.456410992282413e-25
-0.4894123073437555	-7.823358282814727e-25
-0.4893512721875055	-6.176660615941378e-25
-0.4892902370312555	-4.519225725927257e-25
-0.4892292018750055	-2.8539891056119886e-25
-0.4891681667187555	-1.1838672323685138e-25
-0.4891071315625055	4.8820675434151537e-26
-0.4890460964062555	2.1592714850178437e-25
-0.4889850612500055	3.826367334197181e-25
-0.4889240260937555	5.486547171072027e-25
-0.4888629909375055	7.136898363216026e-25
-0.4888019557812555	8.77451634479312e-25
-0.4887409206250055	1.0396493291793713e-24
-0.4886798854687555	1.1999951083869454e-24
-0.4886188503125055	1.358205919765803e-24
-0.4885578151562555	1.5140040839498934e-24
-0.4884967800000055	1.6671136721947815e-24
-0.4884357448437555	1.81726152175608e-24
-0.4883747096875055	1.964182870871957e-24
-0.4883136745312555	2.1076185600442512e-24
-0.4882526393750055	2.247313501444247e-24
-0.4881916042187555	2.3830202337206588e-24
-0.4881305690625055	2.5144984896543335e-24
-0.4880695339062555	2.6415140662417865e-24
-0.4880084987500055	2.7638414666270867e-24
-0.4879474635937555	2.881264780955871e-24
-0.4878864284375055	2.9935750866632638e-24
-0.4878253932812555	3.100571872535571e-24
-0.4877643581250055	3.202064261440739e-24
-0.4877033229687555	3.2978711686994753e-24
-0.4876422878125055	3.3878232381627484e-24
-0.4875812526562555	3.471760451261789e-24
-0.4875202175000055	3.549531267899057e-24
-0.4874591823437555	3.620996207596445e-24
-0.4873981471875055	3.686028009369177e-24
-0.4873371120312555	3.744510061852833e-24
-0.4872760768750055	3.796336910045063e-24
-0.4872150417187555	3.841414770844062e-24
-0.4871540065625055	3.879662089987459e-24
-0.4870929714062555	3.911009701094592e-24
-0.4870319362500055	3.93539997193732e-24
-0.4869709010937555	3.952787287330028e-24
-0.4869098659375055	3.963138894294085e-24
-0.4868488307812555	3.966434667294134e-24
-0.4867877956250055	3.962666820211175e-24
-0.4867267604687555	3.95183957134479e-24
-0.4866657253125055	3.933969729202833e-24
-0.4866046901562555	3.909087291666572e-24
-0.4865436550000055	3.8772340680091266e-24
-0.4864826198437555	3.838463467765037e-24
-0.4864215846875055	3.792842016208312e-24
-0.4863605495312555	3.7404493699989175e-24
-0.4862995143750055	3.681376367074947e-24
-0.4862384792187555	3.615724009011944e-24
-0.4861774440625055	3.543605732241092e-24
-0.4861164089062555	3.465148607001358e-24
-0.4860553737500055	3.380490598142636e-24
-0.4859943385937555	3.2897781002623272e-24
-0.4859333034375055	3.1931684284496772e-24
-0.4858722682812555	3.0908323616671462e-24
-0.4858112331250055	2.9829496382367844e-24
-0.4857501979687555	2.869708405872822e-24
-0.4856891628125055	2.751308178155518e-24
-0.4856281276562555	2.6279563594509832e-24
-0.4855670925000055	2.49986963886356e-24
-0.4855060573437555	2.3672743617272166e-24
-0.4854450221875055	2.2304023257606635e-24
-0.4853839870312555	2.089495141229182e-24
-0.4853229518750055	1.9448030986600178e-24
-0.4852619167187555	1.796579288262426e-24
-0.4852008815625055	1.6450842852089661e-24
-0.4851398464062555	1.4905871017402974e-24
-0.4850788112500055	1.33336010288467e-24
-0.4850177760937555	1.1736804265122952e-24
-0.4849567409375055	1.0118314432997167e-24
-0.4848957057812555	8.480996799782166e-25
-0.4848346706250055	6.827736345352327e-25
-0.4847736354687555	5.161446021532352e-25
-0.4847126003125055	3.4850783376857424e-25
-0.4846515651562555	1.8016362274855895e-25
-0.4845905300000055	1.1410877755746033e-26
-0.4845294948437555	-1.5745622310358451e-25
-0.4844684596875055	-3.2613886620967136e-25
-0.4844074245312555	-4.943332826812437e-25
-0.4843463893750055	-6.6173967568030595e-25
-0.4842853542187555	-8.280626098504331e-25
-0.4842243190625055	-9.93008319604673e-25
-0.4841632839062555	-1.1562849527936134e-24
-0.4841022487500055	-1.3175995805898141e-24
-0.4840412135937555	-1.4766610633632773e-24
-0.4839801784375055	-1.6331892215170077e-24
-0.4839191432812555	-1.7869092058279853e-24
-0.4838581081250055	-1.9375446649146968e-24
-0.4837970729687555	-2.084823971545051e-24
-0.4837360378125055	-2.2284846262696237e-24
-0.4836750026562555	-2.3682723514982085e-24
-0.4836139675000055	-2.503937464894155e-24
-0.4835529323437555	-2.6352354975446374e-24
-0.4834918971875055	-2.761932152702622e-24
-0.4834308620312555	-2.8838006449953127e-24
-0.4833698268750055	-3.0006204209246663e-24
-0.4833087917187555	-3.112183224590715e-24
-0.4832477565625055	-3.218290691520133e-24
-0.4831867214062555	-3.318749346561267e-24
-0.4831256862500055	-3.413376630029785e-24
-0.4830646510937555	-3.5020039081247194e-24
-0.4830036159375055	-3.584471630194588e-24
-0.4829425807812555	-3.6606298018527324e-24
-0.4828815456250055	-3.7303395817533976e-24
-0.4828205104687555	-3.793472797863692e-24
-0.4827594753125055	-3.8499149510149425e-24
-0.4826984401562555	-3.899564572936935e-24
-0.4826374050000055	-3.942329428369291e-24
-0.4825763698437555	-3.9781281259447e-24
-0.4825153346875055	-4.00689364146862e-24
-0.4824542995312555	-4.0285729937486e-24
-0.4823932643750055	-4.0431243843384526e-24
-0.4823322292187555	-4.050517331447752e-24
-0.4822711940625055	-4.050734760865589e-24
-0.4822101589062555	-4.04377274721875e-24
-0.4821491237500055	-4.029640179984015e-24
-0.4820880885937555	-4.008358815323398e-24
-0.4820270534375055	-3.97996255544864e-24
-0.4819660182812555	-3.944497669495631e-24
-0.4819049831250055	-3.9020231936807446e-24
-0.4818439479687555	-3.8526109571497554e-24
-0.4817829128125055	-3.796345852380198e-24
-0.4817218776562555	-3.733324442448e-24
-0.4816608425000055	-3.663653476698814e-24
-0.4815998073437555	-3.587452476464892e-24
-0.4815387721875055	-3.504855529894661e-24
-0.4814777370312555	-3.416006239252826e-24
-0.4814167018750055	-3.321056027663364e-24
-0.4813556667187555	-3.220170391901972e-24
-0.4812946315625055	-3.1135279002603698e-24
-0.4812335964062555	-3.0013143837213953e-24
-0.4811725612500055	-2.8837246965983216e-24
-0.4811115260937555	-2.760963756250229e-24
-0.4810504909375055	-2.633245933309194e-24
-0.4809894557812555	-2.500797742152904e-24
-0.4809284206250055	-2.3638538545845983e-24
-0.4808673854687555	-2.222651541223413e-24
-0.4808063503125055	-2.077436466537785e-24
-0.4807453151562555	-1.9284667223449703e-24
-0.4806842800000055	-1.7760064154092494e-24
-0.4806232448437555	-1.6203229061893596e-24
-0.4805622096875055	-1.4616895537649044e-24
-0.4805011745312555	-1.3003865044360806e-24
-0.4804401393750055	-1.1366994171021978e-24
-0.4803791042187555	-9.709166893708324e-25
-0.4803180690625055	-8.033305031538238e-25
-0.4802570339062555	-6.342382693285659e-25
-0.4801959987500055	-4.639392838534791e-25
-0.4801349635937555	-2.9273365019695514e-25
-0.4800739284375055	-1.2092411756437125e-25
-0.4800128932812555	5.1183162866760745e-26
-0.4799518581250055	2.2328227878311585e-25
-0.4798908229687555	3.9507051612203333e-25
-0.4798297878125055	5.662448627826367e-25
-0.4797687526562555	7.364993984727189e-25
-0.4797077175000055	9.055293947136893e-25
-0.4796466823437555	1.0730360704423782e-24
-0.4795856471875055	1.2387232970443887e-24
-0.4795246120312555	1.4022964820664507e-24
-0.4794635768750055	1.5634655109402886e-24
-0.4794025417187555	1.7219409230614657e-24
-0.4793415065625055	1.8774381173830163e-24
-0.4792804714062555	2.029684852346274e-24
-0.4792194362500055	2.1784122724829865e-24
-0.4791584010937555	2.323349998994639e-24
-0.4790973659375055	2.464237080881263e-24
-0.4790363307812555	2.60082666352407e-24
-0.4789752956250055	2.732876860743575e-24
-0.4789142604687555	2.860147258847571e-24
-0.4788532253125055	2.9824088563791004e-24
-0.4787921901562555	3.0994465278510453e-24
-0.4787311550000055	3.2110510421482206e-24
-0.4786701198437555	3.3170198239783805e-24
-0.4786090846875055	3.417162192066576e-24
-0.4785480495312555	3.511299929931333e-24
-0.4784870143750055	3.599264758912278e-24
-0.4784259792187555	3.680896331627419e-24
-0.4783649440625055	3.756046924397336e-24
-0.4783039089062555	3.824582830820255e-24
-0.4782428737500055	3.886379527130883e-24
-0.4781818385937555	3.9413236884146596e-24
-0.4781208034375055	3.989316162976748e-24
-0.4780597682812555	4.030269879355483e-24
-0.4779987331250055	4.064109242317486e-24
-0.4779376979687555	4.0907712703862324e-24
-0.4778766628125055	4.110206404845817e-24
-0.4778156276562555	4.12237825316758e-24
-0.4777545925000055	4.127262680664864e-24
-0.4776935573437555	4.124848347875376e-24
-0.4776325221875055	4.115137227747941e-24
-0.4775714870312555	4.098144172175933e-24
-0.4775104518750055	4.073897252639084e-24
-0.4774494167187555	4.042437458675239e-24
-0.4773883815625055	4.0038182819298245e-24
-0.4773273464062555	3.958106430313476e-24
-0.4772663112500055	3.905380562214642e-24
-0.4772052760937555	3.845731798889489e-24
-0.4771442409375055	3.779265571345149e-24
-0.4770832057812555	3.706098204645343e-24
-0.4770221706250055	3.626356638921568e-24
-0.4769611354687555	3.540180660190909e-24
-0.4769001003125055	3.447721702846607e-24
-0.4768390651562555	3.349144056364028e-24
-0.4767780300000055	3.244621659519981e-24
-0.4767169948437555	3.1343361054615006e-24
-0.4766559596875055	3.0184829302481346e-24
-0.4765949245312555	2.8972688949633075e-24
-0.4765338893750055	2.7709073467608904e-24
-0.4764728542187555	2.6396207439054816e-24
-0.4764118190625055	2.5036410389300747e-24
-0.4763507839062555	2.363210904385639e-24
-0.4762897487500055	2.2185804780124094e-24
-0.4762287135937555	2.0700037395793864e-24
-0.4761676784375055	1.9177444733944264e-24
-0.4761066432812555	1.7620736092589963e-24
-0.4760456081250055	1.603266103361132e-24
-0.4759845729687555	1.4416069835106543e-24
-0.4759235378125055	1.277384920245521e-24
-0.4758625026562555	1.1108876525473308e-24
-0.4758014675000055	9.424105321673397e-25
-0.4757404323437555	7.722569914492144e-25
-0.4756793971875055	6.007306739952847e-25
-0.4756183620312555	4.281349584685229e-25
-0.4755573268750055	2.547774598273816e-25
-0.4754962917187555	8.096732899391457e-26
-0.4754352565625055	-9.298607560792069e-26
-0.4753742214062555	-2.6677148703849623e-25
-0.4753131862500055	-4.400786539771159e-25
-0.4752521510937555	-6.125982349662886e-25
-0.4751911159375055	-7.840226864717375e-25
-0.4751300807812555	-9.540477662143412e-25
-0.4750690456250055	-1.1223676011965141e-24
-0.4750080104687555	-1.288679212977737e-24
-0.4749469753125055	-1.4526890566362531e-24
-0.4748859401562555	-1.6141043599757068e-24
-0.4748249050000055	-1.7726323188852353e-24
-0.4747638698437555	-1.9279902160026918e-24
-0.4747028346875055	-2.0799033939266014e-24
-0.4746417995312555	-2.228098570327298e-24
-0.4745807643750055	-2.372307390055418e-24
-0.4745197292187555	-2.5122722991732973e-24
-0.4744586940625055	-2.6477450044334623e-24
-0.4743976589062555	-2.778482224537921e-24
-0.4743366237500055	-2.9042463721817947e-24
-0.4742755885937555	-3.024811774670127e-24
-0.4742145534375055	-3.139966044883895e-24
-0.4741535182812555	-3.249502108619816e-24
-0.4740924831250055	-3.353218623431754e-24
-0.4740314479687555	-3.450929565726573e-24
-0.4739704128125055	-3.54246255844165e-24
-0.4739093776562555	-3.62765244537969e-24
-0.4738483425000055	-3.706344162889746e-24
-0.4737873073437555	-3.77839592057804e-24
-0.4737262721875055	-3.843677892209914e-24
-0.4736652370312555	-3.902072344511363e-24
-0.4736042018750055	-3.9534740492295645e-24
-0.4735431667187555	-3.997789718516298e-24
-0.4734821315625055	-4.0349385168569635e-24
-0.4734210964062555	-4.064852900485184e-24
-0.4733600612500055	-4.087478677032748e-24
-0.4732990260937555	-4.1027742917865816e-24
-0.4732379909375055	-4.1107110149852435e-24
-0.4731769557812555	-4.111273522613283e-24
-0.4731159206250055	-4.104459871168411e-24
-0.4730548854687555	-4.0902815431898546e-24
-0.4729938503125055	-4.0687630578184555e-24
-0.4729328151562555	-4.039942061564396e-24
-0.4728717800000055	-4.003868878767918e-24
-0.4728107448437555	-3.960606863388232e-24
-0.4727497096875055	-3.9102338915209544e-24
-0.4726886745312555	-3.852840016967517e-24
-0.4726276393750055	-3.788526300152986e-24
-0.4725666042187555	-3.71740681005173e-24
-0.4725055690625055	-3.639608604751942e-24
-0.4724445339062555	-3.5552716054478625e-24
-0.4723834987500055	-3.464547556672978e-24
-0.4723224635937555	-3.367597744309057e-24
-0.4722614284375055	-3.264593523276368e-24
-0.4722003932812555	-3.1557198504562167e-24
-0.4721393581250055	-3.04117498971975e-24
-0.4720783229687555	-2.9211640675406235e-24
-0.4720172878125055	-2.795898788921627e-24
-0.4719562526562555	-2.665603952067874e-24
-0.4718952175000055	-2.530516682159147e-24
-0.4718341823437555	-2.39087954464087e-24
-0.4717731471875055	-2.2469401507326694e-24
-0.4717121120312555	-2.098957528792074e-24
-0.4716510768750055	-1.9472010358599013e-24
