Time	Frequency
-0.5000126307187429	0.5015977588736461
-0.4999515955624929	0.5028241167355602
-0.4998905604062429	0.5034201024737229
-0.4998295252499929	0.5033846767917746
-0.4997684900937429	0.5027175752261018
-0.4997074549374929	0.501419139275112
-0.4996464197812429	0.49949050203095063
-0.4995853846249929	0.4969337341331794
-0.4995243494687429	0.49375173121967253
-0.4994633143124929	0.48994803789702196
-0.4994022791562429	0.4855270241937215
-0.4993412439999929	0.4804939912996863
-0.4992802088437429	0.4748548951149502
-0.4992191736874929	0.468616362744898
-0.4991581385312429	0.4617859734249836
-0.4990971033749929	0.4543720359675954
-0.4990360682187429	0.44638348148152845
-0.4989750330624929	0.43783016263801705
-0.4989139979062429	0.42872247452168394
-0.4988529627499929	0.4190714282130762
-0.4987919275937429	0.40888909783310784
-0.4987308924374929	0.3981881702044258
-0.4986698572812429	0.3869815276691414
-0.4986088221249929	0.3752828917992067
-0.4985477869687429	0.3631074690961351
-0.4984867518124929	0.3504700994949952
-0.4984257166562429	0.33738553445439967
-0.4983646814999929	0.3238709482755305
-0.4983036463437429	0.30994372611177257
-0.4982426111874929	0.2956203639530743
-0.4981815760312429	0.2809184187543234
-0.4981205408749929	0.26585659906837344
-0.4980595057187429	0.2504542724989741
-0.4979984705624929	0.23473057619946952
-0.4979374354062429	0.21870459328555464
-0.4978764002499929	0.20239626790965135
-0.4978153650937429	0.1858266595426729
-0.4977543299374929	0.16901681789360384
-0.4976932947812429	0.15198723215696835
-0.4976322596249929	0.13475912373229038
-0.4975712244687429	0.11735428664402103
-0.4975101893124929	0.09979513417516579
-0.4974491541562429	0.082103626383564
-0.4973881189999929	0.06430126040987916
-0.4973270838437429	0.046410870179913244
-0.4972660486874929	0.028455289843555893
-0.4972050135312429	0.010457018132384215
-0.4971439783749929	-0.007561312109483276
-0.4970829432187429	-0.02557738167787695
-0.4970219080624929	-0.043568097188459415
-0.4969608729062429	-0.061510311006192704
-0.4968998377499929	-0.0793821949329609
-0.4968388025937429	-0.09716103628627254
-0.4967777674374929	-0.11482363013519972
-0.4967167322812429	-0.13234814742190468
-0.4966556971249929	-0.1497130162637782
-0.4965946619687429	-0.16689597191004416
-0.4965336268124929	-0.1838741165282681
-0.4964725916562429	-0.20062667457130154
-0.4964115564999929	-0.21713383480584045
-0.4963505213437429	-0.233373404277801
-0.4962894861874929	-0.24932415734177388
-0.4962284510312429	-0.26496670219070384
-0.4961674158749929	-0.2802816267789743
-0.4961063807187429	-0.2952492028186406
-0.4960453455624929	-0.30984981597986866
-0.4959843104062429	-0.3240656298502992
-0.4959232752499929	-0.3378788151135676
-0.4958622400937429	-0.35127109346728
-0.4958012049374929	-0.36422568387682835
-0.4957401697812429	-0.3767266221328159
-0.4956791346249929	-0.3887579711380177
-0.4956180994687429	-0.4003038632326558
-0.4955570643124929	-0.41134977386571026
-0.4954960291562429	-0.4218823507323883
-0.4954349939999929	-0.43188771328470255
-0.4953739588437429	-0.44135282208048654
-0.4953129236874929	-0.45026620529923117
-0.4952518885312429	-0.45861645499459375
-0.4951908533749929	-0.46639276435688537
-0.4951298182187429	-0.47358529447057873
-0.4950687830624929	-0.48018485275522826
-0.4950077479062429	-0.4861832450340497
-0.4949467127499929	-0.4915727351017187
-0.4948856775937429	-0.4963463501666835
-0.4948246424374929	-0.5004982220148712
-0.4947636072812429	-0.5040229831015308
-0.4947025721249929	-0.5069160791818887
-0.4946415369687429	-0.5091739417165257
-0.4945805018124929	-0.5107937292128453
-0.4945194666562429	-0.5117733304059366
-0.4944584314999929	-0.5121114708297351
-0.4943973963437429	-0.511807769604397
-0.4943363611874929	-0.5108626863651591
-0.4942753260312429	-0.5092774694003462
-0.4942142908749929	-0.5070540375764919
-0.4941532557187429	-0.5041952112037535
-0.4940922205624929	-0.500704868108363
-0.4940311854062429	-0.4965874348672641
-0.4939701502499929	-0.49184802094314806
-0.4939091150937429	-0.48649280148174345
-0.4938480799374929	-0.48052868993003583
-0.4937870447812429	-0.4739633533286509
-0.4937260096249929	-0.46680512319415357
-0.4936649744687429	-0.4590631199018924
-0.4936039393124929	-0.4507474181302663
-0.4935429041562429	-0.44186858940111906
-0.4934818689999929	-0.4324380262690251
-0.4934208338437429	-0.42246796752958304
-0.4933597986874929	-0.4119709572975008
-0.4932987635312429	-0.40096034093617244
-0.4932377283749929	-0.38945073185645585
-0.4931766932187429	-0.3774568648644444
-0.4931156580624929	-0.364993433773851
-0.4930546229062429	-0.35207688389069813
-0.4929935877499929	-0.33872417816239625
-0.4929325525937429	-0.32495178317073875
-0.4928715174374929	-0.310777675770479
-0.4928104822812429	-0.29622023581462115
-0.4927494471249929	-0.28129780434580787
-0.4926884119687429	-0.26602973812166875
-0.4926273768124929	-0.25043554201595275
-0.4925663416562429	-0.23453536858919358
-0.4925053064999929	-0.21834968095267593
-0.4924442713437429	-0.20189903695741768
-0.4923832361874929	-0.18520494768684823
-0.4923222010312429	-0.16828862013998538
-0.4922611658749929	-0.15117149545566483
-0.4922001307187429	-0.13387616353031886
-0.4921390955624929	-0.11642482937540083
-0.4920780604062429	-0.0988396573395004
-0.4920170252499929	-0.08114310612735535
-0.4919559900937429	-0.06335809514643538
-0.4918949549374929	-0.04550808787684775
-0.4918339197812429	-0.027615475829390786
-0.4917728846249929	-0.00970301121389038
-0.4917118494687429	0.008205678125877771
-0.4916508143124929	0.026087726668417036
-0.4915897791562429	0.04392003377856561
-0.4915287439999929	0.061679617542130014
-0.4914677088437429	0.07934398592260286
-0.4914066736874929	0.0968900792649722
-0.4913456385312429	0.11429504483675439
-0.4912846033749929	0.13153663187027123
-0.4912235682187429	0.14859285242728876
-0.4911625330624929	0.16544179277156537
-0.4911014979062429	0.1820612707238383
-0.4910404627499929	0.19842984429369434
-0.4909794275937429	0.21452684350707188
-0.4909183924374929	0.23033134433301802
-0.4908573572812429	0.2458227901216991
-0.4907963221249929	0.2609813139899171
-0.4907352869687429	0.2757874764619813
-0.4906742518124929	0.2902218179386564
-0.4906132166562429	0.30426583203193014
-0.4905521814999929	0.31790193573294157
-0.4904911463437429	0.3311118238698284
-0.4904301111874929	0.34387833998502576
-0.4903690760312429	0.35618554354874427
-0.4903080408749929	0.3680174934314082
-0.4902470057187429	0.3793587903460221
-0.4901859705624929	0.3901943719493681
-0.4901249354062429	0.4005104704245087
-0.4900639002499929	0.41029425302128236
-0.4900028650937429	0.41953266903119374
-0.4899418299374929	0.42821355675624617
-0.4898807947812429	0.43632592244206014
-0.4898197596249929	0.44385933682801804
-0.4897587244687429	0.45080412047290924
-0.4896976893124929	0.45715106930365074
-0.4896366541562429	0.46289194530309763
-0.4895756189999929	0.4680196452528664
-0.4895145838437429	0.47252731082569993
-0.4894535486874929	0.4764090909698659
-0.4893925135312429	0.4796601498593296
-0.4893314783749929	0.4822760755957976
-0.4892704432187429	0.48425353735333215
-0.4892094080624929	0.4855901677369097
-0.4891483729062429	0.4862841460458342
-0.4890873377499929	0.48633446233643934
-0.4890263025937429	0.48574116396956507
-0.4889652674374929	0.48450510427752747
-0.4889042322812429	0.48262788205746276
-0.4888431971249929	0.4801119339114784
-0.4887821619687429	0.47696039977669635
-0.4887211268124929	0.47317757616091105
-0.4886600916562429	0.46876853099918037
-0.4885990564999929	0.4637387078338164
-0.4885380213437429	0.45809476982619257
-0.4884769861874929	0.4518441447405163
-0.4884159510312429	0.4449948726503505
-0.4883549158749929	0.43755608842858973
-0.4882938807187429	0.42953740757861864
-0.4882328455624929	0.42094911030064713
-0.4881718104062429	0.41180247385576785
-0.4881107752499929	0.4021095723162056
-0.4880497400937429	0.39188308513845294
-0.4879887049374929	0.38113630491235784
-0.4879276697812429	0.3698830425400979
-0.4878666346249929	0.3581378206896659
-0.4878055994687429	0.34591674130702155
-0.4877445643124929	0.33323569497331074
-0.4876835291562429	0.3201103023118621
-0.4876224939999929	0.30655822560767404
-0.4875614588437429	0.2925973938839523
-0.4875004236874929	0.27824600762776025
-0.4874393885312429	0.2635231821403174
-0.4873783533749929	0.24844719006889246
-0.4873173182187429	0.23303788108674692
-0.4872562830624929	0.21731646392954973
-0.4871952479062429	0.2013029876306192
-0.4871342127499929	0.1850183565810494
-0.4870731775937429	0.16848353120213197
-0.4870121424374929	0.15171998234965
-0.4869511072812429	0.13475108371121688
-0.4868900721249929	0.11759866179901826
-0.4868290369687429	0.10028384038104032
-0.4867680018124929	0.08283005143600865
-0.4867069666562429	0.0652609943570427
-0.4866459314999929	0.04759911262805604
-0.4865848963437429	0.02986757704123062
-0.4865238611874929	0.01208992355142392
-0.4864628260312429	-0.005710943251008717
-0.4864017908749929	-0.023511500522882943
-0.4863407557187429	-0.04128786785226316
-0.4862797205624929	-0.05901673612729399
-0.4862186854062429	-0.07667520517429101
-0.4861576502499929	-0.09423985429436196
-0.4860966150937429	-0.11168729069174577
-0.4860355799374929	-0.12899475660783696
-0.4859745447812429	-0.146139486722065
-0.4859135096249929	-0.16309844647764457
-0.4858524744687429	-0.1798491028840771
-0.4857914393124929	-0.19637024421140822
-0.4857304041562429	-0.2126399233703852
-0.4856693689999929	-0.22863551726096745
-0.4856083338437429	-0.2443360536752259
-0.4855472986874929	-0.2597214378091312
-0.4854862635312429	-0.2747714449301341
-0.4854252283749929	-0.28946578478418167
-0.4853641932187429	-0.303784277248797
-0.4853031580624929	-0.3177079030845409
-0.4852421229062429	-0.3312189927198496
-0.4851810877499929	-0.34429965903082904
-0.4851200525937429	-0.35693171674221147
-0.4850590174374929	-0.3690981267709881
-0.4849979822812429	-0.38078297904974967
-0.4849369471249929	-0.391970758084857
-0.4848759119687429	-0.40264656125434806
-0.4848148768124929	-0.412795751262493
-0.4847538416562429	-0.4224042726478457
-0.4846928064999929	-0.4314596606863135
-0.4846317713437429	-0.4399498874403311
-0.4845707361874929	-0.44786297002035536
-0.4845097010312429	-0.4551880968993519
-0.4844486658749929	-0.46191548809733785
-0.4843876307187429	-0.4680358470502224
-0.4843265955624929	-0.47354063086592374
-0.4842655604062429	-0.47842229284125026
-0.4842045252499929	-0.4826739746663404
-0.4841434900937429	-0.4862895428898995
-0.4840824549374929	-0.48926389107168716
-0.4840214197812429	-0.4915926612254529
-0.4839603846249929	-0.4932722524175643
-0.4838993494687429	-0.49430008530526137
-0.4838383143124929	-0.494674315511425
-0.4837772791562429	-0.4943939194401383
-0.4837162439999929	-0.49345878251326786
-0.4836552088437429	-0.4918696420597544
-0.4835941736874929	-0.48962818693495413
-0.4835331385312429	-0.48673676879146455
-0.4834721033749929	-0.4831986401598058
-0.4834110682187429	-0.47901808533683754
-0.4833500330624929	-0.4741999585174123
-0.4832889979062429	-0.46875006363320937
-0.4832279627499929	-0.46267520782514127
-0.4831669275937429	-0.4559828084721404
-0.4831058924374929	-0.4486810180181182
-0.4830448572812429	-0.4407789390885689
-0.4829838221249929	-0.4322866398156508
-0.4829227869687429	-0.4232145478428978
-0.4828617518124929	-0.41357404752362376
-0.4828007166562429	-0.40337776717384105
-0.4827396814999929	-0.3926381301704571
-0.4826786463437429	-0.3813683934305166
-0.4826176111874929	-0.36958364900766344
-0.4825565760312429	-0.3572989551844449
-0.4824955408749929	-0.34452920875276577
-0.4824345057187429	-0.3312908911724608
-0.4823734705624929	-0.31760152149848186
-0.4823124354062429	-0.30347817510676284
-0.4822514002499929	-0.2889386117847589
-0.4821903650937429	-0.27400204617989804
-0.4821293299374929	-0.2586878202776077
-0.4820682947812429	-0.2430151041756374
-0.4820072596249929	-0.22700391514485666
-0.4819462244687429	-0.2106752141707014
-0.4818851893124929	-0.19405037978314302
-0.4818241541562429	-0.17715065562880322
-0.4817631189999929	-0.15999724501422158
-0.4817020838437429	-0.14261264916871005
-0.4816410486874929	-0.12501986640814042
-0.4815800135312429	-0.10724153878611334
-0.4815189783749929	-0.08930007847932658
-0.4814579432187429	-0.07121851782549642
-0.4813969080624929	-0.05302158591373449
-0.4813358729062429	-0.03473248173803537
-0.4812748377499929	-0.016373783243346356
-0.4812138025937429	0.002029466013841262
-0.4811527674374929	0.020453383874556183
-0.4810917322812429	0.038874871301853894
-0.4810306971249929	0.05726903315245982
-0.4809696619687429	0.07561193398818766
-0.4809086268124929	0.09388047755352623
-0.4808475916562429	0.1120505387861584
-0.4807865564999929	0.13009798340700726
-0.4807255213437429	0.14799911567775578
-0.4806644861874929	0.16573111478395317
-0.4806034510312429	0.18327127178329514
-0.4805424158749929	0.20059565236284221
-0.4804813807187429	0.21768143098134415
-0.4804203455624929	0.2345071780554228
-0.4803593104062429	0.2510504419801303
-0.4802982752499929	0.2672892946678377
-0.4802372400937429	0.28320298180714887
-0.4801762049374929	0.2987700258824239
-0.4801151697812429	0.3139697581501027
-0.4800541346249929	0.32878309810628614
-0.4799930994687429	0.3431902911553783
-0.4799320643124929	0.3571717959355407
-0.4798710291562429	0.37070942957846015
-0.4798099939999929	0.38378548210030133
-0.4797489588437429	0.39638279402821486
-0.4796879236874929	0.40848444037988546
-0.4796268885312429	0.42007431329190265
-0.4795658533749929	0.43113744375786284
-0.4795048182187429	0.44165885845355335
-0.4794437830624929	0.45162447083488044
-0.4793827479062429	0.46102136516779385
-0.4793217127499929	0.46983675897702404
-0.4792606775937429	0.4780588188766432
-0.4791996424374929	0.48567673729267785
-0.4791386072812429	0.492680157606197
-0.4790775721249929	0.49905963895620653
-0.4790165369687429	0.5048065825932945
-0.4789555018124929	0.5099131099856746
-0.4788944666562429	0.5143722967921106
-0.4788334314999929	0.5181780814448661
-0.4787723963437429	0.5213251095230573
-0.4787113611874929	0.5238088801657874
-0.4786503260312429	0.5256258731590343
-0.4785892908749929	0.5267734347322613
-0.4785282557187429	0.5272497183693022
-0.4784672205624929	0.5270537369074701
-0.4784061854062429	0.5261854238593726
-0.4783451502499929	0.5246456013456638
-0.4782841150937429	0.522435910399353
-0.4782230799374929	0.5195589640727489
-0.4781620447812429	0.516018165752182
-0.4781010096249929	0.5118176421912228
-0.4780399744687429	0.5069627504020999
-0.4779789393124929	0.50145962051799
-0.4779179041562429	0.4953148209664759
-0.4778568689999929	0.48853603041055255
-0.4777958338437429	0.48113194777701535
-0.4777347986874929	0.47311198268619875
-0.4776737635312429	0.4644862502501791
-0.4776127283749929	0.45526558186528465
-0.4775516932187429	0.445461747362765
-0.4774906580624929	0.43508723371274227
-0.4774296229062429	0.4241553379661224
-0.4773685877499929	0.4126802102193451
-0.4773075525937429	0.40067638279956663
-0.4772465174374929	0.3881591582107015
-0.4771854822812429	0.3751446186055612
-0.4771244471249929	0.36164959732259566
-0.4770634119687429	0.34769166616181324
-0.4770023768124929	0.3332885459488354
-0.4769413416562429	0.3184586346409762
-0.4768803064999929	0.3032212419975502
-0.4768192713437429	0.28759625922593507
-0.4767582361874929	0.2716037291147701
-0.4766972010312429	0.2552639731112086
-0.4766361658749929	0.23859836564598877
-0.4765751307187429	0.22162878116479828
-0.4765140955624929	0.20437699478118318
-0.4764530604062429	0.18686500792050195
-0.4763920252499929	0.16911567872213107
-0.4763309900937429	0.15115238117253013
-0.4762699549374929	0.1329982415756542
-0.4762089197812429	0.11467647150300263
-0.4761478846249929	0.09621114383363137
-0.4760868494687429	0.07762644695650342
-0.4760258143124929	0.058946111601086836
-0.4759647791562429	0.040194500144601276
-0.4759037439999929	0.021396245440404013
-0.4758427088437429	0.002575678752149557
-0.4757816736874929	-0.016242896817226536
-0.4757206385312429	-0.03503491304197431
-0.4756596033749929	-0.05377568448988197
-0.4755985682187429	-0.07244100402282949
-0.4755375330624929	-0.09100670476693408
-0.4754764979062429	-0.10944847220136224
-0.4754154627499929	-0.12774204229699074
-0.4753544275937429	-0.1458635694741784
-0.4752933924374929	-0.16379013780148413
-0.4752323572812429	-0.18149811865103813
-0.4751713221249929	-0.19896345092499795
-0.4751102869687429	-0.2161639624154768
-0.4750492518124929	-0.23307803224900375
-0.4749882166562429	-0.24968301536367388
-0.4749271814999929	-0.2659566286263381
-0.4748661463437429	-0.28187807218445105
-0.4748051111874929	-0.29742670619604494
-0.4747440760312429	-0.3125821771821164
-0.4746830408749929	-0.32732520740670723
-0.4746220057187429	-0.3416358430653384
-0.4745609705624929	-0.355494698629543
-0.4744999354062429	-0.3688850076282592
-0.4744389002499929	-0.3817895907200132
-0.4743778650937429	-0.3941902714587579
-0.4743168299374929	-0.406071129954506
-0.4742557947812429	-0.4174173951443744
-0.4741947596249929	-0.4282138255467792
-0.4741337244687429	-0.43844615411464927
-0.4740726893124929	-0.448101228831213
-0.4740116541562429	-0.45716649177720314
-0.4739506189999929	-0.4656301737278265
-0.4738895838437429	-0.47348108919248544
-0.4738285486874929	-0.48070884749946446
-0.4737675135312429	-0.4873043778431952
-0.4737064783749929	-0.49325920169802867
-0.4736454432187429	-0.49856523907759903
-0.4735844080624929	-0.5032156072111795
-0.4735233729062429	-0.5072044698778398
-0.4734623377499929	-0.5105267373570213
-0.4734013025937429	-0.5131780502299984
-0.4733402674374929	-0.5151549313726067
-0.4732792322812429	-0.5164549537903257
-0.4732181971249929	-0.5170765667321745
-0.4731571619687429	-0.5170190741019228
-0.4730961268124929	-0.516282592923626
-0.4730350916562429	-0.5148681671171467
-0.4729740564999929	-0.5127778694819914
-0.4729130213437429	-0.5100146281889878
-0.4728519861874929	-0.5065821426929109
-0.4727909510312429	-0.5024849036613851
-0.4727299158749929	-0.4977285987516135
-0.4726688807187429	-0.49231978063283943
-0.4726078455624929	-0.486265470907214
-0.4725468104062429	-0.4795737507998916
-0.4724857752499929	-0.47225378897196185
-0.4724247400937429	-0.46431537997043276
-0.4723637049374929	-0.4557688953714884
-0.4723026697812429	-0.44662588458341046
-0.4722416346249929	-0.4368988120469501
-0.4721805994687429	-0.4266004047175699
-0.4721195643124929	-0.4157441845508356
-0.4720585291562429	-0.4043450135790722
-0.4719974939999929	-0.3924183653615977
-0.4719364588437429	-0.3799795589672561
-0.4718754236874929	-0.3670451513558192
-0.4718143885312429	-0.3536328785939153
-0.4717533533749929	-0.33976056137362654
-0.4716923182187429	-0.3254466965265275
-0.4716312830624929	-0.31070991964561234
-0.4715702479062429	-0.2955701127422249
-0.4715092127499929	-0.28004811321232476
-0.4714481775937429	-0.264163749715922
-0.4713871424374929	-0.2479384129333047
-0.4713261072812429	-0.2313944733420498
-0.4712650721249929	-0.21455341943700063
-0.4712040369687429	-0.19743726102787032
-0.4711430018124929	-0.18006909532253723
-0.4710819666562429	-0.16247310203309595
-0.4710209314999929	-0.1446723854973347
-0.4709598963437429	-0.12668960388635508
-0.4708988611874929	-0.10854939891172989
-0.4708378260312429	-0.09027663178877689
-0.4707767908749929	-0.071895250607546
-0.4707157557187429	-0.05342948206847962
-0.4706547205624929	-0.034904582835561124
-0.4705936854062429	-0.016345449343372377
-0.4705326502499929	0.00222419997701742
-0.4704716150937429	0.02077917545245382
-0.4704105799374929	0.03929313497620587
-0.4703495447812429	0.057742238460046634
-0.4702885096249929	0.07610326258910072
-0.4702274744687429	0.0943504855281147
-0.4701664393124929	0.11245831549089894
-0.4701054041562429	0.13040360658724273
-0.4700443689999929	0.1481627642139645
-0.4699833338437429	0.16571134140532232
-0.4699222986874929	0.1830260915763998
-0.4698612635312429	0.20008356183852233
-0.4698002283749929	0.21686072202594625
-0.4697391932187429	0.2333354608536642
-0.4696781580624929	0.24948553235696133
