Time	Frequency
-0.5000354914687506	-0.05377578135361523
-0.4999744563125006	-0.06765290773611661
-0.4999134211562506	-0.08146321228283558
-0.4998523860000006	-0.09519277744995931
-0.4997913508437506	-0.10882783678334
-0.4997303156875006	-0.12235642436386202
-0.4996692805312506	-0.13576504303899037
-0.4996082453750006	-0.14903936118854877
-0.4995472102187506	-0.16216724619307368
-0.4994861750625006	-0.17513641372713
-0.4994251399062506	-0.1879336223591205
-0.4993641047500006	-0.20054646744683244
-0.4993030695937506	-0.21296273110239233
-0.4992420344375006	-0.2251700648166614
-0.4991809992812506	-0.23715675374861567
-0.4991199641250006	-0.24891122159037563
-0.4990589289687506	-0.2604216981639514
-0.4989978938125006	-0.27167695094310784
-0.4989368586562506	-0.28266628092064777
-0.4988758235000006	-0.29337870882750366
-0.4988147883437506	-0.30380342277568756
-0.4987537531875006	-0.3139307416118965
-0.4986927180312506	-0.32375105261643233
-0.4986316828750006	-0.3332539455441962
-0.4985706477187506	-0.3424299552632996
-0.4985096125625006	-0.3512709186325367
-0.4984485774062506	-0.3597681908917628
-0.4983875422500006	-0.3679128886580346
-0.4983265070937506	-0.37569691945950573
-0.4982654719375006	-0.3831128717027533
-0.4982044367812506	-0.3901537550295053
-0.4981434016250006	-0.3968125724684565
-0.4980823664687506	-0.40308246972291234
-0.4980213313125006	-0.40895732671523677
-0.4979602961562506	-0.4144314889490211
-0.4978992610000006	-0.4194996050805292
-0.4978382258437506	-0.42415676868357044
-0.4977771906875006	-0.42839821361004415
-0.4977161555312506	-0.43221962984466344
-0.4976551203750006	-0.4356174906701188
-0.4975940852187506	-0.4385884789188992
-0.4975330500625006	-0.4411294812963095
-0.4974720149062506	-0.44323799595313845
-0.4974109797500006	-0.4449120004492648
-0.4973499445937506	-0.44614980454816355
-0.4972889094375006	-0.44695014041459624
-0.4972278742812506	-0.44731222154611133
-0.4971668391250006	-0.4472356651161149
-0.4971058039687506	-0.44672049940381986
-0.4970447688125006	-0.44576723126967693
-0.4969837336562506	-0.444376747596275
-0.4969226985000006	-0.44255035304179713
-0.4968616633437506	-0.4402899006970827
-0.4968006281875006	-0.4375976163951162
-0.4967395930312506	-0.43447594711348697
-0.4966785578750006	-0.43092793345988456
-0.4966175227187506	-0.4269573343277877
-0.4965564875625006	-0.422567919132325
-0.4964954524062506	-0.4177636208256259
-0.4964344172500006	-0.41254941032190073
-0.4963733820937506	-0.40693070606548987
-0.4963123469375006	-0.4009126569400532
-0.4962513117812506	-0.39450092886513766
-0.4961902766250006	-0.3877021974819726
-0.4961292414687506	-0.38052329576293226
-0.4960682063125006	-0.3729708831944142
-0.4960071711562506	-0.36505235160611865
-0.4959461360000006	-0.3567757786004655
-0.4958851008437506	-0.3481491991280988
-0.4958240656875006	-0.3391809594861025
-0.4957630305312506	-0.32988008013925646
-0.4957019953750006	-0.32025571566410516
-0.4956409602187506	-0.3103169917361667
-0.4955799250625006	-0.3000739475608807
-0.4955188899062506	-0.289537014579017
-0.4954578547500006	-0.2787160483749057
-0.4953968195937506	-0.2676217301673851
-0.4953357844375006	-0.25626543250572353
-0.4952747492812506	-0.2446580364969546
-0.4952137141250006	-0.23281091710354276
-0.4951526789687506	-0.22073603564606728
-0.4950916438125006	-0.20844519152546248
-0.4950306086562506	-0.19595042272835558
-0.4949695735000006	-0.18326424607803565
-0.4949085383437506	-0.17039910463818314
-0.4948475031875006	-0.15736759965602728
-0.4947864680312506	-0.14418289531867498
-0.4947254328750006	-0.13085777648850766
-0.4946643977187506	-0.11740541414246213
-0.4946033625625006	-0.1038395708311362
-0.4945423274062506	-0.09017307202157998
-0.4944812922500006	-0.07641950538621407
-0.4944202570937506	-0.06259317147302552
-0.4943592219375006	-0.048707079296110005
-0.4942981867812506	-0.03477480920258088
-0.4942371516250006	-0.020811073570704514
-0.4941761164687506	-0.006829457603349291
-0.4941150813125006	0.007157096207015568
-0.4940540461562506	0.021134139821449023
-0.4939930110000006	0.03508700779845056
-0.4939319758437506	0.04900255726837631
-0.4938709406875006	0.06286735019634168
-0.4938099055312506	0.07666718854163239
-0.4937488703750006	0.09038824897017407
-0.4936878352187506	0.10401685079360345
-0.4936268000625006	0.11753957562594278
-0.4935657649062506	0.13094323916444162
-0.4935047297500006	0.14421421237946414
-0.4934436945937506	0.15733897164138758
-0.4933826594375006	0.1703049457343026
-0.4933216242812506	0.18309933790920327
-0.4932605891250006	0.19570877249649543
-0.4931995539687506	0.20812079660164473
-0.4931385188125006	0.22032351855433424
-0.4930774836562506	0.2323045804990548
-0.4930164485000006	0.24405158876423877
-0.4929554133437506	0.2555529578383159
-0.4928943781875006	0.2667976481001688
-0.4928333430312506	0.27777407027130685
-0.4927723078750006	0.28847098066115445
-0.4927112727187506	0.2988780962681209
-0.4926502375625006	0.3089847327525634
-0.4925892024062506	0.31878061556376347
-0.4925281672500006	0.32825653447818276
-0.4924671320937506	0.3374026008320365
-0.4924060969375006	0.3462089579504732
-0.4923450617812506	0.3546674567761787
-0.4922840266250006	0.362769981267034
-0.4922229914687506	0.37050764700237876
-0.4921619563125006	0.37787251796653964
-0.4921009211562506	0.3848575445223031
-0.4920398860000006	0.3914556836993258
-0.4919788508437506	0.3976601603959544
-0.4919178156875006	0.4034645881470921
-0.4918567805312506	0.40886300799474207
-0.4917957453750006	0.4138500055745567
-0.4917347102187506	0.4184205065008678
-0.4916736750625006	0.42256980723985416
-0.4916126399062506	0.42629367622832215
-0.4915516047500006	0.4295881445831065
-0.4914905695937506	0.43244969885368406
-0.4914295344375006	0.43487552844578836
-0.4913684992812506	0.43686313171378016
-0.4913074641250006	0.4384102219515502
-0.4912464289687506	0.4395150454035266
-0.4911853938125006	0.44017640839959515
-0.4911243586562506	0.4403935534894665
-0.4910633235000006	0.44016608853298006
-0.4910022883437506	0.4394940333999359
-0.4909412531875006	0.43837787827723146
-0.4908802180312506	0.43681858280120917
-0.4908191828750006	0.4348175557146708
-0.4907581477187506	0.4323766492567223
-0.4906971125625006	0.42949811513274266
-0.4906360774062506	0.42618458339693854
-0.4905750422500006	0.42243923050200577
-0.4905140070937506	0.4182656881061444
-0.4904529719375006	0.413667839868077
-0.4903919367812506	0.40865016805656423
-0.4903309016250006	0.40321763789406156
-0.4902698664687506	0.3973752251631631
-0.4902088313125006	0.3911285599815303
-0.4901477961562506	0.384484095895139
-0.4900867610000006	0.3774482126438677
-0.4900257258437506	0.3700274580815703
-0.4899646906875006	0.3622290849133156
-0.4899036555312506	0.354060873821336
-0.4898426203750006	0.34553113011908815
-0.4897815852187506	0.3366480393781907
-0.4897205500625006	0.3274196783121903
-0.4896595149062506	0.3178553705723996
-0.4895984797500006	0.30796527961749826
-0.4895374445937506	0.29775890644960734
-0.4894764094375006	0.2872454848532764
-0.4894153742812506	0.27643552301963775
-0.4893543391250006	0.2653403438007632
-0.4892933039687506	0.2539707788063635
-0.4892322688125006	0.24233782194084744
-0.4891712336562506	0.23045290183486333
-0.4891101985000006	0.21832750294739092
-0.4890491633437506	0.20597397630466655
-0.4889881281875006	0.1934049696431586
-0.4889270930312506	0.1806324186625189
-0.4888660578750006	0.1676687376920602
-0.4888050227187506	0.15452702625184606
-0.4887439875625006	0.1412204407094755
-0.4886829524062506	0.12776221544880198
-0.4886219172500006	0.11416555398584846
-0.4885608820937506	0.1004439892521775
-0.4884998469375006	0.08661115487833791
-0.4884388117812506	0.07268053815190914
-0.4883777766250006	0.058666309626429866
-0.4883167414687506	0.044582897195284146
-0.4882557063125006	0.03044363076290856
-0.4881946711562506	0.016262075175464786
-0.4881336360000006	0.002053313293245351
-0.4880726008437506	-0.012168224294017196
-0.4880115656875006	-0.026389196778666527
-0.4879505305312506	-0.04059535252755434
-0.4878894953750006	-0.05477216586137734
-0.4878284602187506	-0.06890566962636485
-0.4877674250625006	-0.0829813885629517
-0.4877063899062506	-0.0969853822370346
-0.4876453547500006	-0.11090435666969402
-0.4875843195937506	-0.12472366279842759
-0.4875232844375006	-0.1384290813394176
-0.4874622492812506	-0.1520077760354335
-0.4874012141250006	-0.16544596532259698
-0.4873401789687506	-0.1787296826211755
-0.4872791438125006	-0.1918459117842577
-0.4872181086562506	-0.20478144360163078
-0.4871570735000006	-0.2175232711446874
-0.4870960383437506	-0.23005887652162593
-0.4870350031875006	-0.24237527565466085
-0.4869739680312506	-0.25445978339666286
-0.4869129328750006	-0.2663008327464236
-0.4868518977187506	-0.2778867319695092
-0.4867908625625006	-0.2892050521098287
-0.4867298274062506	-0.30024422733207856
-0.4866687922500006	-0.31099385293511667
-0.4866077570937506	-0.32144299027659895
-0.4865467219375006	-0.3315805586630468
-0.4864856867812506	-0.3413965358505748
-0.4864246516250006	-0.3508810975753035
-0.4863636164687506	-0.36002431583053385
-0.4863025813125006	-0.3688170781193648
-0.4862415461562506	-0.37725065050447104
-0.4861805110000006	-0.3853161512683314
-0.4861194758437506	-0.39300532144284334
-0.4860584406875006	-0.40031042913671544
-0.4859974055312506	-0.4072239102400108
-0.4859363703750006	-0.4137388578799314
-0.4858753352187506	-0.41984856843364227
-0.4858143000625006	-0.4255463609420782
-0.4857532649062506	-0.43082650328387917
-0.4856922297500006	-0.4356839017081574
-0.4856311945937506	-0.4401133079018392
-0.4855701594375006	-0.4441097771648214
-0.4855091242812506	-0.44766924507968386
-0.4854480891250006	-0.45078819123031516
-0.4853870539687506	-0.4534631954500471
-0.4853260188125006	-0.4556911980748954
-0.4852649836562506	-0.45746981625638566
-0.4852039485000006	-0.4587971371693413
-0.4851429133437506	-0.4596715882083664
-0.4850818781875006	-0.4600920434348595
-0.4850208430312506	-0.4600578406260028
-0.4849598078750006	-0.4595688274657018
-0.4848987727187506	-0.45862529017735865
-0.4848377375625006	-0.45722787459881037
-0.4847767024062506	-0.45537778121098915
-0.4847156672500006	-0.45307670389548527
-0.4846546320937506	-0.45032663838560943
-0.4845935969375006	-0.44713006698055063
-0.4845325617812506	-0.4434900339170896
-0.4844715266250006	-0.43940999459343694
-0.4844104914687506	-0.4348937969801953
-0.4843494563125006	-0.42994561270446746
-0.4842884211562506	-0.4245701083444583
-0.4842273860000006	-0.41877271150219186
-0.4841663508437506	-0.4125590515955279
-0.4841053156875006	-0.4059347668820057
-0.4840442805312506	-0.3989062667621615
-0.4839832453750006	-0.3914806717855859
-0.4839222102187506	-0.3836652052164848
-0.4838611750625006	-0.3754673374711481
-0.4838001399062506	-0.36689496116390174
-0.4837391047500006	-0.3579563919639289
-0.4836780695937506	-0.34866067404829004
-0.4836170344375006	-0.33901708264282204
-0.4835559992812506	-0.32903456729344527
-0.4834949641250006	-0.3187227259355039
-0.4834339289687506	-0.30809233541841685
-0.4833728938125006	-0.2971540385488722
-0.4833118586562506	-0.28591793087090617
-0.4832508235000006	-0.274394911524822
-0.4831897883437506	-0.26259680826880244
-0.4831287531875006	-0.2505356645720068
-0.4830677180312506	-0.23822308457755587
-0.4830066828750006	-0.22567044581835677
-0.4829456477187506	-0.21289059042420072
-0.4828846125625006	-0.19989708855939348
-0.4828235774062506	-0.18670216007620716
-0.4827625422500006	-0.17331808719780914
-0.4827015070937506	-0.15975904853539222
-0.4826404719375006	-0.14603868759070351
-0.4825794367812506	-0.1321697718314572
-0.4825184016250006	-0.11816664090875367
-0.4824573664687506	-0.10404325656763103
-0.4823963313125006	-0.08981309298035618
-0.4823352961562506	-0.07549090050940016
-0.4822742610000006	-0.06109076416885925
-0.4822132258437506	-0.046626579534276354
-0.4821521906875006	-0.03211342074867567
-0.4820911555312506	-0.017565557167935543
-0.4820301203750006	-0.0029968325705598603
-0.4819690852187506	0.011577631011071501
-0.4819080500625006	0.02614299505885049
-0.4818470149062506	0.04068521295766672
-0.4817859797500006	0.05518989754895024
-0.4817249445937506	0.06964253162538349
-0.4816639094375006	0.08402843018418059
-0.4816028742812506	0.09833296953807957
-0.4815418391250006	0.11254214709406213
-0.4814808039687506	0.12664217554721013
-0.4814197688125006	0.14061889937458533
-0.4813587336562506	0.1544575322825422
-0.4812976985000006	0.1681442363745792
-0.4812366633437506	0.18166646140057788
-0.4811756281875006	0.19501026312495093
-0.4811145930312506	0.20816135847395625
-0.4810535578750006	0.22110714647451782
-0.4809925227187506	0.23383497402569559
-0.4809314875625006	0.24633198083731786
-0.4808704524062506	0.2585854359319585
-0.4808094172500006	0.2705824125948231
-0.4807483820937506	0.28231155017055576
-0.4806873469375006	0.29376190374262096
-0.4806263117812506	0.30492079983629744
-0.4805652766250006	0.3157765214543085
-0.4805042414687506	0.32631911508922173
-0.4804432063125006	0.3365381991658878
-0.4803821711562506	0.34642314116425804
-0.4803211360000006	0.35596361212946304
-0.4802601008437506	0.36514993846047544
-0.4801990656875006	0.37397342356155777
-0.4801380305312506	0.38242523072871476
-0.4800769953750006	0.39049635283291007
-0.4800159602187506	0.3981786640524577
-0.4799549250625006	0.40546459981829763
-0.4798938899062506	0.412346711851208
-0.4798328547500006	0.41881806243599984
-0.4797718195937506	0.42487222583034984
-0.4797107844375006	0.4305028782196312
-0.4796497492812506	0.4357041682473878
-0.4795887141250006	0.4404710062692085
-0.4795276789687506	0.4447986426572314
-0.4794666438125006	0.4486826068941832
-0.4794056086562506	0.4521187825179139
-0.4793445735000006	0.45510360632725416
-0.4792835383437506	0.45763423014885374
-0.4792225031875006	0.459708077139148
-0.4791614680312506	0.46132281187058694
-0.4791004328750006	0.4624767321275144
-0.4790393977187506	0.46316870839836444
-0.4789783625625006	0.4633980215263669
-0.4789173274062506	0.4631643305667365
-0.4788562922500006	0.46246772668268277
-0.4787952570937506	0.46130889224788746
-0.4787342219375006	0.4596890243365154
-0.4786731867812506	0.45760961440447034
-0.4786121516250006	0.4550726170808544
-0.4785511164687506	0.452080592204345
-0.4784900813125006	0.44863654847121426
-0.4784290461562506	0.44474390477097375
-0.4783680110000006	0.44040640557210253
-0.4783069758437506	0.435628304426941
-0.4782459406875006	0.4304145500552654
-0.4781849055312506	0.42477037311918114
-0.4781238703750006	0.4187011776562414
-0.4780628352187506	0.41221306877565433
-0.4780018000625006	0.40531282129665264
-0.4779407649062506	0.3980070609593418
-0.4778797297500006	0.39030289491960396
-0.4778186945937506	0.3822086100625087
-0.4777576594375006	0.373732204209996
-0.4776966242812506	0.36488162796929835
-0.4776355891250006	0.3556662590086771
-0.4775745539687506	0.34609552939630756
-0.4775135188125006	0.3361784318386109
-0.4774524836562506	0.32592529886858324
-0.4773914485000006	0.31534689224576234
-0.4773304133437506	0.304453180646442
-0.4772693781875006	0.2932549559930511
-0.4772083430312506	0.2817641537428301
-0.4771473078750006	0.2699924369644447
-0.4770862727187506	0.25795129906450665
-0.4770252375625006	0.24565260106955036
-0.4769642024062506	0.23310881002574155
-0.4769031672500006	0.2203333402911242
-0.4768421320937506	0.20733903955755262
-0.4767810969375006	0.194137977340481
-0.4767200617812506	0.18074375387412175
-0.4766590266250006	0.1671707996386813
-0.4765979914687506	0.15343258197676266
-0.4765369563125006	0.1395424340741241
-0.4764759211562506	0.12551434583749316
-0.4764148860000006	0.11136299833016919
-0.4763538508437506	0.09710307406677825
-0.4762928156875006	0.08274832574453142
-0.4762317805312506	0.0683130181675065
-0.4761707453750006	0.05381255223323018
-0.4761097102187506	0.03926158124385285
-0.4760486750625006	0.02467438179819345
-0.4759876399062506	0.010065977734092239
-0.4759266047500006	-0.004548819937953417
-0.4758655695937506	-0.019155300129407315
-0.4758045344375006	-0.03373829251513514
-0.4757434992812506	-0.04828299797044486
-0.4756824641250006	-0.0627750285827028
-0.4756214289687506	-0.07719984914904864
-0.4755603938125006	-0.09154228077381028
-0.4754993586562506	-0.10578715339562844
-0.4754383235000006	-0.11992093504732028
-0.4753772883437506	-0.13392976214649202
-0.4753162531875006	-0.1477981266326924
-0.4752552180312506	-0.16151194404423982
-0.4751941828750006	-0.17505809847707185
-0.4751331477187506	-0.1884223737415226
-0.4750721125625006	-0.20159095144482864
-0.4750110774062506	-0.21455074081337325
-0.4749500422500006	-0.22728830409177556
-0.4748890070937506	-0.23979050379561476
-0.4748279719375006	-0.25204485080162264
-0.4747669367812506	-0.2640388232845455
-0.4747059016250006	-0.2757600402955538
-0.4746448664687506	-0.2871964634216581
-0.4745838313125006	-0.2983363599351897
-0.4745227961562506	-0.3091684192899016
-0.4744617610000006	-0.3196816998073032
-0.4744007258437506	-0.32986537528225346
-0.4743396906875006	-0.339708692966666
-0.4742786555312506	-0.34920160798601135
-0.4742176203750006	-0.35833466486550036
-0.4741565852187506	-0.367098447808258
-0.4740955500625006	-0.3754837780515171
-0.4740345149062506	-0.3834819875054746
-0.4739734797500006	-0.391084866496954
-0.4739124445937506	-0.3982846378909333
-0.4738514094375006	-0.40507399016451784
-0.4737903742812506	-0.4114457331303137
-0.4737293391250006	-0.417393153587153
-0.4736683039687506	-0.42291032522674643
-0.4736072688125006	-0.4279914254376332
-0.4735462336562506	-0.4326311244443593
-0.4734851985000006	-0.43682476392591385
-0.4734241633437506	-0.440567714670938
-0.4733631281875006	-0.44385601720007734
-0.4733020930312506	-0.4466864753024771
-0.4732410578750006	-0.44905599374789845
-0.4731800227187506	-0.45096192246556205
-0.4731189875625006	-0.4524022304151085
-0.4730579524062506	-0.45337535306649235
-0.4729969172500006	-0.4538802343680935
-0.4729358820937506	-0.4539162106369258
-0.4728748469375006	-0.4534830634265626
-0.4728138117812506	-0.4525811510392019
-0.4727527766250006	-0.45121126899323794
-0.4726917414687506	-0.4493746918851996
-0.4726307063125006	-0.4470732413487722
-0.4725696711562506	-0.44430908991637486
-0.4725086360000006	-0.4410848321802907
-0.4724476008437506	-0.43740371878593404
-0.4723865656875006	-0.4332695584458208
-0.4723255305312506	-0.42868635801866134
-0.4722644953750006	-0.4236584435443514
-0.4722034602187506	-0.41819096014019724
-0.4721424250625006	-0.4122896265718621
-0.4720813899062506	-0.40596024688763155
-0.4720203547500006	-0.3992089662055178
-0.4719593195937506	-0.3920426130681676
-0.4718982844375006	-0.3844685453124545
-0.4718372492812506	-0.3764944449894532
-0.4717762141250006	-0.36812834428699537
-0.4717151789687506	-0.3593785646188668
-0.4716541438125006	-0.3502537233080568
-0.4715931086562506	-0.34076332182171787
-0.4715320735000006	-0.3309174514388356
-0.4714710383437506	-0.3207256660634811
-0.4714100031875006	-0.3101976734403278
-0.4713489680312506	-0.29934463366231556
-0.4712879328750006	-0.28817825033280137
-0.4712268977187506	-0.2767093977192619
-0.4711658625625006	-0.26494916891957965
-0.4711048274062506	-0.2529098049316375
-0.4710437922500006	-0.24060403311491813
-0.4709827570937506	-0.22804443134775934
-0.4709217219375006	-0.2152430679091633
-0.4708606867812506	-0.20221301106797063
-0.4707996516250006	-0.1889684189932267
-0.4707386164687506	-0.17552239489862548
-0.4706775813125006	-0.1618881925171316
-0.4706165461562506	-0.14808024830994795
-0.4705555110000006	-0.13411248613550342
-0.4704944758437506	-0.1199989530179987
-0.4704334406875006	-0.10575485908777274
-0.4703724055312506	-0.09139453049363998
-0.4703113703750006	-0.07693146366084383
-0.4702503352187506	-0.06238131695538575
-0.4701893000625006	-0.04776016014335137
-0.4701282649062506	-0.03308162898075414
-0.4700672297500006	-0.018360287475052785
-0.4700061945937506	-0.0036124526707582284
-0.4699451594375006	0.011147035568830994
-0.4698841242812506	0.025903570392151395
-0.4698230891250006	0.0406414051747441
-0.4697620539687506	0.055345375596761365
