Time	Frequency
-0.5000534056875026	-0.04574641902406796
-0.49999237053125256	-0.05875588715353811
-0.49993133537500256	-0.07172000192466929
-0.49987030021875256	-0.08462678855289416
-0.49980926506250256	-0.09746380114784468
-0.49974822990625256	-0.1102193305389032
-0.49968719475000256	-0.12288240037012556
-0.49962615959375256	-0.13544104729185633
-0.49956512443750256	-0.1478829704697466
-0.49950408928125256	-0.1601970903288741
-0.49944305412500256	-0.17237235368116957
-0.49938201896875256	-0.18439742894160455
-0.49932098381250256	-0.19626113852249585
-0.49925994865625256	-0.20795205884748733
-0.49919891350000256	-0.21945967814661177
-0.49913787834375256	-0.23077397723336737
-0.49907684318750256	-0.2418838709847931
-0.49901580803125256	-0.2527785629062121
-0.49895477287500256	-0.26344853160337206
-0.49889373771875256	-0.27388443097952286
-0.49883270256250256	-0.28407606419708675
-0.49877166740625256	-0.29401317168971974
-0.49871063225000256	-0.3036871456805268
-0.49864959709375256	-0.31308978096719575
-0.49858856193750256	-0.32221161516815544
-0.49852752678125256	-0.33104358959505725
-0.49846649162500256	-0.33957798503946607
-0.49840545646875256	-0.34780715684028607
-0.49834442131250256	-0.3557231590272383
-0.49828338615625256	-0.36331842145961224
-0.49822235100000256	-0.3705859015938446
-0.49816131584375256	-0.3775187134089865
-0.49810028068750256	-0.3841104521596065
-0.49803924553125256	-0.3903551881405622
-0.49797821037500256	-0.3962467118149286
-0.49791717521875256	-0.4017791571885211
-0.49785614006250256	-0.40694765318346
-0.49779510490625256	-0.41174757521810423
-0.49773406975000256	-0.41617408938853123
-0.49767303459375256	-0.4202226965263424
-0.49761199943750256	-0.4238896351084797
-0.49755096428125256	-0.42717160982391633
-0.49748992912500256	-0.4300655178203537
-0.49742889396875256	-0.4325682858026346
-0.49736785881250256	-0.4346772898855396
-0.49730682365625256	-0.4363906664623413
-0.49724578850000256	-0.43770677845525546
-0.49718475334375256	-0.4386241497370532
-0.49712371818750256	-0.43914169776439305
-0.49706268303125256	-0.4392587549139638
-0.49700164787500256	-0.43897514649960634
-0.49694061271875256	-0.4382910120629476
-0.49687957756250256	-0.43720671294091523
-0.49681854240625256	-0.43572309947691445
-0.49675750725000256	-0.43384143974486145
-0.49669647209375256	-0.43156322986662515
-0.49663543693750256	-0.42889040195816375
-0.49657440178125256	-0.4258252908312362
-0.49651336662500256	-0.42237055810936114
-0.49645233146875256	-0.418529271357241
-0.49639129631250256	-0.41430474080860263
-0.49633026115625256	-0.40970062475773966
-0.49626922600000256	-0.40472106919139156
-0.49620819084375256	-0.39937061090424497
-0.49614715568750256	-0.3936540273443424
-0.49608612053125256	-0.38757631069126486
-0.49602508537500256	-0.38114281079329987
-0.49596405021875256	-0.37435937856572943
-0.49590301506250256	-0.36723241698034315
-0.49584197990625256	-0.3597682032389677
-0.49578094475000256	-0.3519731011915052
-0.49571990959375256	-0.34385444344251365
-0.49565887443750256	-0.3354197236197431
-0.49559783928125256	-0.3266764184730623
-0.49553680412500256	-0.3176325161050472
-0.49547576896875256	-0.3082959995134187
-0.49541473381250256	-0.29867544589054723
-0.49535369865625256	-0.2887800755050237
-0.49529266350000256	-0.2786183609999574
-0.49523162834375256	-0.2681993301803382
-0.49517059318750256	-0.2575331599276275
-0.49510955803125256	-0.24662935742911837
-0.49504852287500256	-0.23549756800535523
-0.49498748771875256	-0.22414813245645795
-0.49492645256250256	-0.21259136201753193
-0.49486541740625256	-0.20083818388806063
-0.49480438225000256	-0.18889923387327018
-0.49474334709375256	-0.17678458508313946
-0.49468231193750256	-0.1645060091299723
-0.49462127678125256	-0.15207559498002268
-0.49456024162500256	-0.13950363618943645
-0.49449920646875256	-0.1268012579774349
-0.49443817131250256	-0.11398102624492402
-0.49437713615625256	-0.10105472120267506
-0.49431610100000256	-0.08803390337248408
-0.49425506584375256	-0.07493057132916647
-0.49419403068750256	-0.06175657189639726
-0.49413299553125256	-0.04852397196549863
-0.49407196037500256	-0.03524533466622574
-0.49401092521875256	-0.021933149897303588
-0.49394989006250256	-0.008599091743737543
-0.49388885490625256	0.0047449792105030315
-0.49382781975000256	0.018086105570547906
-0.49376678459375256	0.03141176650050185
-0.49370574943750256	0.044710018371541295
-0.49364471428125256	0.057968759923710415
-0.49358367912500256	0.07117586005471577
-0.49352264396875256	0.08431876472700751
-0.49346160881250256	0.0973851594251564
-0.49340057365625256	0.11036343322126767
-0.49333953850000256	0.12324165067074769
-0.49327850334375256	0.13600774148958786
-0.49321746818750256	0.14864974594662708
-0.49315643303125256	0.1611557830131541
-0.49309539787500256	0.17351492422582368
-0.49303436271875256	0.18571581620246946
-0.49297332756250256	0.19774625497350462
-0.49291229240625256	0.2095955006601324
-0.49285125725000256	0.22125303235677626
-0.49279022209375256	0.23270751297749814
-0.49272918693750256	0.2439485939395948
-0.49266815178125256	0.25496601549979475
-0.49260711662500256	0.26574892450761106
-0.49254608146875256	0.27628749824204457
-0.49248504631250256	0.286572589368456
-0.49242401115625256	0.29659437496594354
-0.49236297600000256	0.3063430580051758
-0.49230194084375256	0.3158096530289387
-0.49224090568750256	0.32498571109724567
-0.49217987053125256	0.333862958050733
-0.49211883537500256	0.3424326253499901
-0.49205780021875256	0.35068639237431826
-0.49199676506250256	0.35861725331297706
-0.49193572990625256	0.3662178682412358
-0.49187469475000256	0.3734805732046848
-0.49181365959375256	0.38039873232840754
-0.49175262443750256	0.3869662151381966
-0.49169158928125256	0.3931767611000207
-0.49163055412500256	0.3990243254379591
-0.49156951896875256	0.40450347355865085
-0.49150848381250256	0.40960926620213084
-0.49144744865625256	0.4143368856529376
-0.49138641350000256	0.41868181831219087
-0.49132537834375256	0.4226399295484637
-0.49126434318750256	0.4262073928173563
-0.49120330803125256	0.42938102292215635
-0.49114227287500256	0.4321579342292759
-0.49108123771875256	0.43453526644549234
-0.49102020256250256	0.4365106691371943
-0.49095916740625256	0.43808237473358214
-0.49089813225000256	0.43924894753623467
-0.49083709709375256	0.4400091915216821
-0.49077606193750256	0.4403622477457774
-0.49071502678125256	0.44030774765030606
-0.49065399162500256	0.4398457348925572
-0.49059295646875256	0.43897658104327786
-0.49053192131250256	0.4377010053800393
-0.49047088615625256	0.4360200883949524
-0.49040985100000256	0.43393537721514713
-0.49034881584375256	0.43144881623869086
-0.49028778068750256	0.4285625529124254
-0.49022674553125256	0.4252791641184129
-0.49016571037500256	0.4216017994478157
-0.49010467521875256	0.4175337897321078
-0.49004364006250256	0.41307874941067513
-0.48998260490625256	0.40824086936358345
-0.48992156975000256	0.4030245639577928
-0.48986053459375256	0.39743456027169893
-0.48979949943750256	0.3914762013164829
-0.48973846428125256	0.385154899980731
-0.48967742912500256	0.37847620741280663
-0.48961639396875256	0.3714466561360083
-0.48955535881250256	0.3640729012423389
-0.48949432365625256	0.3563612034277472
-0.48943328850000256	0.34831883353421517
-0.48937225334375256	0.33995368404809595
-0.48931121818750256	0.3312732702384195
-0.48925018303125256	0.3222853976370644
-0.48918914787500256	0.31299855213907296
-0.48912811271875256	0.30342156922744495
-0.48906707756250256	0.29356324080054574
-0.48900604240625256	0.2834323658488357
-0.48894500725000256	0.27303857875125165
-0.48888397209375256	0.26239217081144844
-0.48882293693750256	0.25150240097168536
-0.48876190178125256	0.24037875406437076
-0.48870086662500256	0.22903268606849406
-0.48863983146875256	0.21747504373913418
-0.48857879631250256	0.20571553217751107
-0.48851776115625256	0.19376506515795708
-0.48845672600000256	0.18163552236265337
-0.48839569084375256	0.16933836511870654
-0.48833465568750256	0.1568845397117675
-0.48827362053125256	0.14428541032235506
-0.48821258537500256	0.13155307552474702
-0.48815155021875256	0.11869978399092372
-0.48809051506250256	0.1057373811722422
-0.48802947990625256	0.09267754390749182
-0.48796844475000256	0.0795325943199961
-0.48790740959375256	0.06631515885048266
-0.48784637443750256	0.05303766877040157
-0.48778533928125256	0.03971230387639028
-0.48772430412500256	0.026351217797884467
-0.48766326896875256	0.01296720710745611
-0.48760223381250256	-0.0004266903463969896
-0.48754119865625256	-0.013818118523711656
-0.48748016350000256	-0.027195362622094977
-0.48741912834375256	-0.040545626928404334
-0.48735809318750256	-0.05385529794557851
-0.48729705803125256	-0.06711234157979738
-0.48723602287500256	-0.08030508921673268
-0.48717498771875256	-0.09342092940019335
-0.48711395256250256	-0.10644709600229867
-0.48705291740625256	-0.11937108502380764
-0.48699188225000256	-0.13218120274743753
-0.48693084709375256	-0.144865733960074
-0.48686981193750256	-0.15741229460893147
-0.48680877678125256	-0.16980897272622952
-0.48674774162500256	-0.18204428692882776
-0.48668670646875256	-0.19410663885830035
-0.48662567131250256	-0.20598482547097985
-0.48656463615625256	-0.217667576564463
-0.48650360100000256	-0.22914351060759405
-0.48644256584375256	-0.24040213407676234
-0.48638153068750256	-0.25143307701248574
-0.48632049553125256	-0.26222551807211086
-0.48625946037500256	-0.2727690660616691
-0.48619842521875256	-0.2830540263193689
-0.48613739006250256	-0.29307087300975854
-0.48607635490625256	-0.30280997499043905
-0.48601531975000256	-0.3122618260513971
-0.48595428459375256	-0.321417486441602
-0.48589324943750256	-0.3302686394007043
-0.48583221428125256	-0.3388068050258141
-0.48577117912500256	-0.34702351263439896
-0.48571014396875256	-0.3549110886877816
-0.48564910881250256	-0.3624622191694429
-0.48558807365625256	-0.36966961864507347
-0.48552703850000256	-0.37652630377730295
-0.48546600334375256	-0.3830256706086264
-0.48540496818750256	-0.3891615692213447
-0.48534393303125256	-0.394928310424575
-0.48528289787500256	-0.40032026407152516
-0.48522186271875256	-0.4053319513274274
-0.48516082756250256	-0.40995866851632257
-0.48509979240625256	-0.4141962195583355
-0.48503875725000256	-0.41804038325038523
-0.48497772209375256	-0.4214872304511319
-0.48491668693750256	-0.4245333923544792
-0.48485565178125256	-0.42717599961465713
-0.48479461662500256	-0.42941255599384914
-0.48473358146875256	-0.4312406926668022
-0.48467254631250256	-0.43265840919138476
-0.48461151115625256	-0.4336643637489612
-0.48455047600000256	-0.43425759318765544
-0.48448944084375256	-0.43443731462778684
-0.48442840568750256	-0.4342031443825646
-0.48436737053125256	-0.4335552162372648
-0.48430633537500256	-0.4324940303402636
-0.48424530021875256	-0.43102045924703336
-0.48418426506250256	-0.42913575136877785
-0.48412322990625256	-0.42684146962452335
-0.48406219475000256	-0.4241396628892301
-0.48400115959375256	-0.4210328409580266
-0.48394012443750256	-0.41752372167838797
-0.48387908928125256	-0.41361541307162064
-0.48381805412500256	-0.4093115345015877
-0.48375701896875256	-0.40461602750355413
-0.48369598381250256	-0.3995331505069855
-0.48363494865625256	-0.3940675090315299
-0.48357391350000256	-0.3882241907337851
-0.48351287834375256	-0.38200861866847347
-0.48345184318750256	-0.3754263865967532
-0.48339080803125256	-0.36848362289291386
-0.48332977287500256	-0.3611868864244595
-0.48326873771875256	-0.35354280809307514
-0.48320770256250256	-0.3455583119301643
-0.48314666740625256	-0.3372410084996133
-0.48308563225000256	-0.32859884078162566
-0.48302459709375256	-0.3196395089559286
-0.48296356193750256	-0.3103711821069936
-0.48290252678125256	-0.30080289217089484
-0.48284149162500256	-0.2909436384066313
-0.48278045646875256	-0.2808022463686761
-0.48271942131250256	-0.2703881481180224
-0.48265838615625256	-0.2597114188455715
-0.48259735100000256	-0.24878197272339303
-0.48253631584375256	-0.23760982501989414
-0.48247528068750256	-0.22620556780509135
-0.48241424553125256	-0.21457983677092501
-0.48235321037500256	-0.2027434641811688
-0.48229217521875256	-0.19070774443280838
-0.48223114006250256	-0.17848393647401845
-0.48217010490625256	-0.16608325603480514
-0.48210906975000256	-0.1535174196033195
-0.48204803459375256	-0.14079852229722659
-0.48198699943750256	-0.12793842062884847
-0.48192596428125256	-0.11494882220068796
-0.48186492912500256	-0.10184215197631494
-0.48180389396875256	-0.0886312146255554
-0.48174285881250256	-0.07532800599265224
-0.48168182365625256	-0.06194474551444021
-0.48162078850000256	-0.048494566750397074
-0.48155975334375256	-0.03499020091987142
-0.48149871818750256	-0.02144397620731243
-0.48143768303125256	-0.007868842773469071
-0.48137664787500256	0.00572208012863675
-0.48131561271875256	0.019316421108252966
-0.48125457756250256	0.03290137642766902
-0.48119354240625256	0.04646347372331646
-0.48113250725000256	0.05999017808351412
-0.48107147209375256	0.07346917049497116
-0.48101043693750256	0.08688730878930709
-0.48094940178125256	0.10023154740432033
-0.48088836662500256	0.11348962965523235
-0.48082733146875256	0.12664926980713717
-0.48076629631250256	0.1396974626718832
-0.48070526115625256	0.1526216997343536
-0.48064422600000256	0.1654103118701671
-0.48058319084375256	0.1780511337953903
-0.48052215568750256	0.19053159098108421
-0.48046112053125256	0.20283982299507528
-0.48040008537500256	0.21496460452606728
-0.48033905021875256	0.22689453938224322
-0.48027801506250256	0.2386178109301147
-0.48021697990625256	0.2501228736064708
-0.48015594475000256	0.26139930895152247
-0.48009490959375256	0.27243678064886967
-0.48003387443750256	0.2832241789332583
-0.47997283928125256	0.2937508159854422
-0.47991180412500256	0.30400705739818534
-0.47985076896875256	0.31398345323700705
-0.47978973381250256	0.3236701406022767
-0.47972869865625256	0.33305757078356657
-0.47966766350000256	0.3421368297983552
-0.47960662834375256	0.35089942207759334
-0.47954559318750256	0.3593369666925809
-0.47948455803125256	0.36744107708749696
-0.47942352287500256	0.3752039999604679
-0.47936248771875256	0.3826183780603745
-0.47930145256250256	0.38967689828958885
-0.47924041740625256	0.39637279900415484
-0.47917938225000256	0.40269967506142673
-0.47911834709375256	0.4086512481631806
-0.47905731193750256	0.4142217451896224
-0.47899627678125256	0.41940575166659877
-0.47893524162500256	0.4241981654870744
-0.47887420646875256	0.42859435389499034
-0.47881317131250256	0.4325900053262757
-0.47875213615625256	0.43618108196649474
-0.47869110100000256	0.43936390965082683
-0.47863006584375256	0.44213544334621174
-0.47856903068750256	0.4444929972877291
-0.47850799553125256	0.4464339836894547
-0.47844696037500256	0.4479563509036621
-0.47838592521875256	0.4490585633906962
-0.47832489006250256	0.44973938310886585
-0.47826385490625256	0.44999801486789476
-0.47820281975000256	0.4498340193128761
-0.47814178459375256	0.44924730572069993
-0.47808074943750256	0.4482382924948373
-0.47801971428125256	0.4468077262048938
-0.47795867912500256	0.4449567746219035
-0.47789764396875256	0.4426871680242563
-0.47783660881250256	0.4400007325882509
-0.47777557365625256	0.4368996296667549
-0.47771453850000256	0.4333869092393679
-0.47765350334375256	0.42946580684824653
-0.47759246818750256	0.42513958947023434
-0.47753143303125256	0.4204122317634387
-0.47747039787500256	0.4152880866929096
-0.47740936271875256	0.4097717960737724
-0.47734832756250256	0.4038685728114593
-0.47728729240625256	0.39758375499588877
-0.47722625725000256	0.39092297030839745
-0.47716522209375256	0.38389244624039254
-0.47710418693750256	0.3764987802153398
-0.47704315178125256	0.3687488865836786
-0.47698211662500256	0.3606498247714719
-0.47692108146875256	0.35220895825273824
-0.47686004631250256	0.3434342840061061
-0.47679901115625256	0.33433420366900507
-0.47673797600000256	0.32491699808785474
-0.47667694084375256	0.31519124868188775
-0.47661590568750256	0.3051662178859657
-0.47655487053125256	0.2948513359544434
-0.47649383537500256	0.28425644957160995
-0.47643280021875256	0.27339119674466694
-0.47637176506250256	0.2622651884844842
-0.47631072990625256	0.2508897696882709
-0.47624969475000256	0.23927607730224254
-0.47618865959375256	0.22743356725325442
-0.47612762443750256	0.21537335605541394
-0.47606658928125256	0.20310836827726844
-0.47600555412500256	0.1906496090102386
-0.47594451896875256	0.17800752539077508
-0.47588348381250256	0.16519489343273688
-0.47582244865625256	0.15222447590799848
-0.47576141350000256	0.13910761033038438
-0.47570037834375256	0.12585645048796826
-0.47563934318750256	0.11248429574838162
-0.47557830803125256	0.09900372851917666
-0.47551727287500256	0.0854266488537062
-0.47545623771875256	0.07176607742694219
-0.47539520256250256	0.058035903950177006
-0.47533416740625256	0.044248678015258065
-0.47527313225000256	0.030416485833664856
-0.47521209709375256	0.016553096777732593
-0.47515106193750256	0.002672198988018005
-0.47509002678125256	-0.011213666300271121
-0.47502899162500256	-0.025091525196985338
-0.47496795646875256	-0.038947772803961604
-0.47490692131250256	-0.05276929999976942
-0.47484588615625256	-0.06654355147306308
-0.47478485100000256	-0.0802570673860519
-0.47472381584375256	-0.09389617263333505
-0.47466278068750256	-0.10744866709713702
-0.47460174553125256	-0.12090223948237121
-0.47454071037500256	-0.13424322193242882
-0.47447967521875256	-0.14745858306946572
-0.47441864006250256	-0.16053639980536316
-0.47435760490625256	-0.17346439252715243
-0.47429656975000256	-0.1862301150590761
-0.47423553459375256	-0.1988210071921933
-0.47417449943750256	-0.21122507464801385
-0.47411346428125256	-0.22343119336322362
-0.47405242912500256	-0.2354273017619994
-0.47399139396875256	-0.24720141553065958
-0.47393035881250256	-0.2587429939317254
-0.47386932365625256	-0.27004135305358223
-0.47380828850000256	-0.28108493829835607
-0.47374725334375256	-0.29186283476732466
-0.47368621818750256	-0.30236559717039413
-0.47362518303125256	-0.3125834572284067
-0.47356414787500256	-0.3225058811605536
-0.47350311271875256	-0.33212317875590813
-0.47344207756250256	-0.3414265391439503
-0.47338104240625256	-0.3504073379008943
-0.47332000725000256	-0.35905675707905693
-0.47325897209375256	-0.36736608161394246
-0.47319793693750256	-0.37532753500387256
-0.47313690178125256	-0.3829337819129581
-0.47307586662500256	-0.3901773695813939
-0.47301483146875256	-0.3970510768407771
-0.47295379631250256	-0.40354822983780364
-0.47289276115625256	-0.40966292940466315
-0.47283172600000256	-0.41538937483494687
-0.47277069084375256	-0.42072153746581537
-0.47270965568750256	-0.4256541961483805
-0.47264862053125256	-0.4301830035799271
-0.47258758537500256	-0.43430359508176625
-0.47252655021875256	-0.43801169822201697
-0.47246551506250256	-0.4413035719977552
-0.47240447990625256	-0.44417608398545
-0.47234344475000256	-0.44662665616497504
-0.47228240959375256	-0.44865281717156713
-0.47222137443750256	-0.4502522577388106
-0.47216033928125256	-0.45142341822499105
-0.47209930412500256	-0.4521653223185068
-0.47203826896875256	-0.4524771128703343
-0.47197723381250256	-0.4523582858823861
-0.47191619865625256	-0.4518089180890239
-0.47185516350000256	-0.4508294602033162
-0.47179412834375256	-0.4494207637868367
-0.47173309318750256	-0.44758408250838755
-0.47167205803125256	-0.44532106864260657
-0.47161102287500256	-0.4426338775826136
-0.47154998771875256	-0.43952492095439144
-0.47148895256250256	-0.435997009300307
-0.47142791740625256	-0.43205355500585957
-0.47136688225000256	-0.4276982893563174
-0.47130584709375256	-0.42293520868844425
-0.47124481193750256	-0.4177687432439641
-0.47118377678125256	-0.4122038472267606
-0.47112274162500256	-0.40624566361337777
-0.47106170646875256	-0.39989985169898823
-0.47100067131250256	-0.3931727110854338
-0.47093963615625256	-0.3860703038339156
-0.47087860100000256	-0.3785990595735624
-0.47081756584375256	-0.3707663782301565
-0.47075653068750256	-0.3625800022100801
-0.47069549553125256	-0.354047633126779
-0.47063446037500256	-0.34517689511253247
-0.47057342521875256	-0.33597603161931844
-0.47051239006250256	-0.3264544474201173
