Time	Frequency
-0.5000276558750016	-1.4699785114337584e-24
-0.49996662071875164	-1.2317061832835567e-24
-0.49990558556250164	-9.921958977391763e-25
-0.49984455040625164	-7.51661892689411e-25
-0.49978351525000164	-5.103292387657567e-25
-0.49972248009375164	-2.6840756614788823e-25
-0.49966144493750164	-2.6101115568663744e-26
-0.49960040978125164	2.163690965956012e-25
-0.49953937462500164	4.5878546008987e-25
-0.49947833946875164	7.009420347060052e-25
-0.49941730431250164	9.426179280117287e-25
-0.49935626915625164	1.1835942102894301e-24
-0.49929523400000164	1.4236628236842617e-24
-0.49923419884375164	1.6626117977920838e-24
-0.49917316368750164	1.9002339438223478e-24
-0.49911212853125164	2.136312872259701e-24
-0.49905109337500164	2.3706262796087623e-24
-0.49899005821875164	2.602974441682014e-24
-0.49892902306250164	2.833165154955589e-24
-0.49886798790625164	3.0609880542638613e-24
-0.49880695275000164	3.286226142363078e-24
-0.49874591759375164	3.50867794599035e-24
-0.49868488243750164	3.7281571094094646e-24
-0.49862384728125164	3.944476434935959e-24
-0.49856281212500164	4.157432136280366e-24
-0.49850177696875164	4.366821986796016e-24
-0.49844074181250164	4.572468926137094e-24
-0.49837970665625164	4.7741997416742316e-24
-0.49831867150000164	4.971827274373674e-24
-0.49825763634375164	5.1651658807177745e-24
-0.49819660118750164	5.354048074804396e-24
-0.49813556603125164	5.538310733398354e-24
-0.49807453087500164	5.717783331209525e-24
-0.49801349571875164	5.892301960238767e-24
-0.49795246056250164	6.061714360336473e-24
-0.49789142540625164	6.225870374206232e-24
-0.49783039025000164	6.3846172844402085e-24
-0.49776935509375164	6.537812299155381e-24
-0.49770831993750164	6.68532134597799e-24
-0.49764728478125164	6.827010051983954e-24
-0.49758624962500164	6.962749351412407e-24
-0.49752521446875164	7.092416614100775e-24
-0.49746417931250164	7.215895925117753e-24
-0.49740314415625164	7.33307456173521e-24
-0.49734210900000164	7.443844342049765e-24
-0.49728107384375164	7.548107428845783e-24
-0.49722003868750164	7.645770528342843e-24
-0.49715900353125164	7.736740450612338e-24
-0.49709796837500164	7.820931511999837e-24
-0.49703693321875164	7.898272353555207e-24
-0.49697589806250164	7.968694054305687e-24
-0.49691486290625164	8.032124366470182e-24
-0.49685382775000164	8.088504021191626e-24
-0.49679279259375164	8.137786284114854e-24
-0.49673175743750164	8.179924006806294e-24
-0.49667072228125164	8.21487390646505e-24
-0.49660968712500164	8.242601951416937e-24
-0.49654865196875164	8.263083253403708e-24
-0.49648761681250164	8.276298403553574e-24
-0.49642658165625164	8.282230155804329e-24
-0.49636554650000164	8.280869615295033e-24
-0.49630451134375164	8.27221785882363e-24
-0.49624347618750164	8.256280591121012e-24
-0.49618244103125164	8.23306743165097e-24
-0.49612140587500164	8.20259585900387e-24
-0.49606037071875164	8.16489156553117e-24
-0.49599933556250164	8.119985685654388e-24
-0.49593830040625164	8.067915555692386e-24
-0.49587726525000164	8.008724437824409e-24
-0.49581623009375164	7.942460976065958e-24
-0.49575519493750164	7.869183218034518e-24
-0.49569415978125164	7.788954884329889e-24
-0.49563312462500164	7.701842664123272e-24
-0.49557208946875164	7.607922284933001e-24
-0.49551105431250164	7.507274933317856e-24
-0.49545001915625164	7.399987070255956e-24
-0.49538898400000164	7.286152553329601e-24
-0.49532794884375164	7.165870143375456e-24
-0.49526691368750164	7.039245443432514e-24
-0.49520587853125164	6.906387455950252e-24
-0.49514484337500164	6.767410162466439e-24
-0.49508380821875164	6.622437936223509e-24
-0.49502277306250164	6.471599941739057e-24
-0.49496173790625164	6.315025240538041e-24
-0.49490070275000164	6.152847270969244e-24
-0.49483966759375164	5.985212797289936e-24
-0.49477863243750164	5.812273028682284e-24
-0.49471759728125164	5.634173325236902e-24
-0.49465656212500164	5.451069459439794e-24
-0.49459552696875164	5.2631293363895824e-24
-0.49453449181250164	5.070516008860555e-24
-0.49447345665625164	4.873393529990351e-24
-0.49441242150000164	4.671940590509259e-24
-0.49435138634375164	4.466340796001085e-24
-0.49429035118750164	4.256769602265087e-24
-0.49422931603125164	4.043403474511361e-24
-0.49416828087500164	3.8264404378162615e-24
-0.49410724571875164	3.606082998051329e-24
-0.49404621056250164	3.382512243745264e-24
-0.49398517540625164	3.1559205680968856e-24
-0.49392414025000164	2.9265193109193485e-24
-0.49386310509375164	2.6945120813820626e-24
-0.49380206993750164	2.460103558833387e-24
-0.49374103478125164	2.223500612624738e-24
-0.49367999962500164	1.9849076132010485e-24
-0.49361896446875164	1.7445403341894044e-24
-0.49355792931250164	1.5026200601337382e-24
-0.49349689415625164	1.2593553306442408e-24
-0.49343585900000164	1.0149532141172125e-24
-0.49337482384375164	7.696400532254199e-25
-0.49331378868750164	5.236467162424463e-25
-0.49325275353125164	2.771771633464838e-25
-0.49319171837500164	3.04348127852643e-26
-0.49313068321875164	-2.1633672341641e-25
-0.49306964806250164	-4.629040091629575e-25
-0.49300861290625164	-7.090772187635728e-25
-0.49294757775000164	-9.546427746478738e-25
-0.49288654259375164	-1.199353299609052e-24
-0.49282550743750164	-1.4429929335071056e-24
-0.49276447228125164	-1.6853625786074326e-24
-0.49270343712500164	-1.926242168828385e-24
-0.49264240196875164	-2.165411622704519e-24
-0.49258136681250164	-2.4026507739133336e-24
-0.49252033165625164	-2.637747337512512e-24
-0.49245929650000164	-2.8705106375850346e-24
-0.49239826134375164	-3.1007271273034036e-24
-0.49233722618750164	-3.32816819118939e-24
-0.49227619103125164	-3.552640896023453e-24
-0.49221515587500164	-3.773961123677499e-24
-0.49215412071875164	-3.991924259600685e-24
-0.49209308556250164	-4.206322427462095e-24
-0.49203205040625164	-4.416960968634493e-24
-0.49197101525000164	-4.6236630952485885e-24
-0.49190998009375164	-4.8262527774977125e-24
-0.49184894493750164	-5.024537829865908e-24
-0.49178790978125164	-5.218326085255482e-24
-0.49172687462500164	-5.407451315355661e-24
-0.49166583946875164	-5.59175909790555e-24
-0.49160480431250164	-5.771076511623258e-24
-0.49154376915625164	-5.945232802700311e-24
-0.49148273400000164	-6.1140780196658916e-24
-0.49142169884375164	-6.277457646795254e-24
-0.49136066368750164	-6.435222435161602e-24
-0.49129962853125164	-6.587241976929583e-24
-0.49123859337500164	-6.733373951828393e-24
-0.49117755821875164	-6.873475404172055e-24
-0.49111652306250164	-7.007427583894682e-24
-0.49105548790625164	-7.13511370373413e-24
-0.49099445275000164	-7.256416774801685e-24
-0.49093341759375164	-7.37122568652383e-24
-0.49087238243750164	-7.479430128540809e-24
-0.49081134728125164	-7.580936865865315e-24
-0.49075031212500164	-7.675661629018344e-24
-0.49068927696875164	-7.763511128978463e-24
-0.49062824181250164	-7.844399892673463e-24
-0.49056720665625164	-7.918260197025802e-24
-0.49050617150000164	-7.985028640573095e-24
-0.49044513634375164	-8.044639520031425e-24
-0.49038410118750164	-8.097036409388961e-24
-0.49032306603125164	-8.14217384617029e-24
-0.49026203087500164	-8.180009474977367e-24
-0.49020099571875164	-8.210508033522546e-24
-0.49013996056250164	-8.233641913532304e-24
-0.49007892540625164	-8.249388182854157e-24
-0.49001789025000164	-8.257730928082393e-24
-0.48995685509375164	-8.258661888129297e-24
-0.48989581993750164	-8.252179425136601e-24
-0.48983478478125164	-8.238288189345222e-24
-0.48977374962500164	-8.216999180570832e-24
-0.48971271446875164	-8.188330140702723e-24
-0.48965167931250164	-8.152305579350333e-24
-0.48959064415625164	-8.108956740428274e-24
-0.48952960900000164	-8.058321436841132e-24
-0.48946857384375164	-8.000444320689167e-24
-0.48940753868750164	-7.935376551008434e-24
-0.48934650353125164	-7.86317488224257e-24
-0.48928546837500164	-7.783902088113394e-24
-0.48922443321875164	-7.697628183943461e-24
-0.48916339806250164	-7.604432761598223e-24
-0.48910236290625164	-7.504400001322122e-24
-0.48904132775000164	-7.397612122712317e-24
-0.48898029259375164	-7.284162391893833e-24
-0.48891925743750164	-7.164161804261778e-24
-0.48885822228125164	-7.03771852325039e-24
-0.48879718712500164	-6.90493449282242e-24
-0.48873615196875164	-6.765927656873273e-24
-0.48867511681250164	-6.620831464334818e-24
-0.48861408165625164	-6.4697767992742414e-24
-0.48855304650000164	-6.312892756735334e-24
-0.48849201134375164	-6.150317990878241e-24
-0.48843097618750164	-5.9822010287844154e-24
-0.48836994103125164	-5.808693411213869e-24
-0.48830890587500164	-5.629952174144433e-24
-0.48824787071875164	-5.446137293106171e-24
-0.48818683556250164	-5.2574097148800386e-24
-0.48812580040625164	-5.0639399219879115e-24
-0.48806476525000164	-4.8659036918945225e-24
-0.48800373009375164	-4.6634811444595026e-24
-0.48794269493750164	-4.4568534919196296e-24
-0.48788165978125164	-4.2461998474998914e-24
-0.48782062462500164	-4.0317148216621075e-24
-0.48775958946875164	-3.813599016506625e-24
-0.48769855431250164	-3.5920365832401505e-24
-0.48763751915625164	-3.367225510185096e-24
-0.48757648400000164	-3.139385250822694e-24
-0.48751544884375164	-2.908713104430884e-24
-0.48745441368750164	-2.6754043370225247e-24
-0.48739337853125164	-2.43968173954034e-24
-0.48733234337500164	-2.2017640405999746e-24
-0.48727130821875164	-1.9618576119806433e-24
-0.48721027306250164	-1.7201763787212398e-24
-0.48714923790625164	-1.4769408540099852e-24
-0.48708820275000164	-1.2323736247960866e-24
-0.48702716759375164	-9.867013696485592e-25
-0.48696613243750164	-7.401388599302905e-25
-0.48690509728125164	-4.92899773398166e-25
-0.48684406212500164	-2.452234898582706e-25
-0.48678302696875164	2.6594657595296156e-27
-0.48672199181250164	2.5054597014945142e-25
-0.48666095665625164	4.982090783983874e-25
-0.48659992150000164	7.4540422747346835e-25
-0.48653888634375164	9.919168182239655e-25
-0.48647785118750164	1.2375323621396738e-24
-0.48641681603125164	1.4820226384475896e-24
-0.48635578087500164	1.7251632977202215e-24
-0.48629474571875164	1.9667309592012423e-24
-0.48623371056250164	2.206509680837272e-24
-0.48617267540625164	2.44428172887287e-24
-0.48611164025000164	2.6798320227939838e-24
-0.48605060509375164	2.9129470726888027e-24
-0.48598956993750164	3.143407274811451e-24
-0.48592853478125164	3.371006878627605e-24
-0.48586749962500164	3.595542220570382e-24
-0.48580646446875164	3.816805794465107e-24
-0.48574542931250164	4.034596175132357e-24
-0.48568439415625164	4.248711259289087e-24
-0.48562335900000164	4.458957640556323e-24
-0.48556232384375164	4.6651484444144826e-24
-0.48550128868750164	4.867089309445914e-24
-0.48544025353125164	5.064592423599198e-24
-0.48537921837500164	5.257486225932659e-24
-0.48531818321875164	5.4455929197544996e-24
-0.48525714806250164	5.628729605685117e-24
-0.48519611290625164	5.806733426419951e-24
-0.48513507775000164	5.9794502575199585e-24
-0.48507404259375164	6.1467166528775464e-24
-0.48501300743750164	6.3083692747095594e-24
-0.48495197228125164	6.46426506595239e-24
-0.48489093712500164	6.614269097440506e-24
-0.48482990196875164	6.758234198100666e-24
-0.48476886681250164	6.896025948922518e-24
-0.48470783165625164	7.027523906601964e-24
-0.48464679650000164	7.152603237339998e-24
-0.48458576134375164	7.271145992042904e-24
-0.48452472618750164	7.383043846610908e-24
-0.48446369103125164	7.488194244581094e-24
-0.48440265587500164	7.586499570374053e-24
-0.48434162071875164	7.677865294251957e-24
-0.48428058556250164	7.762205298097712e-24
-0.48421955040625164	7.839443866589415e-24
-0.48415851525000164	7.909508359682927e-24
-0.48409748009375164	7.972329331446848e-24
-0.48403644493750164	8.027848438135719e-24
-0.48397540978125164	8.076014225959784e-24
-0.48391437462500164	8.116777769773589e-24
-0.48385333946875164	8.15009993275659e-24
-0.48379230431250164	8.175949672480849e-24
-0.48373126915625164	8.19429913680031e-24
-0.48367023400000164	8.205128096332109e-24
-0.48360919884375164	8.208425245068028e-24
-0.48354816368750164	8.20418489826862e-24
-0.48348712853125164	8.192407457839678e-24
-0.48342609337500164	8.173101384658593e-24
-0.48336505821875164	8.14628138560921e-24
-0.48330402306250164	8.111967718224521e-24
-0.48324298790625164	8.07018977879284e-24
-0.48318195275000164	8.020985279227925e-24
-0.48312091759375164	7.964393688346473e-24
-0.48305988243750164	7.900460412896956e-24
-0.48299884728125164	7.829245347880024e-24
-0.48293781212500164	7.750813418685789e-24
-0.48287677696875164	7.665227564105893e-24
-0.48281574181250164	7.57256143938875e-24
-0.48275470665625164	7.472901937319416e-24
-0.48269367150000164	7.36633783934358e-24
-0.48263263634375164	7.252959183325146e-24
-0.48257160118750164	7.132865510432341e-24
-0.48251056603125164	7.006168329626639e-24
-0.48244953087500164	6.872981348428023e-24
-0.48238849571875164	6.733417152989816e-24
-0.48232746056250164	6.587600316484395e-24
-0.48226642540625164	6.435668682371856e-24
-0.48220539025000164	6.2777570813638806e-24
-0.48214435509375164	6.113998781280628e-24
-0.48208331993750164	5.944543290236301e-24
-0.48202228478125164	5.769549599754276e-24
-0.48196124962500164	5.589170922936633e-24
-0.48190021446875164	5.4035663647040886e-24
-0.48183917931250164	5.2129068974595426e-24
-0.48177814415625164	5.01736292747427e-24
-0.48171710900000164	4.817107214164263e-24
-0.48165607384375164	4.6123238759405646e-24
-0.48159503868750164	4.4032034628285354e-24
-0.48153400353125164	4.189928476930726e-24
-0.48147296837500164	3.972682899076073e-24
-0.48141193321875164	3.751672723406425e-24
-0.48135089806250164	3.527105477669975e-24
-0.48128986290625164	3.2991765592960407e-24
-0.48122882775000164	3.0680845400793787e-24
-0.48116779259375164	2.8340442844836565e-24
-0.48110675743750164	2.5972754629058335e-24
-0.48104572228125164	2.357986518762957e-24
-0.48098468712500164	2.116394109811213e-24
-0.48092365196875164	1.872718834309669e-24
-0.48086261681250164	1.6271777854964547e-24
-0.48080158165625164	1.3799998791733485e-24
-0.48074054650000164	1.1314100781336007e-24
-0.48067951134375164	8.816284692394481e-25
-0.48061847618750164	6.308880258771025e-25
-0.48055744103125164	3.7941770154744595e-25
-0.48049640587500164	1.2743718878451885e-25
-0.48043537071875164	-1.2481927703755005e-25
-0.48037433556250164	-3.7711360845017705e-25
-0.48031330040625164	-6.292194874720933e-25
-0.48025226525000164	-8.80913773391803e-25
-0.48019123009375164	-1.131968908068139e-24
-0.48013019493750164	-1.3821459289569496e-24
-0.48006915978125164	-1.631212265538417e-24
-0.48000812462500164	-1.87895107779794e-24
-0.47994708946875164	-2.1251379575797996e-24
-0.47988605431250164	-2.3695414724478674e-24
-0.47982501915625164	-2.611935208571113e-24
-0.47976398400000164	-2.8520969562978976e-24
-0.47970294884375164	-3.089816340551498e-24
-0.47964191368750164	-3.324875515057699e-24
-0.47958087853125164	-3.557041952411412e-24
-0.47951984337500164	-3.7861114636318895e-24
-0.47945880821875164	-4.011887308549523e-24
-0.47939777306250164	-4.234150163332774e-24
-0.47933673790625164	-4.452689027376856e-24
-0.47927570275000164	-4.667308333613314e-24
-0.47921466759375164	-4.8778176133945915e-24
-0.47915363243750164	-5.0840222926733326e-24
-0.47909259728125164	-5.285724948383196e-24
-0.47903156212500164	-5.4827371385394784e-24
-0.47897052696875164	-5.6748832593830214e-24
-0.47890949181250164	-5.861991920620439e-24
-0.47884845665625164	-6.0438827764840146e-24
-0.47878742150000164	-6.220383873534386e-24
-0.47872638634375164	-6.391338688139693e-24
-0.47866535118750164	-6.55658683670065e-24
-0.47860431603125164	-6.715972936357963e-24
-0.47854328087500164	-6.869353270018425e-24
-0.47848224571875164	-7.016584049587565e-24
-0.47842121056250164	-7.157525485107142e-24
-0.47836017540625164	-7.292047192691583e-24
-0.47829914025000164	-7.420025638920769e-24
-0.47823810509375164	-7.541340200842284e-24
-0.47817706993750164	-7.65587627343028e-24
-0.47811603478125164	-7.76353005957755e-24
-0.47805499962500164	-7.864198479544596e-24
-0.47799396446875164	-7.957781487390044e-24
-0.47793292931250164	-8.044195250386105e-24
-0.47787189415625164	-8.123363158895842e-24
-0.47781085900000164	-8.195204797753177e-24
-0.47774982384375164	-8.259646873935145e-24
-0.47768878868750164	-8.316631573585628e-24
-0.47762775353125164	-8.366108052660013e-24
-0.47756671837500164	-8.408025234167931e-24
-0.47750568321875164	-8.442337891896173e-24
-0.47744464806250164	-8.469013750352836e-24
-0.47738361290625164	-8.488027782904558e-24
-0.47732257775000164	-8.499358529996526e-24
-0.47726154259375164	-8.502991174013231e-24
-0.47720050743750164	-8.498918975244123e-24
-0.47713947228125164	-8.487143686431979e-24
-0.47707843712500164	-8.467673744124832e-24
-0.47701740196875164	-8.440522720085436e-24
-0.47695636681250164	-8.405711471795155e-24
-0.47689533165625164	-8.363269655832863e-24
-0.47683429650000164	-8.31323427687758e-24
-0.47677326134375164	-8.255647605646866e-24
-0.47671222618750164	-8.190556347041755e-24
-0.47665119103125164	-8.11801787528692e-24
-0.47659015587500164	-8.038100302536421e-24
-0.47652912071875164	-7.950871476961281e-24
-0.47646808556250164	-7.856403475671525e-24
-0.47640705040625164	-7.754782084158929e-24
-0.47634601525000164	-7.646101265975078e-24
-0.47628498009375164	-7.530457656730696e-24
-0.47622394493750164	-7.407949789980719e-24
-0.47616290978125164	-7.278685888766623e-24
-0.47610187462500164	-7.142786545281085e-24
-0.47604083946875164	-7.000372186256997e-24
-0.47597980431250164	-6.851569823744782e-24
-0.47591876915625164	-6.696514509781179e-24
-0.47585773400000164	-6.535341466322459e-24
-0.47579669884375164	-6.368197708127897e-24
-0.47573566368750164	-6.195237166758147e-24
-0.47567462853125164	-6.0166145041586185e-24
-0.47561359337500164	-5.832487182489352e-24
-0.47555255821875164	-5.643022793515727e-24
-0.47549152306250164	-5.448399250930138e-24
-0.47543048790625164	-5.2487851989319065e-24
-0.47536945275000164	-5.044357983820542e-24
-0.47530841759375164	-4.835314542372249e-24
-0.47524738243750164	-4.621843227958516e-24
-0.47518634728125164	-4.404124733477846e-24
-0.47512531212500164	-4.182360343454846e-24
-0.47506427696875164	-3.9567672334270875e-24
-0.47500324181250164	-3.727542227607596e-24
-0.47494220665625164	-3.494878142760942e-24
-0.47488117150000164	-3.258999088420604e-24
-0.47482013634375164	-3.0201334551256645e-24
-0.47475910118750164	-2.7784833136864804e-24
-0.47469806603125164	-2.5342576833934395e-24
-0.47463703087500164	-2.2876993885781486e-24
-0.47457599571875164	-2.0390371014185413e-24
-0.47451496056250164	-1.788477532942702e-24
-0.47445392540625164	-1.53625415823731e-24
-0.47439289025000164	-1.2826112384619821e-24
-0.47433185509375164	-1.0277729508309762e-24
-0.47427081993750164	-7.71963477170274e-25
-0.47420978478125164	-5.154266165966367e-25
-0.47414874962500164	-2.5840077138257606e-25
-0.47408771446875164	-1.1073025082797976e-27
-0.47402667931250164	2.562110297113569e-25
-0.47396564415625164	5.133071961917045e-25
-0.47390460900000164	7.699613875752681e-25
-0.47384357384375164	1.0259434866149655e-24
-0.47378253868750164	1.2810018411456085e-24
-0.47372150353125164	1.534897390911538e-24
-0.47366046837500164	1.7874153521303836e-24
-0.47359943321875164	2.0383301769690986e-24
-0.47353839806250164	2.2873924730045868e-24
-0.47347736290625164	2.5343686697627928e-24
-0.47341632775000164	2.7790458453736688e-24
-0.47335529259375164	3.021202934838989e-24
-0.47329425743750164	3.2606096834974105e-24
-0.47323322228125164	3.497042078443801e-24
-0.47317218712500164	3.7302863282569955e-24
-0.47311115196875164	3.960127818023853e-24
-0.47305011681250164	4.186352467684446e-24
-0.47298908165625164	4.408758313773335e-24
-0.47292804650000164	4.627139541704375e-24
-0.47286701134375164	4.841284266826772e-24
-0.47280597618750164	5.0509975561143604e-24
-0.47274494103125164	5.25609540866469e-24
-0.47268390587500164	5.456387397731917e-24
-0.47262287071875164	5.6516799238032344e-24
-0.47256183556250164	5.841791995951283e-24
-0.47250080040625164	6.026554926316842e-24
-0.47243976525000164	6.205796546244388e-24
-0.47237873009375164	6.379347379828812e-24
-0.47231769493750164	6.547049474060537e-24
-0.47225665978125164	6.70874548769647e-24
-0.47219562462500164	6.864284073865271e-24
-0.47213458946875164	7.013525249892678e-24
