Time	Frequency
-0.5000525191562488	0.33919953078944237
-0.4999914839999988	0.3464971604243439
-0.4999304488437488	0.3534993035496881
-0.4998694136874988	0.36019959393232304
-0.4998083785312488	0.3665918850573543
-0.4997473433749988	0.3726705027606365
-0.4996863082187488	0.3784300185970231
-0.4996252730624988	0.3838653223966834
-0.4995642379062488	0.38897151600268187
-0.4995032027499988	0.3937438544861323
-0.4994421675937488	0.39817800747643245
-0.4993811324374988	0.402270078602246
-0.4993200972812488	0.4060162873237569
-0.4992590621249988	0.4094130509303664
-0.4991980269687488	0.4124573338742216
-0.4991369918124988	0.4151463527060048
-0.4990759566562488	0.41747743917318814
-0.4990149214999988	0.419448408812467
-0.4989538863437488	0.42105741725226986
-0.4988928511874988	0.4223028099278475
-0.4988318160312488	0.4231832971714129
-0.4987707808749988	0.4236979225372652
-0.4987097457187488	0.4238460319390719
-0.4986487105624988	0.42362730315986336
-0.4985876754062488	0.42304170953317083
-0.4985266402499988	0.42208954285316147
-0.4984656050937488	0.42077145215397577
-0.4984045699374988	0.41908837126423926
-0.4983435347812488	0.41704152024276875
-0.4982824996249988	0.41463250713417293
-0.4982214644687488	0.4118632379573347
-0.4981604293124988	0.40873587122095895
-0.4980993941562488	0.4052529371606939
-0.4980383589999988	0.4014172792992845
-0.4979773238437488	0.39723199685777766
-0.4979162886874988	0.3927005438732068
-0.4978552535312488	0.3878266968616431
-0.4977942183749988	0.3826144351062761
-0.4977331832187488	0.3770680637868625
-0.4976721480624988	0.3711923266983205
-0.4976111129062488	0.36499212154325766
-0.4975500777499988	0.35847249033040135
-0.4974890425937488	0.3516390162734624
-0.4974280074374988	0.3444975985465178
-0.4973669722812488	0.3370540796697782
-0.4973059371249988	0.32931467176888013
-0.4972449019687488	0.32128610083696907
-0.4971838668124988	0.3129752217362301
-0.4971228316562488	0.3043889948994541
-0.4970617964999988	0.2955345742833156
-0.4970007613437488	0.2864195738373614
-0.4969397261874988	0.27705196869437776
-0.4968786910312488	0.26743962845347424
-0.4968176558749988	0.25759060686493146
-0.4967566207187488	0.24751332822852215
-0.4966955855624988	0.23721654292671301
-0.4966345504062488	0.2267092020848884
-0.4965735152499988	0.2160000246133021
-0.4965124800937488	0.20509805206301687
-0.4964514449374988	0.19401301965890452
-0.4963904097812488	0.18275446238250107
-0.4963293746249988	0.17133164291660014
-0.4962683394687488	0.1597544360741807
-0.4962073043124988	0.14803321913000309
-0.4961462691562488	0.13617787296786588
-0.4960852339999988	0.12419822963818317
-0.4960241988437488	0.11210497829669529
-0.4959631636874988	0.09990864517620607
-0.4959021285312488	0.08761942305333974
-0.4958410933749988	0.07524803355007832
-0.4957800582187488	0.06280522441374121
-0.4957190230624988	0.050301671276378496
-0.4956579879062488	0.03774821400925136
-0.4955969527499988	0.02515563425872647
-0.4955359175937488	0.012534743883896375
-0.4954748824374988	-0.00010337386159470249
-0.4954138472812488	-0.012747557321251268
-0.4953528121249988	-0.02538726521938305
-0.4952917769687488	-0.03801184240425722
-0.4952307418124988	-0.05060972159853964
-0.4951697066562488	-0.06316985132658076
-0.4951086714999988	-0.07568186722173581
-0.4950476363437488	-0.08813488974236
-0.4949866011874988	-0.10051793526134906
-0.4949255660312488	-0.11282024702860093
-0.4948645308749988	-0.12503108707769525
-0.4948034957187488	-0.13713990434032347
-0.4947424605624988	-0.1491362084639601
-0.4946814254062488	-0.16100956842848071
-0.4946203902499988	-0.17274974861394998
-0.4945593550937488	-0.18434648060423783
-0.4944983199374988	-0.19578935714329285
-0.4944372847812488	-0.2070684643426099
-0.4943762496249988	-0.21817447141637908
-0.4943152144687488	-0.22909771075958685
-0.4942541793124988	-0.239828118862269
-0.4941931441562488	-0.25035610973859296
-0.4941321089999988	-0.2606730057291997
-0.4940710738437488	-0.27077021948770097
-0.4940100386874988	-0.28063850645305205
-0.4939490035312488	-0.290268739795349
-0.4938879683749988	-0.29965275167090843
-0.4938269332187488	-0.30878280550381004
-0.4937658980624988	-0.31765082374752024
-0.4937048629062488	-0.3262486924414047
-0.4936438277499988	-0.3345688308563795
-0.4935827925937488	-0.3426041323908091
-0.4935217574374988	-0.35034765114547484
-0.4934607222812488	-0.3577925793568948
-0.4933996871249988	-0.36493222236883627
-0.4933386519687488	-0.37176019088752876
-0.4932776168124988	-0.3782707442959953
-0.4932165816562488	-0.3844581825002356
-0.4931555464999988	-0.3903167977965104
-0.4930945113437488	-0.3958415484996738
-0.4930334761874988	-0.4010276372230255
-0.4929724410312488	-0.40587035061038934
-0.4929114058749988	-0.41036545424854226
-0.4928503707187488	-0.4145090056074938
-0.4927893355624988	-0.41829728127153737
-0.4927283004062488	-0.42172691552096264
-0.4926672652499988	-0.42479484316697946
-0.4926062300937488	-0.42749834343208865
-0.4925451949374988	-0.42983501652573747
-0.4924841597812488	-0.43180270425417994
-0.4924231246249988	-0.4333996246838005
-0.4923620894687488	-0.4346243597775661
-0.4923010543124988	-0.4354757646677577
-0.4922400191562488	-0.43595301379605556
-0.4921789839999988	-0.43605561662127357
-0.4921179488437488	-0.43578342832027483
-0.4920569136874988	-0.43513663023143867
-0.4919958785312488	-0.43411572215824984
-0.4919348433749988	-0.4327215451814744
-0.4918738082187488	-0.430955220256271
-0.4918127730624988	-0.42881819441482305
-0.4917517379062488	-0.42631234833342985
-0.4916907027499988	-0.4234398364219466
-0.4916296675937488	-0.42020302529465486
-0.4915686324374988	-0.4166046797250387
-0.4915075972812488	-0.4126479023917124
-0.4914465621249988	-0.4083361404651979
-0.4913855269687488	-0.40367315374262813
-0.4913244918124988	-0.3986628204336428
-0.4912634566562488	-0.39330948038602104
-0.4912024214999988	-0.38761790573368327
-0.4911413863437488	-0.3815929127450129
-0.4910803511874988	-0.37523970476157165
-0.4910193160312488	-0.36856393867430376
-0.4909582808749988	-0.36157127576847514
-0.4908972457187488	-0.35426766868433696
-0.4908362105624988	-0.34665972649262616
-0.4907751754062488	-0.3387540587351127
-0.4907141402499988	-0.33055730343558776
-0.4906531050937488	-0.3220767419788497
-0.4905920699374988	-0.3133198343713029
-0.4905310347812488	-0.30429406599732844
-0.4904699996249988	-0.29500733900547127
-0.4904089644687488	-0.28546791804181715
-0.4903479293124988	-0.27568408527590743
-0.4902868941562488	-0.2656640734784213
-0.4902258589999988	-0.25541677503294186
-0.4901648238437488	-0.24495155407530342
-0.4901037886874988	-0.23427733523689354
-0.4900427535312488	-0.22340310384349082
-0.4899817183749988	-0.21233846381332494
-0.4899206832187488	-0.2010934488131304
-0.4898596480624988	-0.18967802715977936
-0.4897986129062488	-0.17810175970102501
-0.4897375777499988	-0.1663745728161009
-0.4896765425937488	-0.15450718456121257
-0.4896155074374988	-0.1425102622325882
-0.4895544722812488	-0.1303939405357941
-0.4894934371249988	-0.11816859190446832
-0.4894324019687488	-0.10584522268109421
-0.4893713668124988	-0.09343486243444776
-0.4893103316562488	-0.08094828190524032
-0.4892492964999988	-0.06839623548271147
-0.4891882613437488	-0.05578983016469078
-0.4891272261874988	-0.0431402780331383
-0.4890661910312488	-0.03045863446260871
-0.4890051558749988	-0.017756096192938216
-0.4889441207187488	-0.005043711628165197
-0.4888830855624988	0.007667410826161435
-0.4888220504062488	0.02036569501544746
-0.4887610152499988	0.03304011842674542
-0.4886999800937488	0.045679948163215474
-0.4886389449374988	0.05827373510628447
-0.4885779097812488	0.07081007936106604
-0.4885168746249988	0.08327813931432707
-0.4884558394687488	0.0956672473495335
-0.4883948043124988	0.1079663642671824
-0.4883337691562488	0.12016430496929574
-0.4882727339999988	0.13225043685019192
-0.4882116988437488	0.14421427392024908
-0.4881506636874988	0.15604517119909428
-0.4880896285312488	0.16773269539262362
-0.4880285933749988	0.1792665129521617
-0.4879675582187488	0.1906363215605608
-0.4879065230624988	0.20183215240354463
-0.4878454879062488	0.21284422716050624
-0.4877844527499988	0.2236627486293938
-0.4877234175937488	0.23427799391002227
-0.4876623824374988	0.24468061034875527
-0.4876013472812488	0.2548616128741822
-0.4875403121249988	0.2648119535030667
-0.4874792769687488	0.274522566296685
-0.4874182418124988	0.2839848021693793
-0.4873572066562488	0.2931905984691078
-0.4872961714999988	0.30213190079175084
-0.4872351363437488	0.3108004215359701
-0.4871741011874988	0.31918838899508956
-0.4871130660312488	0.32728861607356063
-0.4870520308749988	0.3350939917712147
-0.4869909957187488	0.34259744498256123
-0.4869299605624988	0.34979223249374974
-0.4868689254062488	0.35667204074211484
-0.4868078902499988	0.36323075662132526
-0.4867468550937488	0.3694625343746087
-0.4866858199374988	0.375361850064888
-0.4866247847812488	0.38092342046327143
-0.4865637496249988	0.3861423045908493
-0.4865027144687488	0.39101379899944183
-0.4864416793124988	0.39553354301981347
-0.4863806441562488	0.3996976457922713
-0.4863196089999988	0.4035023511169809
-0.4862585738437488	0.4069440729873233
-0.4861975386874988	0.41001976138828844
-0.4861365035312488	0.412726813524727
-0.4860754683749988	0.41506280921334004
-0.4860144332187488	0.41702552119651826
-0.4859533980624988	0.41861310711711436
-0.4858923629062488	0.4198242005893522
-0.4858313277499988	0.4206577715479109
-0.4857702925937488	0.4211130144353817
-0.4857092574374988	0.4211894206562481
-0.4856482222812488	0.4208868785819034
-0.4855871871249988	0.42020567888812776
-0.4855261519687488	0.41914642375423217
-0.4854651168124988	0.41770995002007716
-0.4854040816562488	0.4158974773911831
-0.4853430464999988	0.41371067524070226
-0.4852820113437488	0.41115141401178484
-0.4852209761874988	0.4082218560591307
-0.4851599410312488	0.4049246723291158
-0.4850989058749988	0.4012627705796433
-0.4850378707187488	0.39723927061102987
-0.4849768355624988	0.39285778121358966
-0.4849158004062488	0.38812223378136734
-0.4848547652499988	0.3830366952015413
-0.4847937300937488	0.37760564630906746
-0.4847326949374988	0.3718340401238001
-0.4846716597812488	0.36572692953304886
-0.4846106246249988	0.3592896216021215
-0.4845495894687488	0.3525278886484623
-0.4844885543124988	0.3454477042081967
-0.4844275191562488	0.33805539601738943
-0.4843664839999988	0.33035765972196257
-0.4843054488437488	0.322361102189906
-0.4842444136874988	0.3140726396972241
-0.4841833785312488	0.3055000121509441
-0.4841223433749988	0.2966510183975653
-0.4840613082187488	0.2875331499466182
-0.4840002730624988	0.2781543633871902
-0.4839392379062488	0.2685232771310529
-0.4838782027499988	0.2586486119040786
-0.4838171675937488	0.24853906509891405
-0.4837561324374988	0.23820349216588685
-0.4836950972812488	0.22765105918517667
-0.4836340621249988	0.21689144624011855
-0.4835730269687488	0.2059342208996587
-0.4835119918124988	0.19478883331920535
-0.4834509566562488	0.18346553047903727
-0.4833899214999988	0.17197462616394768
-0.4833288863437488	0.16032596680557448
-0.4832678511874988	0.14852988368000514
-0.4832068160312488	0.13659727500380464
-0.4831457808749988	0.12453892404836772
-0.4830847457187488	0.1123653691074316
-0.4830237105624988	0.10008740619678126
-0.4829626754062488	0.08771609079483855
-0.4829016402499988	0.07526248536042472
-0.4828406050937488	0.06273812312863496
-0.4827795699374988	0.0501541636710734
-0.4827185347812488	0.037521165003875034
-0.4826574996249988	0.024850844568384895
-0.4825964644687488	0.01215522981445067
-0.4825354293124988	-0.0005548018141422143
-0.4824743941562488	-0.013268295567987979
-0.4824133589999988	-0.025973344541494886
-0.4823523238437488	-0.03865809135001672
-0.4822912886874988	-0.05131169468443901
-0.4822302535312488	-0.06392317326517588
-0.4821692183749988	-0.07648048067600681
-0.4821081832187488	-0.08897206009735978
-0.4820471480624988	-0.10138726946643334
-0.4819861129062488	-0.11371509003519997
-0.4819250777499988	-0.12594400667253433
-0.4818640425937488	-0.13806275093238346
-0.4818030074374988	-0.15006061502391735
-0.4817419722812488	-0.16192705693398535
-0.4816809371249988	-0.17365129065178705
-0.4816199019687488	-0.18522229545683355
-0.4815588668124988	-0.19662957260409497
-0.4814978316562488	-0.20786341101612815
-0.4814367964999988	-0.21891351605518675
-0.4813757613437488	-0.22976926968836187
-0.4813147261874988	-0.24042112173451013
-0.4812536910312488	-0.2508597221949651
-0.4811926558749988	-0.2610753409937825
-0.4811316207187488	-0.27105868639605357
-0.4810705855624988	-0.28080069193190715
-0.4810095504062488	-0.29029227605510327
-0.4809485152499988	-0.29952504531564306
-0.4808874800937488	-0.30849086888694105
-0.4808264449374988	-0.31718107162167264
-0.4807654097812488	-0.3255874723519008
-0.4807043746249988	-0.33370292582455674
-0.4806433394687488	-0.3415201168928613
-0.4805823043124988	-0.3490314325719019
-0.4805212691562488	-0.3562298775841152
-0.4804602339999988	-0.3631091102732235
-0.4803991988437488	-0.36966290441736244
-0.4803381636874988	-0.3758850005603454
-0.4802771285312488	-0.3817695231409003
-0.4802160933749988	-0.38731115431434776
-0.4801550582187488	-0.3925047941947316
-0.4800940230624988	-0.3973455263338314
-0.4800329879062488	-0.40182878631457625
-0.4799719527499988	-0.4059503677610313
-0.4799109175937488	-0.4097063997099598
-0.4798498824374988	-0.41309329253149224
-0.4797888472812488	-0.4161078094627965
-0.4797278121249988	-0.4187470703384801
-0.4796667769687488	-0.42100845872457593
-0.4796057418124988	-0.42288972703247557
-0.4795447066562488	-0.424389018395815
-0.4794836714999988	-0.42550477051620483
-0.4794226363437488	-0.42623574526694913
-0.4793616011874988	-0.42658108169112113
-0.4793005660312488	-0.4265402692317937
-0.4792395308749988	-0.42611311670873087
-0.4791784957187488	-0.4252997837338142
-0.4791174605624988	-0.4241008012624191
-0.4790564254062488	-0.42251702561873367
-0.4789953902499988	-0.42054965333359495
-0.4789343550937488	-0.4182002419080227
-0.4788733199374988	-0.41547065436669933
-0.4788122847812488	-0.4123631495803739
-0.4787512496249988	-0.4088803698254722
-0.4786902144687488	-0.405025137515333
-0.4786291793124988	-0.40080061595524635
-0.4785681441562488	-0.39621052755687836
-0.4785071089999988	-0.39125886379630687
-0.4784460738437488	-0.38594970018773456
-0.4783850386874988	-0.3802875426761313
-0.4783240035312488	-0.3742773722367398
-0.4782629683749988	-0.36792438958060836
-0.4782019332187488	-0.3612341359903412
-0.4781408980624988	-0.3542124026531145
-0.4780798629062488	-0.34686511128809694
-0.4780188277499988	-0.3391987354244242
-0.4779577925937488	-0.33122022098650256
-0.4778967574374988	-0.3229364295580116
-0.4778357222812488	-0.3143543374912747
-0.4777746871249988	-0.30548162051795275
-0.4777136519687488	-0.29632632707364076
-0.4776526168124988	-0.2868963139609476
-0.4775915816562488	-0.27719969173720915
-0.4775305464999988	-0.267245150764169
-0.4774695113437488	-0.2570415977953282
-0.4774084761874988	-0.24659795753354968
-0.4773474410312488	-0.23592334820037847
-0.4772864058749988	-0.22502724187160753
-0.4772253707187488	-0.21391934242795543
-0.4771643355624988	-0.2026094645052829
-0.4771033004062488	-0.1911075640435093
-0.4770422652499988	-0.17942398474527826
-0.4769812300937488	-0.1675690756761681
-0.4769201949374988	-0.15555300600151345
-0.4768591597812488	-0.14338676998951666
-0.4767981246249988	-0.1310814925418651
-0.4767370894687488	-0.11864757037427578
-0.4766760543124988	-0.106096042264659
-0.4766150191562488	-0.09343856590208896
-0.4765539839999988	-0.08068628241169028
-0.4764929488437488	-0.06785022261868631
-0.4764319136874988	-0.054941994814867064
-0.4763708785312488	-0.04197344078522125
-0.4763098433749988	-0.02895595182436397
-0.4762488082187488	-0.015900814132157652
-0.4761877730624988	-0.0028200030056623466
-0.4761267379062488	0.010274503294432044
-0.4760657027499988	0.023371358702126213
-0.4760046675937488	0.03645898580100546
-0.4759436324374988	0.049525369698119166
-0.4758825972812488	0.06255855979507585
-0.4758215621249988	0.07554717454574014
-0.4757605269687488	0.08847997413523719
-0.4756994918124988	0.10134485431888576
-0.4756384566562488	0.11412988923133328
-0.4755774214999988	0.12682404593681457
-0.4755163863437488	0.13941622105025672
-0.4754553511874988	0.15189484159860936
-0.4753943160312488	0.16424832993417499
-0.4753332808749988	0.17646569406996354
-0.4752722457187488	0.18853612986682286
-0.4752112105624988	0.20044876028329836
-0.4751501754062488	0.21219287921445273
-0.4750891402499988	0.22375760740423012
-0.4750281050937488	0.23513240410407374
-0.4749670699374988	0.246307406104455
-0.4749060347812488	0.2572725047312045
-0.4748449996249988	0.2680175282716077
-0.4747839644687488	0.2785326958917766
-0.4747229293124988	0.288808487565947
-0.4746618941562488	0.2988358308239786
-0.4746008589999988	0.3086057023136671
-0.4745398238437488	0.31810891752376824
-0.4744787886874988	0.32733670531268844
-0.4744177535312488	0.33628091579277936
-0.4743567183749988	0.3449336114757418
-0.4742956832187488	0.3532867177431054
-0.4742346480624988	0.36133247714897876
-0.4741736129062488	0.3690635860962481
-0.4741125777499988	0.376472943813768
-0.4740515425937488	0.38355400264495904
-0.4739905074374988	0.390300323329078
-0.4739294722812488	0.3967052633209106
-0.4738684371249988	0.40276302245022244
-0.4738074019687488	0.4084683937180635
-0.4737463668124988	0.41381593333601274
-0.4736853316562488	0.4188005644693103
-0.4736242964999988	0.42341773852202447
-0.4735632613437488	0.4276631197292498
-0.4735022261874988	0.4315327903340936
-0.4734411910312488	0.4350231950801986
-0.4733801558749988	0.4381309624142595
-0.4733191207187488	0.44085307467707435
-0.4732580855624988	0.4431869851582577
-0.4731970504062488	0.4451304948953414
-0.4731360152499988	0.44668168095102695
-0.4730749800937488	0.4478389398238467
-0.4730139449374988	0.4486010735052097
-0.4729529097812488	0.44896727810703646
-0.4728918746249988	0.44893705905964915
-0.4728308394687488	0.44851026720719006
-0.4727698043124988	0.44768711786967874
-0.4727087691562488	0.44646819196775456
-0.4726477339999988	0.44485445776231824
-0.4725866988437488	0.44284720607071065
-0.4725256636874988	0.44044804380846353
-0.4724646285312488	0.4376589590588822
-0.4724035933749988	0.43448234202386404
-0.4723425582187488	0.4309209292353913
-0.4722815230624988	0.4269777436891349
-0.4722204879062488	0.42265612144842296
-0.4721594527499988	0.4179597893213748
-0.4720984175937488	0.4128929057732504
-0.4720373824374988	0.40745991456415587
-0.4719763472812488	0.4016654751199047
-0.4719153121249988	0.3955146062684972
-0.4718542769687488	0.38901275644769495
-0.4717932418124988	0.382165690781743
-0.4717322066562488	0.3749793814163584
-0.4716711714999988	0.3674601420094575
-0.4716101363437488	0.3596146840021092
-0.4715491011874988	0.35144988126734317
-0.4714880660312488	0.34297279699966976
-0.4714270308749988	0.3341911309850761
-0.4713659957187488	0.3251128717043597
-0.4713049605624988	0.3157457468436196
-0.4712439254062488	0.30609793545211444
-0.4711828902499988	0.2961782754074097
-0.4711218550937488	0.28599569908985756
-0.4710608199374988	0.27555916342702874
-0.4709997847812488	0.26487778019628966
-0.4709387496249988	0.25396113049645996
-0.4708777144687488	0.24281909216020772
-0.4708166793124988	0.2314615854980249
-0.4707556441562488	0.21989870624961824
-0.4706946089999988	0.20814067764214386
-0.4706335738437488	0.19619812478436463
-0.4705725386874988	0.18408181261117185
-0.4705115035312488	0.17180236116175807
-0.4704504683749988	0.15937085561148354
-0.4703894332187488	0.14679859919767188
-0.4703283980624988	0.13409662461592164
-0.4702673629062488	0.12127626277859574
-0.4702063277499988	0.10834933973446832
-0.4701452925937488	0.09532735064100996
-0.4700842574374988	0.08222157057179318
-0.4700232222812488	0.06904409829206967
-0.4699621871249988	0.055807092609405376
-0.4699011519687488	0.04252196685799491
-0.4698401168124988	0.029200672221809564
-0.4697790816562488	0.015855471267401076
-0.4697180464999988	0.0024980205117786404
