Time	Frequency
-0.5000108741250031	3.369577402877173e-24
-0.4999498389687531	3.147987562080846e-24
-0.4998888038125031	2.923542623946672e-24
-0.4998277686562531	2.6964410126833505e-24
-0.4997667335000031	2.4668722607777002e-24
-0.4997056983437531	2.2350328004645507e-24
-0.4996446631875031	2.001134253473039e-24
-0.4995836280312531	1.765379592358094e-24
-0.4995225928750031	1.5279744937987988e-24
-0.4994615577187531	1.2891281399021774e-24
-0.4994005225625031	1.0490416948818447e-24
-0.4993394874062531	8.079276465467014e-25
-0.4992784522500031	5.660054458112598e-25
-0.4992174170937531	3.2348364272672596e-25
-0.4991563819375031	8.057065542811636e-26
-0.4990953467812531	-1.6252041298129094e-25
-0.4990343116250031	-4.0557841055019976e-25
-0.4989732764687531	-6.483826053637028e-25
-0.4989122413125031	-8.907160085584215e-25
-0.4988512061562531	-1.1323787637021726e-24
-0.4987901710000031	-1.3731600658617851e-24
-0.4987291358437531	-1.6128378205556727e-24
-0.4986681006875031	-1.8511995414467746e-24
-0.4986070655312531	-2.0880392752214287e-24
-0.4985460303750031	-2.3231547403136777e-24
-0.4984849952187531	-2.5563410806990133e-24
-0.4984239600625031	-2.787379287979913e-24
-0.4983629249062531	-3.0160642423419006e-24
-0.4983018897500031	-3.2422113226562485e-24
-0.4982408545937531	-3.465616443302053e-24
-0.4981798194375031	-3.6860712015787346e-24
-0.4981187842812531	-3.903386790512755e-24
-0.4980577491250031	-4.1173751963609446e-24
-0.4979967139687531	-4.3278447612385145e-24
-0.4979356788125031	-4.534606442732892e-24
-0.4978746436562531	-4.737478208469949e-24
-0.4978136085000031	-4.9362852487755266e-24
-0.4977525733437531	-5.1308467134710844e-24
-0.4976915381875031	-5.320984847050594e-24
-0.4976305030312531	-5.506541088962239e-24
-0.4975694678750031	-5.687350979521612e-24
-0.4975084327187531	-5.863241798907672e-24
-0.4974473975625031	-6.0340624245956065e-24
-0.4973863624062531	-6.1996684083510285e-24
-0.4973253272500031	-6.359904448487223e-24
-0.4972642920937531	-6.5146260426282486e-24
-0.4972032569375031	-6.663699899180403e-24
-0.4971422217812531	-6.806990465958613e-24
-0.4970811866250031	-6.944369303829826e-24
-0.4970201514687531	-7.075712816152796e-24
-0.4969591163125031	-7.20090180791487e-24
-0.4968980811562531	-7.319828310175164e-24
-0.4968370460000031	-7.43238253251776e-24
-0.4967760108437531	-7.538458418907469e-24
-0.4967149756875031	-7.63796409367549e-24
-0.4966539405312531	-7.730810667889571e-24
-0.4965929053750031	-7.816912251853851e-24
-0.4965318702187531	-7.896188793175417e-24
-0.4964708350625031	-7.96856632083924e-24
-0.4964097999062531	-8.033981138693127e-24
-0.4963487647500031	-8.092373390744624e-24
-0.4962877295937531	-8.143685428083675e-24
-0.4962266944375031	-8.187869557149231e-24
-0.4961656592812531	-8.224885189115838e-24
-0.4961046241250031	-8.254695568490347e-24
-0.4960435889687531	-8.277271161604012e-24
-0.4959825538125031	-8.292589069441386e-24
-0.4959215186562531	-8.300631866743297e-24
-0.4958604835000031	-8.301389522366256e-24
-0.4957994483437531	-8.294858442547832e-24
-0.4957384131875031	-8.281040108168366e-24
-0.4956773780312531	-8.259943398076002e-24
-0.4956163428750031	-8.231583984617073e-24
-0.4955553077187531	-8.19598272435072e-24
-0.4954942725625031	-8.153167350372354e-24
-0.4954332374062531	-8.10317265015628e-24
-0.4953722022500031	-8.046039589551134e-24
-0.4953111670937531	-7.981814056091502e-24
-0.4952501319375031	-7.910547882625006e-24
-0.4951890967812531	-7.832302363131252e-24
-0.4951280616250031	-7.747144226760365e-24
-0.4950670264687531	-7.655141959391513e-24
-0.4950059913125031	-7.556371956839255e-24
-0.4949449561562531	-7.450920933672729e-24
-0.4948839210000031	-7.338880039988717e-24
-0.4948228858437531	-7.220341223058032e-24
-0.4947618506875031	-7.095403205909118e-24
-0.4947008155312531	-6.964175233841036e-24
-0.4946397803750031	-6.826771924654276e-24
-0.4945787452187531	-6.68331116312828e-24
-0.4945177100625031	-6.533912403186757e-24
-0.4944566749062531	-6.378700968690071e-24
-0.4943956397500031	-6.217816642370652e-24
-0.4943346045937531	-6.05140051274464e-24
-0.4942735694375031	-5.879588509890428e-24
-0.4942125342812531	-5.70253059439035e-24
-0.4941514991250031	-5.520384861444789e-24
-0.4940904639687531	-5.333303077594238e-24
-0.4940294288125031	-5.141445931889918e-24
-0.4939683936562531	-4.9449870476160576e-24
-0.4939073585000031	-4.744095181077355e-24
-0.4938463233437531	-4.538937823349361e-24
-0.4937852881875031	-4.329695797118743e-24
-0.4937242530312531	-4.116554801417829e-24
-0.4936632178750031	-3.8996983370532615e-24
-0.4936021827187531	-3.6793131610038345e-24
-0.4935411475625031	-3.455591826312195e-24
-0.4934801124062531	-3.2287309865836552e-24
-0.4934190772500031	-2.9989258420631194e-24
-0.4933580420937531	-2.7663758467693293e-24
-0.4932970069375031	-2.53128976679932e-24
-0.4932359717812531	-2.2938688521699085e-24
-0.4931749366250031	-2.0543136371830246e-24
-0.4931139014687531	-1.8128441515339987e-24
-0.4930528663125031	-1.569672847496466e-24
-0.4929918311562531	-1.3250002173153167e-24
-0.4929307960000031	-1.0790457206031758e-24
-0.4928697608437531	-8.32030724450741e-25
-0.4928087256875031	-5.841645712098142e-25
-0.4927476905312531	-3.356651508908983e-25
-0.4926866553750031	-8.675389773016671e-26
-0.4926256202187531	1.6235454666226939e-25
-0.4925645850625031	4.1143934312795055e-25
-0.4925035499062531	6.602829206364623e-25
-0.4924425147500031	9.086722625379192e-25
-0.4923814795937531	1.1563793896623694e-24
-0.4923204444375031	1.4031858395798842e-24
-0.4922594092812531	1.648885745649e-24
-0.4921983741250031	1.8932593510863472e-24
-0.4921373389687531	2.1360882329799395e-24
-0.4920763038125031	2.3771597052928525e-24
-0.4920152686562531	2.616258466225043e-24
-0.4919542335000031	2.853176746332333e-24
-0.4918931983437531	3.087710441017211e-24
-0.4918321631875031	3.3196514866600544e-24
-0.4917711280312531	3.548790263557604e-24
-0.4917100928750031	3.774921600878422e-24
-0.4916490577187531	3.997851645993445e-24
-0.4915880225625031	4.2173876316111184e-24
-0.4915269874062531	4.4333310550674815e-24
-0.4914659522500031	4.645491200528267e-24
-0.4914049170937531	4.853679394351583e-24
-0.4913438819375031	5.057706612325316e-24
-0.4912828467812531	5.2573997607744346e-24
-0.4912218116250031	5.452586636321175e-24
-0.4911607764687531	5.6430879737326786e-24
-0.4910997413125031	5.8287305483081596e-24
-0.4910387061562531	6.009348508384999e-24
-0.4909776710000031	6.184790384092467e-24
-0.4909166358437531	6.354905691862472e-24
-0.4908556006875031	6.5195293171120376e-24
-0.4907945655312531	6.678511843156116e-24
-0.4907335303750031	6.831726501527662e-24
-0.4906724952187531	6.979035520006784e-24
-0.4906114600625031	7.120296061086242e-24
-0.4905504249062531	7.255385385642307e-24
-0.4904893897500031	7.384191591736138e-24
-0.4904283545937531	7.506595872979851e-24
-0.4903673194375031	7.622481414938207e-24
-0.4903062842812531	7.731750122011975e-24
-0.4902452491250031	7.834308109887761e-24
-0.4901842139687531	7.930055853900086e-24
-0.4901231788125031	8.018908487562211e-24
-0.4900621436562531	8.100791873407943e-24
-0.4900011085000031	8.175627481319202e-24
-0.4899400733437531	8.243345090695984e-24
-0.4898790381875031	8.303886556789197e-24
-0.4898180030312531	8.357197838747098e-24
-0.4897569678750031	8.403229667530398e-24
-0.4896959327187531	8.441937334935817e-24
-0.4896348975625031	8.473284608031522e-24
-0.4895738624062531	8.497244652822295e-24
-0.4895128272500031	8.513794567312385e-24
-0.4894517920937531	8.522916553814253e-24
-0.4893907569375031	8.524600539443216e-24
-0.4893297217812531	8.518843719386979e-24
-0.4892686866250031	8.505649767210035e-24
-0.4892076514687531	8.485028568595836e-24
-0.4891466163125031	8.456996577108321e-24
-0.4890855811562531	8.421576626317667e-24
-0.4890245460000031	8.378798139294206e-24
-0.4889635108437531	8.328697267605688e-24
-0.4889024756875031	8.271316306319663e-24
-0.4888414405312531	8.206705265920913e-24
-0.4887804053750031	8.134920407953361e-24
-0.4887193702187531	8.056021084935638e-24
-0.4886583350625031	7.97007494434902e-24
-0.4885972999062531	7.877159518122074e-24
-0.4885362647500031	7.777355004022461e-24
-0.4884752295937531	7.670745790531764e-24
-0.4884141944375031	7.557426267557209e-24
-0.4883531592812531	7.437495616391612e-24
-0.4882921241250031	7.311055594624362e-24
-0.4882310889687531	7.178219012086571e-24
-0.4881700538125031	7.039105585866376e-24
-0.4881090186562531	6.893832408861332e-24
-0.4880479835000031	6.742523317737499e-24
-0.4879869483437531	6.585316437141793e-24
-0.4879259131875031	6.422353062405583e-24
-0.4878648780312531	6.253770923829999e-24
-0.4878038428750031	6.079714881980173e-24
-0.4877428077187531	5.900343803277008e-24
-0.4876817725625031	5.715816781385039e-24
-0.4876207374062531	5.5262904591972305e-24
-0.4875597022500031	5.331933649661504e-24
-0.4874986670937531	5.132921137271544e-24
-0.4874376319375031	4.92942627538252e-24
-0.4873765967812531	4.721625794329369e-24
-0.4873155616250031	4.509702866044704e-24
-0.4872545264687531	4.293850840062926e-24
-0.4871934913125031	4.074259127549765e-24
-0.4871324561562531	3.851113167313502e-24
-0.4870714210000031	3.6246166409798565e-24
-0.4870103858437531	3.394973320659207e-24
-0.4869493506875031	3.162379874651963e-24
-0.4868883155312531	2.9270439523489197e-24
-0.4868272803750031	2.6891743575626716e-24
-0.4867662452187531	2.4489843023098967e-24
-0.4867052100625031	2.206686450984009e-24
-0.4866441749062531	1.962485265954694e-24
-0.4865831397500031	1.7166040289533114e-24
-0.4865221045937531	1.4692739665499406e-24
-0.4864610694375031	1.2207022612693761e-24
-0.4864000342812531	9.710971308903867e-25
-0.4863389991250031	7.206938086206489e-25
-0.4862779639687531	4.6972393498092e-25
-0.4862169288125031	2.1839974193009336e-25
-0.4861558936562531	-3.306123781549549e-26
-0.4860948585000031	-2.844284125792345e-25
-0.4860338233437531	-5.354761168568075e-25
-0.4859727881875031	-7.859878788790929e-25
-0.4859117530312531	-1.0357358503670413e-24
-0.4858507178750031	-1.2844901054907859e-24
-0.4857896827187531	-1.5320417994477273e-24
-0.4857286475625031	-1.7781773695784935e-24
-0.4856676124062531	-2.0226617678350892e-24
-0.4856065772500031	-2.2652699454508584e-24
-0.4855455420937531	-2.5058006059127167e-24
-0.4854845069375031	-2.744047514153013e-24
-0.4854234717812531	-2.9797833525938585e-24
-0.4853624366250031	-3.212790917270925e-24
-0.4853014014687531	-3.442876135902517e-24
-0.4852403663125031	-3.669835452552455e-24
-0.4851793311562531	-3.8934574732321025e-24
-0.4851182960000031	-4.1135418980921746e-24
-0.4850572608437531	-4.329893420411077e-24
-0.4849962256875031	-4.5423232384198945e-24
-0.4849351905312531	-4.7506410613814085e-24
-0.4848741553750031	-4.9546522886164894e-24
-0.4848131202187531	-5.154178045779318e-24
-0.4847520850625031	-5.349045512882022e-24
-0.4846910499062531	-5.5390729532961515e-24
-0.4846300147500031	-5.724089470201863e-24
-0.4845689795937531	-5.9039347475690385e-24
-0.4845079444375031	-6.078444047015603e-24
-0.4844469092812531	-6.2474594683421335e-24
-0.4843858741250031	-6.410831794933663e-24
-0.4843248389687531	-6.568412174488117e-24
-0.4842638038125031	-6.720057718481903e-24
-0.4842027686562531	-6.865635336534628e-24
-0.4841417335000031	-7.005012722780474e-24
-0.4840806983437531	-7.138061839316363e-24
-0.4840196631875031	-7.264665878004083e-24
-0.4839586280312531	-7.384708963705035e-24
-0.4838975928750031	-7.49807986812374e-24
-0.4838365577187531	-7.604679797033797e-24
-0.4837755225625031	-7.704414303063058e-24
-0.4837144874062531	-7.79718864090638e-24
-0.4836534522500031	-7.882916343371396e-24
-0.4835924170937531	-7.96152366498966e-24
-0.4835313819375031	-8.032940450376966e-24
-0.4834703467812531	-8.097098534000378e-24
-0.4834093116250031	-8.153937959712288e-24
-0.4833482764687531	-8.203407959966446e-24
-0.4832872413125031	-8.245464200487281e-24
-0.4832262061562531	-8.280066767860452e-24
-0.4831651710000031	-8.307182174191337e-24
-0.4831041358437531	-8.326784958436156e-24
-0.4830431006875031	-8.33885691654955e-24
-0.4829820655312531	-8.343386124678259e-24
-0.4829210303750031	-8.34036661802547e-24
-0.4828599952187531	-8.329799118453855e-24
-0.4827989600625031	-8.31169133222794e-24
-0.4827379249062531	-8.286058938458057e-24
-0.4826768897500031	-8.252924247273216e-24
-0.4826158545937531	-8.212314684680253e-24
-0.4825548194375031	-8.16426449667592e-24
-0.4824937842812531	-8.108814789125993e-24
-0.4824327491250031	-8.046014967677422e-24
-0.4823717139687531	-7.975921858879082e-24
-0.4823106788125031	-7.898595757917689e-24
-0.4822496436562531	-7.81410211186748e-24
-0.4821886085000031	-7.722514572808264e-24
-0.4821275733437531	-7.62391772826092e-24
-0.4820665381875031	-7.518402365163971e-24
-0.4820055030312531	-7.406055094130045e-24
-0.4819444678750031	-7.2869712228935e-24
-0.4818834327187531	-7.161265992515732e-24
-0.4818223975625031	-7.029051571272484e-24
-0.4817613624062531	-6.890436714921067e-24
-0.4817003272500031	-6.745549270519587e-24
-0.4816392920937531	-6.594521390680112e-24
-0.4815782569375031	-6.437480545254504e-24
-0.4815172217812531	-6.274570348121365e-24
-0.4814561866250031	-6.105941527113613e-24
-0.4813951514687531	-5.931737183620474e-24
-0.4813341163125031	-5.752109936131645e-24
-0.4812730811562531	-5.567226525233469e-24
-0.4812120460000031	-5.377256294808906e-24
-0.4811510108437531	-5.1823642711544224e-24
-0.4810899756875031	-4.982718037300409e-24
-0.4810289405312531	-4.778501393508379e-24
-0.4809679053750031	-4.569903856664521e-24
-0.4809068702187531	-4.357107486425565e-24
-0.4808458350625031	-4.14029830465122e-24
-0.4807847999062531	-3.9196763026483125e-24
-0.4807237647500031	-3.695440855126453e-24
-0.4806627295937531	-3.4677866350955346e-24
-0.4806016944375031	-3.236917652185471e-24
-0.4805406592812531	-3.0030498443774104e-24
-0.4804796241250031	-2.7663980519328292e-24
-0.4804185889687531	-2.527158766574701e-24
-0.4803575538125031	-2.2855408935782705e-24
-0.4802965186562531	-2.0417858826890227e-24
-0.4802354835000031	-1.7961138946464104e-24
-0.4801744483437531	-1.5487234031519561e-24
-0.4801134131875031	-1.2998428145282828e-24
-0.4800523780312531	-1.049709752791262e-24
-0.4799913428750031	-7.985434807998449e-25
-0.4799303077187531	-5.465653731827634e-25
-0.4798692725625031	-2.9400537874801185e-25
-0.4798082374062531	-4.1096276767135026e-26
-0.4797472022500031	2.119352900433634e-25
-0.4796861670937531	4.648676850151247e-25
-0.4796251319375031	7.174699727837607e-25
-0.4795640967812531	9.695072382171052e-25
-0.4795030616250031	1.2207499848852774e-24
-0.4794420264687531	1.4709778257385409e-24
-0.4793809913125031	1.719971597400598e-24
-0.4793199561562531	1.9674961763063274e-24
-0.4792589210000031	2.2133189190444807e-24
-0.4791978858437531	2.457226488531812e-24
-0.4791368506875031	2.6990002809227266e-24
-0.4790758155312531	2.9384211000343998e-24
-0.4790147803750031	3.1752715770038526e-24
-0.4789537452187531	3.409323483810467e-24
-0.4788927100625031	3.640370013153583e-24
-0.4788316749062531	3.868215116592174e-24
-0.4787706397500031	4.092645773324931e-24
-0.4787096045937531	4.313447502072341e-24
-0.4786485694375031	4.530415701006102e-24
-0.4785875342812531	4.743365702547663e-24
-0.4785264991250031	4.952110589284241e-24
-0.4784654639687531	5.156446450955936e-24
-0.4784044288125031	5.3561795591875505e-24
-0.4783433936562531	5.551134408461127e-24
-0.4782823585000031	5.7411416234304795e-24
-0.4782213233437531	5.926027079036946e-24
-0.4781602881875031	6.105610541452683e-24
-0.4780992530312531	6.2797227778791945e-24
-0.4780382178750031	6.448215351305023e-24
-0.4779771827187531	6.610938153655114e-24
-0.4779161475625031	6.7677336868688e-24
-0.4778551124062531	6.918455028311733e-24
-0.4777940772500031	7.062963532829732e-24
-0.4777330420937531	7.201127676120818e-24
-0.4776720069375031	7.332825955905452e-24
-0.4776109717812531	7.457933540697785e-24
-0.4775499366250031	7.576324523602119e-24
-0.4774889014687531	7.687893502946752e-24
-0.4774278663125031	7.792545310332863e-24
-0.4773668311562531	7.890176600968855e-24
-0.4773057960000031	7.980691432946826e-24
-0.4772447608437531	8.06400768346418e-24
-0.4771837256875031	8.140048326954293e-24
-0.4771226905312531	8.208741357101825e-24
-0.4770616553750031	8.270019472891904e-24
-0.4770006202187531	8.323823587772177e-24
-0.4769395850625031	8.370103037967757e-24
-0.4768785499062531	8.408811742902169e-24
-0.4768175147500031	8.439911084374777e-24
-0.4767564795937531	8.463369816566649e-24
-0.4766954444375031	8.47916288421265e-24
-0.4766344092812531	8.487272396050605e-24
-0.4765733741250031	8.487687321152878e-24
-0.4765123389687531	8.480403692788847e-24
-0.4764513038125031	8.465424334123259e-24
-0.4763902686562531	8.44275956049721e-24
-0.4763292335000031	8.41242690533881e-24
-0.4762681983437531	8.374448648619841e-24
-0.4762071631875031	8.328854679333448e-24
-0.4761461280312531	8.27568536698156e-24
-0.4760850928750031	8.214985424554665e-24
-0.4760240577187531	8.146803193795848e-24
-0.4759630225625031	8.071197230430085e-24
-0.4759019874062531	7.98823389983545e-24
-0.4758409522500031	7.89798519442932e-24
-0.4757799170937531	7.800529210504987e-24
-0.4757188819375031	7.695947777772528e-24
-0.4756578467812531	7.584332585909462e-24
-0.4755968116250031	7.465785618859197e-24
-0.4755357764687531	7.340408090365048e-24
-0.4754747413125031	7.208306461518546e-24
-0.4754137061562531	7.069601910730291e-24
-0.4753526710000031	6.924418123211066e-24
-0.4752916358437531	6.772877964315993e-24
-0.4752306006875031	6.615114179781083e-24
-0.4751695655312531	6.451271572696692e-24
-0.4751085303750031	6.281500485623911e-24
-0.4750474952187531	6.1059440778445804e-24
-0.4749864600625031	5.924750474988797e-24
-0.4749254249062531	5.738090308016293e-24
-0.4748643897500031	5.546136455759305e-24
-0.4748033545937531	5.3490550884174304e-24
-0.4747423194375031	5.147015786308285e-24
-0.4746812842812531	4.9401962037639655e-24
-0.4746202491250031	4.7287890330292506e-24
-0.4745592139687531	4.5129890403983976e-24
-0.4744981788125031	4.292982748297915e-24
-0.4744371436562531	4.068963566336561e-24
-0.4743761085000031	3.841132168999971e-24
-0.4743150733437531	3.609692520286318e-24
-0.4742540381875031	3.374860311895573e-24
-0.4741930030312531	3.1368489711659306e-24
-0.4741319678750031	2.8958603547571888e-24
-0.4740709327187531	2.6521073543721222e-24
-0.4740098975625031	2.4058184153169435e-24
-0.4739488624062531	2.157220709325622e-24
-0.4738878272500031	1.9065321301831087e-24
-0.4738267920937531	1.6539726196626763e-24
-0.4737657569375031	1.399774809946436e-24
-0.4737047217812531	1.1441675200705485e-24
-0.4736436866250031	8.87378875455895e-25
-0.4735826514687531	6.296483939370695e-25
-0.4735216163125031	3.7120483926726137e-25
-0.4734605811562531	1.1227241447838586e-25
-0.4733995460000031	-1.4690666698833986e-25
-0.4733385108437531	-4.0609334034471438e-25
-0.4732774756875031	-6.650602589007321e-25
-0.4732164405312531	-9.235740740650192e-25
-0.4731554053750031	-1.181397380205324e-24
-0.4730943702187531	-1.4382955468905482e-24
-0.4730333350625031	-1.694039126262845e-24
-0.4729722999062531	-1.948396614545216e-24
-0.4729112647500031	-2.2011344649982817e-24
-0.4728502295937531	-2.4520243104439164e-24
-0.4727891944375031	-2.7008371809484172e-24
-0.4727281592812531	-2.947351481136834e-24
-0.4726671241250031	-3.1913425365249342e-24
-0.4726060889687531	-3.4325810488328826e-24
-0.4725450538125031	-3.67085535517509e-24
-0.4724840186562531	-3.905949593104486e-24
-0.4724229835000031	-4.137642263721488e-24
-0.4723619483437531	-4.365727557510257e-24
-0.4723009131875031	-4.5900002043210425e-24
-0.4722398780312531	-4.8102500718064654e-24
-0.4721788428750031	-5.026276003615949e-24
-0.4721178077187531	-5.237886355666129e-24
-0.4720567725625031	-5.44488718432762e-24
-0.4719957374062531	-5.647083146295136e-24
-0.4719347022500031	-5.84429179226942e-24
-0.4718736670937531	-6.0363380062816145e-24
-0.4718126319375031	-6.223042640271621e-24
-0.4717515967812531	-6.404232996365532e-24
-0.4716905616250031	-6.579742695043399e-24
-0.4716295264687531	-6.74941062595993e-24
-0.4715684913125031	-6.91308632239301e-24
-0.4715074561562531	-7.07061643858354e-24
