Time	Frequency
-0.5000095360937493	0.3976803542937373
-0.4999485009374993	0.3904872482690356
-0.4998874657812493	0.38288617931561636
-0.4998264306249993	0.37488539418373834
-0.4997653954687493	0.36649334618325097
-0.4997043603124993	0.3577186591937462
-0.4996433251562493	0.34857033796998965
-0.4995822899999993	0.3390580409914787
-0.4995212548437493	0.3291921981332578
-0.4994602196874993	0.3189829247034166
-0.4993991845312493	0.3084404396182129
-0.4993381493749993	0.29757609533339885
-0.4992771142187493	0.28640153767275117
-0.4992160790624993	0.2749283952177106
-0.4991550439062493	0.263168543939784
-0.4990940087499993	0.25113420414982235
-0.4990329735937493	0.23883819120621658
-0.4989719384374993	0.22629352694814178
-0.4989109032812493	0.21351321732214146
-0.4988498681249993	0.200510611418821
-0.4987888329687493	0.18729942668388155
-0.4987277978124993	0.17389369810956667
-0.4986667626562493	0.16030746033006374
-0.4986057274999993	0.146554594488916
-0.4985446923437493	0.13264983424943017
-0.4984836571874993	0.11860826477526976
-0.4984226220312493	0.10444414200193772
-0.4983615868749993	0.09017206170806313
-0.4983005517187493	0.07580751144517726
-0.4982395165624993	0.061365808834536476
-0.4981784814062493	0.046861726557484454
-0.4981174462499993	0.032310567829799235
-0.4980564110937493	0.017727996283912684
-0.4979953759374993	0.0031289506490120634
-0.4979343407812493	-0.011471099036602412
-0.4978733056249993	-0.026056313684149766
-0.4978122704687493	-0.04061161123150843
-0.4977512353124993	-0.055121873654228146
-0.4976902001562493	-0.06957168916388895
-0.4976291649999993	-0.08394548904191536
-0.4975681298437493	-0.09822809569278224
-0.4975070946874993	-0.11240483758366776
-0.4974460595312493	-0.1264605529750446
-0.4973850243749993	-0.14038016116133314
-0.4973239892187493	-0.154149233824159
-0.4972629540624993	-0.16775300052668482
-0.4972019189062493	-0.1811768456614854
-0.4971408837499993	-0.1944070692088353
-0.4970798485937493	-0.20742970371232375
-0.4970188134374993	-0.2202303148250519
-0.4969577782812493	-0.23279528554033968
-0.4968967431249993	-0.24511184844077777
-0.4968357079687493	-0.25716708894120366
-0.4967746728124993	-0.26894766454497493
-0.4967136376562493	-0.28044077141071433
-0.4966526024999993	-0.2916346967122819
-0.4965915673437493	-0.30251767768924187
-0.4965305321874993	-0.313077696457385
-0.4964694970312493	-0.3233035304435585
-0.4964084618749993	-0.3331844824215673
-0.4963474267187493	-0.3427097827306059
-0.4962863915624993	-0.3518692317606849
-0.4962253564062493	-0.3606532760041066
-0.4961643212499993	-0.3690522785161085
-0.4961032860937493	-0.37705708890196715
-0.4960422509374993	-0.38465936770970144
-0.4959812157812493	-0.3918509196138941
-0.4959201806249993	-0.3986238351334638
-0.4958591454687493	-0.40497075868632953
-0.4957981103124993	-0.41088486500330096
-0.4957370751562493	-0.4163598112027922
-0.4956760399999993	-0.42138962461746327
-0.4956150048437493	-0.42596872808966324
-0.4955539696874993	-0.4300920347386323
-0.4954929345312493	-0.43375508134425084
-0.4954318993749993	-0.43695381481421663
-0.4953708642187493	-0.43968457004396105
-0.4953098290624993	-0.44194433316910336
-0.4952487939062493	-0.44373050077503956
-0.4951877587499993	-0.4450408750655621
-0.4951267235937493	-0.44587390818521905
-0.4950656884374993	-0.44622854084049846
-0.4950046532812493	-0.44610413322004927
-0.4949436181249993	-0.4455005975519963
-0.4948825829687493	-0.44441836073212854
-0.4948215478124993	-0.44285830530459597
-0.4947605126562493	-0.44082183520462753
-0.4946994774999993	-0.43831089684930635
-0.4946384423437493	-0.4353279661597959
-0.4945774071874993	-0.4318759386698079
-0.4945163720312493	-0.4279581042964393
-0.4944553368749993	-0.4235784299335481
-0.4943943017187493	-0.4187414234607039
-0.4943332665624993	-0.41345189584599323
-0.4942722314062493	-0.40771516876565017
-0.4942111962499993	-0.4015370526023495
-0.4941501610937493	-0.3949238616322838
-0.4940891259374993	-0.3878824368485642
-0.4940280907812493	-0.3804199333434843
-0.4939670556249993	-0.37254392007636783
-0.4939060204687493	-0.36426265536421476
-0.4938449853124993	-0.35558470667022946
-0.4937839501562493	-0.34651872814217777
-0.4937229149999993	-0.33707423397304065
-0.4936618798437493	-0.32726123487241465
-0.4936008446874993	-0.3170896654639801
-0.4935398095312493	-0.30657003652725995
-0.4934787743749993	-0.2957133179050221
-0.4934177392187493	-0.28453073092383757
-0.4933567040624993	-0.2730340434809981
-0.4932956689062493	-0.26123532760742
-0.4932346337499993	-0.24914654229386937
-0.4931735985937493	-0.2367802194325752
-0.4931125634374993	-0.22414971768790007
-0.4930515282812493	-0.21126801381289698
-0.4929904931249993	-0.19814835853879784
-0.4929294579687493	-0.184804863557545
-0.4928684228124993	-0.17125121968813528
-0.4928073876562493	-0.15750128431654453
-0.4927463524999993	-0.1435700143932473
-0.4926853173437493	-0.12947222802206648
-0.4926242821874993	-0.11522209506338256
-0.4925632470312493	-0.10083443714236512
-0.4925022118749993	-0.08632477740068956
-0.4924411767187493	-0.07170850002622955
-0.4923801415624993	-0.05700086888398705
-0.4923191064062493	-0.0422169797864507
-0.4922580712499993	-0.027372401079420867
-0.4921970360937493	-0.01248328792074617
-0.4921360009374993	0.0024348139523580957
-0.4920749657812493	0.01736660147533544
-0.4920139306249993	0.03229628931433269
-0.4919528954687493	0.04720769650173786
-0.4918918603124993	0.06208489348905357
-0.4918308251562493	0.0769129036779931
-0.4917697899999993	0.09167628744928877
-0.4917087548437493	0.10635848985845872
-0.4916477196874993	0.1209437283272366
-0.4915866845312493	0.13541752565642884
-0.4915256493749993	0.1497648526408269
-0.4914646142187493	0.16396969765665534
-0.4914035790624993	0.17801672190210857
-0.4913425439062493	0.19189142507376247
-0.4912815087499993	0.20557934300874497
-0.4912204735937493	0.2190659604390654
-0.4911594384374993	0.2323366957031035
-0.4910984032812493	0.2453769819322206
-0.4910373681249993	0.25817331922211756
-0.4909763329687493	0.27071270274133014
-0.4909152978124993	0.2829809588705383
-0.4908542626562493	0.2949648318836033
-0.4907932274999993	0.3066522892802237
-0.4907321923437493	0.31803046992328804
-0.4906711571874993	0.32908705368954083
-0.4906101220312493	0.3398103211993429
-0.4905490868749993	0.350188557542213
-0.4904880517187493	0.3602110530903532
-0.4904270165624993	0.36986707378213324
-0.4903659814062493	0.3791455592503864
-0.4903049462499993	0.3880367423450372
-0.4902439110937493	0.3965315653668957
-0.4901828759374993	0.40462042923030866
-0.4901218407812493	0.41229437091935667
-0.4900608056249993	0.4195454205211954
-0.4899997704687493	0.4263655509559589
-0.4899387353124993	0.432747177019816
-0.4898777001562493	0.4386835613890709
-0.4898166649999993	0.4441681351883699
-0.4897556298437493	0.44919463350141803
-0.4896945946874993	0.45375766038193527
-0.4896335595312493	0.45785224267615804
-0.4895725243749993	0.4614735755548419
-0.4895114892187493	0.4646175735187179
-0.4894504540624993	0.4672807853946051
-0.4893894189062493	0.4694600884756575
-0.4893283837499993	0.4711528341574445
-0.4892673485937493	0.4723569316929072
-0.4892063134374993	0.4730708651805974
-0.4891452782812493	0.4732936405230161
-0.4890842431249993	0.47302469851188617
-0.4890232079687493	0.4722639916814047
-0.4889621728124993	0.4710120530650843
-0.4889011376562493	0.46926991477107366
-0.4888401024999993	0.4670391175288731
-0.4887790673437493	0.4643217909015051
-0.4887180321874993	0.4611204207048293
-0.4886569970312493	0.4574380210563766
-0.4885959618749993	0.4532784029038349
-0.4885349267187493	0.44864558560120227
-0.4884738915624993	0.44354397280000235
-0.4884128564062493	0.4379788720666537
-0.4883518212499993	0.4319559173869467
-0.4882907860937493	0.4254810024117579
-0.4882297509374993	0.4185607422729651
-0.4881687157812493	0.41120219390550783
-0.4881076806249993	0.4034127812016689
-0.4880466454687493	0.39520057495185096
-0.4879856103124993	0.3865738860667109
-0.4879245751562493	0.3775414307348724
-0.4878635399999993	0.36811275130824844
-0.4878025048437493	0.35829745360965043
-0.4877414696874993	0.34810532422347545
-0.4876804345312493	0.33754714669125296
-0.4876193993749993	0.3266341009874667
-0.4875583642187493	0.3153770466312396
-0.4874973290624993	0.3037874420895505
-0.4874362939062493	0.2918777543477295
-0.4873752587499993	0.279660333747506
-0.4873142235937493	0.2671475412262427
-0.4872531884374993	0.25435230807122167
-0.4871921532812493	0.24128819399703538
-0.4871311181249993	0.2279689409355808
-0.4870700829687493	0.21440798572943917
-0.4870090478124993	0.2006195300069702
-0.4869480126562493	0.18661817331932254
-0.4868869774999993	0.1724181969198313
-0.4868259423437493	0.15803464130901615
-0.4867649071874993	0.14348274467854963
-0.4867038720312493	0.12877721848971788
-0.4866428368749993	0.11393334090239823
-0.4865818017187493	0.09896706840909218
-0.4865207665624993	0.08389413711994143
-0.4864597314062493	0.06873005858483962
-0.4863986962499993	0.05349047167196069
-0.4863376610937493	0.038191417145748335
-0.4862766259374993	0.022849399557553496
-0.4862155907812493	0.0074805081221475805
-0.4861545556249993	-0.007899925195382095
-0.4860935204687493	-0.02327566501142092
-0.4860324853124993	-0.038629618042969216
-0.4859714501562493	-0.053946064286269184
-0.4859104149999993	-0.06920962156166911
-0.4858493798437493	-0.08440376630161922
-0.4857883446874993	-0.09951237755778813
-0.4857273095312493	-0.11451968826709147
-0.4856662743749993	-0.12940975105970862
-0.4856052392187493	-0.14416729326478944
-0.4855442040624993	-0.15877685072175157
-0.4854831689062493	-0.17322249481060417
-0.4854221337499993	-0.18748914485950938
-0.4853610985937493	-0.20156213774055268
-0.4853000634374993	-0.2154264364850639
-0.4852390282812493	-0.22906734354788483
-0.4851779931249993	-0.2424707251484832
-0.4851169579687493	-0.25562222239316185
-0.4850559228124993	-0.2685077212068424
-0.4849948876562493	-0.28111411042620627
-0.4849338524999993	-0.2934282384590545
-0.4848728173437493	-0.3054365423793488
-0.4848117821874993	-0.3171262447887206
-0.4847507470312493	-0.3284854395722029
-0.4846897118749993	-0.33950227631493785
-0.4846286767187493	-0.3501648235632719
-0.4845676415624993	-0.3604615130095761
-0.4845066064062493	-0.3703817481704357
-0.4844455712499993	-0.37991530523648365
-0.4843845360937493	-0.3890517180951776
-0.4843235009374993	-0.39778134432302353
-0.4842624657812493	-0.4060951534989739
-0.4842014306249993	-0.413984076435041
-0.4841403954687493	-0.42143989039922586
-0.4840793603124993	-0.4284548521468337
-0.4840183251562493	-0.4350212265352685
-0.4839572899999993	-0.4411321532717762
-0.4838962548437493	-0.4467813167731769
-0.4838352196874993	-0.45196250587232367
-0.4837741845312493	-0.4566702290514646
-0.4837131493749993	-0.4608996551454089
-0.4836521142187493	-0.4646462462038181
-0.4835910790624993	-0.4679058904406918
-0.4835300439062493	-0.4706751513028405
-0.4834690087499993	-0.47295118054425306
-0.4834079735937493	-0.4747315263650508
-0.4833469384374993	-0.4760142451807547
-0.4832859032812493	-0.4767979689403319
-0.4832248681249993	-0.4770818615730539
-0.4831638329687493	-0.47686563090765566
-0.4831027978124993	-0.4761495150868985
-0.4830417626562493	-0.47493423855057015
-0.4829807274999993	-0.47322102093481827
-0.4829196923437493	-0.4710117063350987
-0.4828586571874993	-0.46830876768401863
-0.4827976220312493	-0.46511501336022504
-0.4827365868749993	-0.4614336415945472
-0.4826755517187493	-0.45726860839129246
-0.4826145165624993	-0.4526245782182355
-0.4825534814062493	-0.44750647675135913
-0.4824924462499993	-0.4419194054481048
-0.4824314110937493	-0.43586935021558165
-0.4823703759374993	-0.42936306032650734
-0.4823093407812493	-0.4224073925515801
-0.4822483056249993	-0.41500956567784175
-0.4821872704687493	-0.40717737225941797
-0.4821262353124993	-0.39891937006386646
-0.4820652001562493	-0.3902444663213215
-0.4820041649999993	-0.3811615380863765
-0.4819431298437493	-0.3716803735901457
-0.4818820946874993	-0.36181139237444454
-0.4818210595312493	-0.35156483619328316
-0.4817600243749993	-0.340951488614454
-0.4816989892187493	-0.32998280925682427
-0.4816379540624993	-0.3186706404799009
-0.4815769189062493	-0.30702719280944435
-0.4815158837499993	-0.2950644720024773
-0.4814548485937493	-0.28279503294830743
-0.4813938134374993	-0.27023267794344974
-0.4813327782812493	-0.2573908207767525
-0.4812717431249993	-0.24428250867853893
-0.4812107079687493	-0.23092195769586923
-0.4811496728124993	-0.21732385978000865
-0.4810886376562493	-0.2035025275509386
-0.4810276024999993	-0.18947247745464785
-0.4809665673437493	-0.17524893322599427
-0.4809055321874993	-0.1608474114990195
-0.4808444970312493	-0.1462828853806328
-0.4807834618749993	-0.13157061400260808
-0.4807224267187493	-0.11672710819562802
-0.4806613915624993	-0.10176837827436641
-0.4806003564062493	-0.08670967347842491
-0.4805393212499993	-0.07156723812880166
-0.4804782860937493	-0.05635759207095409
-0.4804172509374993	-0.04109703203620446
-0.4803562157812493	-0.025802141501437947
-0.4802951806249993	-0.010488896372171753
-0.4802341454687493	0.004826619121999477
-0.4801731103124993	0.020127209341806368
-0.4801120751562493	0.035396477854551654
-0.4800510399999993	0.05061869206816614
-0.4799900048437493	0.06577717795115898
-0.4799289696874993	0.08085542632265937
-0.4798679345312493	0.09583741623439328
-0.4798068993749993	0.11070714048225803
-0.4797458642187493	0.12544880793415228
-0.4796848290624993	0.1400463042429402
-0.4796237939062493	0.15448353381397187
-0.4795627587499993	0.16874546141389782
-0.4795017235937493	0.18281722829422734
-0.4794406884374993	0.19668298010461793
-0.4793796532812493	0.21032750341425424
-0.4793186181249993	0.2237369404658956
-0.4792575829687493	0.2368966437185434
-0.4791965478124993	0.24979185584616573
-0.4791355126562493	0.2624092651331554
-0.4790744774999993	0.27473539412155706
-0.4790134423437493	0.28675638276392457
-0.4789524071874993	0.29845943536332215
-0.4788913720312493	0.309832267794805
-0.4788303368749993	0.3208623789034275
-0.4787693017187493	0.33153773532826003
-0.4787082665624993	0.34184694239535973
-0.4786472314062493	0.35177884200424653
-0.4785861962499993	0.3613226743626166
-0.4785251610937493	0.37046813703959813
-0.4784641259374993	0.37920535339147043
-0.4784030907812493	0.3875248616563429
-0.4783420556249993	0.3954175006840616
-0.4782810204687493	0.40287481558242955
-0.4782199853124993	0.40988883220152483
-0.4781589501562493	0.4164517801650465
-0.4780979149999993	0.4225565647073567
-0.4780368798437493	0.4281965800252755
-0.4779758446874993	0.43336561227298476
-0.4779148095312493	0.4380580401885221
-0.4778537743749993	0.44226880961469256
-0.4777927392187493	0.445993315069637
-0.4777317040624993	0.44922736557955256
-0.4776706689062493	0.45196743624241015
-0.4776096337499993	0.4542105701108474
-0.4775485985937493	0.4559542385475889
-0.4774875634374993	0.45719648358548914
-0.4774265282812493	0.4579358938817011
-0.4773654931249993	0.4581715941489799
-0.4773044579687493	0.457903268404925
-0.4772434228124993	0.4571311447140126
-0.4771823876562493	0.45585597413804074
-0.4771213524999993	0.45407903181209525
-0.4770603173437493	0.4518022079553667
-0.4769992821874993	0.4490279091394684
-0.4769382470312493	0.44575896124651254
-0.4768772118749993	0.4419988909034554
-0.4768161767187493	0.43775179762241356
-0.4767551415624993	0.4330219948427805
-0.4766941064062493	0.42781454699674654
-0.4766330712499993	0.42213529063277266
-0.4765720360937493	0.4159900495772817
-0.4765110009374993	0.40938525586047797
-0.4764499657812493	0.40232834660751965
-0.4763889306249993	0.39482682187656115
-0.4763278954687493	0.3868885111042247
-0.4762668603124993	0.3785220124387691
-0.4762058251562493	0.3697364644171373
-0.4761447899999993	0.3605413374867277
-0.4760837548437493	0.3509462444805438
-0.4760227196874993	0.34096173500998184
-0.4759616845312493	0.33059874917301524
-0.4759006493749993	0.31986793153636944
-0.4758396142187493	0.3087811349087299
-0.4757785790624993	0.2973508402199355
-0.4757175439062493	0.2855887383391625
-0.4756565087499993	0.27350718479202407
-0.4755954735937493	0.26112005205823646
-0.4755344384374993	0.2484409177785055
-0.4754734032812493	0.2354826799030779
-0.4754123681249993	0.2222593147207725
-0.4753513329687493	0.20878580021740664
-0.4752902978124993	0.1950767482588635
-0.4752292626562493	0.1811464814938669
-0.4751682274999993	0.16701007058872788
-0.4751071923437493	0.15268335188349355
-0.4750461571874993	0.1381817815113742
-0.4749851220312493	0.12352062720368444
-0.4749240868749993	0.108716046207462
-0.4748630517187493	0.09378446486111003
-0.4748020165624993	0.07874188759201088
-0.4747409814062493	0.06360430999910734
-0.4746799462499993	0.04838832808202346
-0.4746189110937493	0.03311105642810539
-0.4745578759374993	0.017788767319044795
-0.4744968407812493	0.002437631639706972
-0.4744358056249993	-0.012924919980336827
-0.4743747704687493	-0.02828216294064489
-0.4743137353124993	-0.04361797063038429
-0.4742527001562493	-0.058915160568159756
-0.4741916649999993	-0.07415689193282117
-0.4741306298437493	-0.08932683577405638
-0.4740695946874993	-0.10440838517149235
-0.4740085595312493	-0.11938500299587912
-0.4739475243749993	-0.13424015823530144
-0.4738864892187493	-0.14895780255598287
-0.4738254540624993	-0.16352191701312369
-0.4737644189062493	-0.17791621329999266
-0.4737033837499993	-0.19212508918913404
-0.4736423485937493	-0.2061330224742419
-0.4735813134374993	-0.219924522898732
-0.4735202782812493	-0.23348460946977018
-0.4734592431249993	-0.24679828411379823
-0.4733982079687493	-0.25985075152482423
-0.4733371728124993	-0.27262780776234624
-0.4732761376562493	-0.2851154253298674
-0.4732151024999993	-0.29729973336425464
-0.4731540673437493	-0.3091674221540566
-0.4730930321874993	-0.3207052989789494
-0.4730319970312493	-0.33190034876787655
-0.4729709618749993	-0.34274042899363166
-0.4729099267187493	-0.3532138458227872
-0.4728488915624993	-0.36330868658988785
-0.4727878564062493	-0.3730133202876921
-0.4727268212499993	-0.3823172648553936
-0.4726657860937493	-0.3912106283516171
-0.4726047509374993	-0.3996831557371236
-0.4725437157812493	-0.4077249627202884
-0.4724826806249993	-0.4153272923111835
-0.4724216454687493	-0.4224817844252618
-0.4723606103124993	-0.4291803648056151
-0.4722995751562493	-0.4354155240631757
-0.4722385399999993	-0.4411798484155668
-0.4721775048437493	-0.44646666642918054
-0.4721164696874993	-0.45127047756363803
-0.4720554345312493	-0.45558579128116367
-0.4719943993749993	-0.4594071191202675
-0.4719333642187493	-0.4627299719613282
-0.4718723290624993	-0.46555076422841685
-0.4718112939062493	-0.46786616864477626
-0.4717502587499993	-0.4696731344825002
-0.4716892235937493	-0.470969321534066
-0.4716281884374993	-0.4717531014213744
-0.4715671532812493	-0.4720233323095632
-0.4715061181249993	-0.47177936368421575
-0.4714450829687493	-0.47102111388389895
-0.4713840478124993	-0.4697491094419061
-0.4713230126562493	-0.4679643764522667
-0.4712619774999993	-0.4656684632319965
-0.4712009423437493	-0.46286364050654616
-0.4711399071874993	-0.4595527024902022
-0.4710788720312493	-0.4557388120921725
-0.4710178368749993	-0.45142568143583367
-0.4709568017187493	-0.44661773796760346
-0.4708957665624993	-0.4413200465971404
-0.4708347314062493	-0.4355380381903379
-0.4707736962499993	-0.4292775793554902
-0.4707126610937493	-0.42254501641521247
-0.4706516259374993	-0.41534736572543857
-0.4705905907812493	-0.40769249751635284
-0.4705295556249993	-0.3995884166227493
-0.4704685204687493	-0.39104321844899076
-0.4704074853124993	-0.38206597919210655
-0.4703464501562493	-0.3726664075807945
-0.4702854149999993	-0.3628543047056022
-0.4702243798437493	-0.35264015418401806
-0.4701633446874993	-0.34203481511048306
-0.4701023095312493	-0.3310492491824009
-0.4700412743749993	-0.3196952013095853
-0.4699802392187493	-0.30798495766540396
-0.4699192040624993	-0.2959310899424235
-0.4698581689062493	-0.28354634772719667
-0.4697971337499993	-0.27084364574198644
-0.4697360985937493	-0.2578366543566889
-0.4696750634374993	-0.24453963959955335
