Time	Frequency
-0.5000419611562563	-6.810849009843306e-25
-0.4999809260000063	-5.204306111528641e-25
-0.4999198908437563	-3.5866668149778884e-25
-0.4998588556875063	-1.9607504791559258e-25
-0.4997978205312563	-3.2936461131815775e-26
-0.4997367853750063	1.304629909258161e-25
-0.4996757502187563	2.938318009317069e-25
-0.4996147150625063	4.568858833814556e-25
-0.4995536799062563	6.193456349636645e-25
-0.4994926447500063	7.809209822483994e-25
-0.4994316095937563	9.413226910512992e-25
-0.4993705744375063	1.1002743003130735e-24
-0.4993095392812563	1.2574999813467429e-24
-0.4992485041250063	1.4127203359021615e-24
-0.4991874689687563	1.5656590837255488e-24
-0.4991264338125063	1.716046635546457e-24
-0.4990653986562563	1.863620034480978e-24
-0.4990043635000063	2.008120774675833e-24
-0.4989433283437563	2.1492939092642236e-24
-0.4988822931875063	2.2868853020336256e-24
-0.4988212580312563	2.42064958308596e-24
-0.4987602228750063	2.5503568802422203e-24
-0.4986991877187563	2.6757785985950733e-24
-0.4986381525625063	2.796685720117088e-24
-0.4985771174062563	2.9128625845468828e-24
-0.4985160822500063	3.0241073847683535e-24
-0.4984550470937563	3.130223491634461e-24
-0.4983940119375063	3.231017868319414e-24
-0.4983329767812563	3.3263086992528504e-24
-0.4982719416250063	3.41592796916511e-24
-0.4982109064687563	3.499716795997454e-24
-0.4981498713125063	3.577523766602053e-24
-0.4980888361562563	3.649207164520871e-24
-0.4980278010000063	3.7146370888861776e-24
-0.4979667658437563	3.773695540922337e-24
-0.4979057306875063	3.826275769476959e-24
-0.4978446955312563	3.872281442223582e-24
-0.4977836603750063	3.911627009996496e-24
-0.4977226252187563	3.944239170335225e-24
-0.4976615900625063	3.970056426966747e-24
-0.4976005549062563	3.989029136889757e-24
-0.4975395197500063	4.0011199893552784e-24
-0.4974784845937563	4.006303117633049e-24
-0.4974174494375063	4.00456460794914e-24
-0.4973564142812563	3.99590316459976e-24
-0.4972953791250063	3.980329588755674e-24
-0.4972343439687563	3.95786635922268e-24
-0.4971733088125063	3.92854810363189e-24
-0.4971122736562563	3.8924221016944514e-24
-0.4970512385000063	3.849546708842163e-24
-0.4969902033437563	3.7999920996213476e-24
-0.4969291681875063	3.743841768330789e-24
-0.4968681330312563	3.68118934574789e-24
-0.4968070978750063	3.612138785844785e-24
-0.4967460627187563	3.536807219542943e-24
-0.4966850275625063	3.455323418017623e-24
-0.4966239924062563	3.367825627183236e-24
-0.4965629572500063	3.2744617002414056e-24
-0.4965019220937563	3.1753908691083993e-24
-0.4964408869375063	3.0707839654986957e-24
-0.4963798517812563	2.960820537869594e-24
-0.4963188166250063	2.845687536987172e-24
-0.4962577814687563	2.7255827592906412e-24
-0.4961967463125063	2.60071439873625e-24
-0.4961357111562563	2.471297088695531e-24
-0.4960746760000063	2.3375538761467953e-24
-0.4960136408437563	2.1997150395273272e-24
-0.4959526056875063	2.0580173141244743e-24
-0.4958915705312563	1.9127075798547045e-24
-0.4958305353750063	1.7640387391758235e-24
-0.4957695002187563	1.6122664404564291e-24
-0.4957084650625063	1.457651370611112e-24
-0.4956474299062563	1.300462178916841e-24
-0.4955863947500063	1.1409747828984148e-24
-0.4955253595937563	9.794651671709475e-25
-0.4954643244375063	8.162106551669923e-25
-0.4954032892812563	6.514960058217889e-25
-0.4953422541250063	4.856085334407837e-25
-0.4952812189687563	3.1883632065488994e-25
-0.4952201838125063	1.51470429932696e-25
-0.4951591486562563	-1.6199943788595637e-26
-0.4950981135000063	-1.8388488042156523e-25
-0.4950370783437563	-3.5128849856282642e-25
-0.4949760431875063	-5.18116701795751e-25
-0.4949150080312563	-6.840829629734497e-25
-0.4948539728750063	-8.48901663922582e-25
-0.4947929377187563	-1.0122822771598988e-24
-0.4947319025625063	-1.1739348595546257e-24
-0.4946708674062563	-1.3335791577464011e-24
-0.4946098322500063	-1.4909416734131579e-24
-0.4945487970937563	-1.6457469039252836e-24
-0.4944877619375063	-1.7977214057379922e-24
-0.4944267267812563	-1.9465993150271048e-24
-0.4943656916250063	-2.0921211366082115e-24
-0.4943046564687563	-2.2340346338001808e-24
-0.4942436213125063	-2.3720920668601798e-24
-0.4941825861562563	-2.506049715128242e-24
-0.4941215510000063	-2.6356736407381804e-24
-0.4940605158437563	-2.7607377608543335e-24
-0.4939994806875063	-2.881023001603932e-24
-0.4939384455312563	-2.9963206384491735e-24
-0.4938774103750063	-3.1064284135120224e-24
-0.4938163752187563	-3.211151270760637e-24
-0.4937553400625063	-3.3103066037033464e-24
-0.4936943049062563	-3.403722650449994e-24
-0.4936332697500063	-3.491236070039806e-24
-0.4935722345937563	-3.572692606283979e-24
-0.4935111994375063	-3.647949073636333e-24
-0.4934501642812563	-3.7168741338339206e-24
-0.4933891291250063	-3.779347565017994e-24
-0.4933280939687563	-3.835260260331047e-24
-0.4932670588125063	-3.884514150066372e-24
-0.4932060236562563	-3.9270225841097386e-24
-0.4931449885000063	-3.962711635130962e-24
-0.4930839533437563	-3.991519457678551e-24
-0.4930229181875063	-4.013395288936721e-24
-0.4929618830312563	-4.028300778237056e-24
-0.4929008478750063	-4.036210505569552e-24
-0.4928398127187563	-4.03711101889773e-24
-0.4927787775625063	-4.0310011415248094e-24
-0.4927177424062563	-4.0178921702974804e-24
-0.4926567072500063	-3.997807145865328e-24
-0.4925956720937563	-3.970781706098522e-24
-0.4925346369375063	-3.936864455244455e-24
-0.4924736017812563	-3.89611530741177e-24
-0.4924125666250063	-3.8486063178077046e-24
-0.4923515314687563	-3.794422162159154e-24
-0.4922904963125063	-3.7336578233491194e-24
-0.4922294611562563	-3.666420111839455e-24
-0.4921684260000063	-3.592829672723447e-24
-0.4921073908437563	-3.513017533215674e-24
-0.4920463556875063	-3.427122250585048e-24
-0.4919853205312563	-3.335294720804145e-24
-0.4919242853750063	-3.2377006036571176e-24
-0.4918632502187563	-3.134512529786656e-24
-0.4918022150625063	-3.0259101179301677e-24
-0.4917411799062563	-2.9120856357470305e-24
-0.4916801447500063	-2.7932422541864207e-24
-0.4916191095937563	-2.669591057558183e-24
-0.4915580744375063	-2.5413478666308968e-24
-0.4914970392812563	-2.4087383057352992e-24
-0.4914360041250063	-2.2720005559565473e-24
-0.4913749689687563	-2.1313763659021054e-24
-0.4913139338125063	-1.987112980790134e-24
-0.4912528986562563	-1.8394655325325532e-24
-0.4911918635000063	-1.688694168929911e-24
-0.4911308283437563	-1.535067439968524e-24
-0.4910697931875063	-1.3788582823487397e-24
-0.4910087580312563	-1.2203410033516067e-24
-0.4909477228750063	-1.0597962401786677e-24
-0.4908866877187563	-8.975096716460105e-25
-0.4908256525625063	-7.337686029397353e-25
-0.4907646174062563	-5.688610972493688e-25
-0.4907035822500063	-4.030781964479017e-25
-0.4906425470937563	-2.3671661445395933e-25
-0.4905815119375063	-7.007274090586665e-26
-0.4905204767812563	9.656186108971772e-26
-0.4904594416250063	2.6289375240928776e-25
-0.4903984064687563	4.286260216574362e-25
-0.4903373713125063	5.934634673969938e-25
-0.4902763361562563	7.571139475881588e-25
-0.4902153010000063	9.192887617760192e-25
-0.4901542658437563	1.079702027738059e-24
-0.4900932306875063	1.238069234728575e-24
-0.4900321955312563	1.3941067985367746e-24
-0.4899711603750063	1.5475371829169152e-24
-0.4899101252187563	1.6980921093061958e-24
-0.4898490900625063	1.845505777596166e-24
-0.4897880549062563	1.9895135931890966e-24
-0.4897270197500063	2.1298583903092417e-24
-0.4896659845937563	2.2662935541989056e-24
-0.4896049494375063	2.3985796164731473e-24
-0.4895439142812563	2.5264801187680576e-24
-0.4894828791250063	2.649766180565665e-24
-0.4894218439687563	2.7682206555939256e-24
-0.4893608088125063	2.88163403489887e-24
-0.4892997736562563	2.9898037985432488e-24
-0.4892387385000063	3.092539018718677e-24
-0.4891777033437563	3.18965902414749e-24
-0.4891166681875063	3.280989712756593e-24
-0.4890556330312563	3.366367798817317e-24
-0.4889945978750063	3.4456436364709345e-24
-0.4889335627187563	3.518677299824766e-24
-0.4888725275625063	3.585339316943274e-24
-0.4888114924062563	3.64551149782775e-24
-0.4887504572500063	3.699085757609873e-24
-0.4886894220937563	3.745967770971937e-24
-0.4886283869375063	3.786076446737888e-24
-0.4885673517812563	3.819340446338082e-24
-0.4885063166250063	3.845700392439369e-24
-0.4884452814687563	3.865110242817467e-24
-0.4883842463125063	3.877536217579597e-24
-0.4883232111562563	3.882957069404462e-24
-0.4882621760000063	3.88136400561626e-24
-0.4882011408437563	3.8727603901964795e-24
-0.4881401056875063	3.8571622425323986e-24
-0.4880790705312563	3.834598543410288e-24
-0.4880180353750063	3.805110594495665e-24
-0.4879570002187563	3.768751442970932e-24
-0.4878959650625063	3.725586526238078e-24
-0.4878349299062563	3.675694289178995e-24
-0.4877738947500063	3.619164952981422e-24
-0.4877128595937563	3.5560999840297205e-24
-0.4876518244375063	3.486613049059365e-24
-0.4875907892812563	3.41082906172698e-24
-0.4875297541250063	3.328884481274427e-24
-0.4874687189687563	3.240927459446878e-24
-0.4874076838125063	3.1471151382734185e-24
-0.4873466486562563	3.0476158901027075e-24
-0.4872856135000063	2.9426105585087177e-24
-0.4872245783437563	2.8322873845944536e-24
-0.4871635431875063	2.7168431326117547e-24
-0.4871025080312563	2.5964866811957563e-24
-0.4870414728750063	2.4714354918850478e-24
-0.4869804377187563	2.341913059124894e-24
-0.4869194025625063	2.208151660028329e-24
-0.4868583674062563	2.070393892786041e-24
-0.4867973322500063	1.928888752162716e-24
-0.4867362970937563	1.7838880312746217e-24
-0.4866752619375063	1.635652069499933e-24
-0.4866142267812563	1.4844510764161356e-24
-0.4865531916250063	1.3305557302644866e-24
-0.4864921564687563	1.174242009722212e-24
-0.4864311213125063	1.0157949085101286e-24
-0.4863700861562563	8.554987574688797e-25
-0.4863090510000063	6.936401895870546e-25
-0.4862480158437563	5.3051059424899335e-25
-0.4861869806875063	3.6640524171123177e-25
-0.4861259455312563	2.016241329455887e-25
-0.4860649103750063	3.6464180110371023e-26
-0.4860038752187563	-1.2878082696954831e-25
-0.4859428400625063	-2.9381504418529563e-25
-0.4858818049062563	-4.583371973165961e-25
-0.4858207697500063	-6.220432470079926e-25
-0.4857597345937563	-7.846411451114022e-25
-0.4856986994375063	-9.458439585319633e-25
-0.4856376642812563	-1.1053549812309418e-24
-0.4855766291250063	-1.2628816578738537e-24
-0.4855155939687563	-1.4181424053949692e-24
-0.4854545588125063	-1.5708579042227842e-24
-0.4853935236562563	-1.7207497980434173e-24
-0.4853324885000063	-1.8675432781697034e-24
-0.4852714533437563	-2.0109727373902865e-24
-0.4852104181875063	-2.150781038326843e-24
-0.4851493830312563	-2.286713519254189e-24
-0.4850883478750063	-2.4185205887566045e-24
-0.4850273127187563	-2.5459621051218286e-24
-0.4849662775625063	-2.6688074582871624e-24
-0.4849052424062563	-2.786833006074187e-24
-0.4848442072500063	-2.899822470478683e-24
-0.4847831720937563	-3.0075698757268562e-24
-0.4847221369375063	-3.109877041299024e-24
-0.4846611017812563	-3.2065560479818342e-24
-0.4846000666250063	-3.297432136385324e-24
-0.4845390314687563	-3.382337597804916e-24
-0.4844779963125063	-3.461113514154903e-24
-0.4844169611562563	-3.533615366207762e-24
-0.4843559260000063	-3.599710736522986e-24
-0.4842948908437563	-3.659276180576473e-24
-0.4842338556875063	-3.712199364566749e-24
-0.4841728205312563	-3.758381466069991e-24
-0.4841117853750063	-3.797735774343094e-24
-0.4840507502187563	-3.830187588015585e-24
-0.4839897150625063	-3.855674324893936e-24
-0.4839286799062563	-3.874145411900563e-24
-0.4838676447500063	-3.885563519422922e-24
-0.4838066095937563	-3.889904225918061e-24
-0.4837455744375063	-3.8871555283843726e-24
-0.4836845392812563	-3.87731794399741e-24
-0.4836235041250063	-3.860404640697162e-24
-0.4835624689687563	-3.836442286149249e-24
-0.4835014338125063	-3.805470050182592e-24
-0.4834403986562563	-3.76753843182712e-24
-0.4833793635000063	-3.7227115782300594e-24
-0.4833183283437563	-3.671067472367947e-24
-0.4832572931875063	-3.612694430625611e-24
-0.4831962580312563	-3.5476915557886936e-24
-0.4831352228750063	-3.476172460734101e-24
-0.4830741877187563	-3.398264528946947e-24
-0.4830131525625063	-3.314103153146701e-24
-0.4829521174062563	-3.2238324169132867e-24
-0.4828910822500063	-3.1276124594637656e-24
-0.4828300470937563	-3.0256162036031744e-24
-0.4827690119375063	-2.9180225545736994e-24
-0.4827079767812563	-2.805019271862165e-24
-0.4826469416250063	-2.6868060250231737e-24
-0.4825859064687563	-2.563593754506655e-24
-0.4825248713125063	-2.4356024208513954e-24
-0.4824638361562563	-2.303058809963061e-24
-0.4824028010000063	-2.166196964015789e-24
-0.4823417658437563	-2.0252610118304573e-24
-0.4822807306875063	-1.8805034826718155e-24
-0.4822196955312563	-1.7321803739446624e-24
-0.4821586603750063	-1.5805555951832433e-24
-0.4820976252187563	-1.425903513787141e-24
-0.4820365900625063	-1.2685005210926562e-24
-0.4819755549062563	-1.1086244295368422e-24
-0.4819145197500063	-9.465614107770104e-25
-0.4818534845937563	-7.8260376893110825e-25
-0.4817924494375063	-6.170459208739889e-25
-0.4817314142812563	-4.501842813796102e-25
-0.4816703791250063	-2.823167967826075e-25
-0.4816093439687563	-1.137446975893622e-25
-0.4815483088125063	5.522813337033905e-26
-0.4814872736562563	2.242968253642546e-25
-0.4814262385000063	3.9315775377740408e-25
-0.4813652033437563	5.615096173065439e-25
-0.4813041681875063	7.290486984855645e-25
-0.4812431330312563	8.95470098331297e-25
-0.4811820978750063	1.0604734331087957e-24
-0.4811210627187563	1.2237635465356224e-24
-0.4810600275625063	1.3850467955565662e-24
-0.4809989924062563	1.5440298458293657e-24
-0.4809379572500063	1.700424330483234e-24
-0.4808769220937563	1.853947366810454e-24
-0.4808158869375063	2.004321563454762e-24
-0.4807548517812563	2.1512755033267993e-24
-0.4806938166250063	2.2945414623684445e-24
-0.4806327814687563	2.4338590623954124e-24
-0.4805717463125063	2.5689753553104693e-24
-0.4805107111562563	2.6996442314045857e-24
-0.4804496760000063	2.8256294225374808e-24
-0.4803886408437563	2.9466998234228505e-24
-0.4803276056875063	3.062632707911769e-24
-0.4802665705312563	3.1732190010584465e-24
-0.4802055353750063	3.2782566782087437e-24
-0.4801445002187563	3.377550807751739e-24
-0.4800834650625063	3.4709189166478605e-24
-0.4800224299062563	3.558190881029507e-24
-0.4799613947500063	3.639205984923257e-24
-0.4799003595937563	3.7138125274424754e-24
-0.4798393244375063	3.78187204660988e-24
-0.4797782892812563	3.843259364035928e-24
-0.4797172541250063	3.897859269209866e-24
-0.4796562189687563	3.945568189699737e-24
-0.4795951838125063	3.9862957839643456e-24
-0.4795341486562563	4.019964333299771e-24
-0.4794731135000063	4.046508935226147e-24
-0.4794120783437563	4.0658768375777174e-24
-0.4793510431875063	4.078027858638415e-24
-0.4792900080312563	4.082935474904763e-24
-0.4792289728750063	4.080586144348459e-24
-0.4791679377187563	4.07097897493341e-24
-0.4791069025625063	4.054126201480231e-24
-0.4790458674062563	4.030053397884381e-24
-0.4789848322500063	3.9987984616166e-24
-0.4789237970937563	3.960412518172051e-24
-0.4788627619375063	3.914960705324331e-24
-0.4788017267812563	3.862519013747206e-24
-0.4787406916250063	3.803175589796508e-24
-0.4786796564687563	3.737033637297241e-24
-0.4786186213125063	3.6642084618506076e-24
-0.4785575861562563	3.584825054844735e-24
-0.4784965510000063	3.499019715125338e-24
-0.4784355158437563	3.406943132092578e-24
-0.4783744806875063	3.30875805286679e-24
-0.4783134455312563	3.2046350993492395e-24
-0.4782524103750063	3.0947564615582688e-24
-0.4781913752187563	2.979316618770194e-24
-0.4781303400625063	2.8585181989263044e-24
-0.4780693049062563	2.732573774853634e-24
-0.4780082697500063	2.601705872274491e-24
-0.4779472345937563	2.466145761051791e-24
-0.4778861994375063	2.3261355970836126e-24
-0.4778251642812563	2.181922777572395e-24
-0.4777641291250063	2.03375845794309e-24
-0.4777030939687563	1.8819078647509938e-24
-0.4776420588125063	1.726645333519786e-24
-0.4775810236562563	1.5682433315856386e-24
-0.4775199885000063	1.406980787373391e-24
-0.4774589533437563	1.2431477925568139e-24
-0.4773979181875063	1.0770363537349737e-24
-0.4773368830312563	9.089407083717142e-25
-0.4772758478750063	7.39162056929051e-25
-0.4772148127187563	5.680036581232683e-25
-0.4771537775625063	3.9576951402538106e-25
-0.4770927424062563	2.2276649395115815e-25
-0.4770317072500063	4.93038754258328e-26
-0.4769706720937563	-1.2430619087890805e-25
-0.4769096369375063	-2.977529568205674e-25
-0.4768486017812563	-4.707287597090885e-25
-0.4767875666250063	-6.42924032717114e-25
-0.4767265314687563	-8.140291707990903e-25
-0.4766654963125063	-9.837385415884498e-25
-0.4766044611562563	-1.151747277870535e-24
-0.4765434260000063	-1.3177534595231362e-24
-0.4764823908437563	-1.4814613698020754e-24
-0.4764213556875063	-1.6425764673626348e-24
-0.4763603205312563	-1.8008097047042954e-24
-0.4762992853750063	-1.9558792641485364e-24
-0.4762382502187563	-2.107503461032322e-24
-0.4761772150625063	-2.2554082746127018e-24
-0.4761161799062563	-2.3993318816273993e-24
-0.4760551447500063	-2.5390168702878706e-24
-0.4759941095937563	-2.674209727313065e-24
-0.4759330744375063	-2.804665381441805e-24
-0.4758720392812563	-2.9301499011300398e-24
-0.4758110041250063	-3.0504397877946933e-24
-0.4757499689687563	-3.165318817516656e-24
-0.4756889338125063	-3.2745778093751693e-24
-0.4756278986562563	-3.3780191625907136e-24
-0.4755668635000063	-3.47545782928835e-24
-0.4755058283437563	-3.566718406217732e-24
-0.4754447931875063	-3.65163667187669e-24
-0.4753837580312563	-3.730059257195002e-24
-0.4753227228750063	-3.8018430104078e-24
-0.4752616877187563	-3.866858228170981e-24
-0.4752006525625063	-3.924988909788987e-24
-0.4751396174062563	-3.976130611381788e-24
-0.4750785822500063	-4.020189400158366e-24
-0.4750175470937563	-4.057084624094755e-24
-0.4749565119375063	-4.086750363443546e-24
-0.4748954767812563	-4.1091329471883974e-24
-0.4748344416250063	-4.124191435390204e-24
-0.4747734064687563	-4.131898302046306e-24
-0.4747123713125063	-4.132238800148677e-24
-0.4746513361562563	-4.125211997969799e-24
-0.4745903010000063	-4.110830497872019e-24
-0.4745292658437563	-4.089119682031881e-24
-0.4744682306875063	-4.060118242280699e-24
-0.4744071955312563	-4.023877982857037e-24
-0.4743461603750063	-3.9804642219371085e-24
-0.4742851252187563	-3.929955402562702e-24
-0.4742240900625063	-3.872441573918152e-24
-0.4741630549062563	-3.808025774779927e-24
-0.4741020197500063	-3.736825430827078e-24
-0.4740409845937563	-3.658969518682478e-24
-0.4739799494375063	-3.574596277886671e-24
-0.4739189142812563	-3.483857296207749e-24
-0.4738578791250063	-3.3869186607961786e-24
-0.4737968439687563	-3.2839560969931212e-24
-0.4737358088125063	-3.17515401851108e-24
-0.4736747736562563	-3.060707073316583e-24
-0.4736137385000063	-2.940823124434692e-24
-0.4735527033437563	-2.815721811195508e-24
-0.4734916681875063	-2.6856276198844443e-24
-0.4734306330312563	-2.550773585175951e-24
-0.4733695978750063	-2.4114056992213075e-24
-0.4733085627187563	-2.2677764863889403e-24
-0.4732475275625063	-2.120144344668212e-24
-0.4731864924062563	-1.9687774920331166e-24
-0.4731254572500063	-1.8139506898749112e-24
-0.4730644220937563	-1.6559426140098617e-24
-0.4730033869375063	-1.4950393765488016e-24
-0.4729423517812563	-1.3315343931020683e-24
-0.4728813166250063	-1.1657236046546526e-24
-0.4728202814687563	-9.979054557355212e-25
-0.4727592463125063	-8.2838477799423e-25
-0.4726982111562563	-6.574716178899023e-25
-0.4726371760000063	-4.854747239229933e-25
-0.4725761408437563	-3.127018714145126e-25
-0.4725151056875063	-1.3946823665287227e-25
-0.4724540705312563	3.390607829040787e-26
-0.4723930353750063	2.0710852482611216e-25
-0.4723320002187563	3.798302094840941e-25
-0.4722709650625063	5.517571525001066e-25
-0.4722099299062563	7.225739281896315e-25
-0.4721488947500063	8.919672071617819e-25
-0.4720878595937563	1.0596312353740135e-24
-0.4720268244375063	1.2252663266609966e-24
-0.4719657892812563	1.388571131513778e-24
-0.4719047541250063	1.5492451610884313e-24
-0.4718437189687563	1.7069940894190697e-24
-0.4717826838125063	1.8615339769790198e-24
-0.4717216486562563	2.0125877564016817e-24
-0.4716606135000063	2.1598786212855666e-24
