Time	Frequency
-0.5000347643750018	-0.14030861986296664
-0.49997372921875183	-0.15211054026826548
-0.49991269406250183	-0.16378907814086707
-0.49985165890625183	-0.17533344371484266
-0.49979062375000183	-0.1867330446537682
-0.49972958859375183	-0.19797848648818875
-0.49966855343750183	-0.20906007179789085
-0.49960751828125183	-0.2199673800618785
-0.49954648312500183	-0.23069080151927882
-0.49948544796875183	-0.241221169778815
-0.49942441281250183	-0.2515490060134155
-0.49936337765625183	-0.26166519908821395
-0.49930234250000183	-0.2715608556200887
-0.49924130734375183	-0.2812269879516735
-0.49918027218750183	-0.2906550247301022
-0.49911923703125183	-0.2998367106471738
-0.49905820187500183	-0.30876396202151885
-0.49899716671875183	-0.3174287668860887
-0.49893613156250183	-0.3258231483520846
-0.49887509640625183	-0.33393976973050415
-0.49881406125000183	-0.34177155432960965
-0.49875302609375183	-0.3493113100444471
-0.49869199093750183	-0.35655238735543376
-0.49863095578125183	-0.36348825345431185
-0.49856992062500183	-0.37011245891580674
-0.49850888546875183	-0.37641929877540736
-0.49844785031250183	-0.3824031375035499
-0.49838681515625183	-0.38805840572310213
-0.49832578000000183	-0.39338008556113535
-0.49826474484375183	-0.39836323221997344
-0.49820370968750183	-0.40300322900139707
-0.49814267453125183	-0.4072960903368959
-0.49808163937500183	-0.4112378660424913
-0.49802060421875183	-0.4148247727054642
-0.49795956906250183	-0.41805349110504864
-0.49789853390625183	-0.420920978758574
-0.49783749875000183	-0.42342466158023073
-0.49777646359375183	-0.4255622305263309
-0.49771542843750183	-0.4273314870695652
-0.49765439328125183	-0.428730680130603
-0.49759335812500183	-0.4297583915200576
-0.49753232296875183	-0.4304135872706623
-0.49747128781250183	-0.43069562249261195
-0.49741025265625183	-0.4306039397298476
-0.49734921750000183	-0.4301383093819736
-0.49728818234375183	-0.4292990712864085
-0.49722714718750183	-0.4280868842400997
-0.49716611203125183	-0.42650254651565633
-0.49710507687500183	-0.4245471466812998
-0.49704404171875183	-0.4222222405735123
-0.49698300656250183	-0.4195297942138108
-0.49692197140625183	-0.4164720175209219
-0.49686093625000183	-0.41305128478431535
-0.49679990109375183	-0.40927032110135325
-0.49673886593750183	-0.4051323738034631
-0.49667783078125183	-0.40064103351814717
-0.49661679562500183	-0.39579997934836736
-0.49655576046875183	-0.39061306755519454
-0.49649472531250183	-0.38508476927637697
-0.49643369015625183	-0.37921994813633253
-0.49637265500000183	-0.37302344261031223
-0.49631161984375183	-0.3665005056884791
-0.49625058468750183	-0.3596567241144778
-0.49618954953125183	-0.3524978107388538
-0.49612851437500183	-0.3450299998317889
-0.49606747921875183	-0.33725975508106715
-0.49600644406250183	-0.32919364956547964
-0.49594540890625183	-0.32083862398310553
-0.49588437375000183	-0.3122017373832245
-0.49582333859375183	-0.30329036910045465
-0.49576230343750183	-0.29411256607370445
-0.49570126828125183	-0.2846762504750953
-0.49564023312500183	-0.2749889356017147
-0.49557919796875183	-0.2650591150850616
-0.49551816281250183	-0.25489608240323686
-0.49545712765625183	-0.2445083734021696
-0.49539609250000183	-0.23390438541309339
-0.49533505734375183	-0.22309346334048796
-0.49527402218750183	-0.21208547340463604
-0.49521298703125183	-0.20088993372042493
-0.49515195187500183	-0.18951606781372562
-0.49509091671875183	-0.17797389086713966
-0.49502988156250183	-0.16627369900974776
-0.49496884640625183	-0.15442536580186605
-0.49490781125000183	-0.1424393422249856
-0.49484677609375183	-0.1303262449563409
-0.49478574093750183	-0.11809634682384215
-0.49472470578125183	-0.10576017839923971
-0.49466367062500183	-0.09332860766903449
-0.49460263546875183	-0.08081279818221859
-0.49454160031250183	-0.06822360866959612
-0.49448056515625183	-0.0555715664354439
-0.49441953000000183	-0.042867667839125385
-0.49435849484375183	-0.030123530833602346
-0.49429745968750183	-0.01735053903812052
-0.49423642453125183	-0.004559105457562343
-0.49417538937500183	0.008239696309129322
-0.49411435421875183	0.021033922836247238
-0.49405331906250183	0.03381267020555808
-0.49399228390625183	0.046564857786378616
-0.49393124875000183	0.05927907586123649
-0.49387021359375183	0.07194485864641446
-0.49380917843750183	0.0845506479060232
-0.49374814328125183	0.09708464232145543
-0.49368710812500183	0.10953684715766271
-0.49362607296875183	0.1218966039729985
-0.49356503781250183	0.13415227836191915
-0.49350400265625183	0.14629300662198394
-0.49344296750000183	0.15830850176049205
-0.49338193234375183	0.170188624035925
-0.49332089718750183	0.18192259756118762
-0.49325986203125183	0.19349943801376143
-0.49319882687500183	0.20490937344397078
-0.49313779171875183	0.21614315123424316
-0.49307675656250183	0.22719052999806993
-0.49301572140625183	0.2380408231654669
-0.49295468625000183	0.24868487485840796
-0.49289365109375183	0.25911427415104193
-0.49283261593750183	0.2693192989685928
-0.49277158078125183	0.27929040245881254
-0.49271054562500183	0.2890191854725693
-0.49264951046875183	0.29849708303592964
-0.49258847531250183	0.3077158178578202
-0.49252744015625183	0.31666735975109406
-0.49246640500000183	0.3253433690613336
-0.49240536984375183	0.333736386214405
-0.49234433468750183	0.3418391674346697
-0.49228329953125183	0.349644177578283
-0.49222226437500183	0.3571449067542285
-0.49216122921875183	0.36433480595995216
-0.49210019406250183	0.37120690354837477
-0.49203915890625183	0.37775530042167477
-0.49197812375000183	0.3839746182825512
-0.49191708859375183	0.38985925165985114
-0.49185605343750183	0.3954036810364563
-0.49179501828125183	0.4006028185152467
-0.49173398312500183	0.40545243501112715
-0.49167294796875183	0.4099484487185988
-0.49161191281250183	0.4140863846020148
-0.49155087765625183	0.41786243993568734
-0.49148984250000183	0.42127363853081684
-0.49142880734375183	0.42431697689454684
-0.49136777218750183	0.4269894834557499
-0.49130673703125183	0.42928871819320213
-0.49124570187500183	0.43121275622898225
-0.49118466671875183	0.4327599303601133
-0.49112363156250183	0.43392878084149933
-0.49106259640625183	0.434718148009276
-0.49100156125000183	0.43512731959174916
-0.49094052609375183	0.4351559915881164
-0.49087949093750183	0.43480408930229486
-0.49081845578125183	0.4340718326578099
-0.49075742062500183	0.4329598608318458
-0.49069638546875183	0.4314691360656128
-0.49063535031250183	0.4296009042350118
-0.49057431515625183	0.4273568191428204
-0.49051328000000183	0.4247388767359869
-0.49045224484375183	0.42174932899079165
-0.49039120968750183	0.4183907342939617
-0.49033017453125183	0.41466602056566393
-0.49026913937500183	0.41057862157518243
-0.49020810421875183	0.4061321153092914
-0.49014706906250183	0.40133011659075984
-0.49008603390625183	0.39617706933597385
-0.49002499875000183	0.3906777340423006
-0.48996396359375183	0.3848365847997295
-0.48990292843750183	0.3786587883623884
-0.48984189328125183	0.37215006308812665
-0.48978085812500183	0.36531611045347695
-0.48971982296875183	0.3581628078468368
-0.48965878781250183	0.350696361010964
-0.48959775265625183	0.34292367341334323
-0.48953671750000183	0.3348517335870484
-0.48947568234375183	0.32648727134989375
-0.48941464718750183	0.3178377121612961
-0.48935361203125183	0.30891107630902304
-0.48929257687500183	0.29971519660916734
-0.48923154171875183	0.2902578883396839
-0.48917050656250183	0.2805477578889423
-0.48910947140625183	0.2705936574625895
-0.48904843625000183	0.2604040239236832
-0.48898740109375183	0.24998787355873342
-0.48892636593750183	0.23935482738769975
-0.48886533078125183	0.2285143213439592
-0.48880429562500183	0.21747561070471289
-0.48874326046875183	0.2062484922386747
-0.48868222531250183	0.19484336934825053
-0.48862119015625183	0.18327026445154804
-0.48856015500000183	0.17153916413486409
-0.48849911984375183	0.1596607694462473
-0.48843808468750183	0.14764578291022012
-0.48837704953125183	0.13550437500975263
-0.48831601437500183	0.12324756392405149
-0.48825497921875183	0.11088707185053331
-0.48819394406250183	0.09843304146912549
-0.48813290890625183	0.08589595636662314
-0.48807187375000183	0.07328834192425489
-0.48801083859375183	0.06062148475358012
-0.48794980343750183	0.04790545207266328
-0.48788876828125183	0.035151884520869967
-0.48782773312500183	0.02237294664156432
-0.48776669796875183	0.009579886666235014
-0.48770566281250183	-0.0032163666983073586
-0.48764462765625183	-0.016004581651645255
-0.48758359250000183	-0.028772788334364086
-0.48752255734375183	-0.04150923015129781
-0.48746152218750183	-0.05420316642284905
-0.48740048703125183	-0.06684357398693053
-0.48733945187500183	-0.07941852318225773
-0.48727841671875183	-0.09191633624010483
-0.48721738156250183	-0.10432657153119296
-0.48715634640625183	-0.11663856411344485
-0.48709531125000183	-0.12884038026431371
-0.48703427609375183	-0.14092087093869415
-0.48697324093750183	-0.1528699928169904
-0.48691220578125183	-0.16467700223703693
-0.48685117062500183	-0.1763309950898235
-0.48679013546875183	-0.18782155522420907
-0.48672910031250183	-0.19913807753308413
-0.48666806515625183	-0.21027085682888128
-0.48660703000000183	-0.22121038058444276
-0.48654599484375183	-0.23194575055608097
-0.48648495968750183	-0.24246726256204218
-0.48642392453125183	-0.2527666137369455
-0.48636288937500183	-0.26283419471361896
-0.48630185421875183	-0.27266011221377096
-0.48624081906250183	-0.28223593057410007
-0.48617978390625183	-0.2915535338847651
-0.48611874875000183	-0.30060412628593103
-0.48605771359375183	-0.3093794692929056
-0.48599667843750183	-0.31787195820071606
-0.48593564328125183	-0.3260734961582923
-0.48587460812500183	-0.3339767365237882
-0.48581357296875183	-0.341575130140741
-0.48575253781250183	-0.3488614399183723
-0.48569150265625183	-0.3558286986570304
-0.48563046750000183	-0.3624709020726184
-0.48556943234375183	-0.36878224578660435
-0.48550839718750183	-0.3747568564369071
-0.48544736203125183	-0.38038919517135283
-0.48538632687500183	-0.3856742085457407
-0.48532529171875183	-0.390607038272482
-0.48526425656250183	-0.39518326550509275
-0.48520322140625183	-0.39939883630255957
-0.48514218625000183	-0.4032496913391925
-0.48508115109375183	-0.4067322518944746
-0.48502011593750183	-0.40984352725502116
-0.48495908078125183	-0.4125806423736967
-0.48489804562500183	-0.4149409090449356
-0.48483701046875183	-0.4169221281973405
-0.48477597531250183	-0.41852259979593104
-0.48471494015625183	-0.41974082534206314
-0.48465390500000183	-0.4205754795396053
-0.48459286984375183	-0.4210257328943378
-0.48453183468750183	-0.4210912170975004
-0.48447079953125183	-0.42077182166821336
-0.48440976437500183	-0.4200676828169585
-0.48434872921875183	-0.41897929541232853
-0.48428769406250183	-0.4175076193634778
-0.48422665890625183	-0.4156539873278733
-0.48416562375000183	-0.41341995158685607
-0.48410458859375183	-0.4108073361236388
-0.48404355343750183	-0.4078184154853543
-0.48398251828125183	-0.4044559475899845
-0.48392148312500183	-0.40072296406992325
-0.48386044796875183	-0.3966225087702196
-0.48379941281250183	-0.3921580297834563
-0.48373837765625183	-0.3873338658126471
-0.48367734250000183	-0.38215450342234475
-0.48361630734375183	-0.3766240237380169
-0.48355527218750183	-0.37074705203338737
-0.48349423703125183	-0.3645294261513743
-0.48343320187500183	-0.35797699968108815
-0.48337216671875183	-0.35109495667959656
-0.48331113156250183	-0.3438891411858206
-0.48325009640625183	-0.33636646244925406
-0.48318906125000183	-0.32853410614698575
-0.48312802609375183	-0.32039863344928354
-0.48306699093750183	-0.31196655145444846
-0.48300595578125183	-0.3032462627882692
-0.48294492062500183	-0.29424614119333065
-0.48288388546875183	-0.28497302293070065
-0.48282285031250183	-0.2754353332653033
-0.48276181515625183	-0.2656425940962956
-0.48270078000000183	-0.25560301413048186
-0.48263974484375183	-0.24532526257536888
-0.48257870968750183	-0.23481903625638714
-0.48251767453125183	-0.2240937101085561
-0.48245663937500183	-0.21315890004677762
-0.48239560421875183	-0.20202439251271212
-0.48233456906250183	-0.19070001220835428
-0.48227353390625183	-0.1791963286620946
-0.48221249875000183	-0.16752368971201717
-0.48215146359375183	-0.15569228538795304
-0.48209042843750183	-0.14371291051117852
-0.48202939328125183	-0.13159640038363843
-0.48196835812500183	-0.11935380450810483
-0.48190732296875183	-0.10699620323535179
-0.48184628781250183	-0.09453441101734153
-0.48178525265625183	-0.08197974508226417
-0.48172421750000183	-0.06934395622352292
-0.48166318234375183	-0.05663831320626553
-0.48160214718750183	-0.043873954872581715
-0.48154111203125183	-0.031062703889786252
-0.48148007687500183	-0.018216308962146
-0.48141904171875183	-0.005346104208389273
-0.48135800656250183	0.007536139294460903
-0.48129697140625183	0.020418477050114694
-0.48123593625000183	0.03328967355584604
-0.48117490109375183	0.04613811150498059
-0.48111386593750183	0.05895129735290175
-0.48105283078125183	0.07171810809794958
-0.48099179562500183	0.08442777085807464
-0.48093076046875183	0.09706763867230676
-0.48086972531250183	0.10962577890048784
-0.48080869015625183	0.1220920445872044
-0.48074765500000183	0.13445511571155122
-0.48068661984375183	0.1467025580144701
-0.48062558468750183	0.15882349862187078
-0.48056454953125183	0.17080763454937428
-0.48050351437500183	0.1826436750096318
-0.48044247921875183	0.1943205623867122
-0.48038144406250183	0.20582772333391133
-0.48032040890625183	0.21715475700448814
-0.48025937375000183	0.22829128900416648
-0.48019833859375183	0.2392268829628273
-0.48013730343750183	0.24995178682722383
-0.48007626828125183	0.260456394648001
-0.48001523312500183	0.27073054843402955
-0.47995419796875183	0.28076466866847016
-0.47989316281250183	0.2905501078922521
-0.47983212765625183	0.300077975547888
-0.47977109250000183	0.30933893034900756
-0.47971005734375183	0.31832434090571626
-0.47964902218750183	0.32702644232701567
-0.47958798703125183	0.3354371613957668
-0.47952695187500183	0.34354833094427717
-0.47946591671875183	0.351352602946687
-0.47940488156250183	0.3588428149459811
-0.47934384640625183	0.3660118563099342
-0.47928281125000183	0.3728532406081331
-0.47922177609375183	0.3793605417316842
-0.47916074093750183	0.3855274250630469
-0.47909970578125183	0.3913483291399369
-0.47903867062500183	0.3968178828879666
-0.47897763546875183	0.4019307166942281
-0.47891660031250183	0.40668205808132146
-0.47885556515625183	0.41106741347205783
-0.47879453000000183	0.41508257171567714
-0.47873349484375183	0.41872382835527705
-0.47867245968750183	0.421987511178592
-0.47861142453125183	0.4248703237287142
-0.47855038937500183	0.42736967332425246
-0.47848935421875183	0.4294831087849585
-0.47842831906250183	0.4312083241572996
-0.47836728390625183	0.4325434883869624
-0.47830624875000183	0.43348726391524806
-0.47824521359375183	0.43403863309812385
-0.47818417843750183	0.4341967743389815
-0.47812314328125183	0.433961270520873
-0.47806210812500183	0.43333219190021643
-0.47800107296875183	0.4323098889826525
-0.47794003781250183	0.430894952967846
-0.47787900265625183	0.42908843416855363
-0.47781796750000183	0.42689184250103995
-0.47775693234375183	0.4243069326693172
-0.47769589718750183	0.4213357602143399
-0.47763486203125183	0.4179807194126675
-0.47757382687500183	0.4142445720756633
-0.47751279171875183	0.41013067185464747
-0.47745175656250183	0.405642652212644
-0.47739072140625183	0.4007839813168772
-0.47732968625000183	0.3955586913340286
-0.47726865109375183	0.38997178379353176
-0.47720761593750183	0.38402809965446294
-0.47714658078125183	0.3777323621872767
-0.47708554562500183	0.3710902323094595
-0.47702451046875183	0.3641077345828679
-0.47696347531250183	0.35679070593997797
-0.47690244015625183	0.3491455893859051
-0.47684140500000183	0.3411793691840307
-0.47678036984375183	0.332898823124395
-0.47671933468750183	0.3243111444290086
-0.47665829953125183	0.3154241787633968
-0.47659726437500183	0.3062456697714726
-0.47653622921875183	0.29678365492219244
-0.47647519406250183	0.2870467555737893
-0.47641415890625183	0.2770435086733057
-0.47635312375000183	0.26678241403857517
-0.47629208859375183	0.2562728892246684
-0.47623105343750183	0.2455248672014945
-0.47617001828125183	0.23454737279017987
-0.47610898312500183	0.22334953181551404
-0.47604794796875183	0.21194195052278683
-0.47598691281250183	0.20033554983252894
-0.47592587765625183	0.18854017867891623
-0.47586484250000183	0.1765654575973738
-0.47580380734375183	0.1644226405349243
-0.47574277218750183	0.15212348584773283
-0.47568173703125183	0.13967843414932973
-0.47562070187500183	0.12709816630835638
-0.47555966671875183	0.11439429258942635
-0.47549863156250183	0.10157823424155293
-0.47543759640625183	0.08866159467089613
-0.47537656125000183	0.07565620860559467
-0.47531552609375183	0.0625733048981448
-0.47525449093750183	0.049424400381723764
-0.47519345578125183	0.03622206002352652
-0.47513242062500183	0.022978105712684882
-0.47507138546875183	0.009703782433164571
-0.47501035031250183	-0.003588483180804015
-0.47494931515625183	-0.01688642876332355
-0.47488828000000183	-0.030178511878470052
-0.47482724484375183	-0.04345277282315492
-0.47476620968750183	-0.056696946481956854
-0.47470517453125183	-0.06989898622798754
-0.47464413937500183	-0.08304733186225703
-0.47458310421875183	-0.09613000332071585
-0.47452206906250183	-0.10913462371587102
-0.47446103390625183	-0.12204996414029165
-0.47439999875000183	-0.13486484111554156
-0.47433896359375183	-0.14756672850870398
-0.47427792843750183	-0.16014372053810078
-0.47421689328125183	-0.17258537863344756
-0.47415585812500183	-0.184880791456285
-0.47409482296875183	-0.1970179910903992
-0.47403378781250183	-0.20898551214315697
-0.47397275265625183	-0.22077308230721293
-0.47391171750000183	-0.23237035017333998
-0.47385068234375183	-0.24376645026896268
-0.47378964718750183	-0.25495082421545784
-0.47372861203125183	-0.26591322224584174
-0.47366757687500183	-0.27664377404894
-0.47360654171875183	-0.28713300517749446
-0.47354550656250183	-0.2973711916147063
-0.47348447140625183	-0.3073487161393199
-0.47342343625000183	-0.3170565357366062
-0.47336240109375183	-0.32648592605065613
-0.47330136593750183	-0.3356284186212679
-0.47324033078125183	-0.34447547410425033
-0.47317929562500183	-0.3530187039279832
-0.47311826046875183	-0.3612505282084763
-0.47305722531250183	-0.36916360718614033
-0.47299619015625183	-0.37675048366260494
-0.47293515500000183	-0.38400408640148
-0.47287411984375183	-0.39091776659296806
-0.47281308468750183	-0.3974852063333994
-0.47275204953125183	-0.40370040701065735
-0.47269101437500183	-0.4095576346570876
-0.47262997921875183	-0.41505141261580153
-0.47256894406250183	-0.42017654335759375
-0.47250790890625183	-0.42492835125836265
-0.47244687375000183	-0.42930255329371514
-0.47238583859375183	-0.43329492652746593
-0.47232480343750183	-0.43690169904443377
-0.47226376828125183	-0.4401196694864209
-0.47220273312500183	-0.4429456667971448
-0.47214169796875183	-0.4453768414355318
-0.47208066281250183	-0.44741113597069027
-0.47201962765625183	-0.44904670106496414
-0.47195859250000183	-0.45028166164423916
-0.47189755734375183	-0.45111471083221444
-0.47183652218750183	-0.4515451606162313
-0.47177548703125183	-0.4515725678173144
-0.47171445187500183	-0.4511967302072006
-0.47165341671875183	-0.4504177790009024
-0.47159238156250183	-0.4492362482640305
-0.47153134640625183	-0.4476532444875483
-0.47147031125000183	-0.44567023775435993
-0.47140927609375183	-0.443288695188455
-0.47134824093750183	-0.4405104991977178
-0.47128720578125183	-0.4373383227414498
-0.47122617062500183	-0.43377503273570783
-0.47116513546875183	-0.42982357689636774
-0.47110410031250183	-0.42548743856712823
-0.47104306515625183	-0.4207704569864152
-0.47098203000000183	-0.4156767717915796
-0.47092099484375183	-0.4102110168993033
-0.47085995968750183	-0.404378144972906
-0.47079892453125183	-0.3981832884681969
-0.47073788937500183	-0.3916317908783628
-0.47067685421875183	-0.38472941876726746
-0.47061581906250183	-0.37748272839738434
-0.47055478390625183	-0.36989848787874446
-0.47049374875000183	-0.36198294024238375
