Time	Frequency
-0.5000095361562487	4.863052677448761e-24
-0.49994850099999866	5.050939075809125e-24
-0.49988746584374866	5.234282808692606e-24
-0.49982643068749866	5.4129366899523906e-24
-0.49976539553124866	5.586725364379418e-24
-0.49970436037499866	5.755477763470999e-24
-0.49964332521874866	5.919047708632859e-24
-0.49958229006249866	6.077289699712013e-24
-0.49952125490624866	6.230054896386696e-24
-0.49946021974999866	6.377199972394945e-24
-0.49939918459374866	6.518591294177979e-24
-0.49933814943749866	6.654098278601409e-24
-0.49927711428124866	6.783596044311622e-24
-0.49921607912499866	6.906967883999105e-24
-0.49915504396874866	7.0240953246631e-24
-0.49909400881249866	7.134868998300754e-24
-0.49903297365624866	7.239192543911083e-24
-0.49897193849999866	7.336966574005658e-24
-0.49891090334374866	7.428096661763199e-24
-0.49884986818749866	7.512500443219557e-24
-0.49878883303124866	7.590099042010678e-24
-0.49872779787499866	7.660821283673155e-24
-0.49866676271874866	7.724601921747473e-24
-0.49860572756249866	7.781375830112539e-24
-0.49854469240624866	7.831089049099178e-24
-0.49848365724999866	7.87370030701031e-24
-0.49842262209374866	7.909168480231363e-24
-0.49836158693749866	7.937454491396958e-24
-0.49830055178124866	7.958530473940756e-24
-0.49823951662499866	7.972378090331962e-24
-0.49817848146874866	7.978983559156163e-24
-0.49811744631249866	7.978337196648753e-24
-0.49805641115624866	7.9704366951026e-24
-0.49799537599999866	7.955288010736237e-24
-0.49793434084374866	7.93290315635457e-24
-0.49787330568749866	7.90330087720376e-24
-0.49781227053124866	7.86650620044683e-24
-0.49775123537499866	7.82254965274003e-24
-0.49769020021874866	7.771469840190473e-24
-0.49762916506249866	7.71331174898211e-24
-0.49756812990624866	7.648125909362802e-24
-0.49750709474999866	7.57597206153886e-24
-0.49744605959374866	7.496912244798926e-24
-0.49738502443749866	7.411012575505446e-24
-0.49732398928124866	7.318355780819004e-24
-0.49726295412499866	7.219028069283681e-24
-0.49720191896874866	7.113110252615117e-24
-0.49714088381249866	7.000694419393986e-24
-0.49707984865624866	6.881888569413489e-24
-0.49701881349999866	6.756803272461221e-24
-0.49695777834374866	6.625545454960009e-24
-0.49689674318749866	6.48822991344054e-24
-0.49683570803124866	6.344982978322018e-24
-0.49677467287499866	6.1959345226068755e-24
-0.49671363771874866	6.041221974100649e-24
-0.49665260256249866	5.8809886524768105e-24
-0.49659156740624866	5.715371647581402e-24
-0.49653053224999866	5.5445124622943324e-24
-0.49646949709374866	5.368576440601968e-24
-0.49640846193749866	5.1877360292421665e-24
-0.49634742678124866	5.002146301509978e-24
-0.49628639162499866	4.8119587832868515e-24
-0.49622535646874866	4.617349485267948e-24
-0.49616432131249866	4.418517443709209e-24
-0.49610328615624866	4.215643553892794e-24
-0.49604225099999866	4.008886572801823e-24
-0.49598121584374866	3.798436319402522e-24
-0.49592018068749866	3.584506506836438e-24
-0.49585914553124866	3.367287610355493e-24
-0.49579811037499866	3.1469649223699296e-24
-0.49573707521874866	2.923743883564114e-24
-0.49567604006249866	2.697828685222784e-24
-0.49561500490624866	2.469424496831891e-24
-0.49555396974999866	2.238748521240748e-24
-0.49549293459374866	2.0060061205199377e-24
-0.49543189943749866	1.7714003185692612e-24
-0.49537086428124866	1.5351509594770658e-24
-0.49530982912499866	1.2974802583698905e-24
-0.49524879396874866	1.0586088448377245e-24
-0.49518775881249866	8.18747341443493e-25
-0.49512672365624866	5.781026491163779e-25
-0.49506568849999866	3.369084651525054e-25
-0.49500465334374866	9.540245136052852e-26
-0.49494361818749866	-1.4621072115557727e-25
-0.49488258303124866	-3.8772703842646142e-25
-0.49482154787499866	-6.289087690630435e-25
-0.49476051271874866	-8.69518144700979e-25
-0.49469947756249866	-1.1093491577319224e-24
-0.49463844240624866	-1.3481948574343871e-24
-0.49457740724999866	-1.5858229978987704e-24
-0.49451637209374866	-1.8220092753315884e-24
-0.49445533693749866	-2.0565437564123074e-24
-0.49439430178124866	-2.289211400530196e-24
-0.49433326662499866	-2.5198003730847293e-24
-0.49427223146874866	-2.748094649932437e-24
-0.49421119631249866	-2.973878072865643e-24
-0.49415016115624866	-3.1969543040977183e-24
-0.49408912599999866	-3.417118569154417e-24
-0.49402809084374866	-3.6341545701309975e-24
-0.49396705568749866	-3.8478683114583105e-24
-0.49390602053124866	-4.058069935778858e-24
-0.49384498537499866	-4.264561411268802e-24
-0.49378395021874866	-4.467148377724542e-24
-0.49372291506249866	-4.665639768815126e-24
-0.49366187990624866	-4.859862022634419e-24
-0.49360084474999866	-5.0496406859173226e-24
-0.49353980959374866	-5.234783825452722e-24
-0.49347877443749866	-5.415121990094378e-24
-0.49341773928124866	-5.590501708711976e-24
-0.49335670412499866	-5.7607532425396245e-24
-0.49329566896874866	-5.9257128472057104e-24
-0.49323463381249866	-6.085233986568392e-24
-0.49317359865624866	-6.239170872088144e-24
-0.49311256349999866	-6.387375732773095e-24
-0.49305152834374866	-6.5297072223881114e-24
-0.49299049318749866	-6.666037774749857e-24
-0.49292945803124866	-6.796245149740886e-24
-0.49286842287499866	-6.92020278565668e-24
-0.49280738771874866	-7.037791047907309e-24
-0.49274635256249866	-7.148903418557925e-24
-0.49268531740624866	-7.253437607227188e-24
-0.49262428224999866	-7.351295928052818e-24
-0.49256324709374866	-7.44238603665244e-24
-0.49250221193749866	-7.526618244252674e-24
-0.49244117678124866	-7.603915081291705e-24
-0.49238014162499866	-7.674207781468214e-24
-0.49231910646874866	-7.73742617794771e-24
-0.49225807131249866	-7.793508874266696e-24
-0.49219703615624866	-7.842404364175347e-24
-0.49213600099999866	-7.884065129496627e-24
-0.49207496584374866	-7.918450696239992e-24
-0.49201393068749866	-7.945527769324482e-24
-0.49195289553124866	-7.96526944067508e-24
-0.49189186037499866	-7.977655100896336e-24
-0.49183082521874866	-7.982670651229419e-24
-0.49176979006249866	-7.980309941037885e-24
-0.49170875490624866	-7.970574348201197e-24
-0.49164771974999866	-7.953470747003053e-24
-0.49158668459374866	-7.929011346079053e-24
-0.49152564943749866	-7.897215658605688e-24
-0.49146461428124866	-7.85811250057187e-24
-0.49140357912499866	-7.811738287650606e-24
-0.49134254396874866	-7.758132915956474e-24
-0.49128150881249866	-7.697339893559094e-24
-0.49122047365624866	-7.629413097007725e-24
-0.49115943849999866	-7.554418316091633e-24
-0.49109840334374866	-7.472423803428455e-24
-0.49103736818749866	-7.383499294272388e-24
-0.49097633303124866	-7.287721855654832e-24
-0.49091529787499866	-7.18517933291614e-24
-0.49085426271874866	-7.075971398081703e-24
-0.49079322756249866	-6.960196228920883e-24
-0.49073219240624866	-6.837949841218122e-24
-0.49067115724999866	-6.709346695156393e-24
-0.49061012209374866	-6.574508827668078e-24
-0.49054908693749866	-6.4335534147504295e-24
-0.49048805178124866	-6.286613160669116e-24
-0.49042701662499866	-6.1338247776881394e-24
-0.49036598146874866	-5.975316507907966e-24
-0.49030494631249866	-5.811236669778169e-24
-0.49024391115624866	-5.6417458914792e-24
-0.49018287599999866	-5.466993654020869e-24
-0.49012184084374866	-5.2871325259302514e-24
-0.49006080568749866	-5.102329830784742e-24
-0.48999977053124866	-4.912765501449749e-24
-0.48993873537499866	-4.7186113337889924e-24
-0.48987770021874866	-4.5200267230032816e-24
-0.48981666506249866	-4.317202989003074e-24
-0.48975562990624866	-4.110350566022038e-24
-0.48969459474999866	-3.899642291371523e-24
-0.48963355959374866	-3.685249961037139e-24
-0.48957252443749866	-3.467388771145851e-24
-0.48951148928124866	-3.246276538167605e-24
-0.48945045412499866	-3.0221069587159575e-24
-0.48938941896874866	-2.795071702198661e-24
-0.48932838381249866	-2.5653818665924358e-24
-0.48926734865624866	-2.333259108126651e-24
-0.48920631349999866	-2.098923812669091e-24
-0.48914527834374866	-1.8625901708956116e-24
-0.48908424318749866	-1.6244610531194117e-24
-0.48902320803124866	-1.3847564828680545e-24
-0.48896217287499866	-1.143713649050395e-24
-0.48890113771874866	-9.015566340052804e-25
-0.48884010256249866	-6.585028407313345e-25
-0.48877906740624866	-4.147682426654569e-25
-0.48871803224999866	-1.7057833264463372e-25
-0.48865699709374866	7.382381096738664e-26
-0.48859596193749866	3.1821024885447797e-25
-0.48853492678124866	5.623746688130554e-25
-0.48847389162499866	8.060915214925828e-25
-0.48841285646874866	1.0491134612484098e-24
-0.48835182131249866	1.2912181111128284e-24
-0.48829078615624866	1.5322007875665701e-24
-0.48822975099999866	1.7718286975709187e-24
-0.48816871584374866	2.0098635699010538e-24
-0.48810768068749866	2.2460947040266998e-24
-0.48804664553124866	2.480314684149157e-24
-0.48798561037499866	2.7122991716177856e-24
-0.48792457521874866	2.9418182033276574e-24
-0.48786354006249866	3.1686593833494205e-24
-0.48780250490624866	3.392631629521297e-24
-0.48774146974999866	3.613524618410349e-24
-0.48768043459374866	3.83110754669573e-24
-0.48761939943749866	4.045185103046326e-24
-0.48755836428124866	4.2555786888729856e-24
-0.48749732912499866	4.462079013950097e-24
-0.48743629396874866	4.664482657795717e-24
-0.48737525881249866	4.862611058710803e-24
-0.48731422365624866	5.056278213834116e-24
-0.48725318849999866	5.2452997532784514e-24
-0.48719215334374866	5.429504894924667e-24
-0.48713111818749866	5.6087175776704456e-24
-0.48707008303124866	5.782761792348515e-24
-0.48700904787499866	5.951479560187413e-24
-0.48694801271874866	6.114720974379368e-24
-0.48688697756249866	6.272326865938389e-24
-0.48682594240624866	6.424141076471162e-24
-0.48676490724999866	6.570025621112061e-24
-0.48670387209374866	6.709848002016647e-24
-0.48664283693749866	6.843472057182194e-24
-0.48658180178124866	6.970770216739724e-24
-0.48652076662499866	7.091625250031473e-24
-0.48645973146874866	7.205919201488261e-24
-0.48639869631249866	7.313542527793754e-24
-0.48633766115624866	7.414398184251877e-24
-0.48627662599999866	7.508389484632046e-24
-0.48621559084374866	7.595421805932177e-24
-0.48615455568749866	7.675411386366618e-24
-0.48609352053124866	7.74828612018887e-24
-0.48603248537499866	7.813977096383885e-24
-0.48597145021874866	7.87241552697396e-24
-0.48591041506249866	7.92354262439572e-24
-0.48584937990624866	7.967313782502066e-24
-0.48578834474999866	8.003686755374835e-24
-0.48572730959374866	8.032619883143573e-24
-0.48566627443749866	8.054083611723154e-24
-0.48560523928124866	8.068058463698365e-24
-0.48554420412499866	8.074528391876033e-24
-0.48548316896874866	8.073483241072012e-24
-0.48542213381249866	8.06492154138144e-24
-0.48536109865624866	8.048848213712368e-24
-0.48530006349999866	8.025275538452359e-24
-0.48523902834374866	7.994223697048589e-24
-0.48517799318749866	7.955717732221137e-24
-0.48511695803124866	7.909791034237346e-24
-0.48505592287499866	7.856484495594361e-24
-0.48499488771874866	7.7958428800043e-24
-0.48493385256249866	7.727919345707956e-24
-0.48487281740624866	7.652778028261145e-24
-0.48481178224999866	7.57048755398147e-24
-0.48475074709374866	7.481115345502933e-24
-0.48468971193749866	7.384740325824752e-24
-0.48462867678124866	7.281458559955467e-24
-0.48456764162499866	7.171364326828287e-24
-0.48450660646874866	7.054548360582248e-24
-0.48444557131249866	6.931117066557085e-24
-0.48438453615624866	6.801189967993067e-24
-0.48432350099999866	6.664884665733006e-24
-0.48426246584374866	6.522322522655081e-24
-0.48420143068749866	6.373633994767534e-24
-0.48414039553124866	6.218956522679461e-24
-0.48407936037499866	6.05843123294226e-24
-0.48401832521874866	5.8922037231912936e-24
-0.48395729006249866	5.720431646015362e-24
-0.48389625490624866	5.5432719639370466e-24
-0.48383521974999866	5.360879701865247e-24
-0.48377418459374866	5.173428019390881e-24
-0.48371314943749866	4.981097417416107e-24
-0.48365211428124866	4.784056503756818e-24
-0.48359107912499866	4.5824801551186905e-24
-0.48353004396874866	4.376565544083938e-24
-0.48346900881249866	4.166507695082645e-24
-0.48340797365624866	3.952490272859014e-24
-0.48334693849999866	3.7347098256186314e-24
-0.48328590334374866	3.513371248988539e-24
-0.48322486818749866	3.2886801588291077e-24
-0.48316383303124866	3.060852526549776e-24
-0.48310279787499866	2.830091189618043e-24
-0.48304176271874866	2.5965984267498375e-24
-0.48298072756249866	2.360606145076707e-24
-0.48291969240624866	2.12234036495121e-24
-0.48285865724999866	1.882009941825858e-24
-0.48279762209374866	1.6398317157912966e-24
-0.48273658693749866	1.3960394247222826e-24
-0.48267555178124866	1.150865399007246e-24
-0.48261451662499866	9.045315816131084e-25
-0.48255348146874866	6.572685858645667e-25
-0.48249244631249866	4.0930134108557117e-25
-0.48243141115624866	1.6085881155796839e-25
-0.48237037599999866	-8.781401285324861e-26
-0.48230934084374866	-3.364880902580322e-25
-0.48224830568749866	-5.849403195678196e-25
-0.48218727053124866	-8.329415515671376e-25
-0.48212623537499866	-1.0802544548703963e-24
-0.48206520021874866	-1.326637092643947e-24
-0.48200416506249866	-1.571871398450162e-24
-0.48194312990624866	-1.8157367374503292e-24
-0.48188209474999866	-2.057989456281456e-24
-0.48182105959374866	-2.2984055956728522e-24
-0.48176002443749866	-2.5367674547114404e-24
-0.48169898928124866	-2.7728440387702144e-24
-0.48163795412499866	-3.00642175798328e-24
-0.48157691896874866	-3.2372831651351467e-24
-0.48151588381249866	-3.465197691094462e-24
-0.48145484865624866	-3.68995705039919e-24
-0.48139381349999866	-3.911364300327186e-24
-0.48133277834374866	-4.129206100393907e-24
-0.48127174318749866	-4.343263815412326e-24
-0.48121070803124866	-4.5533419375003e-24
-0.48114967287499866	-4.7592539971959594e-24
-0.48108863771874866	-4.960801687773044e-24
-0.48102760256249866	-5.157791958827909e-24
-0.48096656740624866	-5.3500383251825535e-24
-0.48090553224999866	-5.537358619764995e-24
-0.48084449709374866	-5.719581756209637e-24
-0.48078346193749866	-5.8965381633937856e-24
-0.48072242678124866	-6.068056576826997e-24
-0.48066139162499866	-6.2339701222474716e-24
-0.48060035646874866	-6.394123297732654e-24
-0.48053932131249866	-6.5483727778118e-24
-0.48047828615624866	-6.696572430901252e-24
-0.48041725099999866	-6.838573286741095e-24
-0.48035621584374866	-6.97424049676074e-24
-0.48029518068749866	-7.10345091068719e-24
-0.48023414553124866	-7.226082710045145e-24
-0.48017311037499866	-7.342017662827308e-24
-0.48011207521874866	-7.451142686128933e-24
-0.48005104006249866	-7.55335174508699e-24
-0.47999000490624866	-7.648552262547272e-24
-0.47992896974999866	-7.736654756779662e-24
-0.47986793459374866	-7.817569184157202e-24
-0.47980689943749866	-7.891218436181364e-24
-0.47974586428124866	-7.957532729608159e-24
-0.47968482912499866	-8.01644746100455e-24
-0.47962379396874866	-8.067907422302664e-24
-0.47956275881249866	-8.111860248188632e-24
-0.47950172365624866	-8.148260317195588e-24
-0.47944068849999866	-8.177073482248952e-24
-0.47937965334374866	-8.198272311199912e-24
-0.47931861818749866	-8.211833286033032e-24
-0.47925758303124866	-8.217739828018192e-24
-0.47919654787499866	-8.215984888896201e-24
-0.47913551271874866	-8.206568627408497e-24
-0.47907447756249866	-8.189498073751765e-24
-0.47901344240624866	-8.164787022477017e-24
-0.47895240724999866	-8.132454494298454e-24
-0.47889137209374866	-8.092528146228397e-24
-0.47883033693749866	-8.04504580690951e-24
-0.47876930178124866	-7.990050346241065e-24
-0.47870826662499866	-7.927588730745769e-24
-0.47864723146874866	-7.85771691897457e-24
-0.47858619631249866	-7.780499460700395e-24
-0.47852516115624866	-7.696006285846396e-24
-0.47846412599999866	-7.604315651781382e-24
-0.47840309084374866	-7.505513083128258e-24
-0.47834205568749866	-7.399685082751221e-24
-0.47828102053124866	-7.286927272461303e-24
-0.47821998537499866	-7.167348042038358e-24
-0.47815895021874866	-7.041058853711566e-24
-0.47809791506249866	-6.908176945101634e-24
-0.47803687990624866	-6.76881948745713e-24
-0.47797584474999866	-6.623109427561456e-24
-0.47791480959374866	-6.4711957683550274e-24
-0.47785377443749866	-6.313224384642882e-24
-0.47779273928124866	-6.149324294622497e-24
-0.47773170412499866	-5.979646272992993e-24
-0.47767066896874866	-5.804362156909273e-24
-0.47760963381249866	-5.6236363330738295e-24
-0.47754859865624866	-5.437626962886152e-24
-0.47748756349999866	-5.24650403603866e-24
-0.47742652834374866	-5.0504562682805765e-24
-0.47736549318749866	-4.849667563676421e-24
-0.47730445803124866	-4.644312609763887e-24
-0.47724342287499866	-4.4345894548808026e-24
-0.47718238771874866	-4.2207042899655e-24
-0.47712135256249866	-4.0028455427387665e-24
-0.47706031740624866	-3.781211413049462e-24
-0.47699928224999866	-3.5560197271056404e-24
-0.47693824709374866	-3.3274843369222465e-24
-0.47687721193749866	-3.095812992865517e-24
-0.47681617678124866	-2.861220965994453e-24
-0.47675514162499866	-2.6239255815530392e-24
-0.47669410646874866	-2.3841549076472006e-24
-0.47663307131249866	-2.1421449184694204e-24
-0.47657203615624866	-1.8981059696508886e-24
-0.47651100099999866	-1.6522596307033395e-24
-0.47644996584374866	-1.404857478673568e-24
-0.47638893068749866	-1.1561311727035404e-24
-0.47632789553124866	-9.063020010907262e-25
-0.47626686037499866	-6.556050274324104e-25
-0.47620582521874866	-4.0428205018233864e-25
-0.47614479006249866	-1.5257287570949716e-25
-0.47608375490624866	9.929141931893071e-26
-0.47602271974999866	3.5107330495586746e-25
-0.47596168459374866	6.025314031967093e-25
-0.47590064943749866	8.53436310874913e-25
-0.47583961428124866	1.1035497710123043e-24
-0.47577857912499866	1.3526261563267682e-24
-0.47571754396874866	1.6004349702995631e-24
-0.47565650881249866	1.8467504123601038e-24
-0.47559547365624866	2.0913381944143032e-24
-0.47553443849999866	2.3339597619379524e-24
-0.47547340334374866	2.5743845249534383e-24
-0.47541236818749866	2.8123903632045964e-24
-0.47535133303124866	3.047757083554753e-24
-0.47529029787499866	3.28026148633591e-24
-0.47522926271874866	3.509672019458459e-24
-0.47516822756249866	3.735769298150555e-24
-0.47510719240624866	3.9583575913825314e-24
-0.47504615724999866	4.177226309216662e-24
-0.47498512209374866	4.392147310124049e-24
-0.47492408693749866	4.602919634733882e-24
-0.47486305178124866	4.809357993159441e-24
-0.47480201662499866	5.01126705968652e-24
-0.47474098146874866	5.208446256437036e-24
-0.47467994631249866	5.400696886013585e-24
-0.47461891115624866	5.587847010888138e-24
-0.47455787599999866	5.7697370860491216e-24
-0.47449684084374866	5.946176422651387e-24
-0.47443580568749866	6.116979543026974e-24
-0.47437477053124866	6.282004035942089e-24
-0.47431373537499866	6.441102249728757e-24
-0.47425270021874866	6.5941080648674276e-24
-0.47419166506249866	6.740870322390206e-24
-0.47413062990624866	6.881252164644004e-24
-0.47406959474999866	7.015127321135014e-24
-0.47400855959374866	7.142367324679258e-24
-0.47394752443749866	7.262839257159766e-24
-0.47388648928124866	7.37643064435122e-24
-0.47382545412499866	7.483039728845665e-24
-0.47376441896874866	7.582559711995545e-24
-0.47370338381249866	7.674891152513176e-24
-0.47364234865624866	7.759947112467038e-24
-0.47358131349999866	7.83764684764939e-24
-0.47352027834374866	7.907914274734857e-24
-0.47345924318749866	7.97068020512158e-24
-0.47339820803124866	8.025882070442623e-24
-0.47333717287499866	8.073466235068887e-24
-0.47327613771874866	8.11338816764825e-24
-0.47321510256249866	8.145606418540217e-24
-0.47315406740624866	8.170086406046313e-24
-0.47309303224999866	8.186804643073154e-24
-0.47303199709374866	8.195744157598772e-24
-0.47297096193749866	8.196893662876638e-24
-0.47290992678124866	8.190249131691998e-24
-0.47284889162499866	8.175815349435194e-24
-0.47278785646874866	8.153604589240222e-24
-0.47272682131249866	8.123634775975048e-24
-0.47266578615624866	8.085932592499475e-24
-0.47260475099999866	8.040532875452234e-24
-0.47254371584374866	7.987475397010733e-24
-0.47248268068749866	7.926807832394708e-24
-0.47242164553124866	7.858586438528957e-24
-0.47236061037499866	7.782873844718301e-24
-0.47229957521874866	7.69974172249771e-24
-0.47223854006249866	7.60926581063898e-24
-0.47217750490624866	7.511525150943439e-24
-0.47211646974999866	7.406615473947227e-24
-0.47205543459374866	7.294639240982093e-24
