Time	Frequency
-0.5000467299687443	4.3809083859470115e-24
-0.49998569481249433	4.30323045144865e-24
-0.49992465965624433	4.219206743767232e-24
-0.49986362449999433	4.128956068504062e-24
-0.49980258934374433	4.0326083019924904e-24
-0.49974155418749433	3.930301969526052e-24
-0.49968051903124433	3.822180323250031e-24
-0.49961948387499433	3.70840182218447e-24
-0.49955844871874433	3.589133851525872e-24
-0.49949741356249433	3.4645433113389405e-24
-0.49943637840624433	3.334806810288906e-24
-0.49937534324999433	3.2001161302608426e-24
-0.49931430809374433	3.0606711713788203e-24
-0.49925327293749433	2.9166722925934944e-24
-0.49919223778124433	2.7683221094642396e-24
-0.49913120262499433	2.615834069570385e-24
-0.49907016746874433	2.4594369212878734e-24
-0.49900913231249433	2.2993619239318558e-24
-0.49894809715624433	2.135835414349761e-24
-0.49888706199999433	1.9690943938079056e-24
-0.49882602684374433	1.79938286936924e-24
-0.49876499168749433	1.6269481868130305e-24
-0.49870395653124433	1.4520473855862989e-24
-0.49864292137499433	1.2749316536116746e-24
-0.49858188621874433	1.0958561244289087e-24
-0.49852085106249433	9.150898575392338e-25
-0.49845981590624433	7.3289368378158815e-25
-0.49839878074999433	5.495293848463722e-25
-0.49833774559374433	3.6527243659605802e-25
-0.49827671043749433	1.8039345321751895e-25
-0.49821567528124433	-4.841485428303281e-27
-0.49815464012499433	-1.9015914808104799e-25
-0.49809360496874433	-3.752877304528999e-25
-0.49803256981249433	-5.59957744401883e-25
-0.49797153465624433	-7.438941788558663e-25
-0.49791049949999433	-9.26824454284899e-25
-0.49784946434374433	-1.1084861177632642e-24
-0.49778842918749433	-1.2886149998059309e-24
-0.49772739403124433	-1.4669384687664106e-24
-0.49766635887499433	-1.6431915461713656e-24
-0.49760532371874433	-1.8171214686701748e-24
-0.49754428856249433	-1.988476111474879e-24
-0.49748325340624433	-2.1569996785419352e-24
-0.49742221824999433	-2.322436222672719e-24
-0.49736118309374433	-2.4845422678562183e-24
-0.49730014793749433	-2.6430890231251038e-24
-0.49723911278124433	-2.797844224435491e-24
-0.49717807762499433	-2.948569987400856e-24
-0.49711704246874433	-3.0950408146090165e-24
-0.49705600731249433	-3.2370461500077588e-24
-0.49699497215624433	-3.374379245771539e-24
-0.49693393699999433	-3.506835211504301e-24
-0.49687290184374433	-3.634215296913096e-24
-0.49681186668749433	-3.756330573577919e-24
-0.49675083153124433	-3.873001537366726e-24
-0.49668979637499433	-3.984055857618281e-24
-0.49662876121874433	-4.089329857560715e-24
-0.49656772606249433	-4.188665989076208e-24
-0.49650669090624433	-4.281914399679772e-24
-0.49644565574999433	-4.368938937506062e-24
-0.49638462059374433	-4.449611469044819e-24
-0.49632358543749433	-4.523809482818704e-24
-0.49626255028124433	-4.591422290781913e-24
-0.49620151512499433	-4.652350278351029e-24
-0.49614047996874433	-4.7065019285368944e-24
-0.49607944481249433	-4.753795195719378e-24
-0.49601840965624433	-4.7941595474639004e-24
-0.49595737449999433	-4.827534842643438e-24
-0.49589633934374433	-4.853869810108995e-24
-0.49583530418749433	-4.873123990683545e-24
-0.49577426903124433	-4.885268064325795e-24
-0.49571323387499433	-4.890282785124106e-24
-0.49565219871874433	-4.888159573022778e-24
-0.49559116356249433	-4.878900005505993e-24
-0.49553012840624433	-4.8625159006635076e-24
-0.49546909324999433	-4.839030754956857e-24
-0.49540805809374433	-4.8084786862782666e-24
-0.49534702293749433	-4.77090283326942e-24
-0.49528598778124433	-4.7263568364395444e-24
-0.49522495262499433	-4.6749057640510674e-24
-0.49516391746874433	-4.616624616798568e-24
-0.49510288231249433	-4.551598496298438e-24
-0.49504184715624433	-4.479922511403896e-24
-0.49498081199999433	-4.401700394983865e-24
-0.49491977684374433	-4.317046747966607e-24
-0.49485874168749433	-4.226086349877502e-24
-0.49479770653124433	-4.128952894506431e-24
-0.49473667137499433	-4.025789849014073e-24
-0.49467563621874433	-3.916745608778139e-24
-0.49461460106249433	-3.801979812266573e-24
-0.49455356590624433	-3.681668217814494e-24
-0.49449253074999433	-3.5559857203805015e-24
-0.49443149559374433	-3.425108747058111e-24
-0.49437046043749433	-3.2892354632737527e-24
-0.49430942528124433	-3.1485735251001694e-24
-0.49424839012499433	-3.003324736390847e-24
-0.49418735496874433	-2.8536991122753525e-24
-0.49412631981249433	-2.699919627582678e-24
-0.49406528465624433	-2.5422160604244607e-24
-0.49400424949999433	-2.3808223983889128e-24
-0.49394321434374433	-2.2159745064540906e-24
-0.49388217918749433	-2.047915929702045e-24
-0.49382114403124433	-1.8768959021402655e-24
-0.49376010887499433	-1.7031640169885464e-24
-0.49369907371874433	-1.5269801322649339e-24
-0.49363803856249433	-1.348610851149686e-24
-0.49357700340624433	-1.1683145744823082e-24
-0.49351596824999433	-9.863523861666649e-25
-0.49345493309374433	-8.029992562286313e-25
-0.49339389793749433	-6.185303801907132e-25
-0.49333286278124433	-4.332169708470342e-25
-0.49327182762499433	-2.473321033137177e-25
-0.49321079246874433	-6.114981576508286e-26
-0.49314975731249433	1.2505206353675205e-25
-0.49308872215624433	3.109960433911197e-25
-0.49302768699999433	4.964080807351664e-25
-0.49296665184374433	6.810111970099234e-25
-0.49290561668749433	8.645305600305293e-25
-0.49284458153124433	1.0466981549686128e-24
-0.49278354637499433	1.2272438509539293e-24
-0.49272251121874433	1.4058937002628538e-24
-0.49266147606249433	1.5823832676529206e-24
-0.49260044090624433	1.7564544699429455e-24
-0.49253940574999433	1.9278454338349555e-24
-0.49247837059374433	2.0963020270966398e-24
-0.49241733543749433	2.2615774926239567e-24
-0.49235630028124433	2.423421392678187e-24
-0.49229526512499433	2.581590099123985e-24
-0.49223422996874433	2.7358542462756363e-24
-0.49217319481249433	2.8859858833553624e-24
-0.49211215965624433	3.0317572639322596e-24
-0.49205112449999433	3.172950128787161e-24
-0.49199008934374433	3.309354944852953e-24
-0.49192905418749433	3.440772114942657e-24
-0.49186801903124433	3.5670069409657834e-24
-0.49180698387499433	3.687865500248898e-24
-0.49174594871874433	3.8031677308407264e-24
-0.49168491356249433	3.9127468163769996e-24
-0.49162387840624433	4.0164380524998464e-24
-0.49156284324999433	4.114084879115873e-24
-0.49150180809374433	4.205543182495301e-24
-0.49144077293749433	4.2906757621761295e-24
-0.49137973778124433	4.369354270313575e-24
-0.49131870262499433	4.4414631370240326e-24
-0.49125766746874433	4.506896806421502e-24
-0.49119663231249433	4.565555517907482e-24
-0.49113559715624433	4.617348713584834e-24
-0.49107456199999433	4.66220151195733e-24
-0.49101352684374433	4.700049642333862e-24
-0.49095249168749433	4.730834013371632e-24
-0.49089145653124433	4.754507064364609e-24
-0.49083042137499433	4.7710354944542495e-24
-0.49076938621874433	4.780395099320129e-24
-0.49070835106249433	4.782570492052185e-24
-0.49064731590624433	4.777558488486505e-24
-0.49058628074999433	4.7653675081024226e-24
-0.49052524559374433	4.746015590039848e-24
-0.49046421043749433	4.719530966223382e-24
-0.49040317528124433	4.685953153586664e-24
-0.49034214012499433	4.645333231340625e-24
-0.49028110496874433	4.5977327467711854e-24
-0.49022006981249433	4.5432219348884396e-24
-0.49015903465624433	4.481881334973872e-24
-0.49009799949999433	4.41380366052885e-24
-0.49003696434374433	4.339092222999194e-24
-0.48997592918749433	4.257858960565927e-24
-0.48991489403124433	4.170224223888087e-24
-0.48985385887499433	4.076318583320736e-24
-0.48979282371874433	3.9762838980447505e-24
-0.48973178856249433	3.870271838481612e-24
-0.48967075340624433	3.7584415782804745e-24
-0.48960971824999433	3.640958310612105e-24
-0.48954868309374433	3.517997027244571e-24
-0.48948764793749433	3.389746014602736e-24
-0.48942661278124433	3.256398917157498e-24
-0.48936557762499433	3.1181533451108576e-24
-0.48930454246874433	2.975216705717433e-24
-0.48924350731249433	2.827802439049337e-24
-0.48918247215624433	2.6761339702911528e-24
-0.48912143699999433	2.520443922220802e-24
-0.48906040184374433	2.3609616484225504e-24
-0.48899936668749433	2.197922676656353e-24
-0.48893833153124433	2.0315777792995638e-24
-0.48887729637499433	1.8621793127551964e-24
-0.48881626121874433	1.689978709059187e-24
-0.48875522606249433	1.5152345012816445e-24
-0.48869419090624433	1.3382108605114093e-24
-0.48863315574999433	1.1591760754215032e-24
-0.48857212059374433	9.783999115153405e-25
-0.48851108543749433	7.961512442133028e-25
-0.48845005028124433	6.127045016859962e-25
-0.48838901512499433	4.283415296541997e-25
-0.48832797996874433	2.4334233571222393e-25
-0.48826694481249433	5.797888480397399e-26
-0.48820590965624433	-1.27473317198737e-25
-0.48814487449999433	-3.1272531426271796e-25
-0.48808383934374433	-4.974917770908297e-25
-0.48802280418749433	-6.815015910097223e-25
-0.48796176903124433	-8.644835250868014e-25
-0.48790073387499433	-1.0461563197190867e-24
-0.48783969871874433	-1.22623601774965e-24
-0.48777866356249433	-1.4044521114158648e-24
-0.48771762840624433	-1.5805453657077628e-24
-0.48765659324999433	-1.7542480810645896e-24
-0.48759555809374433	-1.925288521018038e-24
-0.48753452293749433	-2.0934081341450182e-24
-0.48747348778124433	-2.2583559551144523e-24
-0.48741245262499433	-2.4198831973108838e-24
-0.48735141746874433	-2.5777445010598336e-24
-0.48729038231249433	-2.7316967340450645e-24
-0.48722934715624433	-2.881506252098543e-24
-0.48716831199999433	-3.0269463483020262e-24
-0.48710727684374433	-3.1677951330596844e-24
-0.48704624168749433	-3.303842281354352e-24
-0.48698520653124433	-3.434879984338025e-24
-0.48692417137499433	-3.5607020273409115e-24
-0.48686313621874433	-3.6811169486151446e-24
-0.48680210106249433	-3.795946668557584e-24
-0.48674106590624433	-3.905016806391918e-24
-0.48668003074999433	-4.008156439020653e-24
-0.48661899559374433	-4.105205423271253e-24
-0.48655796043749433	-4.196016325441256e-24
-0.48649692528124433	-4.2804517229706295e-24
-0.48643589012499433	-4.3583817919821764e-24
-0.48637485496874433	-4.429684778689777e-24
-0.48631381981249433	-4.494250064208512e-24
-0.48625278465624433	-4.551977754381647e-24
-0.48619174949999433	-4.602778089971979e-24
-0.48613071434374433	-4.6465717740372986e-24
-0.48606967918749433	-4.6832900432185114e-24
-0.48600864403124433	-4.7128747651562125e-24
-0.48594760887499433	-4.735277605658238e-24
-0.48588657371874433	-4.750461509183027e-24
-0.48582553856249433	-4.758401709375907e-24
-0.48576450340624433	-4.759083380562165e-24
-0.48570346824999433	-4.752501591137302e-24
-0.48564243309374433	-4.7386635355249065e-24
-0.48558139793749433	-4.7175877006856786e-24
-0.48552036278124433	-4.689302848888518e-24
-0.48545932762499433	-4.6538486041943364e-24
-0.48539829246874433	-4.61127514350019e-24
-0.48533725731249433	-4.561643734736029e-24
-0.48527622215624433	-4.505027475248151e-24
-0.48521518699999433	-4.4415099204119394e-24
-0.48515415184374433	-4.371182624615458e-24
-0.48509311668749433	-4.294147112561857e-24
-0.48503208153124433	-4.210518874918045e-24
-0.48497104637499433	-4.120423984216999e-24
-0.48491001121874433	-4.023995165818109e-24
-0.48484897606249433	-3.9213728164455734e-24
-0.48478794090624433	-3.8127078174952055e-24
-0.48472690574999433	-3.698165393014924e-24
-0.48466587059374433	-3.577919448044478e-24
-0.48460483543749433	-3.452145452987218e-24
-0.48454380028124433	-3.3210287237872845e-24
-0.48448276512499433	-3.1847676378837457e-24
-0.48442172996874433	-3.043566660558927e-24
-0.48436069481249433	-2.8976382275120844e-24
-0.48429965965624433	-2.747200508260755e-24
-0.48423862449999433	-2.592475542277462e-24
-0.48417758934374433	-2.4336986595363314e-24
-0.48411655418749433	-2.271110300385359e-24
-0.48405551903124433	-2.1049496926085805e-24
-0.48399448387499433	-1.935468165907244e-24
-0.48393344871874433	-1.7629245965452135e-24
-0.48387241356249433	-1.5875754473420868e-24
-0.48381137840624433	-1.4096837246893082e-24
-0.48375034324999433	-1.2295192254805933e-24
-0.48368930809374433	-1.0473520354281018e-24
-0.48362827293749433	-8.634597660332463e-25
-0.48356723778124433	-6.7812095326647815e-25
-0.48350620262499433	-4.916088834984283e-25
-0.48344516746874433	-3.0420622796224595e-25
-0.48338413231249433	-1.1620367236526067e-25
-0.48332309715624433	7.211547006028971e-26
-0.48326206199999433	2.6047325708585077e-25
-0.48320102684374433	4.485840578727632e-25
-0.48313999168749433	6.36159644270113e-25
-0.48307895653124433	8.2291325355939e-25
-0.48301792137499433	1.0085597171107713e-24
-0.48295688621874433	1.1928262829353706e-24
-0.48289585106249433	1.3754367330616451e-24
-0.48283481590624433	1.5561016524807781e-24
-0.48277378074999433	1.7345440648577365e-24
-0.48271274559374433	1.910501847175599e-24
-0.48265171043749433	2.083710831127719e-24
-0.48259067528124433	2.253902751122717e-24
-0.48252964012499433	2.420812532047048e-24
-0.48246860496874433	2.584188024958523e-24
-0.48240756981249433	2.7437859770228197e-24
-0.48234653465624433	2.899361209091229e-24
-0.48228549949999433	3.0506726351933477e-24
-0.48222446434374433	3.19748915288438e-24
-0.48216342918749433	3.339587688553743e-24
-0.48210239403124433	3.476751735790862e-24
-0.48204135887499433	3.6087686800636596e-24
-0.48198032371874433	3.735435677477011e-24
-0.48191928856249433	3.856560995250318e-24
-0.48185825340624433	3.97195692721668e-24
-0.48179721824999433	4.081443844944348e-24
-0.48173618309374433	4.184853483271965e-24
-0.48167514793749433	4.282027432603956e-24
-0.48161411278124433	4.372816214380133e-24
-0.48155307762499433	4.4570767811418534e-24
-0.48149204246874433	4.5346765808946346e-24
-0.48143100731249433	4.6054966855784475e-24
-0.48136997215624433	4.669427379264391e-24
-0.48130893699999433	4.726366959973307e-24
-0.48124790184374433	4.776223987645683e-24
-0.48118686668749433	4.818919427389835e-24
-0.48112583153124433	4.854386579345021e-24
-0.48106479637499433	4.882567597081233e-24
-0.48100376121874433	4.903414113028185e-24
-0.48094272606249433	4.916890845558973e-24
-0.48088169090624433	4.922974235951477e-24
-0.48082065574999433	4.921650828312826e-24
-0.48075962059374433	4.9129184030606804e-24
-0.48069858543749433	4.896785849386207e-24
-0.48063755028124433	4.8732732858689684e-24
-0.48057651512499433	4.842412818748951e-24
-0.48051547996874433	4.804247167810422e-24
-0.48045444481249433	4.75882912698131e-24
-0.48039340965624433	4.7062237094977626e-24
-0.48033237449999433	4.646507339713784e-24
-0.48027133934374433	4.57976615598981e-24
-0.48021030418749433	4.506096706850147e-24
-0.48014926903124433	4.425605412730112e-24
-0.48008823387499433	4.3384116173911826e-24
-0.48002719871874433	4.244646667089932e-24
-0.47996616356249433	4.144445515088872e-24
-0.47990512840624433	4.037952292504799e-24
-0.47984409324999433	3.925328425689329e-24
-0.47978305809374433	3.80674463322504e-24
-0.47972202293749433	3.682375061843353e-24
-0.47966098778124433	3.5524007082358186e-24
-0.47959995262499433	3.417014098673006e-24
-0.47953891746874433	3.2764204306207114e-24
-0.47947788231249433	3.130832910700272e-24
-0.47941684715624433	2.9804673928321265e-24
-0.47935581199999433	2.8255432061138718e-24
-0.47929477684374433	2.666292257233709e-24
-0.47923374168749433	2.5029578246378164e-24
-0.47917270653124433	2.3357848800716784e-24
-0.47911167137499433	2.1650225332740945e-24
-0.47905063621874433	1.9909256524331964e-24
-0.47898960106249433	1.8137548344461663e-24
-0.47892856590624433	1.633777845519151e-24
-0.47886753074999433	1.451265903520517e-24
-0.47880649559374433	1.2664926456849424e-24
-0.47874546043749433	1.0797367280190257e-24
-0.47868442528124433	8.91278611111552e-25
-0.47862339012499433	7.014000371479407e-25
-0.47856235496874433	5.103910261448784e-25
-0.47850131981249433	3.1853924526747623e-25
-0.47844028465624433	1.261286699026041e-25
-0.47837924949999433	-6.65448639090509e-26
-0.47831821434374433	-2.5918847780847774e-25
-0.47825717918749433	-4.515189560725668e-25
-0.47819614403124433	-6.432425724558773e-25
-0.47813510887499433	-8.340638954845462e-25
-0.47807407371874433	-1.0237014231940836e-24
-0.47801303856249433	-1.2118688601327575e-24
-0.47795200340624433	-1.3982727560176756e-24
-0.47789096824999433	-1.5826362530986706e-24
-0.47782993309374433	-1.7646875448254557e-24
-0.47776889793749433	-1.9441412581380103e-24
-0.47770786278124433	-2.1207208463588067e-24
-0.47764682762499433	-2.2941690304240053e-24
-0.47758579246874433	-2.46422353408544e-24
-0.47752475731249433	-2.630617867765173e-24
-0.47746372215624433	-2.793101076993315e-24
-0.47740268699999433	-2.9514307840646387e-24
-0.47734165184374433	-3.1053647342330738e-24
-0.47728061668749433	-3.2546669340489955e-24
-0.47721958153124433	-3.399110965828002e-24
-0.47715854637499433	-3.538477719063896e-24
-0.47709751121874433	-3.672553707406426e-24
-0.47703647606249433	-3.8011354983794976e-24
-0.47697544090624433	-3.9240293127080275e-24
-0.47691440574999433	-4.041045653213329e-24
-0.47685337059374433	-4.1520028137625325e-24
-0.47679233543749433	-4.256733051710819e-24
-0.47673130028124433	-4.355079988025194e-24
-0.47667026512499433	-4.446891980385728e-24
-0.47660922996874433	-4.532024943182124e-24
-0.47654819481249433	-4.610349544153755e-24
-0.47648715965624433	-4.681747094013028e-24
-0.47642612449999433	-4.746106928730106e-24
-0.47636508934374433	-4.8033306296775854e-24
-0.47630405418749433	-4.8533295670940744e-24
-0.47624301903124433	-4.896025366504653e-24
-0.47618198387499433	-4.9313527432522894e-24
-0.47612094871874433	-4.959256679371032e-24
-0.47605991356249433	-4.979692819071678e-24
-0.47599887840624433	-4.9926289194946984e-24
-0.47593784324999433	-4.9980438431044975e-24
-0.47587680809374433	-4.995927792673439e-24
-0.47581577293749433	-4.986282786374721e-24
-0.47575473778124433	-4.969121637946986e-24
-0.47569370262499433	-4.944468196856611e-24
-0.47563266746874433	-4.912360193350226e-24
-0.47557163231249433	-4.872845798154035e-24
-0.47551059715624433	-4.825980441062764e-24
-0.47544956199999433	-4.7718340501431735e-24
-0.47538852684374433	-4.710490878610081e-24
-0.47532749168749433	-4.642042442399336e-24
-0.47526645653124433	-4.566589552405788e-24
-0.47520542137499433	-4.484244969883103e-24
-0.47514438621874433	-4.395133192787643e-24
-0.47508335106249433	-4.299391616085275e-24
-0.47502231590624433	-4.197164587383105e-24
-0.47496128074999433	-4.088601177506156e-24
-0.47490024559374433	-3.973867083014762e-24
-0.47483921043749433	-3.853141327470468e-24
-0.47477817528124433	-3.726603239872037e-24
-0.47471714012499433	-3.594440765149776e-24
-0.47465610496874433	-3.456858330025084e-24
-0.47459506981249433	-3.3140664123532044e-24
-0.47453403465624433	-3.1662769527670265e-24
-0.47447299949999433	-3.0137144065825313e-24
-0.47441196434374433	-2.8566141901167683e-24
-0.47435092918749433	-2.6952131544522602e-24
-0.47428989403124433	-2.5297558180470938e-24
-0.47422885887499433	-2.3604934248850235e-24
-0.47416782371874433	-2.1876825469535666e-24
-0.47410678856249433	-2.0115898920918462e-24
-0.47404575340624433	-1.8324825721919934e-24
-0.47398471824999433	-1.6506283119906865e-24
-0.47392368309374433	-1.4663052684792138e-24
-0.47386264793749433	-1.2797988340939864e-24
-0.47380161278124433	-1.0913931695951468e-24
-0.47374057762499433	-9.013712718825594e-25
-0.47367954246874433	-7.100215065537887e-25
-0.47361850731249433	-5.176367514973591e-25
-0.47355747215624433	-3.245148144838597e-25
-0.47349643699999433	-1.3095204626964542e-25
-0.47343540184374433	6.276415482750084e-26
-0.47337436668749433	2.5633909511106064e-25
-0.47331333153124433	4.494697013256642e-25
-0.47325229637499433	6.41862136936332e-25
-0.47319126121874433	8.332250025412215e-25
-0.47313022606249433	1.0232644837993436e-24
-0.47306919090624433	1.211692647295147e-24
-0.47300815574999433	1.3982208222880745e-24
-0.47294712059374433	1.582559792746669e-24
-0.47288608543749433	1.7644296824345133e-24
-0.47282505028124433	1.943554127326424e-24
-0.47276401512499433	2.1196572446139355e-24
-0.47270297996874433	2.2924713516832373e-24
-0.47264194481249433	2.461730197530867e-24
-0.47258090965624433	2.627169114961954e-24
-0.47251987449999433	2.7885415992618386e-24
-0.47245883934374433	2.9456054397057612e-24
-0.47239780418749433	3.098110152078909e-24
-0.47233676903124433	3.2458192881401245e-24
