Time	Frequency
-0.5000279994375063	-0.326841074706612
-0.4999669642812563	-0.30782334280978335
-0.4999059291250063	-0.2883055921580292
-0.4998448939687563	-0.26832136741008983
-0.4997838588125063	-0.24790477535685562
-0.4997228236562563	-0.22708975941664336
-0.4996617885000063	-0.20591151716311124
-0.4996007533437563	-0.1844069936295926
-0.4995397181875063	-0.16261284813269197
-0.4994786830312563	-0.14056519139410906
-0.4994176478750063	-0.11830174933945659
-0.4993566127187563	-0.09586105369010885
-0.4992955775625063	-0.07328081124503041
-0.4992345424062563	-0.050599313318275566
-0.4991735072500063	-0.027855518304830327
-0.4991124720937563	-0.005088030564778372
-0.4990514369375063	0.017664455302550272
-0.4989904017812563	0.040363208425144396
-0.4989293666250063	0.06296991837376134
-0.4988683314687563	0.08544584098233866
-0.4988072963125063	0.10775209526588293
-0.4987462611562563	0.12985112553817707
-0.4986852260000063	0.1517058865079085
-0.4986241908437563	0.17327897675256287
-0.4985631556875063	0.19453315583054265
-0.4985021205312563	0.21543234534586683
-0.4984410853750063	0.23594121234616666
-0.4983800502187563	0.25602455474084435
-0.4983190150625063	0.2756486817032059
-0.4982579799062563	0.2947801266020902
-0.4981969447500063	0.3133855424311934
-0.4981359095937563	0.33143389995217765
-0.4980748744375063	0.3488948597395373
-0.4980138392812563	0.36573802404575184
-0.4979528041250063	0.3819348191644741
-0.4978917689687563	0.3974582340578357
-0.4978307338125063	0.4122814206647308
-0.4977696986562563	0.4263790881510675
-0.4977086635000063	0.4397280002479702
-0.4976476283437563	0.45230502144878965
-0.4975865931875063	0.46408844178737574
-0.4975255580312563	0.4750588826604084
-0.4974645228750063	0.4851977731256357
-0.4974034877187563	0.49448773874943597
-0.4973424525625063	0.5029130870977607
-0.4972814174062563	0.5104596809175003
-0.4972203822500063	0.5171149266074409
-0.4971593470937563	0.5228675616879822
-0.4970983119375063	0.5277079765088226
-0.4970372767812563	0.5316282494331015
-0.4969762416250063	0.5346218101074763
-0.4969152064687563	0.5366838084872534
-0.4968541713125063	0.5378111044009752
-0.4967931361562563	0.5380020035505731
-0.4967321010000063	0.5372564880432984
-0.4966710658437563	0.5355760926747131
-0.4966100306875063	0.5329639795409115
-0.4965489955312563	0.5294250848760244
-0.4964879603750063	0.5249658632147175
-0.4964269252187563	0.519594180290552
-0.4963658900625063	0.5133195352173853
-0.4963048549062563	0.5061531257640647
-0.4962438197500063	0.4981076622844852
-0.4961827845937563	0.4891974664062906
-0.4961217494375063	0.47943810135552034
-0.4960607142812563	0.46884647901539916
-0.4959996791250063	0.4574414213341692
-0.4959386439687563	0.44524301389350096
-0.4958776088125063	0.4322725218797834
-0.4958165736562563	0.4185526956448335
-0.4957555385000063	0.4041074885693602
-0.4956945033437563	0.3889621739674225
-0.4956334681875063	0.373143227001622
-0.4955724330312563	0.3566782256187278
-0.4955113978750063	0.33959620159409176
-0.4954503627187563	0.3219272006210628
-0.4953893275625063	0.3037013989336863
-0.4953282924062563	0.2849505073829387
-0.4952672572500063	0.26570828809053126
-0.4952062220937563	0.24600802544255906
-0.4951451869375063	0.2258836170439892
-0.4950841517812563	0.20537058427303462
-0.4950231166250063	0.18450463166917191
-0.4949620814687563	0.16332227635413787
-0.4949010463125063	0.14186056432768204
-0.4948400111562563	0.1201571343278613
-0.4947789760000063	0.09824985348649484
-0.4947179408437563	0.07617643089889836
-0.4946569056875063	0.0539760572639058
-0.4945958705312563	0.03168776117535064
-0.4945348353750063	0.00935001703506628
-0.4944738002187563	-0.012997735423468932
-0.4944127650625063	-0.03531670146923026
-0.4943517299062563	-0.05756798219887155
-0.4942906947500063	-0.07971197086801551
-0.4942296595937563	-0.10171013004235412
-0.4941686244375063	-0.12352426097594378
-0.4941075892812563	-0.1451156748011413
-0.4940465541250063	-0.16644659498238804
-0.4939855189687563	-0.1874801848846338
-0.4939244838125063	-0.20817887959283277
-0.4938634486562563	-0.22850610880553457
-0.4938024135000063	-0.24842688002575866
-0.4937413783437563	-0.26790588264064996
-0.4936803431875063	-0.2869088295206686
-0.4936193080312563	-0.3054022978164355
-0.4935582728750063	-0.32335333848756737
-0.4934972377187563	-0.34073080518638954
-0.4934362025625063	-0.3575041630201677
-0.4933751674062563	-0.37364336453567387
-0.4933141322500063	-0.3891199812166002
-0.4932530970937563	-0.40390664910182345
-0.4931920619375063	-0.4179771139067184
-0.4931310267812563	-0.4313066195379678
-0.4930699916250063	-0.44387137789891984
-0.4930089564687563	-0.4556489623677314
-0.4929479213125063	-0.46661853384543545
-0.4928868861562563	-0.4767601978062459
-0.4928258510000063	-0.486055688986531
-0.4927648158437563	-0.4944887758277619
-0.4927037806875063	-0.5020443278107635
-0.4926427455312563	-0.5087081492915394
-0.4925817103750063	-0.5144678969633205
-0.4925206752187563	-0.5193134120730696
-0.4924596400625063	-0.5232359070635135
-0.4923986049062563	-0.5262277052634441
-0.4923375697500063	-0.5282828600261354
-0.4922765345937563	-0.529397325028502
-0.4922154994375063	-0.5295686863699266
-0.4921544642812563	-0.5287960156669963
-0.4920934291250063	-0.5270800506441143
-0.4920323939687563	-0.5244232663449652
-0.4919713588125063	-0.5208296014635533
-0.4919103236562563	-0.5163046429148901
-0.4918492885000063	-0.5108559006296615
-0.4917882533437563	-0.5044923577318962
-0.4917272181875063	-0.4972243024164788
-0.4916661830312563	-0.48906371398264786
-0.4916051478750063	-0.4800244261630496
-0.4915441127187563	-0.4701218593422681
-0.4914830775625063	-0.45937241397918255
-0.4914220424062563	-0.44779406630928686
-0.4913610072500063	-0.43540688279909684
-0.4912999720937563	-0.4222319284667309
-0.4912389369375063	-0.4082912435544858
-0.4911779017812563	-0.3936085861454711
-0.4911168666250063	-0.3782094422058577
-0.4910558314687563	-0.3621203970978536
-0.4909947963125063	-0.34536854221555585
-0.4909337611562563	-0.3279821088782966
-0.4908727260000063	-0.3099915706867305
-0.4908116908437563	-0.2914285284619184
-0.4907506556875063	-0.27232404646150793
-0.4906896205312563	-0.2527106799663321
-0.4906285853750063	-0.23262307533115992
-0.4905675502187563	-0.21209576877925232
-0.4905065150625063	-0.19116395557602728
-0.4904454799062563	-0.1698637661906856
-0.4903844447500063	-0.1482319175816627
-0.4903234095937563	-0.12630658907314118
-0.4902623744375063	-0.10412548269323105
-0.4902013392812563	-0.08172612984307846
-0.4901403041250063	-0.0591480397478919
-0.4900792689687563	-0.03643084855323332
-0.4900182338125063	-0.01361374054429586
-0.4899571986562563	0.009263806730379458
-0.4898961635000063	0.0321622299914317
-0.4898351283437563	0.05504155286730829
-0.4897740931875063	0.07786161063745721
-0.4897130580312563	0.10058268148435151
-0.4896520228750063	0.12316514948123967
-0.4895909877187563	0.14556973300837897
-0.4895299525625063	0.16775760999454817
-0.4894689174062563	0.18968952205127299
-0.4894078822500063	0.2113271307915845
-0.4893468470937563	0.23263285150349064
-0.4892858119375063	0.25356906706360793
-0.4892247767812563	0.27409919761685636
-0.4891637416250063	0.2941869013831618
-0.4891027064687563	0.31379713059212017
-0.4890416713125063	0.33289622568514077
-0.4889806361562563	0.3514497015554853
-0.4889196010000063	0.36942403961490844
-0.4888585658437563	0.3867882263301948
-0.4887975306875063	0.40351244168098727
-0.4887364955312563	0.41956696778969976
-0.4886754603750063	0.43492234665089763
-0.4886144252187563	0.44955105366845843
-0.4885533900625063	0.4634279541009806
-0.4884923549062563	0.4765286655863044
-0.4884313197500063	0.4888292981079884
-0.4883702845937563	0.5003076184576079
-0.4883092494375063	0.510942973849337
-0.4882482142812563	0.5207163229974372
-0.4881871791250063	0.5296103351866905
-0.4881261439687563	0.5376085818929196
-0.4880651088125063	0.5446961680114824
-0.4880040736562563	0.5508603111544146
-0.4879430385000063	0.5560895676785743
-0.4878820033437563	0.5603738838858666
-0.4878209681875063	0.5637050899320725
-0.4877599330312563	0.5660767142857579
-0.4876988978750063	0.5674837884686427
-0.4876378627187563	0.5679229658844709
-0.4875768275625063	0.5673926351569791
-0.4875157924062563	0.5658930473815793
-0.4874547572500063	0.563426010241254
-0.4873937220937563	0.5599947542867186
-0.4873326869375063	0.5556044331863262
-0.4872716517812563	0.5502620156420321
-0.4872106166250063	0.5439758786311149
-0.4871495814687563	0.5367560741173754
-0.4870885463125063	0.5286144017399731
-0.4870275111562563	0.5195638961368632
-0.4869664760000063	0.5096193863502919
-0.4869054408437563	0.49879791896473286
-0.4868444056875063	0.4871175130428253
-0.4867833705312563	0.4745968366192054
-0.4867223353750063	0.46125670845007155
-0.4866613002187563	0.4471204219645497
-0.4866002650625063	0.4322119106322734
-0.4865392299062563	0.41655547817179817
-0.4864781947500063	0.4001772341438453
-0.4864171595937563	0.3831055860561621
-0.4863561244375063	0.36536995185503107
-0.4862950892812563	0.34699948623938676
-0.4862340541250063	0.32802500752857683
-0.4861730189687563	0.30847972863557965
-0.4861119838125063	0.2883969832214539
-0.4860509486562563	0.2678103513658289
-0.4859899135000063	0.2467548298326113
-0.4859288783437563	0.22526661214675262
-0.4858678431875063	0.20338267288618134
-0.4858068080312563	0.181140223588352
-0.4857457728750063	0.1585769676725643
-0.4856847377187563	0.13573175112552036
-0.4856237025625063	0.11264387961983713
-0.4855626674062563	0.08935268247284436
-0.4855016322500063	0.06589802418610542
-0.4854405970937563	0.04232004725191306
-0.4853795619375063	0.018659409109190395
-0.4853185267812563	-0.005042721969226601
-0.4852574916250063	-0.028746324817782047
-0.4851964564687563	-0.05241133685429707
-0.4851354213125063	-0.07599608951696794
-0.4850743861562563	-0.09945979474666457
-0.4850133510000063	-0.12276264254895118
-0.4849523158437563	-0.14586441623694016
-0.4848912806875063	-0.16872557812444558
-0.4848302455312563	-0.19130665064742214
-0.4847692103750063	-0.21356834644648168
-0.4847081752187563	-0.23547258537677374
-0.4846471400625063	-0.25698173606016533
-0.4845861049062563	-0.2780586954189344
-0.4845250697500063	-0.29866694214657374
-0.4844640345937563	-0.31877086197842425
-0.4844029994375063	-0.3383360525740994
-0.4843419642812563	-0.3573286757622795
-0.4842809291250063	-0.3757157070106855
-0.4842198939687563	-0.39346570842568146
-0.4841588588125063	-0.4105481983323383
-0.4840978236562563	-0.4269331018950462
-0.4840367885000063	-0.44259216140354446
-0.4839757533437563	-0.45749879247821434
-0.4839147181875063	-0.4716272731584671
-0.4838536830312563	-0.4849530536745077
-0.4837926478750063	-0.4974527627258123
-0.4837316127187563	-0.5091049066540569
-0.4836705775625063	-0.519889665226335
-0.4836095424062563	-0.5297884240351474
-0.4835485072500063	-0.5387840929998738
-0.4834874720937563	-0.5468608753049283
-0.4834264369375063	-0.5540047388091333
-0.4833654017812563	-0.5602036716082075
-0.4833043666250063	-0.565447149911524
-0.4832433314687563	-0.5697259899323847
-0.4831822963125063	-0.5730326097597097
-0.4831212611562563	-0.5753614731549103
-0.4830602260000063	-0.5767088408732269
-0.4829991908437563	-0.5770724032317961
-0.4829381556875063	-0.5764514812941497
-0.4828771205312563	-0.5748472529266591
-0.4828160853750063	-0.57226271752452
-0.4827550502187563	-0.5687025207890948
-0.4826940150625063	-0.5641728754979247
-0.4826329799062563	-0.5586816365211204
-0.4825719447500063	-0.5522385674261022
-0.4825109095937563	-0.5448551170764099
-0.4824498744375063	-0.5365442032161534
-0.4823888392812563	-0.5273204761137092
-0.4823278041250063	-0.5171997568433739
-0.4822667689687563	-0.5061995862635327
-0.4822057338125063	-0.49434017961298593
-0.4821446986562563	-0.48164228279187055
-0.4820836635000063	-0.46812703586184795
-0.4820226283437563	-0.45381840150257075
-0.4819615931875063	-0.4387421784043123
-0.4819005580312563	-0.42292461699059164
-0.4818395228750063	-0.4063929061892349
-0.4817784877187563	-0.3891760567507279
-0.4817174525625063	-0.3713047020262551
-0.4816564174062563	-0.3528097282872156
-0.4815953822500063	-0.33372351733212474
-0.4815343470937563	-0.31408003861064804
-0.4814733119375063	-0.2939130412842683
-0.4814122767812563	-0.2732577021944083
-0.4813512416250063	-0.2521510457013246
-0.4812902064687563	-0.23062993491048606
-0.4812291713125063	-0.2087313570593113
-0.4811681361562563	-0.18649353446646394
-0.4811071010000063	-0.1639562476772821
-0.4810460658437563	-0.14115951336121466
-0.4809850306875063	-0.11814220695489007
-0.4809239955312563	-0.09494417494409602
-0.4808629603750063	-0.07160686158385182
-0.4808019252187563	-0.04817159291171612
-0.4807408900625063	-0.024679456255004676
-0.4806798549062563	-0.0011708763355483252
-0.4806188197500063	0.02231324586446147
-0.4805577845937563	0.045730749667750745
-0.4804967494375063	0.06904052258261198
-0.4804357142812563	0.0922023337108067
-0.4803746791250063	0.11517554688472964
-0.4803136439687563	0.1379194783975562
-0.4802526088125063	0.1603940050771296
-0.4801915736562563	0.1825603990076186
-0.4801305385000063	0.20437994839276333
-0.4800695033437563	0.2258134151068738
-0.4800084681875063	0.24682330897116916
-0.4799474330312563	0.26737347305021203
-0.4798863978750063	0.28742775141986426
-0.4798253627187563	0.30695064546577855
-0.4797643275625063	0.3259077494243642
-0.4797032924062563	0.34426603082179047
-0.4796422572500063	0.3619935416333947
-0.4795812220937563	0.3790587968285604
-0.4795201869375063	0.39543177683967706
-0.4794591517812563	0.4110843039958573
-0.4793981166250063	0.42598879979412463
-0.4793370814687563	0.44011851545088826
-0.4792760463125063	0.45344899990334475
-0.4792150111562563	0.465957398800869
-0.4791539760000063	0.47762135476729944
-0.4790929408437563	0.48842032693697945
-0.4790319056875063	0.4983357311466292
-0.4789708705312563	0.5073500411664441
-0.4789098353750063	0.5154474029299864
-0.4788488002187563	0.5226139024314764
-0.4787877650625063	0.5288370752954095
-0.4787267299062563	0.534105942524293
-0.4786656947500063	0.5384113475890222
-0.4786046595937563	0.541745924724459
-0.4785436244375063	0.5441039923765915
-0.4784825892812563	0.5454815045566469
-0.4784215541250063	0.5458761814479931
-0.4783605189687563	0.5452875335457508
-0.4782994838125063	0.5437167659207085
-0.4782384486562563	0.5411669015544951
-0.4781774135000063	0.5376425662230114
-0.4781163783437563	0.5331500746834215
-0.4780553431875063	0.5276977023183198
-0.4779943080312563	0.5212954095187944
-0.4779332728750063	0.513954572355606
-0.4778722377187563	0.5056881463480254
-0.4778112025625063	0.4965112717374959
-0.4777501674062563	0.4864405564995786
-0.4776891322500063	0.47549353588311166
-0.4776280970937563	0.4636900217097527
-0.4775670619375063	0.4510515335986393
-0.4775060267812563	0.4376001791544663
-0.4774449916250063	0.4233598506974775
-0.4773839564687563	0.40835659263347096
-0.4773229213125063	0.39261715258008795
-0.4772618861562563	0.3761691089481585
-0.4772008510000063	0.35904217843891106
-0.4771398158437563	0.34126734309714096
-0.4770787806875063	0.32287600517243037
-0.4770177455312563	0.30390074391035404
-0.4769567103750063	0.2843758758730474
-0.4768956752187563	0.2643366053162588
-0.4768346400625063	0.24381818516207035
-0.4767736049062563	0.22285740993646602
-0.4767125697500063	0.20149220378201826
-0.4766515345937563	0.1797601294607291
-0.4765904994375063	0.15770019729535295
-0.4765294642812563	0.13535282267933357
-0.4764684291250063	0.11275747640658015
-0.4764073939687563	0.08995363179161657
-0.4763463588125063	0.06698276625731801
-0.4762853236562563	0.04388696355236247
-0.4762242885000063	0.020706940814694832
-0.4761632533437563	-0.0025164067941307617
-0.4761022181875063	-0.02574047879712836
-0.4760411830312563	-0.04892366139980447
-0.4759801478750063	-0.07202531448527145
-0.4759191127187563	-0.09500319453254122
-0.4758580775625063	-0.11781557991249476
-0.4757970424062563	-0.14042218599123957
-0.4757360072500063	-0.16278250026146823
-0.4756749720937563	-0.1848558488999848
-0.4756139369375063	-0.20660229824764823
-0.4755529017812563	-0.22798316508932845
-0.4754918666250063	-0.24896017708619278
-0.4754308314687563	-0.26949490967543377
-0.4753697963125063	-0.2895499156816966
-0.4753087611562563	-0.3090897204279326
-0.4752477260000063	-0.32807944652948856
-0.4751866908437563	-0.3464838991119278
-0.4751256556875063	-0.36426954711446696
-0.4750646205312563	-0.3814046844431323
-0.4750035853750063	-0.39785815419524934
-0.4749425502187563	-0.41360002611592
-0.4748815150625063	-0.4286016961376444
-0.4748204799062563	-0.4428357253821525
-0.4747594447500063	-0.4562760967508199
-0.4746984095937563	-0.4688981010055896
-0.4746373744375063	-0.48067880400859475
-0.4745763392812563	-0.4915968016255413
-0.4745153041250063	-0.501631669938515
-0.4744542689687563	-0.5107645632353037
-0.4743932338125063	-0.5189787815624434
-0.4743321986562563	-0.526259281131378
-0.4742711635000063	-0.5325921721212149
-0.4742101283437563	-0.5379652242902859
-0.4741490931875063	-0.5423681976389365
-0.4740880580312563	-0.5457927162653967
-0.4740270228750063	-0.5482320196829423
-0.4739659877187563	-0.5496808171176316
-0.4739049525625063	-0.5501357265179946
-0.4738439174062563	-0.5495953341146542
-0.4737828822500063	-0.5480598659924005
-0.4737218470937563	-0.5455312885452397
-0.4736608119375063	-0.5420133547094024
-0.4735997767812563	-0.5375116302015709
-0.4735387416250063	-0.5320333862597421
-0.4734777064687563	-0.5255875430277956
-0.4734166713125063	-0.5181850113122767
-0.4733556361562563	-0.5098383626982819
-0.4732946010000063	-0.5005615178290348
-0.4732335658437563	-0.4903702264438488
-0.4731725306875063	-0.4792822510805254
-0.4731114955312563	-0.4673167855694514
-0.4730504603750063	-0.4544940165908326
-0.4729894252187563	-0.4408361339607861
-0.4729283900625063	-0.42636747475717135
-0.4728673549062563	-0.41111279736312234
-0.4728063197500063	-0.3950981369537403
-0.4727452845937563	-0.3783521777858966
-0.4726842494375063	-0.3609043697362286
-0.4726232142812563	-0.34278448576284265
-0.4725621791250063	-0.3240242588201222
-0.4725011439687563	-0.3046572230368418
-0.4724401088125063	-0.2847174525880776
-0.4723790736562563	-0.2642393705935856
-0.4723180385000063	-0.24325894965141753
-0.4722570033437563	-0.2218137179165039
-0.4721959681875063	-0.19994130679851907
-0.4721349330312563	-0.17768021515917998
-0.4720738978750063	-0.15507003894020677
-0.4720128627187563	-0.13214996834081377
-0.4719518275625063	-0.10896056214744054
-0.4718907924062563	-0.08554416293547516
-0.4718297572500063	-0.06194171469254416
-0.4717687220937563	-0.03819377146073527
-0.4717076869375063	-0.014343250618553871
-0.4716466517812563	0.009566643046708966
-0.4715856166250063	0.033494270504250453
-0.4715245814687563	0.057397494968578884
-0.4714635463125063	0.08123332458929677
-0.4714025111562563	0.10495918132552062
-0.4713414760000063	0.12853295754638802
-0.4712804408437563	0.15191302942827045
-0.4712194056875063	0.17505753283932773
-0.4711583705312563	0.19792461366750766
-0.4710973353750063	0.22047389584266808
-0.4710363002187563	0.24266564753418463
-0.4709752650625063	0.2644594954738089
-0.4709142299062563	0.28581614948329287
-0.4708531947500063	0.3066981196078256
-0.4707921595937563	0.3270677658613686
-0.4707311244375063	0.3468881711732271
-0.4706700892812563	0.36612432755667645
-0.4706090541250063	0.38474134152240735
-0.4705480189687563	0.40270531707987645
-0.4704869838125063	0.4199846943849133
-0.4704259486562563	0.43654823646512364
-0.4703649135000063	0.4523653294048991
-0.4703038783437563	0.4674075962181856
-0.4702428431875063	0.4816483535483805
-0.4701818080312563	0.495061669245048
-0.4701207728750063	0.5076225288050084
-0.4700597377187563	0.5193082470740693
-0.4699987025625063	0.5300981129805046
-0.4699376674062563	0.5399719251842191
-0.4698766322500063	0.5489111482016878
-0.4698155970937563	0.5568998636669461
-0.4697545619375063	0.5639233554812064
-0.4696935267812563	0.5699680458202541
-0.4696324916250063	0.5750226026653689
-0.4695714564687563	0.5790776239902468
