Time	Frequency
-0.5000066748124965	-0.30295577273674307
-0.4999456396562465	-0.3114284620284248
-0.4998846044999965	-0.3196355483890251
-0.4998235693437465	-0.32756971885610514
-0.4997625341874965	-0.3352236799210342
-0.4997014990312465	-0.34259067134619686
-0.4996404638749965	-0.3496644299083441
-0.4995794287187465	-0.3564386281514253
-0.4995183935624965	-0.36290684370747717
-0.4994573584062465	-0.3690633742444959
-0.4993963232499965	-0.3749030030447564
-0.4993352880937465	-0.380420310654296
-0.4992742529374965	-0.3856102016617782
-0.4992132177812465	-0.390468138430337
-0.4991521826249965	-0.3949897068286077
-0.4990911474687465	-0.39917067766461584
-0.4990301123124965	-0.4030072780261561
-0.4989690771562465	-0.40649607922245684
-0.4989080419999965	-0.4096338000968751
-0.4988470068437465	-0.4124174502893884
-0.4987859716874965	-0.4148444432932812
-0.4987249365312465	-0.4169124971373252
-0.4986639013749965	-0.4186196457679748
-0.4986028662187465	-0.4199641907818728
-0.4985418310624965	-0.4209446827562125
-0.4984807959062465	-0.4215600921516575
-0.4984197607499965	-0.42180975458222697
-0.4983587255937465	-0.4216932231116833
-0.4982976904374965	-0.42121033995014817
-0.4982366552812465	-0.42036133061431863
-0.4981756201249965	-0.4191467603057271
-0.4981145849687465	-0.41756746555277574
-0.4980535498124965	-0.4156246134842798
-0.4979925146562465	-0.4133196888091086
-0.4979314794999965	-0.4106544530597565
-0.4978704443437465	-0.40763105403942784
-0.4978094091874965	-0.4042519487717434
-0.4977483740312465	-0.4005198032979864
-0.4976873388749965	-0.3964376403203316
-0.4976263037187465	-0.392008894976507
-0.4975652685624965	-0.38723723569145885
-0.4975042334062465	-0.38212648898600565
-0.4974431982499965	-0.3766809074607393
-0.4973821630937465	-0.3709051262931157
-0.4973211279374965	-0.3648039556500056
-0.4972600927812465	-0.358382539720005
-0.4971990576249965	-0.35164618359832667
-0.4971380224687465	-0.34460043732334333
-0.4970769873124965	-0.3372514506587154
-0.4970159521562465	-0.3296055537285542
-0.4969549169999965	-0.3216689799801702
-0.4968938818437465	-0.3134483567264276
-0.4968328466874965	-0.3049508648106033
-0.4967718115312465	-0.2961837286534183
-0.4967107763749965	-0.2871543199625949
-0.4966497412187465	-0.2778703500127325
-0.4965887060624965	-0.2683397192019413
-0.4965276709062465	-0.25857058847062386
-0.4964666357499965	-0.24857125339504074
-0.4964056005937465	-0.23835026015982597
-0.4963445654374965	-0.2279164195214747
-0.4962835302812465	-0.21727867045794466
-0.4962224951249965	-0.20644600938129337
-0.4961614599687465	-0.19542767832593674
-0.4961004248124965	-0.18423342061194994
-0.4960393896562465	-0.1728727350011109
-0.4959783544999965	-0.16135505823356136
-0.4959173193437465	-0.1496905597595959
-0.4958562841874965	-0.13788945154988683
-0.4957952490312465	-0.12596167252018706
-0.4957342138749965	-0.11391739082298015
-0.4956731787187465	-0.10176708096786755
-0.4956121435624965	-0.08952131859292219
-0.4955511084062465	-0.07719060614019037
-0.4954900732499965	-0.0647855737804334
-0.4954290380937465	-0.05231689287360069
-0.4953680029374965	-0.03979525158842669
-0.4953069677812465	-0.027231721699225556
-0.4952459326249965	-0.014637073242309942
-0.4951848974687465	-0.002021968856399205
-0.4951238623124965	0.010602369694543777
-0.4950628271562465	0.023225076550449253
-0.4950017919999965	0.035835437714856075
-0.4949407568437465	0.04842231403013227
-0.4948797216874965	0.06097477267556338
-0.4948186865312465	0.07348199491097336
-0.4947576513749965	0.08593313406129266
-0.4946966162187465	0.09831751772274916
-0.4946355810624965	0.11062419826489929
-0.4945745459062465	0.12284236318386982
-0.4945135107499965	0.1349616703168061
-0.4944524755937465	0.14697158679254527
-0.4943914404374965	0.1588615392182026
-0.4943304052812465	0.1706210551367136
-0.4942693701249965	0.18223997442362702
-0.4942083349687465	0.19370850544677212
-0.4941472998124965	0.20501645021243814
-0.4940862646562465	0.2161535494852968
-0.4940252294999965	0.2271103881081332
-0.4939641943437465	0.23787782405102031
-0.4939031591874965	0.24844608195874862
-0.4938421240312465	0.2588056081077435
-0.4937810888749965	0.2689477058075865
-0.4937200537187465	0.27886364972827643
-0.4936590185624965	0.28854464716203415
-0.4935979834062465	0.2979821168921194
-0.4935369482499965	0.3071676412008469
-0.4934759130937465	0.3160934448003081
-0.4934148779374965	0.3247519561733648
-0.4933538427812465	0.3331351313241853
-0.4932928076249965	0.3412354550380172
-0.4932317724687465	0.34904629021453065
-0.4931707373124965	0.3565607864612371
-0.4931097021562465	0.3637720074314167
-0.4930486669999965	0.3706736454005662
-0.4929876318437465	0.3772597238216187
-0.4929265966874965	0.3835244841127611
-0.4928655615312465	0.38946245236013805
-0.4928045263749965	0.39506821121593877
-0.4927434912187465	0.40033671579051744
-0.4926824560624965	0.4052634871139939
-0.4926214209062465	0.4098442737113928
-0.4925603857499965	0.4140748573264975
-0.4924993505937465	0.4179513131707718
-0.4924383154374965	0.4214703451076188
-0.4923772802812465	0.4246289105632001
-0.4923162451249965	0.42742404089058766
-0.4922552099687465	0.4298532146806575
-0.4921941748124965	0.43191428787197544
-0.4921331396562465	0.43360535563562325
-0.4920721044999965	0.434924856017751
-0.4920110693437465	0.4358715796607622
-0.4919500341874965	0.4364446237671873
-0.4918889990312465	0.43664339551198017
-0.4918279638749965	0.4364676380895733
-0.4917669287187465	0.43591742149412166
-0.4917058935624965	0.43499315218221496
-0.4916448584062465	0.43369558672315944
-0.4915838232499965	0.43202576507563023
-0.4915227880937465	0.4299850231346322
-0.4914617529374965	0.4275750985530454
-0.4914007177812465	0.4247980605318935
-0.4913396826249965	0.42165622646370077
-0.4912786474687465	0.4181522301326604
-0.4912176123124965	0.4142890834840307
-0.4911565771562465	0.4100701401383276
-0.4910955419999965	0.4054989761673209
-0.4910345068437465	0.4005794575711585
-0.4909734716874965	0.39531590511980863
-0.4909124365312465	0.38971287862546616
-0.4908514013749965	0.3837750574057307
-0.4907903662187465	0.3775076557921753
-0.4907293310624965	0.3709162201897981
-0.4906682959062465	0.3640062355077138
-0.4906072607499965	0.356783730359292
-0.4905462255937465	0.34925512848597173
-0.4904851904374965	0.34142679314610735
-0.4904241552812465	0.33330556044668086
-0.4903631201249965	0.3248985047535686
-0.4903020849687465	0.31621285080271927
-0.4902410498124965	0.3072562861383225
-0.4901800146562465	0.29803655639295673
-0.4901189794999965	0.28856164716561683
-0.4900579443437465	0.2788397851407964
-0.4899969091874965	0.26887937654009203
-0.4899358740312465	0.25868934947581396
-0.4898748388749965	0.24827856635374204
-0.4898138037187465	0.23765578933457485
-0.4897527685624965	0.226830416085075
-0.4896917334062465	0.21581214124693363
-0.4896306982499965	0.2046104334071217
-0.4895696630937465	0.19323495356732903
-0.4895086279374965	0.1816957535805088
-0.4894475927812465	0.17000302072844137
-0.4893865576249965	0.15816689637709688
-0.4893255224687465	0.14619756630060954
-0.4892644873124965	0.13410573581941496
-0.4892034521562465	0.12190207894057689
-0.4891424169999965	0.10959697213964652
-0.4890813818437465	0.09720131397592703
-0.4890203466874965	0.08472612703878067
-0.4889593115312465	0.07218223592230603
-0.4888982763749965	0.05958059449387847
-0.4888372412187465	0.04693220073153299
-0.4887762060624965	0.03424825883515826
-0.4887151709062465	0.021540086017832787
-0.4886541357499965	0.008818663504989378
-0.4885931005937465	-0.0039050638831316406
-0.4885320654374965	-0.016619776452640754
-0.4884710302812465	-0.029314152156488738
-0.4884099951249965	-0.041976926136837435
-0.4883489599687465	-0.05459703445640288
-0.4882879248124965	-0.06716382350688284
-0.4882268896562465	-0.07966609240158745
-0.4881658544999965	-0.0920923708119796
-0.4881048193437465	-0.10443186057562058
-0.4880437841874965	-0.11667386720832416
-0.4879827490312465	-0.12880775146767054
-0.4879217138749965	-0.14082283819553212
-0.4878606787187465	-0.15270814747119946
-0.4877996435624965	-0.16445322748313398
-0.4877386084062465	-0.17604806526586042
-0.4876775732499965	-0.18748237766993484
-0.4876165380937465	-0.19874593595160495
-0.4875555029374965	-0.2098287897385583
-0.4874944677812465	-0.22072115105852352
-0.4874334326249965	-0.2314135175907716
-0.4873723974687465	-0.24189649805895266
-0.4873113623124965	-0.2521606169147599
-0.4872503271562465	-0.26219676803356823
-0.4871892919999965	-0.2719963713727525
-0.4871282568437465	-0.2815507205720293
-0.4870672216874965	-0.2908510842488018
-0.4870061865312465	-0.2998893321924172
-0.4869451513749965	-0.30865762960055715
-0.4868841162187465	-0.31714814550290354
-0.4868230810624965	-0.32535328180610207
-0.4867620459062465	-0.3332657951688352
-0.4867010107499965	-0.34087870311927304
-0.4866399755937465	-0.3481852084323188
-0.4865789404374965	-0.35517885637533675
-0.4865179052812465	-0.36185350371604785
-0.4864568701249965	-0.3682031309568019
-0.4863958349687465	-0.37422205257061164
-0.4863347998124965	-0.3799050481615382
-0.4862737646562465	-0.385247043446063
-0.4862127294999965	-0.3902431864096736
-0.4861516943437465	-0.39488909959819485
-0.4860906591874965	-0.39918065176856415
-0.4860296240312465	-0.40311395903650254
-0.4859685888749965	-0.4066855632345745
-0.4859075537187465	-0.40989228363777386
-0.4858465185624965	-0.41273117699060613
-0.4857854834062465	-0.4151997211442779
-0.4857244482499965	-0.4172957747855125
-0.4856634130937465	-0.41901739609919225
-0.4856023779374965	-0.4203629714689401
-0.4855413427812465	-0.42133134321419274
-0.4854803076249965	-0.42192164895737116
-0.4854192724687465	-0.42213328337808526
-0.4853582373124965	-0.4219660136002966
-0.4852972021562465	-0.4214199951240218
-0.4852361669999965	-0.42049569378243323
-0.4851751318437465	-0.4191938617419445
-0.4851140966874965	-0.4175156234636167
-0.4850530615312465	-0.41546246095257483
-0.4849920263749965	-0.4130361503313945
-0.4849309912187465	-0.4102388346695559
-0.4848699560624965	-0.4070729777088724
-0.4848089209062465	-0.40354130565561475
-0.4847478857499965	-0.39964696934837374
-0.4846868505937465	-0.3953934217549489
-0.4846258154374965	-0.39078434871747136
-0.4845647802812465	-0.385823876873548
-0.4845037451249965	-0.38051638942366023
-0.4844427099687465	-0.3748665426967593
-0.4843816748124965	-0.36887937021772255
-0.4843206396562465	-0.36256010353008394
-0.4842596044999965	-0.35591439879352244
-0.4841985693437465	-0.3489482651559382
-0.4841375341874965	-0.3416676738420331
-0.4840764990312465	-0.33407901058549516
-0.4840154638749965	-0.32618930812263497
-0.4839544287187465	-0.31800555408403725
-0.4838933935624965	-0.3095347132826683
-0.4838323584062465	-0.3007844138234082
-0.4837713232499965	-0.29176266744407253
-0.4837102880937465	-0.2824773482369996
-0.4836492529374965	-0.2729366286659585
-0.4835882177812465	-0.26314907011733624
-0.4835271826249965	-0.2531234060191851
-0.4834661474687465	-0.2428685802937391
-0.4834051123124965	-0.23239368269350974
-0.4833440771562465	-0.22170813026083092
-0.4832830419999965	-0.2108213365706094
-0.4832220068437465	-0.1997428792208923
-0.4831609716874965	-0.18848301895417335
-0.4830999365312465	-0.17705184980383695
-0.4830389013749965	-0.1654590117020755
-0.4829778662187465	-0.15371488633988237
-0.4829168310624965	-0.14183072889056675
-0.4828557959062465	-0.12981694609411856
-0.4827947607499965	-0.11768351296173735
-0.4827337255937465	-0.10544166538845123
-0.4826726904374965	-0.09310285755814074
-0.4826116552812465	-0.08067782675990762
-0.4825506201249965	-0.06817740849620393
-0.4824895849687465	-0.05561299771507194
-0.4824285498124965	-0.04299598414310681
-0.4823675146562465	-0.03033752827920655
-0.4823064794999965	-0.01764896901384841
-0.4822454443437465	-0.004941759911482683
-0.4821844091874965	0.00777264903257712
-0.4821233740312465	0.02048291944961324
-0.4820623388749965	0.033177720009613415
-0.4820013037187465	0.045845611382484296
-0.4819402685624965	0.05847516046067473
-0.4818792334062465	0.07105481042846912
-0.4818181982499965	0.08357336478062069
-0.4817571630937465	0.0960199710939001
-0.4816961279374965	0.1083831479552766
-0.4816350927812465	0.12065136323756358
-0.4815740576249965	0.13281390626118889
-0.4815130224687465	0.14485998558217345
-0.4814519873124965	0.15677846741008164
-0.4813909521562465	0.16855866543706413
-0.4813299169999965	0.18019008845428644
-0.4812688818437465	0.19166195509317063
-0.4812078466874965	0.20296379652127
-0.4811468115312465	0.21408587253809108
-0.4810857763749965	0.2250180970776267
-0.4810247412187465	0.23575001666029674
-0.4809637060624965	0.2462720417229829
-0.4809026709062465	0.25657499619479024
-0.4808416357499965	0.2666494616298865
-0.4807806005937465	0.2764861084259276
-0.4807195654374965	0.2860758867284487
-0.4806585302812465	0.29541015183196623
-0.4805974951249965	0.30448063273465753
-0.4805364599687465	0.31327896011979955
-0.4804754248124965	0.3217968688018921
-0.4804143896562465	0.33002673611271144
-0.4803533544999965	0.33796111101190124
-0.4802923193437465	0.34559261515304035
-0.4802312841874965	0.3529142959814462
-0.4801702490312465	0.35991941392336263
-0.4801092138749965	0.3666014293283689
-0.4800481787187465	0.3729542885774046
-0.4799871435624965	0.3789722558929967
-0.4799261084062465	0.38464955156818176
-0.4798650732499965	0.389980759000477
-0.4798040380937465	0.39496116416451854
-0.4797430029374965	0.39958626749193266
-0.4796819677812465	0.40385151867338553
-0.4796209326249965	0.40775273478380697
-0.4795598974687465	0.4112863873993038
-0.4794988623124965	0.4144492429128463
-0.4794378271562465	0.41723818848630856
-0.4793767919999965	0.4196504570334462
-0.4793157568437465	0.4216836721356583
-0.4792547216874965	0.42333583714154854
-0.4791936865312465	0.424605323158629
-0.4791326513749965	0.4254907703324638
-0.4790716162187465	0.4259911229833463
-0.4790105810624965	0.42610574173902455
-0.4789495459062465	0.4258343476598381
-0.4788885107499965	0.4251769576775775
-0.4788274755937465	0.42413393328065563
-0.4787664404374965	0.4227060262543412
-0.4787054052812465	0.42089432346078504
-0.4786443701249965	0.4187001949572008
-0.4785833349687465	0.41612540336820125
-0.4785222998124965	0.4131721026078489
-0.4784612646562465	0.40984270138942036
-0.4784002294999965	0.40613993189266623
-0.4783391943437465	0.40206697871525837
-0.4782781591874965	0.3976273025393662
-0.4782171240312465	0.3928245907965745
-0.4781560888749965	0.3876630129566562
-0.4780950537187465	0.3821470299625655
-0.4780340185624965	0.37628130201771526
-0.4779729834062465	0.37007095306682114
-0.4779119482499965	0.36352136381320593
-0.4778509130937465	0.3566381942362788
-0.4777898779374965	0.3494275117396111
-0.4777288427812465	0.34189544708068964
-0.4776678076249965	0.33404852866792895
-0.4776067724687465	0.3258939235718078
-0.4775457373124965	0.31743870990683487
-0.4774847021562465	0.30868994526388954
-0.4774236669999965	0.29965545328411763
-0.4773626318437465	0.29034345063817346
-0.4773015966874965	0.2807619438709041
-0.4772405615312465	0.2709193055449814
-0.4771795263749965	0.26082432366535285
-0.4771184912187465	0.2504857070582797
-0.4770574560624965	0.23991267903347444
-0.4769964209062465	0.2291149132898919
-0.4769353857499965	0.21810165461170067
-0.4768743505937465	0.2068823917769831
-0.4768133154374965	0.19546739838542918
-0.4767522802812465	0.18386695542491066
-0.4766912451249965	0.1720910853411269
-0.4766302099687465	0.16015016877907312
-0.4765691748124965	0.14805506285793119
-0.4765081396562465	0.1358163042267155
-0.4764471044999965	0.12344474636465308
-0.4763860693437465	0.11095184785364011
-0.4763250341874965	0.09834838657938676
-0.4762639990312465	0.08564527290407369
-0.4762029638749965	0.07285423325008666
-0.4761419287187465	0.05998680507864091
-0.4760808935624965	0.04705433912481364
-0.4760198584062465	0.03406825784738358
-0.4759588232499965	0.021040009895282107
-0.4758977880937465	0.007981426551143415
-0.4758367529374965	-0.005095474313644329
-0.4757757177812465	-0.018179205309399628
-0.4757146826249965	-0.031258446242274286
-0.4756536474687465	-0.04432129811455272
-0.4755926123124965	-0.05735572790576477
-0.4755315771562465	-0.07035017715044652
-0.4754705419999965	-0.08329316278738105
-0.4754095068437465	-0.09617299123506357
-0.4753484716874965	-0.1089781105420368
-0.4752874365312465	-0.1216970109177764
-0.4752264013749965	-0.13431814625606434
-0.4751653662187465	-0.1468302311730819
-0.4751043310624965	-0.15922209165761156
-0.4750432959062465	-0.17148253339625832
-0.4749822607499965	-0.1836004676027554
-0.4749212255937465	-0.1955649332209828
-0.4748601904374965	-0.2073652033433957
-0.4747991552812465	-0.2189907143472714
-0.4747381201249965	-0.2304308371115594
-0.4746770849687465	-0.24167513310271163
-0.4746160498124965	-0.2527136621086778
-0.4745550146562465	-0.26353654688950284
-0.4744939794999965	-0.27413366296679453
-0.4744329443437465	-0.284495330652257
-0.4743719091874965	-0.2946125283067159
-0.4743108740312465	-0.30447608658379144
-0.4742498388749965	-0.31407676781860333
-0.4741888037187465	-0.32340589412663406
-0.4741277685624965	-0.33245507411047936
-0.4740667334062465	-0.341216059430615
-0.4740056982499965	-0.3496808978256563
-0.4739446630937465	-0.3578418414570541
-0.4738836279374965	-0.3656914126344335
-0.4738225927812465	-0.3732224279665422
-0.4737615576249965	-0.38042799048669773
-0.4737005224687465	-0.3873015509308683
-0.4736394873124965	-0.3938368394671686
-0.4735784521562465	-0.40002778450250825
-0.4735174169999965	-0.4058686211790318
-0.4734563818437465	-0.4113539819445257
-0.4733953466874965	-0.41647891596556935
-0.4733343115312465	-0.4212386841850573
-0.4732732763749965	-0.4256286665025461
-0.4732122412187465	-0.4296448047846252
-0.4731512060624965	-0.43328350959891865
-0.4730901709062465	-0.43654128860573177
-0.4730291357499965	-0.43941496539897407
-0.4729681005937465	-0.44190185257807796
-0.4729070654374965	-0.44399960563994734
-0.4728460302812465	-0.4457061325886811
-0.4727849951249965	-0.44701972511212335
-0.4727239599687465	-0.4479390930068803
-0.4726629248124965	-0.44846324161356627
-0.4726018896562465	-0.44859149876450016
-0.4725408544999965	-0.4483235962225378
-0.4724798193437465	-0.4476596448501954
-0.4724187841874965	-0.44660007519741596
-0.4723577490312465	-0.4451456557818832
-0.4722967138749965	-0.4432975450315573
-0.4722356787187465	-0.44105724915294797
-0.4721746435624965	-0.438426613491822
-0.4721136084062465	-0.43540786364420125
-0.4720525732499965	-0.4320035512382873
-0.4719915380937465	-0.4282165454096204
-0.4719305029374965	-0.4240501294365301
-0.4718694677812465	-0.41950794976039224
-0.4718084326249965	-0.414593855564446
-0.4717473974687465	-0.40931207242641493
-0.4716863623124965	-0.4036673560634425
-0.4716253271562465	-0.39766461753553034
-0.4715642919999965	-0.3913089433056946
-0.4715032568437465	-0.38460597877550273
-0.4714422216874965	-0.37756175445644197
-0.4713811865312465	-0.370182435741832
-0.4713201513749965	-0.36247434613564855
-0.4712591162187465	-0.35444433174844947
-0.4711980810624965	-0.3460997080203554
-0.4711370459062465	-0.3374477045553587
-0.4710760107499965	-0.3284958978314049
-0.4710149755937465	-0.3192524019952074
-0.4709539404374965	-0.3097253050788057
-0.4708929052812465	-0.2999230094837016
-0.4708318701249965	-0.28985440953282116
-0.4707708349687465	-0.2795283801741482
-0.4707097998124965	-0.26895404025655406
-0.4706487646562465	-0.258140898516335
-0.4705877294999965	-0.2470984798469151
-0.4705266943437465	-0.23583672832267205
-0.4704656591874965	-0.22436577314221642
-0.4704046240312465	-0.21269566458178346
-0.4703435888749965	-0.20083699431992433
-0.4702825537187465	-0.18880025443008233
-0.4702215185624965	-0.1765960041974808
-0.4701604834062465	-0.16423566491153338
-0.4700994482499965	-0.15173028579515402
-0.4700384130937465	-0.13909040878037088
-0.4699773779374965	-0.12632758120984294
-0.4699163427812465	-0.11345386460227075
-0.4698553076249965	-0.10048043480873392
-0.4697942724687465	-0.08741851637432722
-0.4697332373124965	-0.07428022957389961
