Time	Frequency
-0.5000600811249996	-2.1685069356269807e-24
-0.49999904596874956	-1.9607172169947997e-24
-0.49993801081249956	-1.750667812245383e-24
-0.49987697565624956	-1.5385738432668411e-24
-0.49981594049999956	-1.3246667458840354e-24
-0.49975490534374956	-1.1091854919843089e-24
-0.49969387018749956	-8.923576670682312e-25
-0.49963283503124956	-6.744111163293768e-25
-0.49957179987499956	-4.555815568518573e-25
-0.49951076471874956	-2.361114184285019e-25
-0.49944972956249956	-1.6236280455349172e-26
-0.49938869440624956	2.0381191877988034e-25
-0.49932765924999956	4.237921015699638e-25
-0.49926662409374956	6.434642311198833e-25
-0.49920558893749956	8.625970981980101e-25
-0.49914455378124956	1.0809524431197472e-24
-0.49908351862499956	1.2982872180757764e-24
-0.49902248346874956	1.5143721366263566e-24
-0.49896144831249956	1.7289743498125834e-24
-0.49890041315624956	1.941857173259672e-24
-0.49883937799999956	2.1527946103096205e-24
-0.49877834284374956	2.361557255515791e-24
-0.49871730768749956	2.567913776095544e-24
-0.49865627253124956	2.7716415621156524e-24
-0.49859523737499956	2.97252448555919e-24
-0.49853420221874956	3.170344826063913e-24
-0.49847316706249956	3.36488236947804e-24
-0.49841213190624956	3.555924851675863e-24
-0.49835109674999956	3.743267477681253e-24
-0.49829006159374956	3.926707413991788e-24
-0.49822902643749956	4.1060466100193295e-24
-0.49816799128124956	4.281085639264589e-24
-0.49810695612499956	4.451630604134987e-24
-0.49804592096874956	4.617504715892309e-24
-0.49798488581249956	4.778522672982374e-24
-0.49792385065624956	4.934499960190979e-24
-0.49786281549999956	5.0852803250606366e-24
-0.49780178034374956	5.230700421286826e-24
-0.49774074518749956	5.370583849794547e-24
-0.49767971003124956	5.504781043326345e-24
-0.49761867487499956	5.633160827888409e-24
-0.49755763971874956	5.755575919019615e-24
-0.49749660456249956	5.871878910669112e-24
-0.49743556940624956	5.9819518417897394e-24
-0.49737453424999956	6.085678796266871e-24
-0.49731349909374956	6.182935182759514e-24
-0.49725246393749956	6.2736164797010045e-24
-0.49719142878124956	6.3576283597181436e-24
-0.49713039362499956	6.43487089893646e-24
-0.49706935846874956	6.505257278567334e-24
-0.49700832331249956	6.568715282630777e-24
-0.49694728815624956	6.625170942391138e-24
-0.49688625299999956	6.674558397737902e-24
-0.49682521784374956	6.716825131155895e-24
-0.49676418268749956	6.751922314987486e-24
-0.49670314753124956	6.779808827290008e-24
-0.49664211237499956	6.800452542521443e-24
-0.49658107721874956	6.813828364939454e-24
-0.49652004206249956	6.819920333763707e-24
-0.49645900690624956	6.81871961691573e-24
-0.49639797174999956	6.810224111845256e-24
-0.49633693659374956	6.794440824424977e-24
-0.49627590143749956	6.771385446160633e-24
-0.49621486628124956	6.741080338058516e-24
-0.49615383112499956	6.703556145359282e-24
-0.49609279596874956	6.658851721354789e-24
-0.49603176081249956	6.6070110928845145e-24
-0.49597072565624956	6.548089482012958e-24
-0.49590969049999956	6.482151944687774e-24
-0.49584865534374956	6.409264123322356e-24
-0.49578762018749956	6.329501176312461e-24
-0.49572658503124956	6.242951382068018e-24
-0.49566554987499956	6.149706134753263e-24
-0.49560451471874956	6.049862721039699e-24
-0.49554347956249956	5.943528820419713e-24
-0.49548244440624956	5.830818265097269e-24
-0.49542140924999956	5.711848446602732e-24
-0.49536037409374956	5.586747134924858e-24
-0.49529933893749956	5.4556548459343875e-24
-0.49523830378124956	5.318708185610576e-24
-0.49517726862499956	5.1760450770466556e-24
-0.49511623346874956	5.027827667154001e-24
-0.49505519831249956	4.8742222967759324e-24
-0.49499416315624956	4.715382564772113e-24
-0.49493312799999956	4.551476866254077e-24
-0.49487209284374956	4.382691216222968e-24
-0.49481105768749956	4.2092079771752666e-24
-0.49475002253124956	4.031206336361207e-24
-0.49468898737499956	3.848878650968836e-24
-0.49462795221874956	3.6624305189265416e-24
-0.49456691706249956	3.4720589853380386e-24
-0.49450588190624956	3.277964990200771e-24
-0.49444484674999956	3.0803613209138026e-24
-0.49438381159374956	2.8794607566444075e-24
-0.49432277643749956	2.675488414696755e-24
-0.49426174128124956	2.4686615025758987e-24
-0.49420070612499956	2.2591910282463427e-24
-0.49413967096874956	2.0473153493869255e-24
-0.49407863581249956	1.8332702711797455e-24
-0.49401760065624956	1.617278009030836e-24
-0.49395656549999956	1.399574973800942e-24
-0.49389553034374956	1.1803982650044088e-24
-0.49383449518749956	9.599811533280277e-25
-0.49377346003124956	7.385695482834869e-25
-0.49371242487499956	5.164055037936313e-25
-0.49365138971874956	2.9372504752594578e-25
-0.49359035456249956	7.077053511212236e-26
-0.49352931940624956	-1.5221907475372427e-25
-0.49346828424999956	-3.7499633958402494e-25
-0.49340724909374956	-5.97310033810556e-25
-0.49334621393749956	-8.189286815538406e-25
-0.49328517878124956	-1.0396182390199413e-24
-0.49322414362499956	-1.2591304997603042e-24
-0.49316310846874956	-1.477220104526253e-24
-0.49310207331249956	-1.6936511581846134e-24
-0.49304103815624956	-1.9081951688566303e-24
-0.49298000299999956	-2.1206185593820668e-24
-0.49291896784374956	-2.3306849063265293e-24
-0.49285793268749956	-2.538165017372665e-24
-0.49279689753124956	-2.7428282916379075e-24
-0.49273586237499956	-2.9444537689022483e-24
-0.49267482721874956	-3.1428328128458653e-24
-0.49261379206249956	-3.3377424716697634e-24
-0.49255275690624956	-3.528959038355757e-24
-0.49249172174999956	-3.716275066253543e-24
-0.49243068659374956	-3.899494415570048e-24
-0.49236965143749956	-4.078425285995429e-24
-0.49230861628124956	-4.2528575011369696e-24
-0.49224758112499956	-4.422590771814061e-24
-0.49218654596874956	-4.587456514554267e-24
-0.49212551081249956	-4.747275106751986e-24
-0.49206447565624956	-4.90186094836026e-24
-0.49200344049999956	-5.0510470593564955e-24
-0.49194240534374956	-5.19467347777609e-24
-0.49188137018749956	-5.332580489605015e-24
-0.49182033503124956	-5.464614362057795e-24
-0.49175929987499956	-5.59063309103579e-24
-0.49169826471874956	-5.7104992715083856e-24
-0.49163722956249956	-5.824076829060853e-24
-0.49157619440624956	-5.9312420021872125e-24
-0.49151515924999956	-6.031879935502404e-24
-0.49145412409374956	-6.125876923326394e-24
-0.49139308893749956	-6.213128304877687e-24
-0.49133205378124956	-6.2935392665686425e-24
-0.49127101862499956	-6.36702127983538e-24
-0.49120998346874956	-6.4334932894940156e-24
-0.49114894831249956	-6.492880416828096e-24
-0.49108791315624956	-6.5451161039051854e-24
-0.49102687799999956	-6.5901427970772625e-24
-0.49096584284374956	-6.627911469836303e-24
-0.49090480768749956	-6.658380413826592e-24
-0.49084377253124956	-6.681512668165153e-24
-0.49078273737499956	-6.697281504891393e-24
-0.49072170221874956	-6.705671362981171e-24
-0.49066066706249956	-6.706671983276642e-24
-0.49059963190624956	-6.700280204419243e-24
-0.49053859674999956	-6.686501335973749e-24
-0.49047756159374956	-6.665349725112149e-24
-0.49041652643749956	-6.636849525403182e-24
-0.49035549128124956	-6.601030086482392e-24
-0.49029445612499956	-6.557928353752277e-24
-0.49023342096874956	-6.507592782237381e-24
-0.49017238581249956	-6.4500765446840505e-24
-0.49011135065624956	-6.3854403630629566e-24
-0.49005031549999956	-6.3137578118309085e-24
-0.48998928034374956	-6.2351057445790485e-24
-0.48992824518749956	-6.1495667270143605e-24
-0.48986721003124956	-6.057235593649304e-24
-0.48980617487499956	-5.958214492451137e-24
-0.48974513971874956	-5.8526103688006514e-24
-0.48968410456249956	-5.740536709487245e-24
-0.48962306940624956	-5.622117909549365e-24
-0.48956203424999956	-5.497484131109683e-24
-0.48950099909374956	-5.3667677801538506e-24
-0.48943996393749956	-5.230113611153939e-24
-0.48937892878124956	-5.087676236128848e-24
-0.48931789362499956	-4.939606943696468e-24
-0.48925685846874956	-4.7860625230128445e-24
-0.48919582331249956	-4.627218716651665e-24
-0.48913478815624956	-4.4632527710417305e-24
-0.48907375299999956	-4.2943379631466614e-24
-0.48901271784374956	-4.120659518563468e-24
-0.48895168268749956	-3.942409224209686e-24
-0.48889064753124956	-3.759784408760886e-24
-0.48882961237499956	-3.572989044949024e-24
-0.48876857721874956	-3.382222747318778e-24
-0.48870754206249956	-3.187691427803848e-24
-0.48864650690624956	-2.9896174797785e-24
-0.48858547174999956	-2.788222088090604e-24
-0.48852443659374956	-2.5837172976107815e-24
-0.48846340143749956	-2.376326252681858e-24
-0.48840236628124956	-2.1662856369603766e-24
-0.48834133112499956	-1.9538290333644557e-24
-0.48828029596874956	-1.7391860018841836e-24
-0.48821926081249956	-1.5225877041863506e-24
-0.48815822565624956	-1.3042766830216411e-24
-0.48809719049999956	-1.0845005875324249e-24
-0.48803615534374956	-8.634999705420908e-25
-0.48797512018749956	-6.415133928536436e-25
-0.48791408503124956	-4.187820078448033e-25
-0.48785304987499956	-1.955616254108687e-25
-0.48779201471874956	2.7894435938299753e-26
-0.48773097956249956	2.513561742679404e-25
-0.48766994440624956	4.7457609053314e-25
-0.48760890924999956	6.972892999566726e-25
-0.48754787409374956	9.192588283040345e-25
-0.48748683893749956	1.1402486928572239e-24
-0.48742580378124956	1.360000928760779e-24
-0.48736476862499956	1.5782739536763079e-24
-0.48730373346874956	1.794831720737647e-24
-0.48724269831249956	2.0094264562390077e-24
-0.48718166315624956	2.2218279281116552e-24
-0.48712062799999956	2.4317980354602765e-24
-0.48705959284374956	2.639091100823543e-24
-0.48699855768749956	2.843492220364155e-24
-0.48693752253124956	3.0447791790195605e-24
-0.48687648737499956	3.2427113155489353e-24
-0.48681545221874956	3.437066755407959e-24
-0.48675441706249956	3.627642815665668e-24
-0.48669338190624956	3.814228289645949e-24
-0.48663234674999956	3.9966041494466805e-24
-0.48657131159374956	4.174568556380416e-24
-0.48651027643749956	4.34792776095943e-24
-0.48644924128124956	4.516486343401506e-24
-0.48638820612499956	4.68005259483576e-24
-0.48632717096874956	4.838447181020102e-24
-0.48626613581249956	4.991497534798429e-24
-0.48620510065624956	5.1390238081117736e-24
-0.48614406549999956	5.280856187925525e-24
-0.48608303034374956	5.4168439468653176e-24
-0.48602199518749956	5.546840190385095e-24
-0.48596096003124956	5.670690757283105e-24
-0.48589992487499956	5.788249198458942e-24
-0.48583888971874956	5.899389849696558e-24
-0.48577785456249956	6.00399016319524e-24
-0.48571681940624956	6.101930008825508e-24
-0.48565578424999956	6.1930974754337045e-24
-0.48559474909374956	6.2773843663564175e-24
-0.48553371393749956	6.354696684799047e-24
-0.48547267878124956	6.424952162665213e-24
-0.48541164362499956	6.488066175824794e-24
-0.48535060846874956	6.543961426987275e-24
-0.48528957331249956	6.592576848748479e-24
-0.48522853815624956	6.633857609832353e-24
-0.48516750299999956	6.66775282695955e-24
-0.48510646784374956	6.694220927536082e-24
-0.48504543268749956	6.713229732976162e-24
-0.48498439753124956	6.724756108649372e-24
-0.48492336237499956	6.728784623589353e-24
-0.48486232721874956	6.725306443313296e-24
-0.48480129206249956	6.714321654904317e-24
-0.48474025690624956	6.695840448551786e-24
-0.48467922174999956	6.669880392610817e-24
-0.48461818659374956	6.636466223472215e-24
-0.48455715143749956	6.595631661517784e-24
-0.48449611628124956	6.5474185707565225e-24
-0.48443508112499956	6.4918779454212774e-24
-0.48437404596874956	6.429069234468912e-24
-0.48431301081249956	6.359057453857621e-24
-0.48425197565624956	6.2819150608648915e-24
-0.48419094049999956	6.197726476340525e-24
-0.48412990534374956	6.1065842043253594e-24
-0.48406887018749956	6.0085847032883765e-24
-0.48400783503124956	5.90383140806177e-24
-0.48394679987499956	5.792436653493861e-24
-0.48388576471874956	5.674524892575838e-24
-0.48382472956249956	5.550224753244998e-24
-0.48376369440624956	5.419666655074819e-24
-0.48370265924999956	5.2829942926078664e-24
-0.48364162409374956	5.140357359813445e-24
-0.48358058893749956	4.991909515849872e-24
-0.48351955378124956	4.837814690573521e-24
-0.48345851862499956	4.678241204349882e-24
-0.48339748346874956	4.513362552497343e-24
-0.48333644831249956	4.343358426765005e-24
-0.48327541315624956	4.1684143465648706e-24
-0.48321437799999956	3.988725813370961e-24
-0.48315334284374956	3.804488620216285e-24
-0.48309230768749956	3.615899656167721e-24
-0.48303127253124956	3.423171447748841e-24
-0.48297023737499956	3.2265183183007595e-24
-0.48290920221874956	3.026150161279372e-24
-0.48284816706249956	2.8222888305497607e-24
-0.48278713190624956	2.615160767761081e-24
-0.48272609674999956	2.4049916588534933e-24
-0.48266506159374956	2.1920171908118034e-24
-0.48260402643749956	1.976472434728013e-24
-0.48254299128124956	1.758588343387155e-24
-0.48248195612499956	1.5386057765787695e-24
-0.48242092096874956	1.3167748946236805e-24
-0.48235988581249956	1.0933432354072453e-24
-0.48229885065624956	8.685478552884579e-25
-0.48223781549999956	6.426348703566921e-25
-0.48217678034374956	4.158651811260522e-25
-0.48211574518749956	1.8849056179859802e-25
-0.48205471003124956	-3.924633011357097e-26
-0.48199367487499956	-2.67095674455439e-25
-0.48193263971874956	-4.947927651872771e-25
-0.48187160456249956	-7.220850672041762e-25
-0.48181056940624956	-9.487349294828402e-25
-0.48174953424999956	-1.174481587737689e-24
-0.48168849909374956	-1.399071223268181e-24
-0.48162746393749956	-1.6222633821760474e-24
-0.48156642878124956	-1.843798452318325e-24
-0.48150539362499956	-2.063434444398887e-24
-0.48144435846874956	-2.28093867885551e-24
-0.48138332331249956	-2.496056290036624e-24
-0.48132228815624956	-2.7085442759630234e-24
-0.48126125299999956	-2.9181762418521035e-24
-0.48120021784374956	-3.1247175418359757e-24
-0.48113918268749956	-3.327933519605867e-24
-0.48107814753124956	-3.527596344802402e-24
-0.48101711237499956	-3.723485437908747e-24
-0.48095607721874956	-3.9153867666975975e-24
-0.48089504206249956	-4.103079345246215e-24
-0.48083400690624956	-4.286352896059582e-24
-0.48077297174999956	-4.465008292087983e-24
-0.48071193659374956	-4.6388396329215335e-24
-0.48065090143749956	-4.807652930439282e-24
-0.48058986628124956	-4.971264048369192e-24
-0.48052883112499956	-5.129486148098338e-24
-0.48046779596874956	-5.2821380096083996e-24
-0.48040676081249956	-5.4290508572928974e-24
-0.48034572565624956	-5.570062734106701e-24
-0.48028469049999956	-5.705011558496957e-24
-0.48022365534374956	-5.833744040822817e-24
-0.48016262018749956	-5.956116987528987e-24
-0.48010158503124956	-6.071991578016919e-24
-0.48004054987499956	-6.181237420930854e-24
-0.47997951471874956	-6.2837306810690235e-24
-0.47991847956249956	-6.3793529120818585e-24
-0.47985744440624956	-6.4679959043542174e-24
-0.47979640924999956	-6.5495612985929885e-24
-0.47973537409374956	-6.623955975152865e-24
-0.47967433893749956	-6.691091101557969e-24
-0.47961330378124956	-6.750888838589891e-24
-0.47955226862499956	-6.803284198972739e-24
-0.47949123346874956	-6.84821676972287e-24
-0.47943019831249956	-6.885630281591676e-24
-0.47936916315624956	-6.915480510688165e-24
-0.47930812799999956	-6.937733461126493e-24
-0.47924709284374956	-6.952361832674499e-24
-0.47918605768749956	-6.9593460582065e-24
-0.47912502253124956	-6.958674972133849e-24
-0.47906398737499956	-6.950347009374425e-24
-0.47900295221874956	-6.93436914827272e-24
-0.47894191706249956	-6.910756435656572e-24
-0.47888088190624956	-6.879532193761632e-24
-0.47881984674999956	-6.840728027447645e-24
-0.47875881159374956	-6.794384486824079e-24
-0.47869777643749956	-6.74055147991381e-24
-0.47863674128124956	-6.679286343158982e-24
-0.47857570612499956	-6.610653319531825e-24
-0.47851467096874956	-6.534726435323813e-24
-0.47845363581249956	-6.451588227277342e-24
-0.47839260065624956	-6.361328948787761e-24
-0.47833156549999956	-6.264046576152736e-24
-0.47827053034374956	-6.1598462719046735e-24
-0.47820949518749956	-6.0488417651848266e-24
-0.47814846003124956	-5.931153666547108e-24
-0.47808742487499956	-5.806912563466365e-24
-0.47802638971874956	-5.6762557580921156e-24
-0.47796535456249956	-5.539320411657017e-24
-0.47790431940624956	-5.396259587509096e-24
-0.47784328424999956	-5.2472383492260326e-24
-0.47778224909374956	-5.092411126501507e-24
-0.47772121393749956	-4.931945068196751e-24
-0.47766017878124956	-4.7660291437791694e-24
-0.47759914362499956	-4.5948436018088674e-24
-0.47753810846874956	-4.418568563074873e-24
-0.47747707331249956	-4.23740172845976e-24
-0.47741603815624956	-4.051550757717848e-24
-0.47735500299999956	-3.861219186976805e-24
-0.47729396784374956	-3.666608583061574e-24
-0.47723293268749956	-3.467939981893831e-24
-0.47717189753124956	-3.2654389298647515e-24
-0.47711086237499956	-3.059321466012897e-24
-0.47704982721874956	-2.849818420541894e-24
-0.47698879206249956	-2.637168823821188e-24
-0.47692775690624956	-2.4215996497191556e-24
-0.47686672174999956	-2.203348178089467e-24
-0.47680568659374956	-1.982669168211663e-24
-0.47674465143749956	-1.7598050355085168e-24
-0.47668361628124956	-1.5349912722521766e-24
-0.47662258112499956	-1.3084840919834448e-24
-0.47656154596874956	-1.0805470815619641e-24
-0.47650051081249956	-8.514240496554378e-25
-0.47643947565624956	-6.213632565669888e-25
-0.47637844049999956	-3.9063073805329964e-25
-0.47631740534374956	-1.59483148651194e-25
-0.47625637018749956	7.182296884178981e-26
-0.47619533503124956	3.030290581814981e-25
-0.47613429987499956	5.3388164011183625e-25
-0.47607326471874956	7.64120970960304e-25
-0.47601222956249956	9.934871953584655e-25
-0.47595119440624956	1.2217232897519123e-24
-0.47589015924999956	1.4485767757182556e-24
-0.47582912409374956	1.673797046867591e-24
-0.47576808893749956	1.8971304903573546e-24
-0.47570705378124956	2.1183230772157322e-24
-0.47564601862499956	2.3371279514438528e-24
-0.47558498346874956	2.553306059647983e-24
-0.47552394831249956	2.766611892616937e-24
-0.47546291315624956	2.9768041903041088e-24
-0.47540187799999956	3.183652317834718e-24
-0.47534084284374956	3.3869212486621234e-24
-0.47527980768749956	3.586378479665197e-24
-0.47521877253124956	3.7818073525620334e-24
-0.47515773737499956	3.972991681934714e-24
-0.47509670221874956	4.159708131762563e-24
-0.47503566706249956	4.341746249090365e-24
-0.47497463190624956	4.518907985885708e-24
-0.47491359674999956	4.690993274858812e-24
-0.47485256159374956	4.857804686003571e-24
-0.47479152643749956	5.0191575775692274e-24
-0.47473049128124956	5.174869356676292e-24
-0.47466945612499956	5.324760970992298e-24
-0.47460842096874956	5.46867062992915e-24
-0.47454738581249956	5.606434431974635e-24
-0.47448635065624956	5.737888433853403e-24
-0.47442531549999956	5.8628912165802245e-24
-0.47436428034374956	5.9813057452691076e-24
-0.47430324518749956	6.0929905864614576e-24
-0.47424221003124956	6.19781908648223e-24
-0.47418117487499956	6.295676288745894e-24
-0.47412013971874956	6.38645058831346e-24
-0.47405910456249956	6.4700388670679245e-24
-0.47399806940624956	6.54634403194946e-24
-0.47393703424999956	6.6152785400311224e-24
-0.47387599909374956	6.676767751280121e-24
-0.47381496393749956	6.730739731155036e-24
-0.47375392878124956	6.777129584167877e-24
-0.47369289362499956	6.815885901096027e-24
-0.47363185846874956	6.84696512416391e-24
-0.47357082331249956	6.870329514139605e-24
-0.47350978815624956	6.885950424760632e-24
-0.47344875299999956	6.893810399984917e-24
-0.47338771784374956	6.893899134717171e-24
-0.47332668268749956	6.886214073342261e-24
-0.47326564753124956	6.870763023687463e-24
-0.47320461237499956	6.84756163798122e-24
-0.47314357721874956	6.816635058135588e-24
-0.47308254206249956	6.778017324542019e-24
-0.47302150690624956	6.731747878059228e-24
-0.47296047174999956	6.677877957486058e-24
-0.47289943659374956	6.61646995404956e-24
-0.47283840143749956	6.547588975188697e-24
-0.47277736628124956	6.471310225460719e-24
-0.47271633112499956	6.3877201515372194e-24
-0.47265529596874956	6.296909492979513e-24
-0.47259426081249956	6.198980144045088e-24
-0.47253322565624956	6.094043440790606e-24
-0.47247219049999956	5.9822134647579424e-24
-0.47241115534374956	5.863613068073539e-24
-0.47235012018749956	5.738376768592851e-24
-0.47228908503124956	5.606645673868194e-24
-0.47222804987499956	5.4685674440329216e-24
