Time	Frequency
-0.5000525698125031	-0.02233987794755238
-0.4999915346562531	-0.009134462037667252
-0.4999304995000031	0.004084794239744187
-0.4998694643437531	0.01730561962155145
-0.4998084291875031	0.03051527144449518
-0.4997473940312531	0.043701104610861366
-0.4996863588750031	0.05685125135065291
-0.4996253237187531	0.06995338112804392
-0.4995642885625031	0.08299460434466348
-0.4995032534062531	0.09596254322337032
-0.4994422182500031	0.10884525338268324
-0.4993811830937531	0.12163068393425319
-0.4993201479375031	0.13430662582438357
-0.4992591127812531	0.14686096610231525
-0.4991980776250031	0.15928183229707804
-0.4991370424687531	0.17155734284219099
-0.4990760073125031	0.18367605144900648
-0.4990149721562531	0.19562685021119472
-0.4989539370000031	0.20739780895071905
-0.4988929018437531	0.2189774903758333
-0.4988318666875031	0.23035568497461084
-0.4987708315312531	0.24152146854386594
-0.4987097963750031	0.25246357432633326
-0.4986487612187531	0.2631719182662659
-0.4985877260625031	0.27363674508325164
-0.4985266909062531	0.2838476001908857
-0.4984656557500031	0.293794541229292
-0.4984046205937531	0.30346850518074997
-0.4983435854375031	0.3128601737315626
-0.4982825502812531	0.32196049366753293
-0.4982215151250031	0.33076073025137354
-0.4981604799687531	0.339252229049773
-0.4980994448125031	0.3474271108998497
-0.4980384096562531	0.35527764987624394
-0.4979773745000031	0.36279601912425646
-0.4979163393437531	0.36997490698279384
-0.4978553041875031	0.3768075459496208
-0.4977942690312531	0.38328736064576185
-0.4977332338750031	0.38940786754395934
-0.4976721987187531	0.3951632790644825
-0.4976111635625031	0.4005480818927601
-0.4975501284062531	0.40555666481974906
-0.4974890932500031	0.41018426364798793
-0.4974280580937531	0.4144266017764098
-0.4973670229375031	0.41827923111327964
-0.4973059877812531	0.42173814799104964
-0.4972449526250031	0.4248000845963771
-0.4971839174687531	0.42746210609143964
-0.4971228823125031	0.42972133907929944
-0.4970618471562531	0.43157528261132594
-0.4970008120000031	0.4330220862171609
-0.4969397768437531	0.43406030364831033
-0.4968787416875031	0.43468867271119505
-0.4968177065312531	0.4349062747967046
-0.4967566713750031	0.43471273525389054
-0.4966956362187531	0.4341080625862225
-0.4966346010625031	0.43309255494163545
-0.4965735659062531	0.4316669514247068
-0.4965125307500031	0.4298324118075685
-0.4964514955937531	0.42759041128042313
-0.4963904604375031	0.4249427930765453
-0.4963294252812531	0.4218918585098161
-0.4962683901250031	0.4184402989105943
-0.4962073549687531	0.4145911308674466
-0.4961463198125031	0.41034770928763586
-0.4960852846562531	0.40571381647389554
-0.4960242495000031	0.400693667763534
-0.4959632143437531	0.39529172758302067
-0.4959021791875031	0.38951279239150777
-0.4958411440312531	0.3833621703073726
-0.4957801088750031	0.37684559466258205
-0.4957190737187531	0.3699688479008729
-0.4956580385625031	0.36273786933106467
-0.4955970034062531	0.35515962788143973
-0.4955359682500031	0.3472414547634657
-0.4954749330937531	0.33899005708153623
-0.4954138979375031	0.33041273332567433
-0.4953528627812531	0.3215178341002539
-0.4952918276250031	0.31231376359381546
-0.4952307924687531	0.3028087537596667
-0.4951697573125031	0.2930113790971133
-0.4951087221562531	0.28293078360092144
-0.4950476870000031	0.2725763290262983
-0.4949866518437531	0.2619577551846965
-0.4949256166875031	0.2510849908783364
-0.4948645815312531	0.23996761478474515
-0.4948035463750031	0.22861602787123944
-0.4947425112187531	0.2170414489581616
-0.4946814760625031	0.20525412382908206
-0.4946204409062531	0.1932645050990342
-0.4945594057500031	0.18108462635858052
-0.4944983705937531	0.16872598134071484
-0.4944373354375031	0.15619906687502771
-0.4943763002812531	0.1435157579162004
-0.4943152651250031	0.13068884939482037
-0.4942542299687531	0.11772983731553566
-0.4941931948125031	0.10465016121438113
-0.4941321596562531	0.09146260705143944
-0.4940711245000031	0.0781796964735238
-0.4940100893437531	0.06481354504300783
-0.4939490541875031	0.05137681843302119
-0.4938880190312531	0.03788195489846793
-0.4938269838750031	0.02434149907097371
-0.4937659487187531	0.010768485735197302
-0.4937049135625031	-0.00282449588813335
-0.4936438784062531	-0.016424812120232442
-0.4935828432500031	-0.030019646272033844
-0.4935218080937531	-0.04359617186856527
-0.4934607729375031	-0.057141539586571956
-0.4933997377812531	-0.07064335691558404
-0.4933387026250031	-0.08408870560907643
-0.4932776674687531	-0.09746465923972922
-0.4932166323125031	-0.11075911603596972
-0.4931555971562531	-0.12395939255300706
-0.4930945620000031	-0.13705289635563359
-0.4930335268437531	-0.15002751664841546
-0.4929724916875031	-0.16287081089456854
-0.4929114565312531	-0.17557076289176643
-0.4928504213750031	-0.1881153748618274
-0.4927893862187531	-0.2004926919985128
-0.4927283510625031	-0.21269144186626446
-0.4926673159062531	-0.22469977558293278
-0.4926062807500031	-0.23650589124200805
-0.4925452455937531	-0.2480991897567816
-0.4924842104375031	-0.2594689294872089
-0.4924231752812531	-0.2706040107075235
-0.4923621401250031	-0.2814936382400056
-0.4923011049687531	-0.2921273946522051
-0.4922400698125031	-0.3024957255863549
-0.4921790346562531	-0.3125890920820955
-0.4921179995000031	-0.3223970722633849
-0.4920569643437531	-0.3319101238048536
-0.4919959291875031	-0.3411201263765066
-0.4919348940312531	-0.3500182718821728
-0.4918738588750031	-0.35859530780003085
-0.4918128237187531	-0.36684333468785824
-0.4917517885625031	-0.374754971520835
-0.4916907534062531	-0.38232227691070814
-0.4916297182500031	-0.38953781928642284
-0.4915686830937531	-0.39639505887618
-0.4915076479375031	-0.4028873926623012
-0.4914466127812531	-0.40900832191833664
-0.4913855776250031	-0.41475211972223197
-0.4913245424687531	-0.42011346203424943
-0.4912635073125031	-0.4250869273982133
-0.4912024721562531	-0.42966759470276755
-0.4911414370000031	-0.43385134149772897
-0.4910804018437531	-0.4376340581069428
-0.4910193666875031	-0.4410118483116167
-0.4909583315312531	-0.44398151138413267
-0.4908972963750031	-0.4465402089756337
-0.4908362612187531	-0.4486853659201551
-0.4907752260625031	-0.4504147637739621
-0.4907141909062531	-0.4517266713785308
-0.4906531557500031	-0.45261980408248176
-0.4905921205937531	-0.4530931602224865
-0.4905310854375031	-0.45314614423819555
-0.4904700502812531	-0.4527786125610913
-0.4904090151250031	-0.4519907777407561
-0.4903479799687531	-0.45078325019895715
-0.4902869448125031	-0.44915709395285397
-0.4902259096562531	-0.44711373169243884
-0.4901648745000031	-0.44465491270973306
-0.4901038393437531	-0.44178284539350987
-0.4900428041875031	-0.43850018590272777
-0.4899817690312531	-0.43480993058292877
-0.4899207338750031	-0.430715360594458
-0.4898596987187531	-0.4262202495047931
-0.4897986635625031	-0.4213289057062577
-0.4897376284062531	-0.4160456253037266
-0.4896765932500031	-0.41037517527590534
-0.4896155580937531	-0.40432326885745895
-0.4895545229375031	-0.3978954030535757
-0.4894934877812531	-0.39109707169975694
-0.4894324526250031	-0.3839348290381473
-0.4893714174687531	-0.3764157431294132
-0.4893103823125031	-0.3685467363969792
-0.4892493471562531	-0.360334670825139
-0.4891883120000031	-0.3517872663182408
-0.4891272768437531	-0.3429131060674205
-0.4890662416875031	-0.3337202903850623
-0.4890052065312531	-0.3242169857658529
-0.4889441713750031	-0.3144124044548079
-0.4888831362187531	-0.30431594632783654
-0.4888221010625031	-0.2939368755661484
-0.4887610659062531	-0.2832848317392753
-0.4887000307500031	-0.2723699142731706
-0.4886389955937531	-0.26120251430180347
-0.4885779604375031	-0.24979306518783176
-0.4885169252812531	-0.2381523663263222
-0.4884558901250031	-0.22629125684468882
-0.4883948549687531	-0.2142205177689837
-0.4883338198125031	-0.20195221189932483
-0.4882727846562531	-0.18949822537137528
-0.4882117495000031	-0.17686937885427037
-0.4881507143437531	-0.16407745518037795
-0.4880896791875031	-0.15113503516431617
-0.4880286440312531	-0.1380549123792329
-0.4879676088750031	-0.12484923930021731
-0.4879065737187531	-0.11152927665785656
-0.4878455385625031	-0.09810788547783271
-0.4877845034062531	-0.08459914637928634
-0.4877234682500031	-0.07101577057747399
-0.4876624330937531	-0.05736923716649917
-0.4876013979375031	-0.04367202659410948
-0.4875403627812531	-0.029938683970627867
-0.4874793276250031	-0.016182870812746095
-0.4874182924687531	-0.002416017012365573
-0.4873572573125031	0.011349391278095233
-0.4872962221562531	0.02509908975329527
-0.4872351870000031	0.03881947212579674
-0.4871741518437531	0.05249825529065722
-0.4871131166875031	0.06612314024095081
-0.4870520815312531	0.079680835505234
-0.4869910463750031	0.09315755343150381
-0.4869300112187531	0.10654077095330884
-0.4868689760625031	0.11981887017838513
-0.4868079409062531	0.13297864420314928
-0.4867469057500031	0.14600681565971957
-0.4866858705937531	0.15889174892288935
-0.4866248354375031	0.17162131581051393
-0.4865638002812531	0.18418292249243365
-0.4865027651250031	0.19656482990250143
-0.4864417299687531	0.20875545701972326
-0.4863806948125031	0.2207429254797221
-0.4863196596562531	0.23251570582987074
-0.4862586245000031	0.2440628326875089
-0.4861975893437531	0.2553733309640921
-0.4861365541875031	0.26643625159445766
-0.4860755190312531	0.2772411395164861
-0.4860144838750031	0.28777770738627867
-0.4859534487187531	0.2980356157883065
-0.4858924135625031	0.3080053830735489
-0.4858313784062531	0.3176777438490131
-0.4857703432500031	0.3270428336536395
-0.4857093080937531	0.336091858678625
-0.4856482729375031	0.3448166217276897
-0.4855872377812531	0.35320840041427864
-0.4855262026250031	0.3612591036169445
-0.4854651674687531	0.36896126279394137
-0.4854041323125031	0.3763074277377378
-0.4853430971562531	0.38329051191234986
-0.4852820620000031	0.3899038969937803
-0.4852210268437531	0.39614113939387163
-0.4851599916875031	0.4019962819089055
-0.4850989565312531	0.4074639356947845
-0.4850379213750031	0.4125386742744585
-0.4849768862187531	0.4172153767024281
-0.4849158510625031	0.42148983744699386
-0.4848548159062531	0.42535812785756943
-0.4847937807500031	0.4288162228970721
-0.4847327455937531	0.4318607129856716
-0.4846717104375031	0.43448885606044735
-0.4846106752812531	0.43669813155495263
-0.4845496401250031	0.4384863361661836
-0.4844886049687531	0.4398517079983782
-0.4844275698125031	0.4407929062870882
-0.4843665346562531	0.44130903189814086
-0.4843054995000031	0.44139958722428074
-0.4842444643437531	0.4410644449046667
-0.4841834291875031	0.4403038936781053
-0.4841223940312531	0.439118609838154
-0.4840613588750031	0.43750969673587725
-0.4840003237187531	0.4354787420371447
-0.4839392885625031	0.433027663367209
-0.4838782534062531	0.4301586961080002
-0.4838172182500031	0.426874551540674
-0.4837561830937531	0.4231784539994108
-0.4836951479375031	0.41907399547217855
-0.4836341127812531	0.41456495161770296
-0.4835730776250031	0.4096555189085763
-0.4835120424687531	0.4043505333331282
-0.4834510073125031	0.39865518657750304
-0.4833899721562531	0.39257483123798737
-0.4833289370000031	0.3861150847363975
-0.4832679018437531	0.3792822318088278
-0.4832068666875031	0.3720830664073393
-0.4831458315312531	0.36452424639112185
-0.4830847963750031	0.35661293328651733
-0.4830237612187531	0.34835703960797704
-0.4829627260625031	0.33976425694990403
-0.4829016909062531	0.3308425948259547
-0.4828406557500031	0.32160099363757194
-0.4827796205937531	0.3120484734580736
-0.4827185854375031	0.30219391759035996
-0.4826575502812531	0.2920465983028822
-0.4825965151250031	0.2816164337737387
-0.4825354799687531	0.2709136842899057
-0.4824744448125031	0.25994861724924606
-0.4824134096562531	0.24873167501329915
-0.4823523745000031	0.23727346578601138
-0.4822913393437531	0.22558493763938922
-0.4822303041875031	0.21367783151007844
-0.4821692690312531	0.20156370755896777
-0.4821082338750031	0.1892536699021935
-0.4820471987187531	0.17675973483127402
-0.4819861635625031	0.16409407153569042
-0.4819251284062531	0.1512687390862151
-0.4818640932500031	0.13829659935751645
-0.4818030580937531	0.12519000293046414
-0.4817420229375031	0.11196098751324766
-0.4816809877812531	0.09862264376285992
-0.4816199526250031	0.08518832886333072
-0.4815589174687531	0.07167083950453584
-0.4814978823125031	0.05808290681043394
-0.4814368471562531	0.04443779471968651
-0.4813758120000031	0.03074885320487799
-0.4813147768437531	0.017029351302386173
-0.4812537416875031	0.0032924170831852844
-0.4811927065312531	-0.010448722404072491
-0.4811316713750031	-0.024180299779685836
-0.4810706362187531	-0.03788929251095985
-0.4810096010625031	-0.05156279698250859
-0.4809485659062531	-0.0651869627812445
-0.4808875307500031	-0.07874863261577016
-0.4808264955937531	-0.09223487763478182
-0.4807654604375031	-0.10563246978601708
-0.4807044252812531	-0.11892858529249549
-0.4806433901250031	-0.13210995336267586
-0.4805823549687531	-0.14516382113301762
-0.4805213198125031	-0.15807793240018048
-0.4804602846562531	-0.1708391163688262
-0.4803992495000031	-0.1834350157897315
-0.4803382143437531	-0.1958539399110833
-0.4802771791875031	-0.20808341206653536
-0.4802161440312531	-0.2201110642973743
-0.4801551088750031	-0.23192549538587873
-0.4800940737187531	-0.243515697670878
-0.4800330385625031	-0.25486978174568087
-0.4799720034062531	-0.2659762786845146
-0.4799109682500031	-0.2768251188615297
-0.4798499330937531	-0.2874054818349171
-0.4797888979375031	-0.29770631455524993
-0.4797278627812531	-0.30771823818757543
-0.4796668276250031	-0.3174316746145572
-0.4796057924687531	-0.3268361511129759
-0.4795447573125031	-0.33592265076165767
-0.4794837221562531	-0.344682933193816
-0.4794226870000031	-0.35310787706186386
-0.4793616518437531	-0.3611888459528711
-0.4793006166875031	-0.36891829917708985
-0.4792395815312531	-0.37628861242168565
-0.4791785463750031	-0.3832922031611488
-0.4791175112187531	-0.3899222002295573
-0.4790564760625031	-0.39617210335506076
-0.4789954409062531	-0.4020356357244162
-0.4789344057500031	-0.4075069252553164
-0.4788733705937531	-0.41258048892080723
-0.4788123354375031	-0.4172511764689901
-0.4787513002812531	-0.42151424512398056
-0.4786902651250031	-0.425365548895096
-0.4786292299687531	-0.42880116848299693
-0.4785681948125031	-0.4318172927109444
-0.4785071596562531	-0.43441087024876274
-0.4784461245000031	-0.4365794437410534
-0.4783850893437531	-0.43832061985315496
-0.4783240541875031	-0.4396323445148294
-0.4782630190312531	-0.4405131762798793
-0.4782019838750031	-0.44096214629508074
-0.4781409487187531	-0.4409786243010906
-0.4780799135625031	-0.44056233912711223
-0.4780188784062531	-0.43971346327312155
-0.4779578432500031	-0.4384326198441864
-0.4778968080937531	-0.4367208372591685
-0.4778357729375031	-0.4345795979400755
-0.4777747377812531	-0.43201079320779295
-0.4777137026250031	-0.42901663713122146
-0.4776526674687531	-0.4255998345486008
-0.4775916323125031	-0.42176349894683124
-0.4775305971562531	-0.4175110769991755
-0.4774695620000031	-0.41284665467249687
-0.4774085268437531	-0.40777459604579247
-0.4773474916875031	-0.40229927907770896
-0.4772864565312531	-0.39642582136554444
-0.4772254213750031	-0.3901601409383219
-0.4771643862187531	-0.38350806997777986
-0.4771033510625031	-0.37647544328628213
-0.4770423159062531	-0.36906897137831307
-0.4769812807500031	-0.36129596333314484
-0.4769202455937531	-0.35316369428031424
-0.4768592104375031	-0.3446796391824101
-0.4767981752812531	-0.3358520146987086
-0.4767371401250031	-0.3266893267460269
-0.4766761049687531	-0.31719985559842045
-0.4766150698125031	-0.3073928426193061
-0.4765540346562531	-0.2972782155793814
-0.4764929995000031	-0.28686512380379064
-0.4764319643437531	-0.27616287790593225
-0.4763709291875031	-0.265182300238481
-0.4763098940312531	-0.2539347013443339
-0.4762488588750031	-0.2424301124174136
-0.4761878237187531	-0.230678745273649
-0.4761267885625031	-0.21869275620674306
-0.4760657534062531	-0.2064840069608124
-0.4760047182500031	-0.19406359366894002
-0.4759436830937531	-0.1814436738855003
-0.4758826479375031	-0.16863627173076498
-0.4758216127812531	-0.15565336484082606
-0.4757605776250031	-0.1425080994140234
-0.4756995424687531	-0.12921331375779313
-0.4756385073125031	-0.1157811451280082
-0.4755774721562531	-0.10222428781000156
-0.4755164370000031	-0.08855658073533808
-0.4754554018437531	-0.07479144867057522
-0.4753943666875031	-0.06094130292746869
-0.4753333315312531	-0.047019646904246426
-0.4752722963750031	-0.033040641946178284
-0.4752112612187531	-0.019017496821166054
-0.4751502260625031	-0.004963168022173677
-0.4750891909062531	0.009108209761678409
-0.4750281557500031	0.023182300123988538
-0.4749671205937531	0.03724655094340778
-0.4749060854375031	0.051287672279291575
-0.4748450502812531	0.0652905882156053
-0.4747840151250031	0.07924206571480744
-0.4747229799687531	0.09312957517636025
-0.4746619448125031	0.10693910108104727
-0.4746009096562531	0.12065681609843736
-0.4745398745000031	0.13426932389989224
-0.4744788393437531	0.14776384082404456
-0.4744178041875031	0.16112751308023449
-0.4743567690312531	0.17434658024604743
-0.4742957338750031	0.18740831395636984
-0.4742346987187531	0.20030031771434942
-0.4741736635625031	0.2130095789692887
-0.4741126284062531	0.22552405179021198
-0.4740515932500031	0.2378316573500009
-0.4739905580937531	0.24991961732377901
-0.4739295229375031	0.2617763825615624
-0.4738684877812531	0.27339103033464585
-0.4738074526250031	0.28475166601845164
-0.4737464174687531	0.29584677598484427
-0.4736853823125031	0.3066658846501722
-0.4736243471562531	0.3171984094680003
-0.4735633120000031	0.32743389182430555
-0.4735022768437531	0.3373624490043531
-0.4734412416875031	0.3469741389325096
-0.4733802065312531	0.3562591385013741
-0.4733191713750031	0.36520859401264344
-0.4732581362187531	0.3738141275374843
-0.4731971010625031	0.3820668430327812
-0.4731360659062531	0.38995814016756875
-0.4730750307500031	0.39748066717797303
-0.4730139955937531	0.40462707441932866
-0.4729529604375031	0.4113898502019265
-0.4728919252812531	0.4177624960553728
-0.4728308901250031	0.42373877897148143
-0.4727698549687531	0.4293124291743495
-0.4727088198125031	0.43447786744229355
-0.4726477846562531	0.439230020103784
-0.4725867495000031	0.4435641634988601
-0.4725257143437531	0.4474758586290248
-0.4724646791875031	0.45096092595053433
-0.4724036440312531	0.4540158302781794
-0.4723426088750031	0.45663761657087676
-0.4722815737187531	0.45882350966844054
-0.4722205385625031	0.46057103628642976
-0.4721595034062531	0.4618782976829318
-0.4720984682500031	0.4627439258403428
-0.4720374330937531	0.4631669325839675
-0.4719763979375031	0.4631466459749501
-0.4719153627812531	0.4626828136113593
-0.4718543276250031	0.4617757330609998
-0.4717932924687531	0.4604261609626069
-0.4717322573125031	0.4586351870736005
-0.4716712221562531	0.45640429736912447
-0.4716101870000031	0.4537354753613089
-0.4715491518437531	0.45063115726880415
-0.4714881166875031	0.44709411784036013
-0.4714270815312531	0.44312768092422794
-0.4713660463750031	0.43873560036515435
-0.4713050112187531	0.43392163375679255
-0.4712439760625031	0.42869028190384956
-0.4711829409062531	0.42304696760906013
-0.4711219057500031	0.41699683500089935
-0.4710608705937531	0.4105450263781924
-0.4709998354375031	0.40369778607284906
-0.4709388002812531	0.39646220649919367
-0.4708777651250031	0.388845097135889
-0.4708167299687531	0.380852987971992
-0.4707556948125031	0.37249354878769286
-0.4706946596562531	0.36377535629815017
-0.4706336245000031	0.35470670804122517
-0.4705725893437531	0.3452959445504389
-0.4705115541875031	0.33555183294111735
-0.4704505190312531	0.3254838086962151
-0.4703894838750031	0.31510209374907583
-0.4703284487187531	0.30441657903717034
-0.4702674135625031	0.293436720625479
-0.4702063784062531	0.28217325638335616
-0.4701453432500031	0.27063772301980654
-0.4700843080937531	0.2588409879262215
-0.4700232729375031	0.2467940923219544
-0.4699622377812531	0.2345085923544105
-0.4699012026250031	0.22199634409810218
-0.4698401674687531	0.20926987184852452
-0.4697791323125031	0.1963415776592643
-0.4697180971562531	0.18322314997329772
-0.4696570620000031	0.1699271515980641
