Time	Frequency
-0.5000460431250033	-0.32051397256065106
-0.49998500796875334	-0.3105714681354819
-0.49992397281250334	-0.30030264023043857
-0.49986293765625334	-0.2897178118142876
-0.49980190250000334	-0.2788270813840843
-0.49974086734375334	-0.2676418487021355
-0.49967983218750334	-0.25617369530761086
-0.49961879703125334	-0.2444338710010771
-0.49955776187500334	-0.23243452261889552
-0.49949672671875334	-0.22018805359727692
-0.49943569156250334	-0.2077065560980355
-0.49937465640625334	-0.1950027488418957
-0.49931362125000334	-0.18208972477101232
-0.49925258609375334	-0.1689806785889829
-0.49919155093750334	-0.1556891770552858
-0.49913051578125334	-0.1422284450638681
-0.49906948062500334	-0.12861185311372672
-0.49900844546875334	-0.11485381646992211
-0.49894741031250334	-0.1009687235976589
-0.49888637515625334	-0.08697049725927694
-0.49882534000000334	-0.07287298171673101
-0.49876430484375334	-0.05869052843480296
-0.49870326968750334	-0.04443843846880739
-0.49864223453125334	-0.030131321191238306
-0.49858119937500334	-0.015783069875513926
-0.49852016421875334	-0.001408609686436914
-0.49845912906250334	0.012977088449684137
-0.49839809390625334	0.02735948247986099
-0.49833705875000334	0.041723390250584226
-0.49827602359375334	0.05605418449887977
-0.49821498843750334	0.07033787578924795
-0.49815395328125334	0.08455931218776862
-0.49809291812500334	0.09870328539376667
-0.49803188296875334	0.11275565613736203
-0.49797084781250334	0.12670245607398728
-0.49790981265625334	0.1405290508498741
-0.49784877750000334	0.1542207066492567
-0.49778774234375334	0.1677636317246517
-0.49772670718750334	0.18114402900066015
-0.49766567203125334	0.1943479445046189
-0.49760463687500334	0.20736177962391888
-0.49754360171875334	0.2201719813342222
-0.49748256656250334	0.2327652588731752
-0.49742153140625334	0.24512869803768034
-0.49736049625000334	0.2572497106953982
-0.49729946109375334	0.26911548877081276
-0.49723842593750334	0.2807134102688874
-0.49717739078125334	0.29203184192590553
-0.49711635562500334	0.3030591682242913
-0.49705532046875334	0.31378369864128974
-0.49699428531250334	0.32419419948365363
-0.49693325015625334	0.3342797868224079
-0.49687221500000334	0.3440300892680296
-0.49681117984375334	0.35343496157613974
-0.49675014468750334	0.36248448902535846
-0.49668910953125334	0.3711692549497319
-0.49662807437500334	0.3794801387909844
-0.49656703921875334	0.3874082050113675
-0.49650600406250334	0.39494518292832126
-0.49644496890625334	0.40208355424524717
-0.49638393375000334	0.40881554843676965
-0.49632289859375334	0.41513362191081893
-0.49626186343750334	0.4210313813098009
-0.49620082828125334	0.4265027449518868
-0.49613979312500334	0.43154169351669264
-0.49607875796875334	0.43614277559880993
-0.49601772281250334	0.44030101008179795
-0.49595668765625334	0.4440119103220008
-0.49589565250000334	0.44727153546576875
-0.49583461734375334	0.45007623364766336
-0.49577358218750334	0.4524227787170531
-0.49571254703125334	0.4543085706114226
-0.49565151187500334	0.4557314524701274
-0.49559047671875334	0.4566896849267382
-0.49552944156250334	0.45718202095829585
-0.49546840640625334	0.4572076554547561
-0.49540737125000334	0.45676632483317403
-0.49534633609375334	0.4558582645640938
-0.49528530093750334	0.4544840650346873
-0.49522426578125334	0.4526448678215733
-0.49516323062500334	0.45034238958491735
-0.49510219546875334	0.4475786929849735
-0.49504116031250334	0.44435623874314994
-0.49498012515625334	0.4406780812844071
-0.49491909000000334	0.4365478865706998
-0.49485805484375334	0.4319696464258668
-0.49479701968750334	0.426947575385567
-0.49473598453125334	0.42148652951346677
-0.49467494937500334	0.4155920723330091
-0.49461391421875334	0.40927008559397315
-0.49455287906250334	0.40252661448489785
-0.49449184390625334	0.39536812685694794
-0.49443080875000334	0.3878018907877281
-0.49436977359375334	0.3798356665958501
-0.49430873843750334	0.3714772651742384
-0.49424770328125334	0.36273478512409835
-0.49418666812500334	0.3536169775466029
-0.49412563296875334	0.34413310942057584
-0.49406459781250334	0.33429277708518523
-0.49400356265625334	0.32410590898124625
-0.49394252750000334	0.3135823898345115
-0.49388149234375334	0.3027327465817288
-0.49382045718750334	0.29156828877603735
-0.49375942203125334	0.28010014271437844
-0.49369838687500334	0.26833991195587026
-0.49363735171875334	0.2562993734125956
-0.49357631656250334	0.24399039096301003
-0.49351528140625334	0.23142576593341666
-0.49345424625000334	0.21861839913798967
-0.49339321109375334	0.20558108425778038
-0.49333217593750334	0.19232672730316275
-0.49327114078125334	0.17886872369558268
-0.49321010562500334	0.1652212088533089
-0.49314907046875334	0.15139816603237516
-0.49308803531250334	0.13741314074395478
-0.49302700015625334	0.12327996632172561
-0.49296596500000334	0.10901368087129144
-0.49290492984375334	0.09462920797008274
-0.49284389468750334	0.08014028006903144
-0.49278285953125334	0.06556162495687988
-0.49272182437500334	0.050908843656321895
-0.49266078921875334	0.036196532706037156
-0.49259975406250334	0.0214393523702404
-0.49253871890625334	0.006652852728970809
-0.49247768375000334	-0.008147956367973231
-0.49241664859375334	-0.02294851942394654
-0.49235561343750334	-0.03773317091663852
-0.49229457828125334	-0.05248640610082181
-0.49223354312500334	-0.06719400012905963
-0.49217250796875334	-0.08184090944853532
-0.49211147281250334	-0.09641139212672309
-0.49205043765625334	-0.11089086790695883
-0.49198940250000334	-0.1252648202495189
-0.49192836734375334	-0.1395181560393129
-0.49186733218750334	-0.15363637117192427
-0.49180629703125334	-0.1676051552267113
-0.49174526187500334	-0.181409937989749
-0.49168422671875334	-0.19503655501713663
-0.49162319156250334	-0.20847117555181352
-0.49156215640625334	-0.22169996360634195
-0.49150112125000334	-0.23470928317890902
-0.49144008609375334	-0.24748577330417376
-0.49137905093750334	-0.2600162781625564
-0.49131801578125334	-0.272287860230601
-0.49125698062500334	-0.284287951278162
-0.49119594546875334	-0.29600433258231307
-0.49113491031250334	-0.3074247391638111
-0.49107387515625334	-0.31853724086530794
-0.49101284000000334	-0.3293307243745375
-0.49095180484375334	-0.33979406401401124
-0.49089076968750334	-0.34991611287981134
-0.49082973453125334	-0.35968658610848964
-0.49076869937500334	-0.36909548348372434
-0.49070766421875334	-0.3781329139555486
-0.49064662906250334	-0.38678973352843826
-0.49058559390625334	-0.39505688467729855
-0.49052455875000334	-0.4029254918589942
-0.49046352359375334	-0.4103877613229286
-0.49040248843750334	-0.4174360888510423
-0.49034145328125334	-0.42406266108350016
-0.49028041812500334	-0.4302607301550298
-0.49021938296875334	-0.4360242788870173
-0.49015834781250334	-0.4413469036225929
-0.49009731265625334	-0.4462228002307424
-0.49003627750000334	-0.4506472926811443
-0.48997524234375334	-0.45461579106974165
-0.48991420718750334	-0.45812388313992586
-0.48985317203125334	-0.46116788237076484
-0.48979213687500334	-0.463744611590182
-0.48973110171875334	-0.46585133437187964
-0.48967006656250334	-0.467485847854101
-0.48960903140625334	-0.46864635062511734
-0.48954799625000334	-0.4693314782790515
-0.48948696109375334	-0.4695404763065753
-0.48942592593750334	-0.46927307533538914
-0.48936489078125334	-0.46852941235114204
-0.48930385562500334	-0.46731018768355037
-0.48924282046875334	-0.46561659278398126
-0.48918178531250334	-0.463450204649663
-0.48912075015625334	-0.46081319643317964
-0.48905971500000334	-0.45770822948774914
-0.48899867984375334	-0.4541383356135239
-0.48893764468750334	-0.4501072101861775
-0.48887660953125334	-0.44561895852400196
-0.48881557437500334	-0.4406778910016163
-0.48875453921875334	-0.43528906219380575
-0.48869350406250334	-0.42945821470400714
-0.48863246890625334	-0.42319115439112764
-0.48857143375000334	-0.41649408640769653
-0.48851039859375334	-0.40937393566578284
-0.48844936343750334	-0.4018379495462232
-0.48838832828125334	-0.3938940005247009
-0.48832729312500334	-0.3855502189580148
-0.48826625796875334	-0.37681465034212525
-0.48820522281250334	-0.3676965676298647
-0.48814418765625334	-0.3582057471451842
-0.48808315250000334	-0.34835136969208585
-0.48802211734375334	-0.3381433918396112
-0.48796108218750334	-0.3275926492699765
-0.48790004703125334	-0.31671010237828345
-0.48783901187500334	-0.30550681606413665
-0.48777797671875334	-0.293993924667603
-0.48771694156250334	-0.28218339463544784
-0.48765590640625334	-0.2700880211677888
-0.48759487125000334	-0.25771983316964914
-0.48753383609375334	-0.24509087577899494
-0.48747280093750334	-0.23221492620857806
-0.48741176578125334	-0.21910561877696222
-0.48735073062500334	-0.2057757308125509
-0.48728969546875334	-0.19223899461429453
-0.48722866031250334	-0.17850961207859065
-0.48716762515625334	-0.1646017386531341
-0.48710659000000334	-0.15052998288242128
-0.48704555484375334	-0.1363087064280784
-0.48698451968750334	-0.12195212080728358
-0.48692348453125334	-0.10747531011522844
-0.48686244937500334	-0.09289364843839762
-0.48680141421875334	-0.0782221212410519
-0.48674037906250334	-0.06347563158803618
-0.48667934390625334	-0.04866913163754717
-0.48661830875000334	-0.03381827788781954
-0.48655727359375334	-0.018938958323038345
-0.48649623843750334	-0.004046031337482132
-0.48643520328125334	0.010845489221243345
-0.48637416812500334	0.025719557901954078
-0.48631313296875334	0.040560570625022316
-0.48625209781250334	0.05535373045471477
-0.48619106265625334	0.07008375732572909
-0.48613002750000334	0.0847348399952556
-0.48606899234375334	0.09929169707713431
-0.48600795718750334	0.11373989344223995
-0.48594692203125334	0.12806463563126158
-0.48588588687500334	0.14225006617038435
-0.48582485171875334	0.1562812714480121
-0.48576381656250334	0.17014484134611202
-0.48570278140625334	0.18382644375032675
-0.48564174625000334	0.19731090194047593
-0.48558071109375334	0.21058415287314794
-0.48551967593750334	0.22363295063614227
-0.48545864078125334	0.23644383250507928
-0.48539760562500334	0.24900317992642454
-0.48533657046875334	0.261297872577228
-0.48527553531250334	0.27331534033592886
-0.48521450015625334	0.2850428527970088
-0.48515346500000334	0.2964679766906465
-0.48509242984375334	0.30757933048054553
-0.48503139468750334	0.31836543496490133
-0.48497035953125334	0.32881443859749965
-0.48490932437500334	0.3389155094212619
-0.48484828921875334	0.3486584460698936
-0.48478725406250334	0.3580329776051353
-0.48472621890625334	0.36702932162328844
-0.48466518375000334	0.3756381497573949
-0.48460414859375334	0.3838502092660115
-0.48454311343750334	0.39165681229055477
-0.48448207828125334	0.39905021734580143
-0.48442104312500334	0.4060227762031652
-0.48436000796875334	0.41256676879086557
-0.48429897281250334	0.4186752455043313
-0.48423793765625334	0.4243420744932533
-0.48417690250000334	0.42956145112292066
-0.48411586734375334	0.4343277542259257
-0.48405483218750334	0.43863582499378223
-0.48399379703125334	0.4424811248892099
-0.48393276187500334	0.44585972844230176
-0.48387172671875334	0.44876817229430355
-0.48381069156250334	0.45120327354451817
-0.48374965640625334	0.45316233662404587
-0.48368862125000334	0.4546433076376096
-0.48362758609375334	0.45564467266995995
-0.48356655093750334	0.4561653739850983
-0.48350551578125334	0.45620477155523637
-0.48344448062500334	0.45576273286019725
-0.48338344546875334	0.4548397085538869
-0.48332241031250334	0.45343662366169485
-0.48326137515625334	0.45155485755512204
-0.48320034000000334	0.44919640076310596
-0.48313930484375334	0.4463637474349278
-0.48307826968750334	0.44305965483327975
-0.48301723453125334	0.4392874248035531
-0.48295619937500334	0.43505117178411323
-0.48289516421875334	0.4303554249646564
-0.48283412906250334	0.4252048321156613
-0.48277309390625334	0.41960458338017703
-0.48271205875000334	0.4135607132958344
-0.48265102359375334	0.4070795713424629
-0.48258998843750334	0.4001677420681046
-0.48252895328125334	0.3928325609356193
-0.48246791812500334	0.3850816749602624
-0.48240688296875334	0.37692282978161695
-0.48234584781250334	0.36836472090195554
-0.48228481265625334	0.3594166850322776
-0.48222377750000334	0.3500877736673407
-0.48216274234375334	0.34038741126623456
-0.48210170718750334	0.33032590755158
-0.48204067203125334	0.31991405657328925
-0.48197963687500334	0.30916279036405514
-0.48191860171875334	0.298082867600559
-0.48185756656250334	0.2866859678551097
-0.48179653140625334	0.2749846246631892
-0.48173549625000334	0.26299059365096333
-0.48167446109375334	0.25071623058913484
-0.48161342593750334	0.23817495486101806
-0.48155239078125334	0.22537962490528843
-0.48149135562500334	0.2123435268921203
-0.48143032046875334	0.1990807334329568
-0.48136928531250334	0.1856049630174052
-0.48130825015625334	0.17193012854845358
-0.48124721500000334	0.15807070346026783
-0.48118617984375334	0.14404151290809766
-0.48112514468750334	0.12985747123188707
-0.48106410953125334	0.1155328867640182
-0.48100307437500334	0.10108263141878764
-0.48094203921875334	0.08652279236022355
-0.48088100406250334	0.07186866490519567
-0.48081996890625334	0.057134892058988924
-0.48075893375000334	0.04233714138817922
-0.48069789859375334	0.027491444373888285
-0.48063686343750334	0.012613478906173203
-0.48057582828125334	-0.0022812716255493333
-0.48051479312500334	-0.017177387623200188
-0.48045375796875334	-0.032058923010445176
-0.48039272281250334	-0.04690989837031178
-0.48033168765625334	-0.06171475071691947
-0.48027065250000334	-0.0764580402804722
-0.48020961734375334	-0.09112431973822285
-0.48014858218750334	-0.10569773096377504
-0.48008754703125334	-0.1201627170178744
-0.48002651187500334	-0.13450420784418998
-0.47996547671875334	-0.14870718408104144
-0.47990444156250334	-0.1627567252634385
-0.47984340640625334	-0.17663746776570982
-0.47978237125000334	-0.19033448318470186
-0.47972133609375334	-0.20383374384184594
-0.47966030093750334	-0.21712107735660777
-0.47959926578125334	-0.23018229380751318
-0.47953823062500334	-0.24300309047180108
-0.47947719546875334	-0.2555695862212992
-0.47941616031250334	-0.2678691356532672
-0.47935512515625334	-0.2798888446528311
-0.47929409000000334	-0.29161523330460665
-0.47923305484375334	-0.3030356744550577
-0.47917201968750334	-0.31413835270824264
-0.47911098453125334	-0.32491154774031655
-0.47904994937500334	-0.33534361197286616
-0.47898891421875334	-0.34542321329923076
-0.47892787906250334	-0.3551395651010881
-0.47886684390625334	-0.3644823533903812
-0.47880580875000334	-0.37344159823485235
-0.47874477359375334	-0.38200763177132196
-0.47868373843750334	-0.3901710870090946
-0.47862270328125334	-0.39792318945186245
-0.47856166812500334	-0.40525578318729155
-0.47850063296875334	-0.4121608894328117
-0.47843959781250334	-0.41863068721594765
-0.47837856265625334	-0.42465822612004983
-0.47831752750000334	-0.4302373420663581
-0.47825649234375334	-0.43536172963464675
-0.47819545718750334	-0.4400254437375455
-0.47813442203125334	-0.44422359747213286
-0.47807338687500334	-0.4479516459139826
-0.47801235171875334	-0.4512052268032067
-0.47795131656250334	-0.4539807077761977
-0.47789028140625334	-0.4562750051386548
-0.47782924625000334	-0.45808540227754413
-0.47776821109375334	-0.4594097357299475
-0.47770717593750334	-0.46024638427420117
-0.47764614078125334	-0.46059423148640055
-0.47758510562500334	-0.4604526507690485
-0.47752407046875334	-0.45982154738669667
-0.47746303531250334	-0.45870136895147834
-0.47740200015625334	-0.45709299059660835
-0.47734096500000334	-0.45499785388602487
-0.47727992984375334	-0.4524180384616254
-0.47721889468750334	-0.4493559872615841
-0.47715785953125334	-0.44581453539767946
-0.47709682437500334	-0.4417972312845962
-0.47703578921875334	-0.437308219972994
-0.47697475406250334	-0.432351977622695
-0.47691371890625334	-0.4269333553456452
-0.47685268375000334	-0.4210577064441448
-0.47679164859375334	-0.41473119325193886
-0.47673061343750334	-0.40796053465704585
-0.47666957828125334	-0.4007523035511443
-0.47660854312500334	-0.39311358166192134
-0.47654750796875334	-0.3850526466735361
-0.47648647281250334	-0.37657791364168847
-0.47642543765625334	-0.3676977853251434
-0.47636440250000334	-0.358421483606562
-0.47630336734375334	-0.3487585234979311
-0.47624233218750334	-0.338718884955517
-0.47618129703125334	-0.3283133306860301
-0.47612026187500334	-0.3175524808786889
-0.47605922671875334	-0.30644716270722583
-0.47599819156250334	-0.2950089797405355
-0.47593715640625334	-0.2832500474718116
-0.47587612125000334	-0.2711828452089188
-0.47581508609375334	-0.25881970765222706
-0.47575405093750334	-0.24617311728298363
-0.47569301578125334	-0.23325648795899254
-0.47563198062500334	-0.2200835380535774
-0.47557094546875334	-0.20666806636978724
-0.47550991031250334	-0.19302412154982052
-0.47544887515625334	-0.1791654850303711
-0.47538784000000334	-0.1651066125935274
-0.47532680484375334	-0.15086291069333427
-0.47526576968750334	-0.13644926956781142
-0.47520473453125334	-0.12188024217707752
-0.47514369937500334	-0.10717122605926532
-0.47508266421875334	-0.09233800053086366
-0.47502162906250334	-0.07739576301390916
-0.47496059390625334	-0.062360299512980534
-0.47489955875000334	-0.04724799783004396
-0.47483852359375334	-0.03207419528348357
-0.47477748843750334	-0.01685446936044622
-0.47471645328125334	-0.0016054695575205525
-0.47465541812500334	0.013656720556628471
-0.47459438296875334	0.028916282661844497
-0.47453334781250334	0.044156863444766194
-0.47447231265625334	0.059362558111677455
-0.47441127750000334	0.07451767928772117
-0.47435024234375334	0.08960579298657914
-0.47428920718750334	0.10461063199983225
-0.47422817203125334	0.11951678631225643
-0.47416713687500334	0.13430864316098556
-0.47410610171875334	0.14897026766021515
-0.47404506656250334	0.1634861576168997
-0.47398403140625334	0.17784093698367318
-0.47392299625000334	0.19201942788680146
-0.47386196109375334	0.20600664670771984
-0.47380092593750334	0.21978757648519998
-0.47373989078125334	0.23334771369449148
-0.47367885562500334	0.24667282908145335
-0.47361782046875334	0.2597485092436584
-0.47355678531250334	0.27256062598944836
-0.47349575015625334	0.2850958666775762
-0.47343471500000334	0.29734125966377534
-0.47337367984375334	0.3092832066839206
-0.47331264468750334	0.3209086001322414
-0.47325160953125334	0.33220582708238483
-0.47319057437500334	0.34316278701790087
-0.47312953921875334	0.3537671340967522
-0.47306850406250334	0.3640079573880192
-0.47300746890625334	0.37387439363200003
-0.47294643375000334	0.3833554561512827
-0.47288539859375334	0.3924411656153627
-0.47282436343750334	0.40112198567937707
-0.47276332828125334	0.4093883885372816
-0.47270229312500334	0.4172312800937923
-0.47264125796875334	0.4246423757046738
-0.47258022281250334	0.43161380194107163
-0.47251918765625334	0.438137826895756
-0.47245815250000334	0.4442073761171312
-0.47239711734375334	0.4498159086091108
-0.47233608218750334	0.4549572216601861
-0.47227504703125334	0.45962579104017337
-0.47221401187500334	0.4638165318000084
-0.47215297671875334	0.4675246526436663
-0.47209194156250334	0.4707460124352773
-0.47203090640625334	0.47347715592902956
-0.47196987125000334	0.47571504103757006
-0.47190883609375334	0.4774569687980598
-0.47184780093750334	0.478700839212814
-0.47178676578125334	0.4794452164007656
-0.47172573062500334	0.47968915197505324
-0.47166469546875334	0.47943216044238457
-0.47160366031250334	0.4786742704292391
-0.47154262515625334	0.47741605457715486
-0.47148159000000334	0.47565869568004165
-0.47142055484375334	0.47340388075652645
-0.47135951968750334	0.4706537054661033
-0.47129848453125334	0.4674108863141042
-0.47123744937500334	0.4636787407861071
-0.47117641421875334	0.45946097364843874
-0.47111537906250334	0.45476181509463903
-0.47105434390625334	0.44958603783369155
-0.47099330875000334	0.44393893648778493
-0.47093227359375334	0.437826452164585
-0.47087123843750334	0.43125471797535603
-0.47081020328125334	0.42423030455383237
-0.47074916812500334	0.4167607883832302
-0.47068813296875334	0.4088539309908205
-0.47062709781250334	0.4005176738779549
-0.47056606265625334	0.3917607832447365
-0.47050502750000334	0.3825923244734502
-0.47044399234375334	0.3730217129799276
