Time	Frequency
-0.5000155228750032	0.40749994277130014
-0.49995448771875317	0.4205954136665209
-0.49989345256250317	0.4330311515090417
-0.49983241740625317	0.44478803946293927
-0.49977138225000317	0.4558480561835914
-0.49971034709375317	0.4661940663676513
-0.49964931193750317	0.4758098913146955
-0.49958827678125317	0.48468063711252424
-0.49952724162500317	0.4927927649257942
-0.49946620646875317	0.5001339492944278
-0.49940517131250317	0.5066928261117817
-0.49934413615625317	0.5124590805389009
-0.49928310100000317	0.5174238925907688
-0.49922206584375317	0.521579874381084
-0.49916103068750317	0.5249206547671049
-0.49909999553125317	0.5274410168231642
-0.49903896037500317	0.5291372113193163
-0.49897792521875317	0.5300068300564361
-0.49891689006250317	0.5300486091332439
-0.49885585490625317	0.5292625699892478
-0.49879481975000317	0.5276501628969887
-0.49873378459375317	0.5252140805881633
-0.49867274943750317	0.5219581531574718
-0.49861171428125317	0.5178876437084016
-0.49855067912500317	0.5130091585042087
-0.49848964396875317	0.5073304387368738
-0.49842860881250317	0.5008604429814183
-0.49836757365625317	0.49360936091765323
-0.49830653850000317	0.48558881175463126
-0.49824550334375317	0.4768116019628351
-0.49818446818750317	0.46729140114096274
-0.49812343303125317	0.45704318115430387
-0.49806239787500317	0.44608324243772707
-0.49800136271875317	0.4344289339739795
-0.49794032756250317	0.42209878102384224
-0.49787929240625317	0.4091120178985947
-0.49781825725000317	0.3954888635706972
-0.49775722209375317	0.38125115995691916
-0.49769618693750317	0.3664215533342588
-0.49763515178125317	0.3510231839254311
-0.49757411662500317	0.3350801361302231
-0.49751308146875317	0.3186175712679757
-0.49745204631250317	0.3016616375297107
-0.49739101115625317	0.2842393675746118
-0.49732997600000317	0.2663778635589368
-0.49726894084375317	0.24810476535564518
-0.49720790568750317	0.2294495911522139
-0.49714687053125317	0.2104420424373566
-0.49708583537500317	0.19111137448175997
-0.49702480021875317	0.17148805177041526
-0.49696376506250317	0.15160350161324532
-0.49690272990625317	0.1314891308274093
-0.49684169475000317	0.11117639766192265
-0.49678065959375317	0.09069716193289486
-0.49671962443750317	0.07008402552465512
-0.49665858928125317	0.04936976309455881
-0.49659755412500317	0.028586570215637087
-0.49653651896875317	0.007767395297368285
-0.49647548381250317	-0.013054359637059558
-0.49641444865625317	-0.03384622203157668
-0.49635341350000317	-0.054575602070098816
-0.49629237834375317	-0.07520958905625143
-0.49623134318750317	-0.09571528263210956
-0.49617030803125317	-0.11606011044151827
-0.49610927287500317	-0.1362123108507013
-0.49604823771875317	-0.15614000894572844
-0.49598720256250317	-0.17581148325787316
-0.49592616740625317	-0.19519578794840065
-0.49586513225000317	-0.21426195792576935
-0.49580409709375317	-0.2329795558811702
-0.49574306193750317	-0.2513195483302344
-0.49568202678125317	-0.2692530567746321
-0.49562099162500317	-0.2867508039905794
-0.49555995646875317	-0.3037849048382899
-0.49549892131250317	-0.3203290810946905
-0.49543788615625317	-0.33635722230255893
-0.49537685100000317	-0.35184339602646714
-0.49531581584375317	-0.36676265939755254
-0.49525478068750317	-0.38109147868714305
-0.49519374553125317	-0.39480742771871286
-0.49513271037500317	-0.40788863156530814
-0.49507167521875317	-0.4203140182052253
-0.49501064006250317	-0.4320636202771842
-0.49494960490625317	-0.44311869312168356
-0.49488856975000317	-0.4534619643069007
-0.49482753459375317	-0.46307679596262813
-0.49476649943750317	-0.4719473040686781
-0.49470546428125317	-0.4800595601091991
-0.49464442912500317	-0.4874007884195853
-0.49458339396875317	-0.493958833231427
-0.49452235881250317	-0.499723025160069
-0.49446132365625317	-0.5046841905210235
-0.49440028850000317	-0.5088342691065115
-0.49433925334375317	-0.5121664270570571
-0.49427821818750317	-0.5146751156864227
-0.49421718303125317	-0.5163560892212795
-0.49415614787500317	-0.5172064839877076
-0.49409511271875317	-0.5172247612907375
-0.49403407756250317	-0.5164106150645339
-0.49397304240625317	-0.5147649974391082
-0.49391200725000317	-0.5122902996564681
-0.49385097209375317	-0.5089902740894539
-0.49378993693750317	-0.5048698772199314
-0.49372890178125317	-0.499935313107421
-0.49366786662500317	-0.4941940551355408
-0.49360683146875317	-0.4876550371264384
-0.49354579631250317	-0.4803285391858084
-0.49348476115625317	-0.4722257659024771
-0.49342372600000317	-0.46335915459891464
-0.49336269084375317	-0.45374263426943107
-0.49330165568750317	-0.443391377181612
-0.49324062053125317	-0.4323214362895028
-0.49317958537500317	-0.42054982346437064
-0.49311855021875317	-0.408095251281581
-0.49305751506250317	-0.39497748151680967
-0.49299647990625317	-0.38121670872851865
-0.49293544475000317	-0.3668344680773771
-0.49287440959375317	-0.35185357360653385
-0.49281337443750317	-0.33629768934704984
-0.49275233928125317	-0.3201912101382665
-0.49269130412500317	-0.3035591082253414
-0.49263026896875317	-0.28642788210511133
-0.49256923381250317	-0.26882503814408837
-0.49250819865625317	-0.2507777736073944
-0.49244716350000317	-0.2323141909673725
-0.49238612834375317	-0.21346394167082997
-0.49232509318750317	-0.1942573801690648
-0.49226405803125317	-0.17472436847370768
-0.49220302287500317	-0.15489488323180015
-0.49214198771875317	-0.13480115031494092
-0.49208095256250317	-0.11447591954270032
-0.49201991740625317	-0.09395021943988467
-0.49195888225000317	-0.07325600915837799
-0.49189784709375317	-0.05242739208936363
-0.49183681193750317	-0.031497282394657926
-0.49177577678125317	-0.010498032078848698
-0.49171474162500317	0.01053637900704017
-0.49165370646875317	0.03157234727420682
-0.49159267131250317	0.05257688299169984
-0.49153163615625317	0.07351651307132387
-0.49147060100000317	0.09435772246773394
-0.49140956584375317	0.11506726169112137
-0.49134853068750317	0.13561230373305316
-0.49128749553125317	0.15596009730999397
-0.49122646037500317	0.1760779626187348
-0.49116542521875317	0.19593404608354223
-0.49110439006250317	0.21549667168283276
-0.49104335490625317	0.2347340188553347
-0.49098231975000317	0.25361558433749376
-0.49092128459375317	0.27211164568607055
-0.49086024943750317	0.2901921727172948
-0.49079921428125317	0.3078279460995421
-0.49073817912500317	0.3249906509338896
-0.49067714396875317	0.3416527320870123
-0.49061610881250317	0.3577879258233613
-0.49055507365625317	0.37337026946577134
-0.49049403850000317	0.3883738416479807
-0.49043300334375317	0.40277422015738645
-0.49037196818750317	0.4165489562017634
-0.49031093303125317	0.42967612188319854
-0.49024989787500317	0.4421337675144699
-0.49018886271875317	0.45390116135152575
-0.49012782756250317	0.46495945339004063
-0.49006679240625317	0.47529118650624796
-0.49000575725000317	0.4848792888334214
-0.48994472209375317	0.49370755906467373
-0.48988368693750317	0.501761540956015
-0.48982265178125317	0.5090279760018059
-0.48976161662500317	0.5154948176513942
-0.48970058146875317	0.5211513971192672
-0.48963954631250317	0.5259880054215682
-0.48957851115625317	0.529996139848589
-0.48951747600000317	0.5331689697156887
-0.48945644084375317	0.5355010532469062
-0.48939540568750317	0.5369879656635977
-0.48933437053125317	0.5376265861101702
-0.48927333537500317	0.5374153724492449
-0.48921230021875317	0.5363540630947164
-0.48915126506250317	0.534443644519358
-0.48909022990625317	0.5316865509454223
-0.48902919475000317	0.5280864664306758
-0.48896815959375317	0.5236484185284014
-0.48890712443750317	0.5183789591545003
-0.48884608928125317	0.5122858100708181
-0.48878505412500317	0.5053777940334439
-0.48872401896875317	0.4976652553830991
-0.48866298381250317	0.4891599849404078
-0.48860194865625317	0.479874776008848
-0.48854091350000317	0.4698236287528214
-0.48847987834375317	0.4590220855623477
-0.48841884318750317	0.44748650518372396
-0.48835780803125317	0.43523427981419466
-0.48829677287500317	0.4222847291835234
-0.48823573771875317	0.40865793249998633
-0.48817470256250317	0.3943744888721691
-0.48811366740625317	0.37945642788966577
-0.48805263225000317	0.36392701692783114
-0.48799159709375317	0.34781060481232884
-0.48793056193750317	0.3311320987195741
-0.48786952678125317	0.3139170904970357
-0.48780849162500317	0.2961925561676226
-0.48774745646875317	0.2779862747909181
-0.48768642131250317	0.25932660798877905
-0.48762538615625317	0.24024256624828785
-0.48756435100000317	0.22076382739107747
-0.48750331584375317	0.20092108784067975
-0.48744228068750317	0.18074556410477374
-0.48738124553125317	0.1602685877570784
-0.48732021037500317	0.13952209755214448
-0.48725917521875317	0.11853889814944313
-0.48719814006250317	0.09735175910196142
-0.48713710490625317	0.07599388710105441
-0.48707606975000317	0.05449950168318895
-0.48701503459375317	0.032901896660844726
-0.48695399943750317	0.0112344002461334
-0.48689296428125317	-0.010468157537629358
-0.48683192912500317	-0.03217154426738642
-0.48677089396875317	-0.05384165598889159
-0.48670985881250317	-0.07544396988087508
-0.48664882365625317	-0.09694533278098591
-0.48658778850000317	-0.1183119152522426
-0.48652675334375317	-0.13950873837245747
-0.48646571818750317	-0.16050264568906744
-0.48640468303125317	-0.18126113724163354
-0.48634364787500317	-0.20175108670107506
-0.48628261271875317	-0.22194001413313158
-0.48622157756250317	-0.2417960261616495
-0.48616054240625317	-0.2612875315207327
-0.48609950725000317	-0.2803836635297057
-0.48603847209375317	-0.299054126338554
-0.48597743693750317	-0.3172694130621947
-0.48591640178125317	-0.3350008567299075
-0.48585536662500317	-0.3522200074087003
-0.48579433146875317	-0.3688993022610855
-0.48573329631250317	-0.3850123664826429
-0.48567226115625317	-0.4005336304651099
-0.48561122600000317	-0.4154385460489381
-0.48555019084375317	-0.4297033638621006
-0.48548915568750317	-0.4433050027111223
-0.48542812053125317	-0.45622167072770176
-0.48536708537500317	-0.4684331162689665
-0.48530605021875317	-0.47991987055641994
-0.48524501506250317	-0.4906632699326564
-0.48518397990625317	-0.500646106903001
-0.48512294475000317	-0.5098524419268973
-0.48506190959375317	-0.5182674885869543
-0.48500087443750317	-0.5258776778413664
-0.48493983928125317	-0.5326706741111099
-0.48487880412500317	-0.5386355512422117
-0.48481776896875317	-0.5437626230728101
-0.48475673381250317	-0.5480434452944417
-0.48469569865625317	-0.5514710376621379
-0.48463466350000317	-0.5540397475142774
-0.48457362834375317	-0.5557452211605605
-0.48451259318750317	-0.5565844964897955
-0.48445155803125317	-0.556556028444205
-0.48439052287500317	-0.555659573084619
-0.48432948771875317	-0.5538962740541227
-0.48426845256250317	-0.5512687547385325
-0.48420741740625317	-0.5477808945130689
-0.48414638225000317	-0.5434378855294443
-0.48408534709375317	-0.5382464494718899
-0.48402431193750317	-0.5322146452238299
-0.48396327678125317	-0.5253516225759705
-0.48390224162500317	-0.5176680451984536
-0.48384120646875317	-0.509176026856185
-0.48378017131250317	-0.49988861523991274
-0.48371913615625317	-0.4898203397238518
-0.48365810100000317	-0.4789871697021063
-0.48359706584375317	-0.4674057540939305
-0.48353603068750317	-0.4550942050965249
-0.48347499553125317	-0.4420721685637946
-0.48341396037500317	-0.4283599730899104
-0.48335292521875317	-0.4139791892974265
-0.48329189006250317	-0.39895235972951915
-0.48323085490625317	-0.3833029366343121
-0.48316981975000317	-0.36705591022339223
-0.48310878459375317	-0.3502368912072273
-0.48304774943750317	-0.3328722357075168
-0.48298671428125317	-0.31498958356992446
-0.48292567912500317	-0.2966169029708129
-0.48286464396875317	-0.27778291342266775
-0.48280360881250317	-0.2585179170236649
-0.48274257365625317	-0.23885264106465576
-0.48268153850000317	-0.21881763422774592
-0.48262050334375317	-0.1984442839993422
-0.48255946818750317	-0.17776524895812454
-0.48249843303125317	-0.15681364562998654
-0.48243739787500317	-0.13562236666578037
-0.48237636271875317	-0.11422454953110442
-0.48231532756250317	-0.0926543010532666
-0.48225429240625317	-0.07094616746507917
-0.48219325725000317	-0.049134484688035544
-0.48213222209375317	-0.02725353267805736
-0.48207118693750317	-0.005338000986337418
-0.48201015178125317	0.016576968847122644
-0.48194911662500317	0.038456681915579785
-0.48188808146875317	0.06026673514021879
-0.48182704631250317	0.08197237428500596
-0.48176601115625317	0.10353886087158004
-0.48170497600000317	0.12493196285499446
-0.48164394084375317	0.14611802614715885
-0.48158290568750317	0.16706347564145305
-0.48152187053125317	0.18773463595401257
-0.48146083537500317	0.2080984444324718
-0.48139980021875317	0.22812300311292988
-0.48133876506250317	0.24777666980609725
-0.48127772990625317	0.26702765216745783
-0.48121669475000317	0.28584538730817316
-0.48115565959375317	0.3042003001482734
-0.48109462443750317	0.322062861493321
-0.48103358928125317	0.33940474929327924
-0.48097255412500317	0.356198689794697
-0.48091151896875317	0.37241747727550384
-0.48085048381250317	0.3880352253219454
-0.48078944865625317	0.4030275747832345
-0.48072841350000317	0.4173706304818089
-0.48066737834375317	0.4310412909327168
-0.48060634318750317	0.44401770142372093
-0.48054530803125317	0.4562793508458292
-0.48048427287500317	0.46780698147061234
-0.48042323771875317	0.4785820965011171
-0.48036220256250317	0.4885873637440319
-0.48030116740625317	0.497807006241691
-0.48024013225000317	0.5062263798070258
-0.48017909709375317	0.5138321399760891
-0.48011806193750317	0.5206122420369734
-0.48005702678125317	0.5265558156110932
-0.47999599162500317	0.5316534526028827
-0.47993495646875317	0.5358971190145176
-0.47987392131250317	0.5392801396949346
-0.47981288615625317	0.5417972186595369
-0.47975185100000317	0.5434443647853798
-0.47969081584375317	0.5442190085040599
-0.47962978068750317	0.5441200539331633
-0.47956874553125317	0.543147818818865
-0.47950771037500317	0.5413039319303751
-0.47944667521875317	0.5385913392121888
-0.47938564006250317	0.5350145173017764
-0.47932460490625317	0.5305794903198422
-0.47926356975000317	0.5252934719264296
-0.47920253459375317	0.5191648469988668
-0.47914149943750317	0.5122035486879999
-0.47908046428125317	0.5044209315200359
-0.47901942912500317	0.49582971928028796
-0.47895839396875317	0.48644392852359847
-0.47889735881250317	0.4762784598736197
-0.47883632365625317	0.4653495757418565
-0.47877528850000317	0.4536752604283926
-0.47871425334375317	0.4412746399315616
-0.47865321818750317	0.42816741422475235
-0.47859218303125317	0.41437451037532513
-0.47853114787500317	0.3999185942155411
-0.47847011271875317	0.3848231723345205
-0.47840907756250317	0.36911243097696744
-0.47834804240625317	0.3528116415957107
-0.47828700725000317	0.33594720472612444
-0.47822597209375317	0.3185464291207822
-0.47816493693750317	0.3006375181007595
-0.47810390178125317	0.2822495145293508
-0.47804286662500317	0.26341200022043537
-0.47798183146875317	0.2441553355190217
-0.47792079631250317	0.224510660427226
-0.47785976115625317	0.20450977871463857
-0.47779872600000317	0.18418524939906955
-0.47773769084375317	0.16357021900363583
-0.47767665568750317	0.14269767512551304
-0.47761562053125317	0.12160071800089274
-0.47755458537500317	0.10031402697908678
-0.47749355021875317	0.07887290078222126
-0.47743251506250317	0.057311657221080996
-0.47737147990625317	0.03566448035737449
-0.47731044475000317	0.013966557810265113
-0.47724940959375317	-0.007746338381788718
-0.47718837443750317	-0.029439070224059356
-0.47712733928125317	-0.051076844357899116
-0.47706630412500317	-0.07262428612865673
-0.47700526896875317	-0.0940463948712194
-0.47694423381250317	-0.11530897631276275
-0.47688319865625317	-0.1363772662996461
-0.47682216350000317	-0.15721646107660958
-0.47676112834375317	-0.1777930547575073
-0.47670009318750317	-0.1980739616837518
-0.47663905803125317	-0.21802610032590924
-0.47657802287500317	-0.23761695755576503
-0.47651698771875317	-0.2568145009367543
-0.47645595256250317	-0.27558749097439567
-0.47639491740625317	-0.29390573530470526
-0.47633388225000317	-0.31173929923902943
-0.47627284709375317	-0.32905888302697184
-0.47621181193750317	-0.345836419335431
-0.47615077678125317	-0.36204445351304154
-0.47608974162500317	-0.3776566626505789
-0.47602870646875317	-0.3926478057942747
-0.47596767131250317	-0.40699302066659976
-0.47590663615625317	-0.4206686740694637
-0.47584560100000317	-0.43365275480030047
-0.47578456584375317	-0.44592411998932663
-0.47572353068750317	-0.4574624509314141
-0.47566249553125317	-0.46824877867162895
-0.47560146037500317	-0.47826537036512723
-0.47554042521875317	-0.4874958059641348
-0.47547939006250317	-0.49592501975575665
-0.47541835490625317	-0.5035390070795324
-0.47535731975000317	-0.5103250648239201
-0.47529628459375317	-0.5162719701142218
-0.47523524943750317	-0.5213699018550664
-0.47517421428125317	-0.5256103537131724
-0.47511317912500317	-0.5289861218595996
-0.47505214396875317	-0.5314914646572829
-0.47499110881250317	-0.5331220774951236
-0.47493007365625317	-0.5338750341970777
-0.47486903850000317	-0.5337488839261959
-0.47480800334375317	-0.532743531444226
-0.47474696818750317	-0.5308603057971539
-0.47468593303125317	-0.5281021021238766
-0.47462489787500317	-0.524473086759089
-0.47456386271875317	-0.5199787912685443
-0.47450282756250317	-0.5146263388700563
-0.47444179240625317	-0.5084242544795651
-0.47438075725000317	-0.5013822815646489
-0.47431972209375317	-0.49351141943079513
-0.47425868693750317	-0.4848242706809237
-0.47419765178125317	-0.4753349180281391
-0.47413661662500317	-0.46505852979679896
-0.47407558146875317	-0.4540114514750586
-0.47401454631250317	-0.4422111357355457
-0.47395351115625317	-0.4296764851230649
-0.47389247600000317	-0.41642828258219683
-0.47383144084375317	-0.4024878987515212
-0.47377040568750317	-0.38787700731393615
-0.47370937053125317	-0.3726192072071332
-0.47364833537500317	-0.3567395680643594
-0.47358730021875317	-0.34026377471522057
-0.47352626506250317	-0.32321838283355053
-0.47346522990625317	-0.30563055387327387
-0.47340419475000317	-0.2875287605272067
-0.47334315959375317	-0.2689428149471885
-0.47328212443750317	-0.24990272442689512
-0.47322108928125317	-0.2304388839370655
-0.47316005412500317	-0.21058274818658723
-0.47309901896875317	-0.19036700478253354
-0.47303798381250317	-0.16982476286052273
-0.47297694865625317	-0.1489890080152392
-0.47291591350000317	-0.1278929165801104
-0.47285487834375317	-0.10657091712092744
-0.47279384318750317	-0.08505882841245398
-0.47273280803125317	-0.06339140867545077
-0.47267177287500317	-0.04160269310531112
-0.47261073771875317	-0.0197286552378922
-0.47254970256250317	0.002194232900369055
-0.47248866740625317	0.024130998017757668
-0.47242763225000317	0.046046055480052375
-0.47236659709375317	0.0679028169117471
-0.47230556193750317	0.0896660415643609
-0.47224452678125317	0.11130066449564929
-0.47218349162500317	0.13277070698445356
-0.47212245646875317	0.15404113974468162
-0.47206142131250317	0.17507743789341315
-0.47200038615625317	0.19584476751715257
-0.47193935100000317	0.21630933050161877
-0.47187831584375317	0.23643787956206894
-0.47181728068750317	0.2561969521124938
-0.47175624553125317	0.2755540688017721
-0.47169521037500317	0.29447785871113963
-0.47163417521875317	0.3129370723343454
-0.47157314006250317	0.33090096177453504
-0.47151210490625317	0.34834013013711507
-0.47145106975000317	0.36522623228452517
-0.47139003459375317	0.3815312826311882
-0.47132899943750317	0.3972278574845087
-0.47126796428125317	0.4122901429918507
-0.47120692912500317	0.42669361444550286
-0.47114589396875317	0.4404141764245058
-0.47108485881250317	0.45342893190665884
-0.47102382365625317	0.4657163122998379
-0.47096278850000317	0.4772557757361725
-0.47090175334375317	0.48802825092974844
-0.47084071818750317	0.49801552393265797
-0.47077968303125317	0.5072005615668148
-0.47071864787500317	0.515568370799827
-0.47065761271875317	0.5231048406521134
-0.47059657756250317	0.5297967376552978
-0.47053554240625317	0.5356326628996299
-0.47047450725000317	0.5406027186761433
-0.47041347209375317	0.5446982985786587
-0.47035243693750317	0.5479121451827529
-0.47029140178125317	0.5502383202605404
