Time	Frequency
-0.5000470731875026	0.43444110330222396
-0.49998603803125263	0.4261775459341072
-0.49992500287500263	0.41734201798925313
-0.49986396771875263	0.40794645081909536
-0.49980293256250263	0.3980034669272482
-0.49974189740625263	0.3875258597730797
-0.49968086225000263	0.37652709377748367
-0.49961982709375263	0.36502193051729426
-0.49955879193750263	0.35302572737909665
-0.49949775678125263	0.3405540448298923
-0.49943672162500263	0.32762342899140906
-0.49937568646875263	0.3142508181174315
-0.49931465131250263	0.300453715058312
-0.49925361615625263	0.2862506703284987
-0.49919258100000263	0.2716603225281051
-0.49913154584375263	0.2567018209897652
-0.49907051068750263	0.24139502419501316
-0.49900947553125263	0.2257600866554482
-0.49894844037500263	0.20981763271914472
-0.49888740521875263	0.19358895377443522
-0.49882637006250263	0.1770955381706351
-0.49876533490625263	0.16035873419894248
-0.49870429975000263	0.14340106491735935
-0.49864326459375263	0.1262454481723462
-0.49858222943750263	0.10891382791685603
-0.49852119428125263	0.09142908200637269
-0.49846015912500263	0.07381530217104507
-0.49839912396875263	0.056095491969388324
-0.49833808881250263	0.038292542321800405
-0.49827705365625263	0.020430733864572226
-0.49821601850000263	0.0025337902736459173
-0.49815498334375263	-0.01537483517962578
-0.49809394818750263	-0.03327097255453627
-0.49803291303125263	-0.05113112202281419
-0.49797187787500263	-0.06893163311458135
-0.49791084271875263	-0.08664833032820268
-0.49784980756250263	-0.10425786787565593
-0.49778877240625263	-0.12173678087855208
-0.49772773725000263	-0.13906162371501046
-0.49766670209375263	-0.1562098532806493
-0.49760566693750263	-0.17315819247474784
-0.49754463178125263	-0.18988342902603153
-0.49748359662500263	-0.20636369800569213
-0.49742256146875263	-0.2225773824634438
-0.49736152631250263	-0.238502707958744
-0.49730049115625263	-0.2541177881988057
-0.49723945600000263	-0.26940149078575243
-0.49717842084375263	-0.28433395917807397
-0.49711738568750263	-0.29889543501418453
-0.49705635053125263	-0.31306577547715203
-0.49699531537500263	-0.32682580225625746
-0.49693428021875263	-0.3401572784763287
-0.49687324506250263	-0.35304208620919514
-0.49681220990625263	-0.3654631479562068
-0.49675117475000263	-0.3774036664629985
-0.49669013959375263	-0.38884697389612244
-0.49662910443750263	-0.39977785154224177
-0.49656806928125263	-0.4101816873879465
-0.49650703412500263	-0.42004424662580025
-0.49644599896875263	-0.42935185524889546
-0.49638496381250263	-0.4380918112066708
-0.49632392865625263	-0.44625255906743544
-0.49626289350000263	-0.4538226972205432
-0.49620185834375263	-0.46079145060950816
-0.49614082318750263	-0.46714940125032284
-0.49607978803125263	-0.4728880134603913
-0.49601875287500263	-0.4779990765458834
-0.49595771771875263	-0.48247507722214195
-0.49589668256250263	-0.4863099226351913
-0.49583564740625263	-0.4894982326409915
-0.49577461225000263	-0.4920351339394255
-0.49571357709375263	-0.49391686008420194
-0.49565254193750263	-0.49514049954023215
-0.49559150678125263	-0.49570394913620164
-0.49553047162500263	-0.4956060249673566
-0.49546943646875263	-0.4948464362073712
-0.49540840131250263	-0.49342571962031806
-0.49534736615625263	-0.49134522959897037
-0.49528633100000263	-0.4886072754053366
-0.49522529584375263	-0.48521513283351003
-0.49516426068750263	-0.48117279344209285
-0.49510322553125263	-0.476485079650212
-0.49504219037500263	-0.47115781348781643
-0.49498115521875263	-0.4651975300579585
-0.49492012006250263	-0.45861170042167176
-0.49485908490625263	-0.451408774379329
-0.49479804975000263	-0.4435977148889222
-0.49473701459375263	-0.43518819710947293
-0.49467597943750263	-0.4261910701432139
-0.49461494428125263	-0.41661816961648424
-0.49455390912500263	-0.40648156096714244
-0.49449287396875263	-0.39579387274250255
-0.49443183881250263	-0.38456900523858223
-0.49437080365625263	-0.3728218082429852
-0.49430976850000263	-0.3605673476517319
-0.49424873334375263	-0.3478209778366955
-0.49418769818750263	-0.33459944230565747
-0.49412666303125263	-0.3209203149624633
-0.49406562787500263	-0.30680094325524304
-0.49400459271875263	-0.2922592716227852
-0.49394355756250263	-0.2773148171740663
-0.49388252240625263	-0.26198742930960994
-0.49382148725000263	-0.24629620458214244
-0.49376045209375263	-0.2302614278909919
-0.49369941693750263	-0.2139048473084816
-0.49363838178125263	-0.19724795313850219
-0.49357734662500263	-0.1803119374289009
-0.49351631146875263	-0.1631186255587797
-0.49345527631250263	-0.1456912191199813
-0.49339424115625263	-0.12805275067874936
-0.49333320600000263	-0.11022564655338327
-0.49327217084375263	-0.09223348145566367
-0.49321113568750263	-0.07410022854211282
-0.49315010053125263	-0.05584945421181601
-0.49308906537500263	-0.037505163169979615
-0.49302803021875263	-0.019091499838550997
-0.49296699506250263	-0.0006323208640591801
-0.49290595990625263	0.01784740455274143
-0.49284492475000263	0.03632294338816503
-0.49278388959375263	0.054771410672884165
-0.49272285443750263	0.07316823492945643
-0.49266181928125263	0.09148760377387823
-0.49260078412500263	0.10970613944612766
-0.49253974896875263	0.12780060833312404
-0.49247871381250263	0.14574635328581226
-0.49241767865625263	0.1635195833718219
-0.49235664350000263	0.18109699770529886
-0.49229560834375263	0.19845498863946195
-0.49223457318750263	0.21557074290424103
-0.49217353803125263	0.23242200627745305
-0.49211250287500263	0.24898621474222787
-0.49205146771875263	0.2652407835499501
-0.49199043256250263	0.2811643815936276
-0.49192939740625263	0.29673645252974407
-0.49186836225000263	0.31193602327991893
-0.49180732709375263	0.3267424666235551
-0.49174629193750263	0.3411361019980611
-0.49168525678125263	0.3550981114695551
-0.49162422162500263	0.3686100177527637
-0.49156318646875263	0.3816534198195918
-0.49150215131250263	0.3942106720986227
-0.49144111615625263	0.40626529391764654
-0.49138008100000263	0.4178014055151998
-0.49131904584375263	0.428803257188254
-0.49125801068750263	0.43925598662156373
-0.49119697553125263	0.44914568529773813
-0.49113594037500263	0.45845907931961655
-0.49107490521875263	0.4671836211263977
-0.49101387006250263	0.47530736087634284
-0.49095283490625263	0.4828195015650724
-0.49089179975000263	0.48971002260073415
-0.49083076459375263	0.4959691977036423
-0.49076972943750263	0.5015884147827632
-0.49070869428125263	0.506560314135866
-0.49064765912500263	0.5108781065546462
-0.49058662396875263	0.5145355721487651
-0.49052558881250263	0.5175275491230477
-0.49046455365625263	0.519849921056782
-0.49040351850000263	0.5214993714795648
-0.49034248334375263	0.5224734581173517
-0.49028144818750263	0.5227705310850982
-0.49022041303125263	0.5223898547119947
-0.49015937787500263	0.5213317520973567
-0.49009834271875263	0.5195973543189213
-0.49003730756250263	0.5171886588141471
-0.48997627240625263	0.5141085335511082
-0.48991523725000263	0.5103607067023492
-0.48985420209375263	0.5059499287142897
-0.48979316693750263	0.5008818567400536
-0.48973213178125263	0.49516282643321113
-0.48967109662500263	0.4888000968529176
-0.48961006146875263	0.4818018044209294
-0.48954902631250263	0.47417685987836095
-0.48948799115625263	0.4659353517133151
-0.48942695600000263	0.4570880192408081
-0.48936592084375263	0.4476458172750532
-0.48930488568750263	0.4376209739714615
-0.48924385053125263	0.4270270680230708
-0.48918281537500263	0.4158777862952625
-0.48912178021875263	0.4041871682596902
-0.48906074506250263	0.3919705948704954
-0.48899970990625263	0.3792443407312234
-0.48893867475000263	0.36602494980133465
-0.48887763959375263	0.3523293159583189
-0.48881660443750263	0.33817547205080895
-0.48875556928125263	0.3235823807763266
-0.48869453412500263	0.3085688524324069
-0.48863349896875263	0.29315449425763257
-0.48857246381250263	0.277359635544271
-0.48851142865625263	0.2612047032540406
-0.48845039350000263	0.2447112900262372
-0.48838935834375263	0.22790136085458962
-0.48832832318750263	0.21079636153024034
-0.48826728803125263	0.1934186497681477
-0.48820625287500263	0.17579174797953873
-0.48814521771875263	0.15793880018931897
-0.48808418256250263	0.13988279200124396
-0.48802314740625263	0.12164763867305026
-0.48796211225000263	0.10325773046991941
-0.48790107709375263	0.08473729006650585
-0.48784004193750263	0.06611023008424075
-0.48777900678125263	0.047401270866679
-0.48771797162500263	0.028635573158719094
-0.48765693646875263	0.00983748969660946
-0.48759590131250263	-0.008968257845728148
-0.48753486615625263	-0.027756480285655524
-0.48747383100000263	-0.046502525842813835
-0.48741279584375263	-0.06518207496783376
-0.48735176068750263	-0.08376986034729363
-0.48729072553125263	-0.1022408911751832
-0.48722969037500263	-0.12057195573780555
-0.48716865521875263	-0.13873864997886892
-0.48710762006250263	-0.15671574425446763
-0.48704658490625263	-0.17448014728031735
-0.48698554975000263	-0.1920090154328103
-0.48692451459375263	-0.20927867021444516
-0.48686347943750263	-0.22626591571444943
-0.48680244428125263	-0.24294823456302428
-0.48674140912500263	-0.2593040997621449
-0.48668037396875263	-0.27531199428117525
-0.48661933881250263	-0.2909500173253115
-0.48655830365625263	-0.30619771288506803
-0.48649726850000263	-0.3210352255971448
-0.48643623334375263	-0.33544252169857913
-0.48637519818750263	-0.34940055429269945
-0.48631416303125263	-0.36289110194891017
-0.48625312787500263	-0.37589631222768444
-0.48619209271875263	-0.3883987096479724
-0.48613105756250263	-0.40038159234974574
-0.48607002240625263	-0.41182940551510455
-0.48600898725000263	-0.4227272599255034
-0.48594795209375263	-0.43306035683476496
-0.48588691693750263	-0.4428147972376551
-0.48582588178125263	-0.45197804683346143
-0.48576484662500263	-0.4605379955760595
-0.48570381146875263	-0.4684832436001239
-0.48564277631250263	-0.4758033521645908
-0.48558174115625263	-0.4824885432467544
-0.48552070600000263	-0.4885300216450365
-0.48545967084375263	-0.49391989206894216
-0.48539863568750263	-0.4986510724697441
-0.48533760053125263	-0.502717365569068
-0.48527656537500263	-0.506113488531415
-0.48521553021875263	-0.5088349079950522
-0.48515449506250263	-0.5108780334920872
-0.48509345990625263	-0.5122404131923277
-0.48503242475000263	-0.5129203948537906
-0.48497138959375263	-0.5129170672327081
-0.48491035443750263	-0.5122305003319271
-0.48484931928125263	-0.5108617448343094
-0.48478828412500263	-0.5088128795487248
-0.48472724896875263	-0.5060867574368962
-0.48466621381250263	-0.5026869831712267
-0.48460517865625263	-0.49861830369814775
-0.48454414350000263	-0.4938863322369638
-0.48448310834375263	-0.4884974759731398
-0.48442207318750263	-0.4824591412896392
-0.48436103803125263	-0.47577953061860073
-0.48430000287500263	-0.46846761556543864
-0.48423896771875263	-0.46053336423713664
-0.48417793256250263	-0.45198754050239986
-0.48411689740625263	-0.44284174541472754
-0.48405586225000263	-0.4331084734900679
-0.48399482709375263	-0.42280082680091424
-0.48393379193750263	-0.411932566743619
-0.48387275678125263	-0.40051842268460996
-0.48381172162500263	-0.38857415140775664
-0.48375068646875263	-0.37611592859659776
-0.48368965131250263	-0.3631602176097794
-0.48362861615625263	-0.3497245876940392
-0.48356758100000263	-0.3358275537364035
-0.48350654584375263	-0.32148765593251805
-0.48344551068750263	-0.3067241838903008
-0.48338447553125263	-0.29155761056960044
-0.48332344037500263	-0.27600809747727145
-0.48326240521875263	-0.2600962133011275
-0.48320137006250263	-0.2438440645673105
-0.48314033490625263	-0.2272738950808992
-0.48307929975000263	-0.2104077086684748
-0.48301826459375263	-0.19326819275396137
-0.48295722943750263	-0.17587857934133547
-0.48289619428125263	-0.1582623792023815
-0.48283515912500263	-0.1404440340866552
-0.48277412396875263	-0.12244762564387035
-0.48271308881250263	-0.10429639845581369
-0.48265205365625263	-0.08601525014099616
-0.48259101850000263	-0.06763002528672703
-0.48252998334375263	-0.04916526864087363
-0.48246894818750263	-0.03064527181383633
-0.48240791303125263	-0.012095335288908843
-0.48234687787500263	0.006459100382575165
-0.48228584271875263	0.024993052690594757
-0.48222480756250263	0.043481019123149924
-0.48216377240625263	0.06189801013460511
-0.48210273725000263	0.08021979233178221
-0.48204170209375263	0.09842095375888847
-0.48198066693750263	0.11647646246218701
-0.48191963178125263	0.13436225710729777
-0.48185859662500263	0.15205398339143752
-0.48179756146875263	0.16952737394781936
-0.48173652631250263	0.1867588133632716
-0.48167549115625263	0.20372535490830745
-0.48161445600000263	0.2204034105160309
-0.48155342084375263	0.23676974714657875
-0.48149238568750263	0.2528029940762614
-0.48143135053125263	0.2684814588672489
-0.48137031537500263	0.2837831953796858
-0.48130928021875263	0.29868743107141416
-0.48124824506250263	0.3131738000179076
-0.48118720990625263	0.32722272178253176
-0.48112617475000263	0.34081521055732233
-0.48106513959375263	0.3539325320914528
-0.48100410443750263	0.36655681804814744
-0.48094306928125263	0.37867040394464707
-0.48088203412500263	0.3902568204970632
-0.48082099896875263	0.4013009176734423
-0.48075996381250263	0.4117872508067902
-0.48069892865625263	0.4217009720459048
-0.48063789350000263	0.4310285463758359
-0.48057685834375263	0.439757467783845
-0.48051582318750263	0.44787593577163176
-0.48045478803125263	0.45537245117426856
-0.48039375287500263	0.46223642855782904
-0.48033271771875263	0.46845861344415085
-0.48027168256250263	0.47403056290731743
-0.48021064740625263	0.47894439782072223
-0.48014961225000263	0.4831931792718298
-0.48008857709375263	0.4867709418910413
-0.48002754193750263	0.489672688289716
-0.47996650678125263	0.4918943978277031
-0.47990547162500263	0.4934327794744289
-0.47984443646875263	0.4942854843226516
-0.47978340131250263	0.49445116519465715
-0.47972236615625263	0.49392947042346674
-0.47966133100000263	0.4927209708633221
-0.47960029584375263	0.49082699919742445
-0.47953926068750263	0.48824990114509625
-0.47947822553125263	0.4849930924496863
-0.47941719037500263	0.48106075300648893
-0.47935615521875263	0.4764580405144039
-0.47929512006250263	0.4711910437129659
-0.47923408490625263	0.4652667064281862
-0.47917304975000263	0.458692819777223
-0.47911201459375263	0.4514781362478109
-0.47905097943750263	0.4436326015917418
-0.47898994428125263	0.43516644407082644
-0.47892890912500263	0.4260906077628462
-0.47886787396875263	0.41641789032567667
-0.47880683881250263	0.4061613863412566
-0.47874580365625263	0.3953341433946953
-0.47868476850000263	0.38395099652281167
-0.47862373334375263	0.37202775848746145
-0.47856269818750263	0.35958014463653737
-0.47850166303125263	0.3466247241855756
-0.47844062787500263	0.3331793078161083
-0.47837959271875263	0.3192620900089475
-0.47831855756250263	0.30489152969482
-0.47825752240625263	0.29008735372793204
-0.47819648725000263	0.2748698506647843
-0.47813545209375263	0.2592591459231834
-0.47807441693750263	0.2432763965910796
-0.47801338178125263	0.22694367810518257
-0.47795234662500263	0.21028300558324647
-0.47789131146875263	0.19331674397362666
-0.47783027631250263	0.17606818926400222
-0.47776924115625263	0.15856094912547253
-0.47770820600000263	0.14081846711713875
-0.47764717084375263	0.1228648219282706
-0.47758613568750263	0.10472487563537168
-0.47752510053125263	0.08642314384264412
-0.47746406537500263	0.0679844122681637
-0.47740303021875263	0.04943416983823175
-0.47734199506250263	0.030797323372709035
-0.47728095990625263	0.012099374966413225
-0.47721992475000263	-0.006633624580312805
-0.47715888959375263	-0.025376780285045586
-0.47709785443750263	-0.04410452334913224
-0.47703681928125263	-0.06279020775960796
-0.47697578412500263	-0.08140871807116748
-0.47691474896875263	-0.09993561300732942
-0.47685371381250263	-0.1183447108051625
-0.47679267865625263	-0.13660991045962803
-0.47673164350000263	-0.15470707780473672
-0.47667060834375263	-0.17261175640635357
-0.47660957318750263	-0.19029877608385415
-0.47654853803125263	-0.20774363106914487
-0.47648750287500263	-0.22492237439831408
-0.47642646771875263	-0.2418118126884652
-0.47636543256250263	-0.2583886068835744
-0.47630439740625263	-0.27462945494897356
-0.47624336225000263	-0.290512028101679
-0.47618232709375263	-0.30601454635477554
-0.47612129193750263	-0.3211157966295635
-0.47606025678125263	-0.3357946356773291
-0.47599922162500263	-0.3500303294639363
-0.47593818646875263	-0.3638035344742278
-0.47587715131250263	-0.37709533233339115
-0.47581611615625263	-0.38988688717435405
-0.47575508100000263	-0.4021602886642331
-0.47569404584375263	-0.4138985059053736
-0.47563301068750263	-0.4250853382396759
-0.47557197553125263	-0.43570497942215697
-0.47551094037500263	-0.44574216410424783
-0.47544990521875263	-0.4551831885336485
-0.47538887006250263	-0.4640148296788891
-0.47532783490625263	-0.47222413546475606
-0.47526679975000263	-0.47979954455886753
-0.47520576459375263	-0.4867304736514702
-0.47514472943750263	-0.4930068747763957
-0.47508369428125263	-0.49861954306306255
-0.47502265912500263	-0.5035604184976347
-0.47496162396875263	-0.5078222962797824
-0.47490058881250263	-0.5113987377075302
-0.47483955365625263	-0.5142843627036457
-0.47477851850000263	-0.516474722459751
-0.47471748334375263	-0.5179662508363196
-0.47465644818750263	-0.5187563498273318
-0.47459541303125263	-0.5188434354046988
-0.47453437787500263	-0.5182267925482157
-0.47447334271875263	-0.5169066479191418
-0.47441230756250263	-0.5148843346677999
-0.47435127240625263	-0.5121620441315548
-0.47429023725000263	-0.5087428225363906
-0.47422920209375263	-0.5046306994363586
-0.47416816693750263	-0.49983085709848735
-0.47410713178125263	-0.49434936598801305
-0.47404609662500263	-0.48819290759631173
-0.47398506146875263	-0.4813692797937941
-0.47392402631250263	-0.473887338976607
-0.47386299115625263	-0.4657566577209762
-0.47380195600000263	-0.4569879814937753
-0.47374092084375263	-0.4475925574278919
-0.47367988568750263	-0.43758225653822386
-0.47361885053125263	-0.42697054781936744
-0.47355781537500263	-0.4157716174878506
-0.47349678021875263	-0.40399987014048655
-0.47343574506250263	-0.3916706548708917
-0.47337470990625263	-0.378800458510937
-0.47331367475000263	-0.3654063533690094
-0.47325263959375263	-0.35150602402681025
-0.47319160443750263	-0.33711790576025824
-0.47313056928125263	-0.3222611176198649
-0.47306953412500263	-0.3069555508138619
-0.47300849896875263	-0.2912214878825351
-0.47294746381250263	-0.27507961156874683
-0.47288642865625263	-0.25855177311836314
-0.47282539350000263	-0.24166046354273
-0.47276435834375263	-0.2244278653844063
-0.47270332318750263	-0.2068766841699424
-0.47264228803125263	-0.18903077086237413
-0.47258125287500263	-0.17091422907555517
-0.47252021771875263	-0.15255123367911325
-0.47245918256250263	-0.13396654840623867
-0.47239814740625263	-0.11518506118864792
-0.47233711225000263	-0.09623164574953556
-0.47227607709375263	-0.07713205582379687
-0.47221504193750263	-0.05791252051013265
-0.47215400678125263	-0.03859865109052198
-0.47209297162500263	-0.01921599134935226
-0.47203193646875263	0.00020912071838143518
-0.47197090131250263	0.019650146171729974
-0.47190986615625263	0.03908083592967088
-0.47184883100000263	0.058475139060771834
-0.47178779584375263	0.07780703651614107
-0.47172676068750263	0.09705013198560979
-0.47166572553125263	0.11617824628056811
-0.47160469037500263	0.13516574274505358
-0.47154365521875263	0.15398687369646524
-0.47148262006250263	0.17261607478650642
-0.47142158490625263	0.19102824826745338
-0.47136054975000263	0.2091980755909209
-0.47129951459375263	0.2271009255421939
-0.47123847943750263	0.24471313785184304
-0.47117744428125263	0.2620103292060536
-0.47111640912500263	0.27896847076989023
-0.47105537396875263	0.2955653761876566
-0.47099433881250263	0.31177851583331
-0.47093330365625263	0.32758483115664655
-0.47087226850000263	0.34296328052860736
-0.47081123334375263	0.35789361313134327
-0.47075019818750263	0.37235491407023574
-0.47068916303125263	0.38632714428231923
-0.47062812787500263	0.3997914886942887
-0.47056709271875263	0.4127296584447895
-0.47050605756250263	0.4251241103708101
-0.47044502240625263	0.43695783974839003
