Time	Frequency
-0.5000228873124968	-3.8928020319816914e-24
-0.4999618521562468	-4.0600955884374715e-24
-0.4999008169999968	-4.2224031953977436e-24
-0.4998397818437468	-4.380494274213415e-24
-0.4997787466874968	-4.533530824133436e-24
-0.4997177115312468	-4.681260017977627e-24
-0.4996566763749968	-4.824268724583971e-24
-0.4995956412187468	-4.961426551836928e-24
-0.4995346060624968	-5.093121220894063e-24
-0.4994735709062468	-5.219402650767378e-24
-0.4994125357499968	-5.3392968308786325e-24
-0.4993515005937468	-5.453588358238752e-24
-0.4992904654374968	-5.561693487742681e-24
-0.4992294302812468	-5.663172030952658e-24
-0.4991683951249968	-5.7587844308678455e-24
-0.4991073599687468	-5.847519756504152e-24
-0.4990463248124968	-5.9296144286298566e-24
-0.4989852896562468	-6.005403826047467e-24
-0.4989242544999968	-6.073864458828327e-24
-0.4988632193437468	-6.135752183212251e-24
-0.4988021841874968	-6.1907769544634165e-24
-0.4987411490312468	-6.2383325492362675e-24
-0.4986801138749968	-6.279313669706984e-24
-0.4986190787187468	-6.3129021047415704e-24
-0.4985580435624968	-6.3391553611464934e-24
-0.4984970084062468	-6.358673392536105e-24
-0.4984359732499968	-6.370463173317537e-24
-0.4983749380937468	-6.3751984713433035e-24
-0.4983139029374968	-6.372893950505935e-24
-0.4982528677812468	-6.3628280090747186e-24
-0.4981918326249968	-6.3459739444332035e-24
-0.4981307974687468	-6.321748869814396e-24
-0.4980697623124968	-6.2900346176369456e-24
-0.4980087271562468	-6.251662451978753e-24
-0.4979476919999968	-6.205726627770607e-24
-0.4978866568437468	-6.1527779323370195e-24
-0.4978256216874968	-6.0931375845277235e-24
-0.4977645865312468	-6.026011120581188e-24
-0.4977035513749968	-5.952392074601936e-24
-0.4976425162187468	-5.871971689128065e-24
-0.4975814810624968	-5.7844575517751794e-24
-0.4975204459062468	-5.690860410916232e-24
-0.4974594107499968	-5.5904231353152335e-24
-0.4973983755937468	-5.483537775326238e-24
-0.4973373404374968	-5.3708096185119055e-24
-0.4972763052812468	-5.2514204435231906e-24
-0.4972152701249968	-5.126321643410078e-24
-0.4971542349687468	-4.9954938109495765e-24
-0.4970931998124968	-4.858492800777754e-24
-0.4970321646562468	-4.716452430917728e-24
-0.4969711294999968	-4.568794728762868e-24
-0.4969100943437468	-4.4157217817875515e-24
-0.4968490591874968	-4.258107657967684e-24
-0.4967880240312468	-4.095157290205635e-24
-0.4967269888749968	-3.9276944223682925e-24
-0.4966659537187468	-3.756006111607431e-24
-0.4966049185624968	-3.579534999329311e-24
-0.4965438834062468	-3.399434124869379e-24
-0.4964828482499968	-3.2153542467362472e-24
-0.4964218130937468	-3.027320874460357e-24
-0.4963607779374968	-2.8363800643057526e-24
-0.4962997427812468	-2.641801824284061e-24
-0.4962387076249968	-2.4442736774329833e-24
-0.4961776724687468	-2.2443486655416218e-24
-0.4961166373124968	-2.0413585089359833e-24
-0.4960556021562468	-1.836442235277576e-24
-0.4959945669999968	-1.6294975183468442e-24
-0.4959335318437468	-1.4203286014561753e-24
-0.4958724966874968	-1.2101196094328974e-24
-0.4958114615312468	-9.982593163546764e-25
-0.4957504263749968	-7.8521465547972e-25
-0.4956893912187468	-5.717893238486867e-25
-0.4956283560624968	-3.572613556477908e-25
-0.4955673209062468	-1.4265007765231607e-25
-0.4955062857499968	7.189286475897275e-26
-0.4954452505937468	2.86754762599796e-25
-0.4953842154374968	5.00703035509784e-25
-0.4953231802812468	7.141943671565995e-25
-0.4952621451249968	9.27004987338357e-25
-0.4952011099687468	1.1381523945255978e-24
-0.4951400748124968	1.3483691030634988e-24
-0.4950790396562468	1.5567982950456446e-24
-0.4950180044999968	1.763058028611991e-24
-0.4949569693437468	1.9677156007984807e-24
-0.4948959341874968	2.1695646538542618e-24
-0.4948348990312468	2.368888781772416e-24
-0.4947738638749968	2.565711880934098e-24
-0.4947128287187468	2.7589282032640262e-24
-0.4946517935624968	2.949260355024184e-24
-0.4945907584062468	3.1360731001048528e-24
-0.4945297232499968	3.318759973295306e-24
-0.4944686880937468	3.4980464064777376e-24
-0.4944076529374968	3.672833050543695e-24
-0.4943466177812468	3.843200213361313e-24
-0.4942855826249968	4.009446866982594e-24
-0.4942245474687468	4.170410754196305e-24
-0.4941635123124968	4.326733158994694e-24
-0.4941024771562468	4.478067728636579e-24
-0.4940414419999968	4.6236318711745845e-24
-0.4939804068437468	4.764246207598092e-24
-0.4939193716874968	4.898998681200992e-24
-0.4938583365312468	5.027769605366195e-24
-0.4937973013749968	5.15110450196963e-24
-0.4937362662187468	5.267864699408357e-24
-0.4936752310624968	5.378579813629423e-24
-0.4936141959062468	5.483208852110722e-24
-0.4935531607499968	5.580844745049533e-24
-0.4934921255937468	5.67235861395511e-24
-0.4934310904374968	5.75708054122546e-24
-0.4933700552812468	5.8346972193519166e-24
-0.4933090201249968	5.905974669295615e-24
-0.4932479849687468	5.969875976960255e-24
-0.4931869498124968	6.026779965843043e-24
-0.4931259146562468	6.076951665681215e-24
-0.4930648794999968	6.1194238802561875e-24
-0.4930038443437468	6.155064107489274e-24
-0.4929428091874968	6.183488866893507e-24
-0.4928817740312468	6.204217420651083e-24
-0.4928207388749968	6.2181820471009956e-24
-0.4927597037187468	6.224507890187109e-24
-0.4926986685624968	6.223409979035045e-24
-0.4926376334062468	6.215447896869413e-24
-0.4925765982499968	6.199648736008813e-24
-0.4925155630937468	6.176821236126318e-24
-0.4924545279374968	6.1468965148427345e-24
-0.4923934927812468	6.1092551489864294e-24
-0.4923324576249968	6.064938171359326e-24
-0.4922714224687468	6.013293120627378e-24
-0.4922103873124968	5.954354002602317e-24
-0.4921493521562468	5.888934052623102e-24
-0.4920883169999968	5.8161218727494945e-24
-0.4920272818437468	5.736622370054792e-24
-0.4919662466874968	5.650676263767929e-24
-0.4919052115312468	5.557563492711822e-24
-0.4918441763749968	5.458378321120724e-24
-0.4917831412187468	5.3527206908129825e-24
-0.4917221060624968	5.240439647365593e-24
-0.4916610709062468	5.12256612916812e-24
-0.4916000357499968	4.998294881043624e-24
-0.4915390005937468	4.86817259150582e-24
-0.4914779654374968	4.732751594484157e-24
-0.4914169302812468	4.5912516136004504e-24
-0.4913558951249968	4.4447345931701e-24
-0.4912948599687468	4.293095088428365e-24
-0.4912338248124968	4.136008631228334e-24
-0.4911727896562468	3.97463174707291e-24
-0.4911117544999968	3.808328614686168e-24
-0.4910507193437468	3.637469263837577e-24
-0.4909896841874968	3.4628566488576266e-24
-0.4909286490312468	3.2836999808769003e-24
-0.4908676138749968	3.1009799079494266e-24
-0.4908065787187468	2.914867098702896e-24
-0.4907455435624968	2.724881554182812e-24
-0.4906845084062468	2.532261928727627e-24
-0.4906234732499968	2.3365544662199484e-24
-0.4905624380937468	2.137909143528365e-24
-0.4905014029374968	1.9373645017373958e-24
-0.4904403677812468	1.7341547071130178e-24
-0.4903793326249968	1.52909377508241e-24
-0.4903182974687468	1.3226455773408342e-24
-0.4902572623124968	1.1141873159810298e-24
-0.4901962271562468	9.049408591769163e-25
-0.4901351919999968	6.946962670130907e-25
-0.4900741568437468	4.833633327754574e-25
-0.4900131216874968	2.721181823759822e-25
-0.4899520865312468	6.0286588686027e-26
-0.4898910513749968	-1.5152514509808817e-25
-0.4898300162187468	-3.626121263482046e-25
-0.4897689810624968	-5.737023045384584e-25
-0.4897079459062468	-7.836600109436127e-25
-0.4896469107499968	-9.924515916536718e-25
-0.4895858755937468	-1.2004031664019895e-24
-0.4895248404374968	-1.4062678990221578e-24
-0.4894638052812468	-1.610595332557539e-24
-0.4894027701249968	-1.8130395150702712e-24
-0.4893417349687468	-2.0126966523155522e-24
-0.4892806998124968	-2.2103380475735067e-24
-0.4892196646562468	-2.405001570088607e-24
-0.4891586294999968	-2.5964336026061417e-24
-0.4890975943437468	-2.785160026831799e-24
-0.4890365591874968	-2.9699362556857243e-24
-0.4889755240312468	-3.1511746574861807e-24
-0.4889144888749968	-3.3288122132307865e-24
-0.4888534537187468	-3.501785966776473e-24
-0.4887924185624968	-3.67088885270941e-24
-0.4887313834062468	-3.835401952837557e-24
-0.4886703482499968	-3.994833882916744e-24
-0.4886093130937468	-4.1499023905072186e-24
-0.4885482779374968	-4.2994674744104916e-24
-0.4884872427812468	-4.443746322211018e-24
-0.4884262076249968	-4.5829698867030506e-24
-0.4883651724687468	-4.716016582522579e-24
-0.4883041373124968	-4.843627864076272e-24
-0.4882431021562468	-4.965364081379424e-24
-0.4881820669999968	-5.080564398031347e-24
-0.4881210318437468	-5.190077723809627e-24
-0.4880599966874968	-5.292928025156498e-24
-0.4879989615312468	-5.389157258869791e-24
-0.4879379263749968	-5.479264520937307e-24
-0.4878768912187468	-5.562121787197786e-24
-0.4878158560624968	-5.638403046190602e-24
-0.4877548209062468	-5.707979449978545e-24
-0.4876937857499968	-5.7700374727923274e-24
-0.4876327505937468	-5.825523709925553e-24
-0.4875717154374968	-5.873696663541661e-24
-0.4875106802812468	-5.9144001037786754e-24
-0.4874496451249968	-5.948386840635094e-24
-0.4873886099687468	-5.974603343367031e-24
-0.4873275748124968	-5.993594278892117e-24
-0.4872665396562468	-6.005556111055607e-24
-0.4872055044999968	-6.00958927070938e-24
-0.4871444693437468	-6.006671147479737e-24
-0.4870834341874968	-5.996337364338084e-24
-0.4870223990312468	-5.978249227010436e-24
-0.4869613638749968	-5.953367183418468e-24
-0.4869003287187468	-5.9207796452720115e-24
-0.4868392935624968	-5.880867931461856e-24
-0.4867782584062468	-5.8341405391709574e-24
-0.4867172232499968	-5.779669904537747e-24
-0.4866561880937468	-5.718402949555933e-24
-0.4865951529374968	-5.6501813854604594e-24
-0.4865341177812468	-5.574508614325323e-24
-0.4864730826249968	-5.492491471285282e-24
-0.4864120474687468	-5.4034103524235776e-24
-0.4863510123124968	-5.307464738778281e-24
-0.4862899771562468	-5.205450581045823e-24
-0.4862289419999968	-5.0964584141578796e-24
-0.4861679068437468	-4.9813439960632355e-24
-0.4861068716874968	-4.860276330780249e-24
-0.4860458365312468	-4.732622200109692e-24
-0.4859848013749968	-4.599560714251672e-24
-0.4859237662187468	-4.460621032319132e-24
-0.4858627310624968	-4.315801736758641e-24
-0.4858016959062468	-4.166126863633788e-24
-0.4857406607499968	-4.010770318465325e-24
-0.4856796255937468	-3.8504401899310976e-24
-0.4856185904374968	-3.685614594952645e-24
-0.4855575552812468	-3.5155732060994814e-24
-0.4854965201249968	-3.341485569203672e-24
-0.4854354849687468	-3.163146429889108e-24
-0.4853744498124968	-2.980367377285745e-24
-0.4853134146562468	-2.794333541238976e-24
-0.4852523794999968	-2.604339393729478e-24
-0.4851913443437468	-2.4109103216113635e-24
-0.4851303091874968	-2.2148005695182665e-24
-0.4850692740312468	-2.015231860158442e-24
-0.4850082388749968	-1.813304906321632e-24
-0.4849472037187468	-1.6090912655369246e-24
-0.4848861685624968	-1.4022027208184201e-24
-0.4848251334062468	-1.1939281896645907e-24
-0.4847640982499968	-9.837314881394323e-25
-0.4847030630937468	-7.718922157862194e-25
-0.4846420279374968	-5.594049980580089e-25
-0.4845809927812468	-3.4549307223642403e-25
-0.4845199576249968	-1.3109222807590724e-25
-0.4844589224687468	8.344848640761551e-26
-0.4843978873124968	2.986787332687671e-25
-0.4843368521562468	5.133137757785469e-25
-0.4842758169999968	7.276928036135863e-25
-0.4842147818437468	9.417727396802752e-25
-0.4841537466874968	1.1543965346957019e-24
-0.4840927115312468	1.3663239300381921e-24
-0.4840316763749968	1.576818488075808e-24
-0.4839706412187468	1.7852594419837907e-24
-0.4839096060624968	1.992362385670728e-24
-0.4838485709062468	2.1969313566848217e-24
-0.4837875357499968	2.3990634631907507e-24
-0.4837265005937468	2.598974875761151e-24
-0.4836654654374968	2.7954296916603608e-24
-0.4836044302812468	2.989099430279972e-24
-0.4835433951249968	3.1795137146972124e-24
-0.4834823599687468	3.365846517818261e-24
-0.4834213248124968	3.548906987599202e-24
-0.4833602896562468	3.727653110517472e-24
-0.4832992544999968	3.901963517309214e-24
-0.4832382193437468	4.072313094584911e-24
-0.4831771841874968	4.237448180904862e-24
-0.4831161490312468	4.3979084657577045e-24
-0.4830551138749968	4.5535355034078706e-24
-0.4829940787187468	4.703348325843775e-24
-0.4829330435624968	4.8482010200344475e-24
-0.4828720084062468	4.9872827455190456e-24
-0.4828109732499968	5.120257274332459e-24
-0.4827499380937468	5.247820986920223e-24
-0.4826889029374968	5.3687962388474085e-24
-0.4826278677812468	5.483568806740888e-24
-0.4825668326249968	5.59229034800081e-24
-0.4825057974687468	5.6938885903855204e-24
-0.4824447623124968	5.789220401098173e-24
-0.4823837271562468	5.877753638253135e-24
-0.4823226919999968	5.9589608875973806e-24
-0.4822616568437468	6.033726682335668e-24
-0.4822006216874968	6.1010199118606916e-24
-0.4821395865312468	6.161045028666489e-24
-0.4820785513749968	6.2142623710914446e-24
-0.4820175162187468	6.259577885130492e-24
-0.4819564810624968	6.297799268831996e-24
-0.4818954459062468	6.328710994054891e-24
-0.4818344107499968	6.351624562271556e-24
-0.4817733755937468	6.367556377347665e-24
-0.4817123404374968	6.375692329638886e-24
-0.4816513052812468	6.376046880064623e-24
-0.4815902701249968	6.369361664830923e-24
-0.4815292349687468	6.354585410500789e-24
-0.4814681998124968	6.332424209451909e-24
-0.4814071646562468	6.303002473964972e-24
-0.4813461294999968	6.265514835515848e-24
-0.4812850943437468	6.221038752558894e-24
-0.4812240591874968	6.169032873118999e-24
-0.4811630240312468	6.109323467874533e-24
-0.4811019888749968	6.042883487231284e-24
-0.4810409537187468	5.968772988258151e-24
-0.4809799185624968	5.887553404310177e-24
-0.4809188834062468	5.7996777005358154e-24
-0.4808578482499968	5.704274781544705e-24
-0.4807968130937468	5.602420479168206e-24
-0.4807357779374968	5.493876463757985e-24
-0.4806747427812468	5.378285444464192e-24
-0.4806137076249968	5.256798059356805e-24
-0.4805526724687468	5.1286454164987716e-24
-0.4804916373124968	4.994200161311834e-24
-0.4804306021562468	4.854218204560839e-24
-0.4803695669999968	4.707817925856826e-24
-0.4803085318437468	4.556002819431753e-24
-0.4802474966874968	4.3988552953164614e-24
-0.4801864615312468	4.235851657461571e-24
-0.4801254263749968	4.0682410027617355e-24
-0.4800643912187468	3.895480549160568e-24
-0.4800033560624968	3.71773284189601e-24
-0.4799423209062468	3.535997463541009e-24
-0.4798812857499968	3.349440990701948e-24
-0.4798202505937468	3.1589285863548206e-24
-0.4797592154374968	2.9648410185829435e-24
-0.4796981802812468	2.7665460241137833e-24
-0.4796371451249968	2.5653167616189124e-24
-0.4795761099687468	2.360824038467369e-24
-0.4795150748124968	2.1530245505841904e-24
-0.4794540396562468	1.9431280123191626e-24
-0.4793930044999968	1.73036394633905e-24
-0.4793319693437468	1.515407592354945e-24
-0.4792709341874968	1.2989437294873614e-24
-0.4792098990312468	1.0802201885798374e-24
-0.4791488638749968	8.604487315346187e-25
-0.4790878287187468	6.39591977139861e-25
-0.4790267935624968	4.173689634689807e-25
-0.4789657584062468	1.9508719583020218e-25
-0.4789047232499968	-2.7876623079382343e-26
-0.4788436880937468	-2.510882355129514e-25
-0.4787826529374968	-4.736293771296115e-25
-0.4787216177812468	-6.962970621904865e-25
-0.4786605826249968	-9.180173310047386e-25
-0.4785995474687468	-1.1385722838146295e-24
-0.4785385123124968	-1.3584572953785388e-24
-0.4784774771562468	-1.5763280685717714e-24
-0.4784164419999968	-1.7926372392596956e-24
-0.4783554068437468	-2.0072302154904605e-24
-0.4782943716874968	-2.219002130853071e-24
-0.4782333365312468	-2.4287640541496526e-24
-0.4781723013749968	-2.6356602982375104e-24
-0.4781112662187468	-2.8392039708521653e-24
-0.4780502310624968	-3.04007859331183e-24
-0.4779891959062468	-3.237016222658389e-24
-0.4779281607499968	-3.430268157881935e-24
-0.4778671255937468	-3.6199676964708304e-24
-0.4778060904374968	-3.8048976421426505e-24
-0.4777450552812468	-3.98582343029535e-24
-0.4776840201249968	-4.162168952802896e-24
-0.4776229849687468	-4.333227990450818e-24
-0.4775619498124968	-4.499835467692841e-24
-0.4775009146562468	-4.660868217139465e-24
-0.4774398794999968	-4.816350440593484e-24
-0.4773788443437468	-4.966711513004098e-24
-0.4773178091874968	-5.110718431918436e-24
-0.4772567740312468	-5.249035980595303e-24
-0.4771957388749968	-5.381395328995986e-24
-0.4771347037187468	-5.506927050175762e-24
-0.4770736685624968	-5.626560997826735e-24
-0.4770126334062468	-5.739393866484004e-24
-0.4769515982499968	-5.8452467201869666e-24
-0.4768905630937468	-5.944804419149855e-24
-0.4768295279374968	-6.0368761802946036e-24
-0.4767684927812468	-6.1220067139670626e-24
-0.4767074576249968	-6.2002680613936226e-24
-0.4766464224687468	-6.270670975476858e-24
-0.4765853873124968	-6.334180920226378e-24
-0.4765243521562468	-6.3901741736420484e-24
-0.4764633169999968	-6.4382789016156374e-24
-0.4764022818437468	-6.479403818260939e-24
-0.4763412466874968	-6.512479483373e-24
-0.4762802115312468	-6.537890997418579e-24
-0.4762191763749968	-6.556044207310918e-24
-0.4761581412187468	-6.5658935831553715e-24
-0.4760971060624968	-6.568389842716106e-24
-0.4760360709062468	-6.563233649194877e-24
-0.4759750357499968	-6.549871771853642e-24
-0.4759140005937468	-6.5293795438752334e-24
-0.4758529654374968	-6.500888942838721e-24
-0.4757919302812468	-6.4645961963584126e-24
-0.4757308951249968	-6.4212131805560835e-24
-0.4756698599687468	-6.3697107968431894e-24
-0.4756088248124968	-6.3109609780093146e-24
-0.4755477896562468	-6.245007181373213e-24
-0.4754867544999968	-6.171154972867747e-24
-0.4754257193437468	-6.09057520514162e-24
-0.4753646841874968	-6.0026525761255966e-24
-0.4753036490312468	-5.90738696667833e-24
-0.4752426138749968	-5.8057530842364005e-24
-0.4751815787187468	-5.6967970294425615e-24
-0.4751205435624968	-5.581256258244864e-24
-0.4750595084062468	-5.459516155585328e-24
-0.4749984732499968	-5.330784803239911e-24
-0.4749374380937468	-5.19625634290237e-24
-0.4748764029374968	-5.055599484725388e-24
-0.4748153677812468	-4.908613677269887e-24
-0.4747543326249968	-4.756483377231551e-24
-0.4746932974687468	-4.598387899918474e-24
-0.4746322623124968	-4.434877897066393e-24
-0.4745712271562468	-4.2666559146591854e-24
-0.4745101919999968	-4.092873086840497e-24
-0.4744491568437468	-3.914673623301375e-24
-0.4743881216874968	-3.7320481333470115e-24
-0.4743270865312468	-3.544593469144656e-24
-0.4742660513749968	-3.3536037323146245e-24
-0.4742050162187468	-3.1584599619444275e-24
-0.4741439810624968	-2.959506187861493e-24
-0.4740829459062468	-2.7576950456908486e-24
-0.4740219107499968	-2.552170702669149e-24
-0.4739608755937468	-2.343965368967265e-24
-0.4738998404374968	-2.133367442000862e-24
-0.4738388052812468	-1.919799778053116e-24
-0.4737777701249968	-1.704617711023518e-24
-0.4737167349687468	-1.4874122743246388e-24
-0.4736556998124968	-1.2682635615643434e-24
-0.4735946646562468	-1.0483484329945007e-24
-0.4735336294999968	-8.26870335452728e-25
-0.4734725943437468	-6.046509392980586e-25
-0.4734115591874968	-3.822570238311596e-25
-0.4733505240312468	-1.5898382757675721e-25
-0.4732894888749968	6.385431702539049e-26
-0.4732284537187468	2.8643478222998766e-25
-0.4731674185624968	5.089277643398613e-25
-0.4731063834062468	7.300194763363753e-25
-0.4730453482499968	9.504295028010268e-25
-0.4729843130937468	1.1695804200696596e-24
-0.4729232779374968	1.3866432049528633e-24
-0.4728622427812468	1.6024392579032474e-24
-0.4728012076249968	1.8157874403766136e-24
-0.4727401724687468	2.0266013283704775e-24
-0.4726791373124968	2.2353124460947843e-24
-0.4726181021562468	2.4405563071570555e-24
-0.4725570669999968	2.642908079448327e-24
-0.4724960318437468	2.8421057208357163e-24
-0.4724349966874968	3.037119587029788e-24
-0.4723739615312468	3.228809655766147e-24
-0.4723129263749968	3.4162172058669385e-24
-0.4722518912187468	3.599005865776121e-24
-0.4721908560624968	3.777840689035954e-24
-0.4721298209062468	3.9514088745381294e-24
-0.4720687857499968	4.120102745586212e-24
-0.4720077505937468	4.2839775027068706e-24
-0.4719467154374968	4.441881855086754e-24
-0.4718856802812468	4.594675527682479e-24
-0.4718246451249968	4.7416813802004e-24
-0.4717636099687468	4.882337846000527e-24
-0.4717025748124968	5.017491053211055e-24
-0.4716415396562468	5.14596817054024e-24
