Time	Frequency
-0.5000524518125005	6.974593794968467e-24
-0.49999141665625046	6.832758188881497e-24
-0.49993038150000046	6.685029004032516e-24
-0.49986934634375046	6.531535134513427e-24
-0.49980831118750046	6.372409289860953e-24
-0.49974727603125046	6.2077840581317815e-24
-0.49968624087500046	6.037795606449235e-24
-0.49962520571875046	5.862588084809819e-24
-0.49956417056250046	5.682312739646791e-24
-0.49950313540625046	5.4971283874025646e-24
-0.49944210025000046	5.307191963982991e-24
-0.49938106509375046	5.112655484072429e-24
-0.49932002993750046	4.913686280829028e-24
-0.49925899478125046	4.710464475776525e-24
-0.49919795962500046	4.50316374520862e-24
-0.49913692446875046	4.291955869689712e-24
-0.49907588931250046	4.077014862991917e-24
-0.49901485415625046	3.858527632569127e-24
-0.49895381900000046	3.636698546511533e-24
-0.49889278384375046	3.411710199870481e-24
-0.49883174868750046	3.1837340013137597e-24
-0.49877071353125046	2.9529816697053546e-24
-0.49870967837500046	2.7196690461998387e-24
-0.49864864321875046	2.48397610272257e-24
-0.49858760806250046	2.2460945377145466e-24
-0.49852657290625046	2.006250201681671e-24
-0.49846553775000046	1.7646548887148025e-24
-0.49840450259375046	1.5214969646354762e-24
-0.49834346743750046	1.2769845972350185e-24
-0.49828243228125046	1.031345099681964e-24
-0.49822139712500046	7.847884714672909e-25
-0.49816036196875046	5.375158930572585e-25
-0.49809932681250046	2.897425402206068e-25
-0.49803829165625046	4.168849343718909e-26
-0.49797725650000046	-2.0642910216812739e-25
-0.49791622134375046	-4.544032683744681e-25
-0.49785518618750046	-7.020246357490938e-25
-0.49779415103125046	-9.49067957655933e-25
-0.49773311587500046	-1.1953200728432825e-24
-0.49767208071875046	-1.4405764351010827e-24
-0.49761104556250046	-1.6846196491812757e-24
-0.49755001040625046	-1.927237454800772e-24
-0.49748897525000046	-2.1682240509951776e-24
-0.49742794009375046	-2.407367353917899e-24
-0.49736690493750046	-2.644458876330842e-24
-0.49730586978125046	-2.879297223749434e-24
-0.49724483462500046	-3.1116778403857326e-24
-0.49718379946875046	-3.341393809183857e-24
-0.49712276431250046	-3.5682524502089775e-24
-0.49706172915625046	-3.792061549132484e-24
-0.49700069400000046	-4.012613089011546e-24
-0.49693965884375046	-4.229716551708452e-24
-0.49687862368750046	-4.443197401810496e-24
-0.49681758853125046	-4.6528665197149175e-24
-0.49675655337500046	-4.8585332532060436e-24
-0.49669551821875046	-5.060017684600201e-24
-0.49663448306250046	-5.257148958515673e-24
-0.49657344790625046	-5.4497647068678885e-24
-0.49651241275000046	-5.6376921732728686e-24
-0.49645137759375046	-5.8207554418792684e-24
-0.49639034243750046	-5.998803062834646e-24
-0.49632930728125046	-6.171687580281176e-24
-0.49626827212500046	-6.339252874157305e-24
-0.49620723696875046	-6.501351240272645e-24
-0.49614620181250046	-6.657841508126504e-24
-0.49608516665625046	-6.808586950144231e-24
-0.49602413150000046	-6.953458128458781e-24
-0.49596309634375046	-7.092330693340644e-24
-0.49590206118750046	-7.225081364562274e-24
-0.49584102603125046	-7.351590245583786e-24
-0.49577999087500046	-7.471749382780551e-24
-0.49571895571875046	-7.585458194897814e-24
-0.49565792056250046	-7.692614800061488e-24
-0.49559688540625046	-7.79312196529746e-24
-0.49553585025000046	-7.886893737024741e-24
-0.49547481509375046	-7.973850670531509e-24
-0.49541377993750046	-8.053915673630573e-24
-0.49535274478125046	-8.127016402102852e-24
-0.49529170962500046	-8.193089080526943e-24
-0.49523067446875046	-8.252078367356014e-24
-0.49516963931250046	-8.303932177730153e-24
-0.49510860415625046	-8.348601958144306e-24
-0.49504756900000046	-8.386049396148524e-24
-0.49498653384375046	-8.416244393881096e-24
-0.49492549868750046	-8.439158901667226e-24
-0.49486446353125046	-8.454770554000806e-24
-0.49480342837500046	-8.463066547110268e-24
-0.49474239321875046	-8.464040684160878e-24
-0.49468135806250046	-8.45769158421799e-24
-0.49462032290625046	-8.444023618381629e-24
-0.49455928775000046	-8.423048296338944e-24
-0.49449825259375046	-8.394784222433636e-24
-0.49443721743750046	-8.35925591631035e-24
-0.49437618228125046	-8.316495184959644e-24
-0.49431514712500046	-8.266538902689609e-24
-0.49425411196875046	-8.209428083041247e-24
-0.49419307681250046	-8.145214069521737e-24
-0.49413204165625046	-8.07395494137152e-24
-0.49407100650000046	-7.995711283529987e-24
-0.49400997134375046	-7.910551015857984e-24
-0.49394893618750046	-7.818548861208988e-24
-0.49388790103125046	-7.719784491491413e-24
-0.49382686587500046	-7.614344759995046e-24
-0.49376583071875046	-7.502324012848133e-24
-0.49370479556250046	-7.383819718125392e-24
-0.49364376040625046	-7.258932962559523e-24
-0.49358272525000046	-7.127773051654649e-24
-0.49352169009375046	-6.990457169581158e-24
-0.49346065493750046	-6.847107082459976e-24
-0.49339961978125046	-6.697848120819793e-24
-0.49333858462500046	-6.542807950357776e-24
-0.49327754946875046	-6.382119010327859e-24
-0.49321651431250046	-6.215930949209865e-24
-0.49315547915625046	-6.0443940170430755e-24
-0.49309444400000046	-5.8676453483523136e-24
-0.49303340884375046	-5.685839847032142e-24
-0.49297237368750046	-5.499147446544069e-24
-0.49291133853125046	-5.307732213386006e-24
-0.49285030337500046	-5.111759876026675e-24
-0.49278926821875046	-4.911396890076863e-24
-0.49272823306250046	-4.706817511253509e-24
-0.49266719790625046	-4.4982127652180215e-24
-0.49260616275000046	-4.285769957335282e-24
-0.49254512759375046	-4.0696637066332954e-24
-0.49248409243750046	-3.850078913269018e-24
-0.49242305728125046	-3.6272210221747434e-24
-0.49236202212500046	-3.401291161565352e-24
-0.49230098696875046	-3.172478895353354e-24
-0.49223995181250046	-2.940983386082044e-24
-0.49217891665625046	-2.7070115570657276e-24
-0.49211788150000046	-2.4707734046943858e-24
-0.49205684634375046	-2.232479621684057e-24
-0.49199581118750046	-1.992332565569421e-24
-0.49193477603125046	-1.750543344415816e-24
-0.49187374087500046	-1.5073329085970729e-24
-0.49181270571875046	-1.262911893514651e-24
-0.49175167056250046	-1.01749564250829e-24
-0.49169063540625046	-7.713069511282508e-25
-0.49162960025000046	-5.245562369468853e-25
-0.49156856509375046	-2.774567462739199e-25
-0.49150752993750046	-3.0236320497116527e-26
-0.49144649478125046	2.168821641531502e-25
-0.49138545962500046	4.636868536821405e-25
-0.49132442446875046	7.099639458916269e-25
-0.49126338931250046	9.554956338558481e-25
-0.49120235415625046	1.2000585181659061e-24
-0.49114131900000046	1.4434271567574476e-24
-0.49108028384375046	1.685396075376182e-24
-0.49101924868750046	1.9257642938419658e-24
-0.49095821353125046	2.1643057673426918e-24
-0.49089717837500046	2.40079615439323e-24
-0.49083614321875046	2.6350380514036576e-24
-0.49077510806250046	2.8668336058281163e-24
-0.49071407290625046	3.0959678547480598e-24
-0.49065303775000046	3.322231998837247e-24
-0.49059200259375046	3.5454275231294925e-24
-0.49053096743750046	3.7653591005267225e-24
-0.49046993228125046	3.981837247875927e-24
-0.49040889712500046	4.1946645685099255e-24
-0.49034786196875046	4.403642347433023e-24
-0.49028682681250046	4.6085909157740615e-24
-0.49022579165625046	4.809335445190528e-24
-0.49016475650000046	5.0056931737949245e-24
-0.49010372134375046	5.197485741576072e-24
-0.49004268618750046	5.384542125942755e-24
-0.48998165103125046	5.56669441813793e-24
-0.48992061587500046	5.7437842444992144e-24
-0.48985958071875046	5.9156573582195194e-24
-0.48979854556250046	6.0821540125434605e-24
-0.48973751040625046	6.243121335560921e-24
-0.48967647525000046	6.398421163516066e-24
-0.48961544009375046	6.5479172064162e-24
-0.48955440493750046	6.691472298007888e-24
-0.48949336978125046	6.828957275065202e-24
-0.48943233462500046	6.960247870156307e-24
-0.48937129946875046	7.08522614887426e-24
-0.48931026431250046	7.203784992336743e-24
-0.48924922915625046	7.315815619847528e-24
-0.48918819400000046	7.421211593865589e-24
-0.48912715884375046	7.519881753661731e-24
-0.48906612368750046	7.611740023115607e-24
-0.48900508853125046	7.696700476200129e-24
-0.48894405337500046	7.774684965690166e-24
-0.48888301821875046	7.845624026798463e-24
-0.48882198306250046	7.909453163778873e-24
-0.48876094790625046	7.966113712763799e-24
-0.48869991275000046	8.01555467607246e-24
-0.48863887759375046	8.057729923472207e-24
-0.48857784243750046	8.092598618308733e-24
-0.48851680728125046	8.120129520241309e-24
-0.48845577212500046	8.140298279153307e-24
-0.48839473696875046	8.153083553258551e-24
-0.48833370181250046	8.158471051455717e-24
-0.48827266665625046	8.156455381787232e-24
-0.48821163150000046	8.147037239209417e-24
-0.48815059634375046	8.130223225155086e-24
-0.48808956118750046	8.106026687338462e-24
-0.48802852603125046	8.07446631043841e-24
-0.48796749087500046	8.035567323680916e-24
-0.48790645571875046	7.989365341937655e-24
-0.48784542056250046	7.935901540629932e-24
-0.48778438540625046	7.875217529769958e-24
-0.48772335025000046	7.807363819982189e-24
-0.48766231509375046	7.732404357499921e-24
-0.48760127993750046	7.650405330679852e-24
-0.48754024478125046	7.56143264991291e-24
-0.48747920962500046	7.46556429237066e-24
-0.48741817446875046	7.362888509792495e-24
-0.48735713931250046	7.253493004526496e-24
-0.48729610415625046	7.137470341947855e-24
-0.48723506900000046	7.014925557857958e-24
-0.48717403384375046	6.885969446454876e-24
-0.48711299868750046	6.750711430685392e-24
-0.48705196353125046	6.609266158254488e-24
-0.48699092837500046	6.4617628512639825e-24
-0.48692989321875046	6.308336375036577e-24
-0.48686885806250046	6.149118949352699e-24
-0.48680782290625046	5.9842467884104534e-24
-0.48674678775000046	5.813864214359643e-24
-0.48668575259375046	5.638126808102049e-24
-0.48662471743750046	5.457194662198918e-24
-0.48656368228125046	5.271223718672577e-24
-0.48650264712500046	5.080373577046683e-24
-0.48644161196875046	4.884814596582646e-24
-0.48638057681250046	4.6847240329662894e-24
-0.48631954165625046	4.480281465105786e-24
-0.48625850650000046	4.271667774655546e-24
-0.48619747134375046	4.0590627494957746e-24
-0.48613643618750046	3.842653677983698e-24
-0.48607540103125046	3.622640128286152e-24
-0.48601436587500046	3.3992191090439105e-24
-0.48595333071875046	3.172585514034978e-24
-0.48589229556250046	2.9429397419987254e-24
-0.48583126040625046	2.710483250690267e-24
-0.48577022525000046	2.475427386257442e-24
-0.48570919009375046	2.2379909226577e-24
-0.48564815493750046	1.998378299097089e-24
-0.48558711978125046	1.7567920183410864e-24
-0.48552608462500046	1.5134537224360526e-24
-0.48546504946875046	1.2685931186676986e-24
-0.48540401431250046	1.0224278778709825e-24
-0.48534297915625046	7.751630754674384e-25
-0.48528194400000046	5.27019464137587e-25
-0.48522090884375046	2.78234111291201e-25
-0.48515987368750046	2.902709315042984e-26
-0.48509883853125046	-2.203866530352387e-25
-0.48503780337500046	-4.69779572235586e-25
-0.48497676821875046	-7.189284330131784e-25
-0.48491573306250046	-9.67610802799943e-25
-0.48485469790625046	-1.2155998838233602e-24
-0.48479366275000046	-1.4626754630807923e-24
-0.48473262759375046	-1.7086170324294416e-24
-0.48467159243750046	-1.953199337566537e-24
-0.48461055728125046	-2.196206206516561e-24
-0.48454952212500046	-2.4374220165891885e-24
-0.48448848696875046	-2.676620534768816e-24
-0.48442745181250046	-2.9135886042017747e-24
-0.48436641665625046	-3.1481214118737008e-24
-0.48430538150000046	-3.380000340974386e-24
-0.48424434634375046	-3.6090137789181056e-24
-0.48418331118750046	-3.834959991146365e-24
-0.48412227603125046	-4.0576319645403706e-24
-0.48406124087500046	-4.2768296834664635e-24
-0.48400020571875046	-4.492357249901297e-24
-0.48393917056250046	-4.70401424092875e-24
-0.48387813540625046	-4.911609809033475e-24
-0.48381710025000046	-5.1149590183085655e-24
-0.48375606509375046	-5.313873427381217e-24
-0.48369502993750046	-5.508176202700347e-24
-0.48363399478125046	-5.697693117812029e-24
-0.48357295962500046	-5.882240786622384e-24
-0.48351192446875046	-6.061653331506597e-24
-0.48345088931250046	-6.235778204303236e-24
-0.48338985415625046	-6.404452418607263e-24
-0.48332881900000046	-6.567514122256699e-24
-0.48326778384375046	-6.724815146805496e-24
-0.48320674868750046	-6.876216418299157e-24
-0.48314571353125046	-7.021579894184924e-24
-0.48308467837500046	-7.160768997842544e-24
-0.48302364321875046	-7.29365302276707e-24
-0.48296260806250046	-7.42010944162207e-24
-0.48290157290625046	-7.540025265643574e-24
-0.48284053775000046	-7.653289720863585e-24
-0.48277950259375046	-7.759793158563641e-24
-0.48271846743750046	-7.859435282006949e-24
-0.48265743228125046	-7.952125631902564e-24
-0.48259639712500046	-8.037778426721706e-24
-0.48253536196875046	-8.116311406012709e-24
-0.48247432681250046	-8.187648871394491e-24
-0.48241329165625046	-8.251721284003162e-24
-0.48235225650000046	-8.308467247695199e-24
-0.48229122134375046	-8.357835506737458e-24
-0.48223018618750046	-8.39977666379026e-24
-0.48216915103125046	-8.434243473400709e-24
-0.48210811587500046	-8.461201594169623e-24
-0.48204708071875046	-8.48062618785403e-24
-0.48198604556250046	-8.49249431673906e-24
-0.48192501040625046	-8.496788548250583e-24
-0.48186397525000046	-8.493500143875476e-24
-0.48180294009375046	-8.482628332218104e-24
-0.48174190493750046	-8.464178736465494e-24
-0.48168086978125046	-8.438162289939354e-24
-0.48161983462500046	-8.40459704671899e-24
-0.48155879946875046	-8.36350872647118e-24
-0.48149776431250046	-8.314929670857032e-24
-0.48143672915625046	-8.258898195908615e-24
-0.48137569400000046	-8.195459025523405e-24
-0.48131465884375046	-8.124664529402693e-24
-0.48125362368750046	-8.046574325249735e-24
-0.48119258853125046	-7.961253370350681e-24
-0.48113155337500046	-7.868771612012178e-24
-0.48107051821875046	-7.769207767649597e-24
-0.48100948306250046	-7.662647418546684e-24
-0.48094844790625046	-7.549180292048569e-24
-0.48088741275000046	-7.428904546095831e-24
-0.48082637759375046	-7.3019231214906e-24
-0.48076534243750046	-7.168341589116264e-24
-0.48070430728125046	-7.028277035409517e-24
-0.48064327212500046	-6.881855948103418e-24
-0.48058223696875046	-6.729200819806171e-24
-0.48052120181250046	-6.57043690211366e-24
-0.48046016665625046	-6.405709126573959e-24
-0.48039913150000046	-6.23516795696963e-24
-0.48033809634375046	-6.058952234802245e-24
-0.48027706118750046	-5.8772098631284456e-24
-0.48021602603125046	-5.690109745198783e-24
-0.48015499087500046	-5.497819082560509e-24
-0.48009395571875046	-5.300499250462828e-24
-0.48003292056250046	-5.098319605615469e-24
-0.47997188540625046	-4.8914584737109335e-24
-0.47991085025000046	-4.680104373323624e-24
-0.47984981509375046	-4.464445684074638e-24
-0.47978877993750046	-4.244661160372521e-24
-0.47972774478125046	-4.0209425094026526e-24
-0.47966670962500046	-3.793497552836153e-24
-0.47960567446875046	-3.562524873223231e-24
-0.47954463931250046	-3.328221882423782e-24
-0.47948360415625046	-3.090799569837737e-24
-0.47942256900000046	-2.8504683309311144e-24
-0.47936153384375046	-2.6074378081678937e-24
-0.47930049868750046	-2.3619242104363186e-24
-0.47923946353125046	-2.1141438518964842e-24
-0.47917842837500046	-1.864317580130069e-24
-0.47911739321875046	-1.6126684191347839e-24
-0.47905635806250046	-1.3594160148274544e-24
-0.47899532290625046	-1.1047860530961744e-24
-0.47893428775000046	-8.490039327322351e-25
-0.47887325259375046	-5.922934918438251e-25
-0.47881221743750046	-3.348907773693153e-25
-0.47875118228125046	-7.702586430011221e-26
-0.47869014712500046	1.810838898164356e-25
-0.47862911196875046	4.392060170994335e-25
-0.47856807681250046	6.971035027709018e-25
-0.47850704165625046	9.545495636209192e-25
-0.47844600650000046	1.2113138844312115e-24
-0.47838497134375046	1.467170434413572e-24
-0.47832393618750046	1.721895478222295e-24
-0.47826290103125046	1.97525528967687e-24
-0.47820186587500046	2.2270207431654622e-24
-0.47814083071875046	2.4769692596917338e-24
-0.47807979556250046	2.7248808955799692e-24
-0.47801876040625046	2.9705405195184923e-24
-0.47795772525000046	3.213721836201074e-24
-0.47789669009375046	3.454194110155185e-24
-0.47783565493750046	3.69174999532396e-24
-0.47777461978125046	3.9261941965656e-24
-0.47771358462500046	4.157311525829949e-24
-0.47765254946875046	4.384874916790633e-24
-0.47759151431250046	4.6086815832625275e-24
-0.47753047915625046	4.828551074290964e-24
-0.47746944400000046	5.044286853234275e-24
-0.47740840884375046	5.255678035953947e-24
-0.47734737368750046	5.46253472451827e-24
-0.47728633853125046	5.6646798954607845e-24
-0.47722530337500046	5.861932430844442e-24
-0.47716426821875046	6.054114446793628e-24
-0.47710323306250046	6.241048661517145e-24
-0.47704219790625046	6.422565211489477e-24
-0.47698116275000046	6.5985046238350455e-24
-0.47692012759375046	6.768708112983035e-24
-0.47685909243750046	6.933022547794783e-24
-0.47679805728125046	7.091298679442817e-24
-0.47673702212500046	7.24339057700442e-24
-0.47667598696875046	7.389161975740029e-24
-0.47661495181250046	7.528482950969239e-24
-0.47655391665625046	7.661228439303286e-24
-0.47649288150000046	7.787275372757244e-24
-0.47643184634375046	7.906507191426117e-24
-0.47637081118750046	8.018818904761322e-24
-0.47630977603125046	8.12410784327316e-24
-0.47624874087500046	8.222276803277473e-24
-0.47618770571875046	8.313238392814193e-24
-0.47612667056250046	8.396907879537008e-24
-0.47606563540625046	8.473207048728769e-24
-0.47600460025000046	8.542067878455004e-24
-0.47594356509375046	8.60342641210028e-24
-0.47588252993750046	8.657225019880187e-24
-0.47582149478125046	8.703416079085466e-24
-0.47576045962500046	8.741955670268702e-24
-0.47569942446875046	8.772804283839504e-24
-0.47563838931250046	8.795933885673831e-24
-0.47557735415625046	8.81132455001905e-24
-0.47551631900000046	8.818959691803341e-24
-0.47545528384375046	8.818829275609633e-24
-0.47539424868750046	8.81093165817936e-24
-0.47533321353125046	8.795272500246035e-24
-0.47527217837500046	8.771864450714179e-24
-0.47521114321875046	8.740727028304181e-24
-0.47515010806250046	8.701886539996092e-24
-0.47508907290625046	8.655375392437076e-24
-0.47502803775000046	8.601232635865116e-24
-0.47496700259375046	8.539505751912831e-24
-0.47490596743750046	8.470250475131521e-24
-0.47484493228125046	8.393527391743346e-24
-0.47478389712500046	8.309400670134129e-24
-0.47472286196875046	8.217943483538819e-24
-0.47466182681250046	8.119239900381049e-24
-0.47460079165625046	8.013378793811542e-24
-0.47453975650000046	7.900450194708307e-24
-0.47447872134375046	7.780551044231784e-24
-0.47441768618750046	7.653791166996014e-24
-0.47435665103125046	7.520286508427376e-24
-0.47429561587500046	7.380152741137278e-24
-0.47423458071875046	7.23351139754739e-24
-0.47417354556250046	7.080494169315812e-24
-0.47411251040625046	6.921239090252044e-24
-0.47405147525000046	6.755889649829098e-24
-0.47399044009375046	6.584593022387924e-24
-0.47392940493750046	6.407497332149615e-24
-0.47386836978125046	6.2247608131859875e-24
-0.47380733462500046	6.036552350871841e-24
-0.47374629946875046	5.843040471311261e-24
-0.47368526431250046	5.644393541001227e-24
-0.47362422915625046	5.440788142709763e-24
-0.47356319400000046	5.232411540954964e-24
-0.47350215884375046	5.0194492592621685e-24
-0.47344112368750046	4.802088566848267e-24
-0.47338008853125046	4.5805299915273085e-24
-0.47331905337500046	4.354970719864524e-24
-0.47325801821875046	4.125605814949825e-24
-0.47319698306250046	3.892647967689027e-24
-0.47313594790625046	3.656312359858547e-24
-0.47307491275000046	3.416802418608888e-24
-0.47301387759375046	3.1743283358193213e-24
-0.47295284243750046	2.9291169830867327e-24
-0.47289180728125046	2.681393907850865e-24
-0.47283077212500046	2.4313745703247925e-24
-0.47276973696875046	2.179280164424318e-24
-0.47270870181250046	1.9253397309490186e-24
-0.47264766665625046	1.669785566866451e-24
-0.47258663150000046	1.4128510381768599e-24
-0.47252559634375046	1.1547653676861765e-24
-0.47246456118750046	8.957555142065124e-25
-0.47240352603125046	6.360521335812256e-25
-0.47234249087500046	3.758978538984854e-25
-0.47228145571875046	1.1553246866910777e-25
-0.47222042056250046	-1.44814538442009e-25
-0.47215938540625046	-4.049136840094349e-25
