Time	Frequency
-0.5000371929062482	0.06635730311650735
-0.49997615774999815	0.04712494465733584
-0.49991512259374815	0.027829226936434668
-0.49985408743749815	0.008498595443725058
-0.49979305228124815	-0.010839459857962912
-0.49973201712499815	-0.030158604906956012
-0.49967098196874815	-0.04943073729474753
-0.49960994681249815	-0.06862656699625744
-0.49954891165624815	-0.08771864774020632
-0.49948787649999815	-0.10668149717064701
-0.49942684134374815	-0.12548786743497858
-0.49936580618749815	-0.1441091139657753
-0.49930477103124815	-0.16251887087148542
-0.49924373587499815	-0.18069120669181712
-0.49918270071874815	-0.19859984949691267
-0.49912166556249815	-0.216219086668648
-0.49906063040624815	-0.23352347074770227
-0.49899959524999815	-0.25048852918829895
-0.49893856009374815	-0.2670892001701409
-0.49887752493749815	-0.28330115978729303
-0.49881648978124815	-0.29910240192424137
-0.49875545462499815	-0.31446980079111186
-0.49869441946874815	-0.32938023079288464
-0.49863338431249815	-0.34381287147720174
-0.49857234915624815	-0.3577470605702121
-0.49851131399999815	-0.37116231251081566
-0.49845027884374815	-0.384039200895537
-0.49838924368749815	-0.39635933028501236
-0.49832820853124815	-0.4081050132593413
-0.49826717337499815	-0.41925867962746877
-0.49820613821874815	-0.429804358229796
-0.49814510306249815	-0.43972719454283415
-0.49808406790624815	-0.44901219487363936
-0.49802303274999815	-0.45764594218650084
-0.49796199759374815	-0.46561631951941224
-0.49790096243749815	-0.47291118284901446
-0.49783992728124815	-0.4795197473930565
-0.49777889212499815	-0.48543287282700565
-0.49771785696874815	-0.49064167172976647
-0.49765682181249815	-0.4951381838556803
-0.49759578665624815	-0.4989159685960368
-0.49753475149999815	-0.5019694013515563
-0.49747371634374815	-0.5042937584876956
-0.49741268118749815	-0.5058855392750068
-0.49735164603124815	-0.5067423604494681
-0.49729061087499815	-0.5068626678193315
-0.49722957571874815	-0.5062459490967008
-0.49716854056249815	-0.5048929580332919
-0.49710750540624815	-0.502805535714131
-0.49704647024999815	-0.4999864551711337
-0.49698543509374815	-0.49643932959539255
-0.49692439993749815	-0.4921690904203659
-0.49686336478124815	-0.4871818509371272
-0.49680232962499815	-0.4814844268204178
-0.49674129446874815	-0.4750848402419047
-0.49668025931249815	-0.4679920657973345
-0.49661922415624815	-0.46021587847786233
-0.49655818899999815	-0.451767479696249
-0.49649715384374815	-0.4426590212140341
-0.49643611868749815	-0.432903073976125
-0.49637508353124815	-0.42251332075141584
-0.49631404837499815	-0.4115047925832846
-0.49625301321874815	-0.3998932799965147
-0.49619197806249815	-0.38769512888093477
-0.49613094290624815	-0.37492741404740443
-0.49606990774999815	-0.36160869717578714
-0.49600887259374815	-0.34775805200030413
-0.49594783743749815	-0.33339470879400046
-0.49588680228124815	-0.3185397742698295
-0.49582576712499815	-0.3032146160363429
-0.49576473196874815	-0.2874403274183384
-0.49570369681249815	-0.2712396082740733
-0.49564266165624815	-0.25463627753916984
-0.49558162649999815	-0.23765439894942955
-0.49552059134374815	-0.22031746954632003
-0.49545955618749815	-0.20264985910289848
-0.49539852103124815	-0.18467794462291875
-0.49533748587499815	-0.16642781930622447
-0.49527645071874815	-0.14792514639992524
-0.49521541556249815	-0.12919579883420257
-0.49515438040624815	-0.11026699316377213
-0.49509334524999815	-0.09116747162582566
-0.49503231009374815	-0.07192373391984494
-0.49497127493749815	-0.05256184635896516
-0.49491023978124815	-0.03311144902040898
-0.49484920462499815	-0.013601467202579572
-0.49478816946874815	0.00594174542395445
-0.49472713431249815	0.025490131129014337
-0.49466609915624815	0.04501452951952375
-0.49460506399999815	0.064486890469506
-0.49454402884374815	0.08387911153719829
-0.49448299368749815	0.1031632345325857
-0.49442195853124815	0.12231199569608062
-0.49436092337499815	0.1412975794070411
-0.49429988821874815	0.1600915536998329
-0.49423885306249815	0.17866682954288357
-0.49417781790624815	0.1969975100477295
-0.49411678274999815	0.21505695779328018
-0.49405574759374815	0.23281846282403487
-0.49399471243749815	0.25025605353253816
-0.49393367728124815	0.26734458077340445
-0.49387264212499815	0.28405966704043695
-0.49381160696874815	0.30037684119331837
-0.49375057181249815	0.316272153329916
-0.49368953665624815	0.3317226182042454
-0.49362850149999815	0.3467058773288152
-0.49356746634374815	0.3611998449517695
-0.49350643118749815	0.3751831559774308
-0.49344539603124815	0.3886359731017017
-0.49338436087499815	0.40153859483776666
-0.49332332571874815	0.4138716902550477
-0.49326229056249815	0.42561744425412434
-0.49320125540624815	0.436758583220801
-0.49314022024999815	0.44727862352275033
-0.49307918509374815	0.45716241640033656
-0.49301814993749815	0.4663953218506918
-0.49295711478124815	0.4749634687558707
-0.49289607962499815	0.48285414843195046
-0.49283504446874815	0.49005573809964875
-0.49277400931249815	0.4965578200961698
-0.49271297415624815	0.5023504689964693
-0.49265193899999815	0.5074246323248505
-0.49259090384374815	0.5117728845310983
-0.49252986868749815	0.515388817782664
-0.49246883353124815	0.5182667195116233
-0.49240779837499815	0.5204019191375118
-0.49234676321874815	0.521791008684276
-0.49228572806249815	0.522431675195772
-0.49222469290624815	0.5223226602605963
-0.49216365774999815	0.5214637521662034
-0.49210262259374815	0.5198557263239248
-0.49204158743749815	0.5175004614276981
-0.49198055228124815	0.5144011724343797
-0.49191951712499815	0.5105620195891383
-0.49185848196874815	0.5059877812516329
-0.49179744681249815	0.500684803959346
-0.49173641165624815	0.4946608010978383
-0.49167537649999815	0.4879238620410325
-0.49161434134374815	0.4804830152638596
-0.49155330618749815	0.47234877156274124
-0.49149227103124815	0.4635327784961527
-0.49143123587499815	0.4540474083452306
-0.49137020071874815	0.4439058473813681
-0.49130916556249815	0.43312224836819385
-0.49124813040624815	0.4217117735426644
-0.49118709524999815	0.4096909832586124
-0.49112606009374815	0.397077137661976
-0.49106502493749815	0.38388736126149886
-0.49100398978124815	0.37014001090116244
-0.49094295462499815	0.3558558108313887
-0.49088191946874815	0.3410553793353792
-0.49082088431249815	0.3257583499079344
-0.49075984915624815	0.3099867145370865
-0.49069881399999815	0.29376401645269995
-0.49063777884374815	0.2771128925440658
-0.49057674368749815	0.2600566424399137
-0.49051570853124815	0.2426202921624572
-0.49045467337499815	0.22482919253280337
-0.49039363821874815	0.20670779451116442
-0.49033260306249815	0.18828160024094875
-0.49027156790624815	0.1695784272267492
-0.49021053274999815	0.15062539352116253
-0.49014949759374815	0.1314482801163069
-0.49008846243749815	0.11207460122620724
-0.49002742728124815	0.09253318438894328
-0.48996639212499815	0.07285156811947627
-0.48990535696874815	0.053057967336557425
-0.48984432181249815	0.03318171034846621
-0.48978328665624815	0.01325038980163148
-0.48972225149999815	-0.0067076314147592915
-0.48966121634374815	-0.02666279804582756
-0.48960018118749815	-0.046586548894851365
-0.48953914603124815	-0.06644977781726845
-0.48947811087499815	-0.08622396012424263
-0.48941707571874815	-0.10588152166074943
-0.48935604056249815	-0.12539416851778973
-0.48929500540624815	-0.14473287098809756
-0.48923397024999815	-0.16386854410245474
-0.48917293509374815	-0.18277482787255814
-0.48911189993749815	-0.20142613649064917
-0.48905086478124815	-0.2197937288817413
-0.48898982962499815	-0.23784997095963525
-0.48892879446874815	-0.255570242989619
-0.48886775931249815	-0.27292895740793044
-0.48880672415624815	-0.2899003365393753
-0.48874568899999815	-0.30646024606148065
-0.48868465384374815	-0.3225847434841422
-0.48862361868749815	-0.3382499364598374
-0.48856258353124815	-0.35343310869664485
-0.48850154837499815	-0.3681128636512442
-0.48844051321874815	-0.3822677425237337
-0.48837947806249815	-0.3958766339166667
-0.48831844290624815	-0.4089202849646364
-0.48825740774999815	-0.4213796505802736
-0.48819637259374815	-0.43323616148336164
-0.48813533743749815	-0.44447305380712177
-0.48807430228124815	-0.4550740444287321
-0.48801326712499815	-0.46502332374957867
-0.48795223196874815	-0.47430632625632024
-0.48789119681249815	-0.48290970879270806
-0.48783016165624815	-0.49082091923586896
-0.48776912649999815	-0.4980282502392459
-0.48770809134374815	-0.504521206318867
-0.48764705618749815	-0.5102901682216645
-0.48758602103124815	-0.5153266624527919
-0.48752498587499815	-0.51962342786348
-0.48746395071874815	-0.5231738533954771
-0.48740291556249815	-0.5259727326050153
-0.48734188040624815	-0.5280160878550202
-0.48728084524999815	-0.5293004818514792
-0.48721981009374815	-0.5298240125044777
-0.48715877493749815	-0.5295859776084467
-0.48709773978124815	-0.528586385020417
-0.48703670462499815	-0.5268265434999458
-0.48697566946874815	-0.5243089373812172
-0.48691463431249815	-0.5210370543776892
-0.48685359915624815	-0.517015441573952
-0.48679256399999815	-0.5122499073014652
-0.48673152884374815	-0.5067472690941826
-0.48667049368749815	-0.5005150692143662
-0.48660945853124815	-0.49356236709693585
-0.48654842337499815	-0.48589949000761035
-0.48648738821874815	-0.47753700561143103
-0.48642635306249815	-0.4684867815678333
-0.48636531790624815	-0.4587622691726606
-0.48630428274999815	-0.44837740278318805
-0.48624324759374815	-0.43734698791878446
-0.48618221243749815	-0.42568676218792906
-0.48612117728124815	-0.4134136920702852
-0.48606014212499815	-0.4005459214934693
-0.48599910696874815	-0.3871016288577667
-0.48593807181249815	-0.3730999493002409
-0.48587703665624815	-0.35856154824735503
-0.48581600149999815	-0.343507646948117
-0.48575496634374815	-0.3279597622455436
-0.48569393118749815	-0.3119401910359304
-0.48563289603124815	-0.29547233632700803
-0.48557186087499815	-0.2785802439831756
-0.48551082571874815	-0.26128844898945996
-0.48544979056249815	-0.24362175445386508
-0.48538875540624815	-0.22560566304254415
-0.48532772024999815	-0.20726662078493086
-0.48526668509374815	-0.1886312968076057
-0.48520564993749815	-0.16972675121359923
-0.48514461478124815	-0.15058032633054735
-0.48508357962499815	-0.13121985997475752
-0.48502254446874815	-0.11167338356832199
-0.48496150931249815	-0.09196934513167829
-0.48490047415624815	-0.07213692154873143
-0.48483943899999815	-0.05220464516058346
-0.48477840384374815	-0.03220134396538511
-0.48471736868749815	-0.012156188018009977
-0.48465633353124815	0.00790183247046683
-0.48459529837499815	0.027942785242046474
-0.48453426321874815	0.04793752312164258
-0.48447322806249815	0.06785753570791053
-0.48441219290624815	0.08767361927088309
-0.48435115774999815	0.10735680502936001
-0.48429012259374815	0.1268779157450762
-0.48422908743749815	0.14620867633512993
-0.48416805228124815	0.16532139120323955
-0.48410701712499815	0.18418751187528248
-0.48404598196874815	0.20277961058854044
-0.48398494681249815	0.2210707725293898
-0.48392391165624815	0.23903390205792385
-0.48386287649999815	0.256642823197856
-0.48380184134374815	0.2738719918211737
-0.48374080618749815	0.2906962175986168
-0.48367977103124815	0.3070902601348559
-0.48361873587499815	0.3230301889974203
-0.48355770071874815	0.33849362760125923
-0.48349666556249815	0.3534574739820115
-0.48343563040624815	0.3678989032715631
-0.48337459524999815	0.3817971484911293
-0.48331356009374815	0.39513243608265947
-0.48325252493749815	0.4078850391957693
-0.48319148978124815	0.420035585447848
-0.48313045462499815	0.43156620489989056
-0.48306941946874815	0.44246071278618165
-0.48300838431249815	0.45270280001636426
-0.48294734915624815	0.4622767101061144
-0.48288631399999815	0.4711688056646561
-0.48282527884374815	0.47936620001532243
-0.48276424368749815	0.4868565627866956
-0.48270320853124815	0.493628690897103
-0.48264217337499815	0.49967242460495015
-0.48258113821874815	0.5049789884837104
-0.48252010306249815	0.5095406616188352
-0.48245906790624815	0.5133504689849164
-0.48239803274999815	0.5164024918471127
-0.48233699759374815	0.5186922383084178
-0.48227596243749815	0.5202163684885523
-0.48221492728124815	0.5209723931915992
-0.48215389212499815	0.5209590507035036
-0.48209285696874815	0.5201762698031992
-0.48203182181249815	0.5186249552632048
-0.48197078665624815	0.5163073185868936
-0.48190975149999815	0.5132266004127876
-0.48184871634374815	0.5093871562672627
-0.48178768118749815	0.5047945673436417
-0.48172664603124815	0.49945517138297446
-0.48166561087499815	0.4933768811658897
-0.48160457571874815	0.48656863671571726
-0.48154354056249815	0.47903979130747626
-0.48148250540624815	0.47080141028165234
-0.48142147024999815	0.46186583200062825
-0.48136043509374815	0.452245908699848
-0.48129939993749815	0.44195525638619243
-0.48123836478124815	0.4310087275749886
-0.48117732962499815	0.4194229892658412
-0.48111629446874815	0.4072148734967273
-0.48105525931249815	0.39440131203649703
-0.48099422415624815	0.3810016340172257
-0.48093318899999815	0.3670356436058891
-0.48087215384374815	0.352523105275011
-0.48081111868749815	0.337485686045961
-0.48075008353124815	0.32194541101931734
-0.48068904837499815	0.3059247136884914
-0.48062801321874815	0.2894471030513234
-0.48056697806249815	0.2725367285547326
-0.48050594290624815	0.2552188441396852
-0.48044490774999815	0.23751865153954924
-0.48038387259374815	0.21946128599790515
-0.48032283743749815	0.20107349256620394
-0.48026180228124815	0.18238334952562424
-0.48020076712499815	0.16341803418836084
-0.48013973196874815	0.14420402607774782
-0.48007869681249815	0.12477045125531122
-0.48001766165624815	0.10514669922504068
-0.47995662649999815	0.08536006015189722
-0.47989559134374815	0.06544010797804611
-0.47983455618749815	0.045417675289766916
-0.47977352103124815	0.02532084423233621
-0.47971248587499815	0.005178188556040882
-0.47965145071874815	-0.014979095887987175
-0.47959041556249815	-0.035120859223656084
-0.47952938040624815	-0.05521817056718464
-0.47946834524999815	-0.0752417916907398
-0.47940731009374815	-0.09516224324397356
-0.47934627493749815	-0.11494911986477147
-0.47928523978124815	-0.13457327895328958
-0.47922420462499815	-0.15400676776009894
-0.47916316946874815	-0.17322030159233429
-0.47910213431249815	-0.19218506633465754
-0.47904109915624815	-0.21087329733846755
-0.47898006399999815	-0.22925766373497442
-0.47891902884374815	-0.2473108732311314
-0.47885799368749815	-0.265005358719085
-0.47879695853124815	-0.2823154994354768
-0.47873592337499815	-0.2992162027279356
-0.47867488821874815	-0.3156814972042949
-0.47861385306249815	-0.3316869850836792
-0.47855281790624815	-0.34720906899542364
-0.47849178274999815	-0.36222457566377597
-0.47843074759374815	-0.3767117309038686
-0.47836971243749815	-0.390648626631931
-0.47830867728124815	-0.40401361045954265
-0.47824764212499815	-0.41678729717266727
-0.47818660696874815	-0.428951349213933
-0.47812557181249815	-0.4404870439023658
-0.47806453665624815	-0.4513767193742917
-0.47800350149999815	-0.46160421085065884
-0.47794246634374815	-0.4711542768841057
-0.47788143118749815	-0.4800127630583496
-0.47782039603124815	-0.4881661493921383
-0.47775936087499815	-0.4956017860956405
-0.47769832571874815	-0.5023085967554348
-0.47763729056249815	-0.5082765382852404
-0.47757625540624815	-0.5134964050234514
-0.47751522024999815	-0.5179601884630702
-0.47745418509374815	-0.5216608040828663
-0.47739314993749815	-0.5245924049746836
-0.47733211478124815	-0.5267506566109745
-0.47727107962499815	-0.5281319535818628
-0.47721004446874815	-0.5287337475534656
-0.47714900931249815	-0.5285548967052408
-0.47708797415624815	-0.5275952428061811
-0.47702693899999815	-0.5258558700754626
-0.47696590384374815	-0.5233391480385936
-0.47690486868749815	-0.520048438072709
-0.47684383353124815	-0.51598809250945
-0.47678279837499815	-0.5111636902525613
-0.47672176321874815	-0.5055820856737717
-0.47666072806249815	-0.499251284271182
-0.47659969290624815	-0.4921804400159413
-0.47653865774999815	-0.4843795132994229
-0.47647762259374815	-0.47585918572772223
-0.47641658743749815	-0.46663199219051216
-0.47635555228124815	-0.4567117438943891
-0.47629451712499815	-0.4461126023129206
-0.47623348196874815	-0.43484961703187947
-0.47617244681249815	-0.42293861852204745
-0.47611141165624815	-0.41039742577087984
-0.47605037649999815	-0.3972448490844988
-0.47598934134374815	-0.3834993641916538
-0.47592830618749815	-0.3691809693013451
-0.47586727103124815	-0.35431037539991533
-0.47580623587499815	-0.3389093500044894
-0.47574520071874815	-0.3230011718388215
-0.47568416556249815	-0.306608265072068
-0.47562313040624815	-0.2897542680408173
-0.47556209524999815	-0.2724649275492625
-0.47550106009374815	-0.2547651573930005
-0.47544002493749815	-0.23668016378559287
-0.47537898978124815	-0.2182367758894659
-0.47531795462499815	-0.1994627607397399
-0.47525691946874815	-0.18038590403702778
-0.47519588431249815	-0.16103277277616918
-0.47513484915624815	-0.14143164188886012
-0.47507381399999815	-0.12161323790486968
-0.47501277884374815	-0.10160613135340342
-0.47495174368749815	-0.08143841368749503
-0.47489070853124815	-0.061140730748948394
-0.47482967337499815	-0.0407433527373502
-0.47476863821874815	-0.020275667867290206
-0.47470760306249815	0.0002320831763496282
-0.47464656790624815	0.02074926850323856
-0.47458553274999815	0.041246013001845674
-0.47452449759374815	0.061692346325322174
-0.47446346243749815	0.0820570385090143
-0.47440242728124815	0.10231001396143664
-0.47434139212499815	0.12242295345841335
-0.47428035696874815	0.1423658820185439
-0.47421932181249815	0.16210751155464098
-0.47415828665624815	0.18161882493888015
-0.47409725149999815	0.2008723993091962
-0.47403621634374815	0.2198400510167489
-0.47397518118749815	0.23849246994755038
-0.47391414603124815	0.2568011850973193
-0.47385311087499815	0.27474041254751885
-0.47379207571874815	0.29228394128704605
-0.47373104056249815	0.30940457912175645
-0.47367000540624815	0.32607720426007636
-0.47360897024999815	0.34227736869394787
-0.47354793509374815	0.3579805753446982
-0.47348689993749815	0.3731636902889298
-0.47342586478124815	0.3878042383865301
-0.47336482962499815	0.4018801910376912
-0.47330379446874815	0.4153704213920822
-0.47324275931249815	0.4282549136704985
-0.47318172415624815	0.44051470993335057
-0.47312068899999815	0.45213136076381766
-0.47305965384374815	0.4630872361660438
-0.47299861868749815	0.47336593918519915
-0.47293758353124815	0.4829522951850823
-0.47287654837499815	0.49183194301806255
-0.47281551321874815	0.49999132146407727
-0.47275447806249815	0.5074181417547232
-0.47269344290624815	0.5141012370420608
-0.47263240774999815	0.5200305832209611
-0.47257137259374815	0.5251971194467498
-0.47251033743749815	0.5295928598955463
-0.47244930228124815	0.5332111986847626
-0.47238826712499815	0.536046490970076
-0.47232723196874815	0.5380942408385327
-0.47226619681249815	0.5393513293012397
-0.47220516165624815	0.539815571345623
-0.47214412649999815	0.5394859394766605
-0.47208309134374815	0.5383628492166295
-0.47202205618749815	0.5364476727672638
-0.47196102103124815	0.5337429721320944
-0.47189998587499815	0.5302526198998783
-0.47183895071874815	0.5259814242424172
-0.47177791556249815	0.5209355155473021
-0.47171688040624815	0.5151221851008
-0.47165584524999815	0.5085498564238696
-0.47159481009374815	0.5012280714581244
-0.47153377493749815	0.4931672614312691
-0.47147273978124815	0.4843793329339682
-0.47141170462499815	0.4748771875001822
-0.47135066946874815	0.4646743736409714
-0.47128963431249815	0.453786066372161
-0.47122859915624815	0.4422284923029699
-0.47116756399999815	0.4300181622897924
-0.47110652884374815	0.41717291659826095
-0.47104549368749815	0.4037118473358749
-0.47098445853124815	0.3896549267201729
-0.47092342337499815	0.375022856001234
-0.47086238821874815	0.3598368241767537
-0.47080135306249815	0.3441191368283671
-0.47074031790624815	0.32789325184831136
-0.47067928274999815	0.31118348199807805
-0.47061824759374815	0.29401403074032484
-0.47055721243749815	0.27640985102141524
-0.47049617728124815	0.2583977029896754
-0.47043514212499815	0.24000424105856713
-0.47037410696874815	0.2212560481654583
-0.47031307181249815	0.20218095344725273
