Time	Frequency
-0.5000467291562529	0.4781893424958409
-0.4999856940000029	0.47878561355442517
-0.4999246588437529	0.4787493153322263
-0.4998636236875029	0.4780802253680526
-0.4998025885312529	0.476779017046849
-0.4997415533750029	0.47484692025878844
-0.4996805182187529	0.4722863536870831
-0.4996194830625029	0.469100202295234
-0.4995584479062529	0.4652925179550737
-0.4994974127500029	0.4608676495988137
-0.4994363775937529	0.4558312879390903
-0.4993753424375029	0.45018971026443194
-0.4993143072812529	0.4439498484470423
-0.4992532721250029	0.43711949680708007
-0.4991922369687529	0.42970718258779556
-0.4991312018125029	0.4217225224453287
-0.4990701666562529	0.41317534983735316
-0.4990091315000029	0.4040766206517764
-0.4989480963437529	0.39443763630550654
-0.4988870611875029	0.38427092696874376
-0.4988260260312529	0.373589359274707
-0.4987649908750029	0.3624063545350229
-0.4987039557187529	0.3507363339651895
-0.4986429205625029	0.3385942748446029
-0.4985818854062529	0.32599556989221734
-0.4985208502500029	0.3129560896844907
-0.4984598150937529	0.29949304698903795
-0.4983987799375029	0.28562333884554597
-0.4983377447812529	0.2713649199143895
-0.4982767096250029	0.25673607437787876
-0.4982156744687529	0.24175528885609684
-0.4981546393125029	0.22644202035111927
-0.4980936041562529	0.21081637844394419
-0.4980325690000029	0.19489813629688232
-0.4979715338437529	0.17870722916220622
-0.4979104986875029	0.16226531224708962
-0.4978494635312529	0.1455934396493533
-0.4977884283750029	0.12871311679948605
-0.4977273932187529	0.11164591062890313
-0.4976663580625029	0.09441372816243411
-0.4976053229062529	0.07703919278757582
-0.4975442877500029	0.05954497771102824
-0.4974832525937529	0.041953489559952574
-0.4974222174375029	0.02428709436002326
-0.4973611822812529	0.006569031340386723
-0.4973001471250029	-0.011177729839804447
-0.4972391119687529	-0.028929830646958185
-0.4971780768125029	-0.04666475202259161
-0.4971170416562529	-0.06435943443245691
-0.4970560065000029	-0.08199058849928363
-0.4969949713437529	-0.09953559803434366
-0.4969339361875029	-0.11697149618431084
-0.4968729010312529	-0.13427541599867007
-0.4968118658750029	-0.15142482418588368
-0.4967508307187529	-0.1683978765123551
-0.4966897955625029	-0.18517200378389834
-0.4966287604062529	-0.20172544434255552
-0.4965677252500029	-0.2180363906753146
-0.4965066900937529	-0.2340834938129671
-0.4964456549375029	-0.24984622930708988
-0.4963846197812529	-0.2653036763770693
-0.4963235846250029	-0.2804353740650387
-0.4962625494687529	-0.29522156623481016
-0.4962015143125029	-0.30964326464293185
-0.4961404791562529	-0.3236810498625847
-0.4960794440000029	-0.3373165908961123
-0.4960184088437529	-0.3505318987064706
-0.4959573736875029	-0.36330950228198255
-0.4958963385312529	-0.37563278282983736
-0.4958353033750029	-0.3874854433424475
-0.4957742682187529	-0.3988514476472001
-0.4957132330625029	-0.40971567812488374
-0.4956521979062529	-0.42006431852134685
-0.4955911627500029	-0.42988304880115236
-0.4955301275937529	-0.43915899375077505
-0.4954690924375029	-0.4478796853034956
-0.4954080572812529	-0.45603330401440517
-0.4953470221250029	-0.46360906489453263
-0.4952859869687529	-0.47059679175237135
-0.4952249518125029	-0.47698697662531647
-0.4951639166562529	-0.4827705843349787
-0.4951028815000029	-0.4879400082649371
-0.4950418463437529	-0.49248806669714906
-0.4949808111875029	-0.49640859670803444
-0.4949197760312529	-0.49969567482079036
-0.4948587408750029	-0.5023446952011994
-0.4947977057187529	-0.5043519468067909
-0.4947366705625029	-0.5057142789578517
-0.4946756354062529	-0.5064294473127574
-0.4946146002500029	-0.5064958916705535
-0.4945535650937529	-0.5059133346339434
-0.4944925299375029	-0.5046817908967868
-0.4944314947812529	-0.502802560408514
-0.4943704596250029	-0.5002774465597458
-0.4943094244687529	-0.4971093560937008
-0.4942483893125029	-0.49330183057326005
-0.4941873541562529	-0.4888593213840015
-0.4941263190000029	-0.4837871415144366
-0.4940652838437529	-0.4780912302850535
-0.4940042486875029	-0.47177881758513046
-0.4939432135312529	-0.46485722889521947
-0.4938821783750029	-0.4573350927403266
-0.4938211432187529	-0.44922158666629336
-0.4937601080625029	-0.4405270579034847
-0.4936990729062529	-0.43126207874192873
-0.4936380377500029	-0.4214379211936481
-0.4935770025937529	-0.4110672691944452
-0.4935159674375029	-0.4001629711853693
-0.4934549322812529	-0.3887386122175518
-0.4933938971250029	-0.3768085732401977
-0.4933328619687529	-0.364388078719812
-0.4932718268125029	-0.3514922336843597
-0.4932107916562529	-0.3381378442551845
-0.4931497565000029	-0.324341855448941
-0.4930887213437529	-0.3101212223025272
-0.4930276861875029	-0.29549414289435405
-0.4929666510312529	-0.2804792852967377
-0.4929056158750029	-0.26509582260683473
-0.4928445807187529	-0.24936317121002524
-0.4927835455625029	-0.23330124270724717
-0.4927225104062529	-0.21693012829261366
-0.4926614752500029	-0.2002714419780822
-0.4926004400937529	-0.18334626284045952
-0.4925394049375029	-0.16617580652675243
-0.4924783697812529	-0.14878196773844832
-0.4924173346250029	-0.1311871432494848
-0.4923562994687529	-0.11341415994191319
-0.4922952643125029	-0.0954850989078296
-0.4922342291562529	-0.07742324423431857
-0.4921731940000029	-0.05925176747491254
-0.4921121588437529	-0.04099392410374026
-0.4920511236875029	-0.022672801112687598
-0.4919900885312529	-0.004311984973373806
-0.4919290533750029	0.014064638283915564
-0.4918680182187529	0.03243342275502039
-0.4918069830625029	0.05077112611631716
-0.4917459479062529	0.06905488433903276
-0.4916849127500029	0.08726016681234929
-0.4916238775937529	0.10536325705012045
-0.4915628424375029	0.12334160093145091
-0.4915018072812529	0.14117261959179872
-0.4914407721250029	0.15883254692176527
-0.4913797369687529	0.17629848022658165
-0.4913187018125029	0.19354842140775277
-0.4912576666562529	0.2105599286476665
-0.4911966315000029	0.22731118770020384
-0.4911355963437529	0.24378058798493393
-0.4910745611875029	0.2599471752493032
-0.4910135260312529	0.2757893963120755
-0.4909524908750029	0.2912870102659374
-0.4908914557187529	0.3064205191713056
-0.4908304205625029	0.3211702175605163
-0.4907693854062529	0.33551676872237474
-0.4907083502500029	0.34944154416451945
-0.4906473150937529	0.36292690225645347
-0.4905862799375029	0.3759552940805899
-0.4905252447812529	0.3885099557037925
-0.4904642096250029	0.40057431987846626
-0.4904031744687529	0.41213312526745344
-0.4903421393125029	0.4231712838490869
-0.4902811041562529	0.4336743525527253
-0.4902200690000029	0.44362889214668527
-0.4901590338437529	0.4530220148056653
-0.4900979986875029	0.46184155631094287
-0.4900369635312529	0.4700758391508706
-0.4899759283750029	0.4777144602365518
-0.4899148932187529	0.4847472359848449
-0.4898538580625029	0.4911653900000646
-0.4897928229062529	0.49696034772331044
-0.4897317877500029	0.5021244474005409
-0.4896707525937529	0.5066511565259042
-0.4896097174375029	0.510534576663301
-0.4895486822812529	0.5137697216191431
-0.4894876471250029	0.5163520963145011
-0.4894266119687529	0.5182785676638183
-0.4893655768125029	0.519546384308936
-0.4893045416562529	0.5201541331006756
-0.4892435065000029	0.5201008371943957
-0.4891824713437529	0.5193865741479728
-0.4891214361875029	0.518012208283907
-0.4890604010312529	0.5159794229537928
-0.4889993658750029	0.5132910301136818
-0.4889383307187529	0.5099503301632574
-0.4888772955625029	0.5059617822516779
-0.4888162604062529	0.5013301789440117
-0.4887552252500029	0.4960618838034618
-0.4886941900937529	0.4901636695169494
-0.4886331549375029	0.48364308464997635
-0.4885721197812529	0.47650840601699507
-0.4885110846250029	0.46876905301653843
-0.4884500494687529	0.4604352617226473
-0.4883890143125029	0.4515175171976076
-0.4883279791562529	0.44202758825879873
-0.4882669440000029	0.43197744737626315
-0.4882059088437529	0.42138062219808103
-0.4881448736875029	0.410250760837812
-0.4880838385312529	0.3986020790936448
-0.4880228033750029	0.38644977692301774
-0.4879617682187529	0.37380984540959167
-0.4879007330625029	0.36069869035946134
-0.4878396979062529	0.34713307117305114
-0.4877786627500029	0.3331310028976379
-0.4877176275937529	0.31871049545463565
-0.4876565924375029	0.30389038324530593
-0.4875955572812529	0.2886897893611384
-0.4875345221250029	0.27312879558383324
-0.4874734869687529	0.25722759787818916
-0.4874124518125029	0.2410066826314418
-0.4873514166562529	0.2244872656283026
-0.4872903815000029	0.2076910477331121
-0.4872293463437529	0.19063997920982909
-0.4871683111875029	0.17335574857884897
-0.4871072760312529	0.1558612990969994
-0.4870462408750029	0.13817957348641763
-0.4869852057187529	0.12033364911979397
-0.4869241705625029	0.10234611599870355
-0.4868631354062529	0.0842409742253827
-0.4868021002500029	0.06604221660235468
-0.4867410650937529	0.04777282994366718
-0.4866800299375029	0.029457141193520716
-0.4866189947812529	0.011118928571070554
-0.4865579596250029	-0.0072179658625159005
-0.4864969244687529	-0.02552959906087477
-0.4864358893125029	-0.043791669804665756
-0.4863748541562529	-0.06198066542329274
-0.4863138190000029	-0.0800728766802977
-0.4862527838437529	-0.09804465409474483
-0.4861917486875029	-0.1158725088261972
-0.4861307135312529	-0.13353257321744547
-0.4860696783750029	-0.151002414742707
-0.4860086432187529	-0.168259316327119
-0.4859476080625029	-0.18528048459968605
-0.4858865729062529	-0.20204329135397023
-0.4858255377500029	-0.21852608838555498
-0.4857645025937529	-0.23470739722893197
-0.4857034674375029	-0.25056633917534316
-0.4856424322812529	-0.2660818757878832
-0.4855813971250029	-0.28123318812075815
-0.4855203619687529	-0.29600133252186694
-0.4854593268125029	-0.3103665825559439
-0.4853982916562529	-0.3243100388521065
-0.4853372565000029	-0.3378137235036762
-0.4852762213437529	-0.3508600393909377
-0.4852151861875029	-0.36343145332988885
-0.4851541510312529	-0.3755116115227397
-0.4850931158750029	-0.3870850958925081
-0.4850320807187529	-0.39813672489135865
-0.4849710455625029	-0.4086519112711097
-0.4849100104062529	-0.4186164450745305
-0.4848489752500029	-0.42801788307756405
-0.4847879400937529	-0.436843771568319
-0.4847269049375029	-0.44508265066939207
-0.4846658697812529	-0.4527237372311669
-0.4846048346250029	-0.45975682539621815
-0.4845437994687529	-0.4661727250055653
-0.4844827643125029	-0.47196336087712415
-0.4844217291562529	-0.4771213526368774
-0.4843606940000029	-0.4816393500911405
-0.4842996588437529	-0.485511809373754
-0.4842386236875029	-0.4887336971999746
-0.4841775885312529	-0.4913010569772387
-0.4841165533750029	-0.49321030789877573
-0.4840555182187529	-0.49445899502910623
-0.4839944830625029	-0.495045688506535
-0.4839334479062529	-0.4949696262600149
-0.4838724127500029	-0.4942311513547821
-0.4838113775937529	-0.49283105157089263
-0.4837503424375029	-0.4907715032671445
-0.4836893072812529	-0.4880550426792476
-0.4836282721250029	-0.48468561864914533
-0.4835672369687529	-0.4806676283840321
-0.4835062018125029	-0.47600645616105036
-0.4834451666562529	-0.4707083502069183
-0.4833841315000029	-0.4647803828379773
-0.4833230963437529	-0.4582306488980599
-0.4832620611875029	-0.45106751693181324
-0.4832010260312529	-0.4433008584308795
-0.4831399908750029	-0.43494097222602723
-0.4830789557187529	-0.42599913197548595
-0.4830179205625029	-0.41648680961700224
-0.4829568854062529	-0.40641688090663053
-0.4828958502500029	-0.3958030946327681
-0.4828348150937529	-0.38465949784482695
-0.4827737799375029	-0.3730006634231365
-0.4827127447812529	-0.36084171181142
-0.4826517096250029	-0.34819967542336944
-0.4825906744687529	-0.33509148992017385
-0.4825296393125029	-0.3215341891818536
-0.4824686041562529	-0.30754520647506217
-0.4824075690000029	-0.29314393989585674
-0.4823465338437529	-0.27834995567795184
-0.4822854986875029	-0.2631823892522541
-0.4822244635312529	-0.24766139005119847
-0.4821634283750029	-0.2318077377062947
-0.4821023932187529	-0.21564280569417463
-0.4820413580625029	-0.19918788431308668
-0.4819803229062529	-0.1824652538633965
-0.4819192877500029	-0.16549685979746476
-0.4818582525937529	-0.1483055121586973
-0.4817972174375029	-0.13091425608704726
-0.4817361822812529	-0.11334608331265934
-0.4816751471250029	-0.09562452456041216
-0.4816141119687529	-0.07777347724198179
-0.4815530768125029	-0.05981687329816572
-0.4814920416562529	-0.04177803597864619
-0.4814310065000029	-0.02368160744536233
-0.4813699713437529	-0.005551828840023867
-0.4813089361875029	0.012586912512692469
-0.4812479010312529	0.030710795461177238
-0.4811868658750029	0.04879556280327547
-0.4811258307187529	0.06681641087533785
-0.4810647955625029	0.08474945227815417
-0.4810037604062529	0.10257077916819285
-0.4809427252500029	0.12025675044565637
-0.4808816900937529	0.13778301740484242
-0.4808206549375029	0.15512627423341302
-0.4807596197812529	0.17226324701713686
-0.4806985846250029	0.18917109458250517
-0.4806375494687529	0.20582701638996875
-0.4805765143125029	0.22220819651116186
-0.4805154791562529	0.23829291519285498
-0.4804544440000029	0.25405969397955713
-0.4803934088437529	0.2694871269585049
-0.4803323736875029	0.2845538414719581
-0.4802713385312529	0.2992401674263878
-0.4802103033750029	0.31352619294124323
-0.4801492682187529	0.3273925606751472
-0.4800882330625029	0.34082020932916524
-0.4800271979062529	0.3537908707433983
-0.4799661627500029	0.36628746520057043
-0.4799051275937529	0.3782927782284647
-0.4798440924375029	0.38979051096091005
-0.4797830572812529	0.4007646691701555
-0.4797220221250029	0.4112005810485437
-0.4796609869687529	0.4210838965599137
-0.4795999518125029	0.430401302673658
-0.4795389166562529	0.4391398459079972
-0.4794778815000029	0.4472872256686179
-0.4794168463437529	0.45483246091837226
-0.4793558111875029	0.46176514354302384
-0.4792947760312529	0.4680756958269267
-0.4792337408750029	0.4737549304606568
-0.4791727057187529	0.4787952583435371
-0.4791116705625029	0.48318931573188806
-0.4790506354062529	0.4869309099073595
-0.4789896002500029	0.49001457774758406
-0.4789285650937529	0.49243582838026406
-0.4788675299375029	0.4941910331973495
-0.4788064947812529	0.49527722710986066
-0.4787454596250029	0.4956927912544156
-0.4786844244687529	0.4954364449345349
-0.4786233893125029	0.4945083884948006
-0.4785623541562529	0.4929091618381228
-0.4785013190000029	0.49064057130050476
-0.4784402838437529	0.48770508685486735
-0.4783792486875029	0.48410627337367723
-0.4783182135312529	0.47984861815949
-0.4782571783750029	0.47493711812752304
-0.4781961432187529	0.4693778863020918
-0.4781351080625029	0.4631777735443495
-0.4780740729062529	0.4563451932068666
-0.4780130377500029	0.448888299839595
-0.4779520025937529	0.440816636992813
-0.4778909674375029	0.4321406543175175
-0.4778299322812529	0.42287137391215024
-0.4777688971250029	0.41302079482138115
-0.4777078619687529	0.40260202201249723
-0.4776468268125029	0.39162830025970996
-0.4775857916562529	0.3801129925371572
-0.4775247565000029	0.36807202821965096
-0.4774637213437529	0.3555213621508956
-0.4774026861875029	0.3424769761850364
-0.4773416510312529	0.32895523150239014
-0.4772806158750029	0.3149742699536572
-0.4772195807187529	0.3005527598339547
-0.4771585455625029	0.28570929835853726
-0.4770975104062529	0.2704635352125465
-0.4770364752500029	0.2548351795966999
-0.4769754400937529	0.2388446541430064
-0.4769144049375029	0.2225130105458889
-0.4768533697812529	0.20586248504344995
-0.4767923346250029	0.18891450717294841
-0.4767312994687529	0.17169113486134366
-0.4766702643125029	0.15421523313561752
-0.4766092291562529	0.13650997547965296
-0.4765481940000029	0.11859894893466856
-0.4764871588437529	0.10050572572058888
-0.4764261236875029	0.08225419580470746
-0.4763650885312529	0.06386800944659496
-0.4763040533750029	0.045372293867839836
-0.4762430182187529	0.02679147589910577
-0.4761819830625029	0.008149919038680285
-0.4761209479062529	-0.010527732837132013
-0.4760599127500029	-0.029216406848894483
-0.4759988775937529	-0.04789119794713191
-0.4759378424375029	-0.06652760472676078
-0.4758768072812529	-0.08510037294349523
-0.4758157721250029	-0.10358524872591952
-0.4757547369687529	-0.12195738546344041
-0.4756937018125029	-0.14019229181665016
-0.4756326666562529	-0.1582654523190705
-0.4755716315000029	-0.1761529383857023
-0.4755105963437529	-0.193830923117422
-0.4754495611875029	-0.21127578984259446
-0.4753885260312529	-0.22846423161357268
-0.4753274908750029	-0.24537243519973348
-0.4752664557187529	-0.26197865763957606
-0.4752054205625029	-0.2782607597816781
-0.4751443854062529	-0.2941964804051542
-0.4750833502500029	-0.30976408309250064
-0.4750223150937529	-0.3249429205630509
-0.4749612799375029	-0.3397128721847579
-0.4749002447812529	-0.35405395494549297
-0.4748392096250029	-0.36794665842637114
-0.4747781744687529	-0.3813720116014031
-0.4747171393125029	-0.39431227191511264
-0.4746561041562529	-0.40674959338916244
-0.4745950690000029	-0.4186676225784507
-0.4745340338437529	-0.43004994680745523
-0.4744729986875029	-0.44088076512086777
-0.4744119635312529	-0.451145455106944
-0.4743509283750029	-0.4608303526680341
-0.4742898932187529	-0.46992226160697437
-0.4742288580625029	-0.4784081340649648
-0.4741678229062529	-0.48627674228691753
-0.4741067877500029	-0.49351711203735005
-0.4740457525937529	-0.5001193276118692
-0.4739847174375029	-0.5060740410017639
-0.4739236822812529	-0.5113731011798407
-0.4738626471250029	-0.5160089502807402
-0.4738016119687529	-0.5199749526880199
-0.4737405768125029	-0.5232655600346726
-0.4736795416562529	-0.5258757807779125
-0.4736185065000029	-0.5278019818294098
-0.4735574713437529	-0.5290408466743577
-0.4734964361875029	-0.5295905849054156
-0.4734354010312529	-0.52944979810837
-0.4733743658750029	-0.5286183804060927
-0.4733133307187529	-0.5270969326690867
-0.4732522955625029	-0.5248870388638152
-0.4731912604062529	-0.5219913216147839
-0.4731302252500029	-0.5184129022531804
-0.4730691900937529	-0.5141563689027001
-0.4730081549375029	-0.509226791894131
-0.4729471197812529	-0.5036305504290044
-0.4728860846250029	-0.4973742305440641
-0.4728250494687529	-0.4904659655372744
-0.4727640143125029	-0.4829145734542089
-0.4727029791562529	-0.4747295826682602
-0.4726419440000029	-0.46592144053665546
-0.4725809088437529	-0.4565013493948005
-0.4725198736875029	-0.44648179987774045
-0.4724588385312529	-0.43587534279004747
-0.4723978033750029	-0.4246957617885447
-0.4723367682187529	-0.4129574096276216
-0.4722757330625029	-0.40067594981096866
-0.4722146979062529	-0.3878669843004702
-0.4721536627500029	-0.37454723370495835
-0.4720926275937529	-0.36073412393950366
-0.4720315924375029	-0.34644519930606826
-0.4719705572812529	-0.3316998783259157
-0.4719095221250029	-0.31651730374877074
-0.4718484869687529	-0.30091680569488855
-0.4717874518125029	-0.28491871893480125
-0.4717264166562529	-0.26854483542847796
-0.4716653815000029	-0.25181633938219394
-0.4716043463437529	-0.23475490052811318
-0.4715433111875029	-0.21738272852634105
-0.4714822760312529	-0.19972288080105213
-0.4714212408750029	-0.18179916995875198
-0.4713602057187529	-0.16363453661522076
-0.4712991705625029	-0.14525295456712137
-0.4712381354062529	-0.12667838329514336
-0.4711771002500029	-0.10793578095913409
-0.4711160650937529	-0.08904998228777841
-0.4710550299375029	-0.07004544474892789
-0.4709939947812529	-0.05094713788149391
-0.4709329596250029	-0.031780750565521654
-0.4708719244687529	-0.012571373100821374
-0.4708108893125029	0.006655852618540319
-0.4707498541562529	0.02587471187185016
-0.4706888190000029	0.045060857481723435
-0.4706277838437529	0.06418867371315144
-0.4705667486875029	0.08323203055623273
-0.4705057135312529	0.10216602787219342
-0.4704446783750029	0.12096655813396869
-0.4703836432187529	0.13960826281572478
-0.4703226080625029	0.15806556966877608
-0.4702615729062529	0.17631460259684476
-0.4702005377500029	0.19433135881888283
-0.4701395025937529	0.21209224026878926
-0.4700784674375029	0.22957306659146617
-0.4700174322812529	0.246750866988649
-0.4699563971250029	0.2636026883189633
-0.4698953619687529	0.28010630438291856
-0.4698343268125029	0.29624013129503324
-0.4697732916562529	0.31198235078446684
-0.4697122565000029	0.3273122688495016
