Time	Frequency
-0.5000167379687497	-3.3179655470122974e-22
-0.4999557028124997	-3.3231218062036107e-22
-0.4998946676562497	-3.3281058965388336e-22
-0.4998336324999997	-3.3329174281854236e-22
-0.4997725973437497	-3.33755627606035e-22
-0.4997115621874997	-3.3420219888910763e-22
-0.4996505270312497	-3.3463142574495886e-22
-0.4995894918749997	-3.3504331748171863e-22
-0.4995284567187497	-3.354378217676706e-22
-0.4994674215624997	-3.3581487567828508e-22
-0.4994063864062497	-3.36174512101885e-22
-0.4993453512499997	-3.365167300196643e-22
-0.4992843160937497	-3.3684143353490573e-22
-0.4992232809374997	-3.3714860150303176e-22
-0.4991622457812497	-3.3743827879416674e-22
-0.4991012106249997	-3.377104179557916e-22
-0.4990401754687497	-3.379649580400139e-22
-0.4989791403124997	-3.3820193282756093e-22
-0.4989181051562497	-3.384213374297784e-22
-0.4988570699999997	-3.3862308642842244e-22
-0.4987960348437497	-3.388071732026215e-22
-0.4987349996874997	-3.3897365745109834e-22
-0.4986739645312497	-3.3912251532478137e-22
-0.4986129293749997	-3.392536648748959e-22
-0.4985518942187497	-3.3936708741515884e-22
-0.4984908590624997	-3.3946282844558933e-22
-0.4984298239062497	-3.3954089455533484e-22
-0.4983687887499997	-3.396012316910298e-22
-0.4983077535937497	-3.3964383148837827e-22
-0.4982467184374997	-3.3966872884598477e-22
-0.4981856832812497	-3.3967587700132245e-22
-0.4981246481249997	-3.3966522098660466e-22
-0.4980636129687497	-3.396368423197486e-22
-0.4980025778124997	-3.395907918472871e-22
-0.4979415426562497	-3.3952694521099005e-22
-0.4978805074999997	-3.3944525066924056e-22
-0.4978194723437497	-3.3934583887185335e-22
-0.4977584371874997	-3.3922873424805895e-22
-0.4976974020312497	-3.390938215259996e-22
-0.4976363668749997	-3.3894112943416066e-22
-0.4975753317187497	-3.387707516586271e-22
-0.4975142965624997	-3.385826060273678e-22
-0.4974532614062497	-3.3837663067403666e-22
-0.4973922262499997	-3.38152958099919e-22
-0.4973311910937497	-3.379116391217088e-22
-0.4972701559374997	-3.37652542604265e-22
-0.4972091207812497	-3.3737564738731216e-22
-0.4971480856249997	-3.3708107676607985e-22
-0.4970870504687497	-3.3676885171430934e-22
-0.4970260153124997	-3.364389126320046e-22
-0.4969649801562497	-3.3609129487021683e-22
-0.4969039449999997	-3.3572605069461253e-22
-0.4968429098437497	-3.3534313282523325e-22
-0.4967818746874997	-3.349425248523961e-22
-0.4967208395312497	-3.3452432881004773e-22
-0.4966598043749997	-3.3408860827066657e-22
-0.4965987692187497	-3.336352979317595e-22
-0.4965377340624997	-3.33164352341829e-22
-0.4964766989062497	-3.326758535081484e-22
-0.4964156637499997	-3.321698863481619e-22
-0.4963546285937497	-3.3164642136260926e-22
-0.4962935934374997	-3.3110542032267876e-22
-0.4962325582812497	-3.3054695699086875e-22
-0.4961715231249997	-3.299711131923781e-22
-0.4961104879687497	-3.293778577838823e-22
-0.4960494528124997	-3.2876716144670896e-22
-0.4959884176562497	-3.281391099812652e-22
-0.4959273824999997	-3.274937952820694e-22
-0.4958663473437497	-3.268312093349288e-22
-0.4958053121874997	-3.261513097364765e-22
-0.4957442770312497	-3.25454120149905e-22
-0.4956832418749997	-3.247397297391228e-22
-0.4956222067187497	-3.240082051934837e-22
-0.4955611715624997	-3.2325954297586506e-22
-0.4955001364062497	-3.2249374352593263e-22
-0.4954391012499997	-3.217108664550758e-22
-0.4953780660937497	-3.2091097188927896e-22
-0.4953170309374997	-3.2009407816688923e-22
-0.4952559957812497	-3.1926019943889167e-22
-0.4951949606249997	-3.184093884044005e-22
-0.4951339254687497	-3.175417126390525e-22
-0.4950728903124997	-3.166571977526859e-22
-0.4950118551562497	-3.1575585001363694e-22
-0.4949508199999997	-3.1483773544621374e-22
-0.4948897848437497	-3.1390294400159632e-22
-0.4948287496874997	-3.129514797350732e-22
-0.4947677145312497	-3.1198333107863816e-22
-0.4947066793749997	-3.1099859376996647e-22
-0.4946456442187497	-3.099973546366281e-22
-0.4945846090624997	-3.089796051910067e-22
-0.4945235739062497	-3.0794538586130433e-22
-0.4944625387499997	-3.068947982480459e-22
-0.4944015035937497	-3.058278828113202e-22
-0.4943404684374997	-3.0474466865772575e-22
-0.4942794332812497	-3.0364521830261674e-22
-0.4942183981249997	-3.025295668260062e-22
-0.4941573629687497	-3.0139776636156565e-22
-0.4940963278124997	-3.0024990899211615e-22
-0.4940352926562497	-2.990860427490157e-22
-0.4939742574999997	-2.9790619900096367e-22
-0.4939132223437497	-2.96710450296533e-22
-0.4938521871874997	-2.954988536430941e-22
-0.4937911520312497	-2.9427144408667523e-22
-0.4937301168749997	-2.930282927408599e-22
-0.4936690817187497	-2.9176947568286165e-22
-0.4936080465624997	-2.9049503537726693e-22
-0.4935470114062497	-2.8920503044724144e-22
-0.4934859762499997	-2.8789955045292884e-22
-0.4934249410937497	-2.865786605655957e-22
-0.4933639059374997	-2.852423957749028e-22
-0.4933028707812497	-2.8389081533556187e-22
-0.4932418356249997	-2.8252401334313173e-22
-0.4931808004687497	-2.8114206761063496e-22
-0.4931197653124997	-2.7974502685717815e-22
-0.4930587301562497	-2.7833295173091956e-22
-0.4929976949999997	-2.769059213102164e-22
-0.4929366598437497	-2.7546400263094227e-22
-0.4928756246874997	-2.740072592667393e-22
-0.4928145895312497	-2.7253578311493636e-22
-0.4927535543749997	-2.710496691034542e-22
-0.4926925192187497	-2.695489664553887e-22
-0.4926314840624997	-2.6803370151794056e-22
-0.4925704489062497	-2.665039513044824e-22
-0.4925094137499997	-2.6495983817743547e-22
-0.4924483785937497	-2.634014487080153e-22
-0.4923873434374997	-2.618288403709406e-22
-0.4923263082812497	-2.6024209970803267e-22
-0.4922652731249997	-2.5864131266715874e-22
-0.4922042379687497	-2.5702653812607378e-22
-0.4921432028124997	-2.553978537472854e-22
-0.4920821676562497	-2.5375536905071673e-22
-0.4920211324999997	-2.520991744793926e-22
-0.4919600973437497	-2.504293214051167e-22
-0.4918990621874997	-2.48745881323133e-22
-0.4918380270312497	-2.4704897419659496e-22
-0.4917769918749997	-2.4533868065058336e-22
-0.4917159567187497	-2.436150216231801e-22
-0.4916549215624997	-2.4187809623001854e-22
-0.4915938864062497	-2.4012807795564074e-22
-0.4915328512499997	-2.383650447205295e-22
-0.4914718160937497	-2.36589011568544e-22
-0.4914107809374997	-2.348000842145279e-22
-0.4913497457812497	-2.329983974947169e-22
-0.4912887106249997	-2.3118401464391348e-22
-0.4912276754687497	-2.29357006133923e-22
-0.4911666403124997	-2.2751748177982155e-22
-0.4911056051562497	-2.256655326095289e-22
-0.4910445699999997	-2.2380125860303547e-22
-0.4909835348437497	-2.2192476521500835e-22
-0.4909224996874997	-2.200361176659455e-22
-0.4908614645312497	-2.181354130358533e-22
-0.4908004293749997	-2.1622279963057375e-22
-0.4907393942187497	-2.142983737941626e-22
-0.4906783590624997	-2.123621926365701e-22
-0.4906173239062497	-2.1041434436278147e-22
-0.4905562887499997	-2.0845492966606954e-22
-0.4904952535937497	-2.0648405530769466e-22
-0.4904342184374997	-2.045018346900508e-22
-0.4903731832812497	-2.0250836131324303e-22
-0.4903121481249997	-2.0050372583898613e-22
-0.4902511129687497	-1.9848803847001467e-22
-0.4901900778124997	-1.9646140603783628e-22
-0.4901290426562497	-1.9442392032285932e-22
-0.4900680074999997	-1.9237568852551781e-22
-0.4900069723437497	-1.903168335902773e-22
-0.4899459371874997	-1.882474510032871e-22
-0.4898849020312497	-1.861676243169265e-22
-0.4898238668749997	-1.8407746989413083e-22
-0.4897628317187497	-1.8197712164975375e-22
-0.4897017965624997	-1.7986669640607222e-22
-0.4896407614062497	-1.7774627148361607e-22
-0.4895797262499997	-1.756159184930114e-22
-0.4895186910937497	-1.7347578101277307e-22
-0.4894576559374997	-1.7132601733275773e-22
-0.4893966207812497	-1.6916669504441018e-22
-0.4893355856249997	-1.6699789388538282e-22
-0.4892745504687497	-1.6481977811855487e-22
-0.4892135153124997	-1.6263246097991964e-22
-0.4891524801562497	-1.604360210473652e-22
-0.4890914449999997	-1.5823060872119426e-22
-0.4890304098437497	-1.5601632513396843e-22
-0.4889693746874997	-1.5379321042486922e-22
-0.4889083395312497	-1.5156142196480202e-22
-0.4888473043749997	-1.4932112100173794e-22
-0.4887862692187497	-1.4707235576252422e-22
-0.4887252340624997	-1.448152660416728e-22
-0.4886641989062497	-1.425500419301349e-22
-0.4886031637499997	-1.4027672763425696e-22
-0.4885421285937497	-1.379953916355442e-22
-0.4884810934374997	-1.357062268932395e-22
-0.4884200582812497	-1.3340935347082871e-22
-0.4883590231249997	-1.3110484158880145e-22
-0.4882979879687497	-1.2879285199722648e-22
-0.4882369528124997	-1.2647351231416372e-22
-0.4881759176562497	-1.2414688807486055e-22
-0.4881148824999997	-1.2181313672770858e-22
-0.4880538473437497	-1.194724214129858e-22
-0.4879928121874997	-1.171248112694242e-22
-0.4879317770312497	-1.1477042824321595e-22
-0.4878707418749997	-1.1240944777070137e-22
-0.4878097067187497	-1.1004195632144573e-22
-0.4877486715624997	-1.0766802779810888e-22
-0.4876876364062497	-1.0528781065712418e-22
-0.4876266012499997	-1.029014384510623e-22
-0.4875655660937497	-1.0050902455702655e-22
-0.4875045309374997	-9.811071157125785e-23
-0.4874434957812497	-9.570661503844452e-23
-0.4873824606249997	-9.329683882946642e-23
-0.4873214254687497	-9.088153343155878e-23
-0.4872603903124997	-8.846081637251013e-23
-0.4871993551562497	-8.603479393683734e-23
-0.4871383199999997	-8.360366167287325e-23
-0.4870772848437497	-8.116755620353569e-23
-0.4870162496874997	-7.872651306000828e-23
-0.4869552145312497	-7.628067564191109e-23
-0.4868941793749997	-7.383023266878627e-23
-0.4868331442187497	-7.137526575627794e-23
-0.4867721090624997	-6.8915901789681e-23
-0.4867110739062497	-6.645234104262317e-23
-0.4866500387499997	-6.398465323734219e-23
-0.4865890035937497	-6.151289695309891e-23
-0.4865279684374997	-5.903729615821819e-23
-0.4864669332812497	-5.655798742831871e-23
-0.4864058981249997	-5.407498976656205e-23
-0.4863448629687497	-5.1588513874410734e-23
-0.4862838278124997	-4.9098790762226207e-23
-0.4862227926562497	-4.660583462008499e-23
-0.4861617574999997	-4.4109732336332976e-23
-0.4861007223437497	-4.1610691857535143e-23
-0.4860396871874997	-3.910880468266824e-23
-0.4859786520312497	-3.6604194448273283e-23
-0.4859176168749997	-3.409707612503827e-23
-0.4858565817187497	-3.158752544081689e-23
-0.4857955465624997	-2.907560350031372e-23
-0.4857345114062497	-2.656152901345696e-23
-0.4856734762499997	-2.4045442414957642e-23
-0.4856124410937497	-2.152737105586831e-23
-0.4855514059374997	-1.9007498076036161e-23
-0.4854903707812497	-1.648606661792777e-23
-0.4854293356249997	-1.3963155223755433e-23
-0.4853683004687497	-1.1438844042187022e-23
-0.4853072653124997	-8.913318722677745e-24
-0.4852462301562497	-6.386700931556216e-24
-0.4851851949999997	-3.859076622146091e-24
-0.4851241598437497	-1.3306077237191852e-24
-0.4850631246874997	1.1985672692709637e-24
-0.4850020895312497	3.728344726866023e-24
-0.4849410543749997	6.2585452475561295e-24
-0.4848800192187497	8.789004433799422e-24
-0.4848189840624997	1.1319646067563995e-23
-0.4847579489062497	1.3850347185566553e-23
-0.4846969137499997	1.6380946935788527e-23
-0.4846358785937497	1.891134335001054e-23
-0.4845748434374997	2.144141868018722e-23
-0.4845138082812497	2.3971004766790903e-23
-0.4844527731249997	2.649995107525042e-23
-0.4843917379687497	2.9028129086155935e-23
-0.4843307028124997	3.1555403773986416e-23
-0.4842696676562497	3.4081639162431637e-23
-0.4842086324999997	3.660671537553641e-23
-0.4841475973437497	3.913051871514017e-23
-0.4840865621874997	4.1652916866490016e-23
-0.4840255270312497	4.4173752849152154e-23
-0.4839644918749997	4.6692861220542983e-23
-0.4839034567187497	4.9210098328708804e-23
-0.4838424215624997	5.172535444608775e-23
-0.4837813864062497	5.423852270503196e-23
-0.4837203512499997	5.674946866519255e-23
-0.4836593160937497	5.925804688748213e-23
-0.4835982809374997	6.176412778962452e-23
-0.4835372457812497	6.42675907191476e-23
-0.4834762106249997	6.676828985415012e-23
-0.4834151754687497	6.92660598722864e-23
-0.4833541403124997	7.176077544638208e-23
-0.4832931051562497	7.425233472956622e-23
-0.4832320699999997	7.674059898384632e-23
-0.4831710348437497	7.922542182208959e-23
-0.4831099996874997	8.170668269198308e-23
-0.4830489645312497	8.418425988066514e-23
-0.4829879293749997	8.665800293379163e-23
-0.4829268942187497	8.91277510979259e-23
-0.4828658590624997	9.159338449614766e-23
-0.4828048239062497	9.405481144633655e-23
-0.4827437887499997	9.651190389684662e-23
-0.4826827535937497	9.896450478529713e-23
-0.4826217184374997	1.0141247504083505e-22
-0.4825606832812497	1.0385568271968343e-22
-0.4824996481249997	1.0629398945161142e-22
-0.4824386129687497	1.087272636979817e-22
-0.4823775778124997	1.111553738267604e-22
-0.4823165426562497	1.135782050487493e-22
-0.4822555074999997	1.1599566265568875e-22
-0.4821944723437497	1.1840761366767587e-22
-0.4821334371874997	1.208138966150263e-22
-0.4820724020312497	1.2321437756031332e-22
-0.4820113668749997	1.256089312556149e-22
-0.4819503317187497	1.2799743274643252e-22
-0.4818892965624997	1.3037977370346655e-22
-0.4818282614062497	1.3275581529575957e-22
-0.4817672262499997	1.351253976994637e-22
-0.4817061910937497	1.3748840731753785e-22
-0.4816451559374997	1.3984472817676363e-22
-0.4815841207812497	1.421942091589871e-22
-0.4815230856249997	1.4453673387590748e-22
-0.4814620504687497	1.4687219991165783e-22
-0.4814010153124997	1.4920045259040628e-22
-0.4813399801562497	1.5152135176408961e-22
-0.4812789449999997	1.5383481850311077e-22
-0.4812179098437497	1.5614072597918755e-22
-0.4811568746874997	1.5843890100160423e-22
-0.4810958395312497	1.6072924160847294e-22
-0.4810348043749997	1.6301165040581112e-22
-0.4809737692187497	1.6528597797327574e-22
-0.4809127340624997	1.67552111267734e-22
-0.4808516989062497	1.6980994078849967e-22
-0.4807906637499997	1.7205930952312644e-22
-0.4807296285937497	1.743000963755181e-22
-0.4806685934374997	1.7653222034522102e-22
-0.4806075582812497	1.787555544324057e-22
-0.4805465231249997	1.8096994429649147e-22
-0.4804854879687497	1.8317527701559153e-22
-0.4804244528124997	1.8537145705506493e-22
-0.4803634176562497	1.8755835280365012e-22
-0.4803023824999997	1.897358277241519e-22
-0.4802413473437497	1.9190376787077137e-22
-0.4801803121874997	1.9406204969040264e-22
-0.4801192770312497	1.9621055968198553e-22
-0.4800582418749997	1.9834920044777648e-22
-0.4799972067187497	2.0047784856482317e-22
-0.4799361715624997	2.025963763606443e-22
-0.4798751364062497	2.0470466909052178e-22
-0.4798141012499997	2.068026110452966e-22
-0.4797530660937497	2.0889010048454557e-22
-0.4796920309374997	2.10967029328091e-22
-0.4796309957812497	2.1303326223590996e-22
-0.4795699606249997	2.150886900868587e-22
-0.4795089254687497	2.1713322650026007e-22
-0.4794478903124997	2.191667451352947e-22
-0.4793868551562497	2.2118911570466474e-22
-0.4793258199999997	2.2320024504910825e-22
-0.4792647848437497	2.2520002650334668e-22
-0.4792037496874997	2.271883296044387e-22
-0.4791427145312497	2.2916504593627293e-22
-0.4790816793749997	2.311300743654391e-22
-0.4790206442187497	2.3308330157933903e-22
-0.4789596090624997	2.350246278661747e-22
-0.4788985739062497	2.369539438617507e-22
-0.4788375387499997	2.3887112909167236e-22
-0.4787765035937497	2.407761019053582e-22
-0.4787154684374997	2.426687722131885e-22
-0.4786544332812497	2.4454899302174614e-22
-0.4785933981249997	2.464166454908648e-22
-0.4785323629687497	2.4827167266488856e-22
-0.4784713278124997	2.501139828282241e-22
-0.4784102926562497	2.5194344408998926e-22
-0.4783492574999997	2.5375995858685023e-22
-0.4782882223437497	2.555634339746517e-22
-0.4782271871874997	2.573537589613585e-22
-0.4781661520312497	2.591308378074247e-22
-0.4781051168749997	2.6089456636919215e-22
-0.4780440817187497	2.6264482694381963e-22
-0.4779830465624997	2.6438153657643223e-22
-0.4779220114062497	2.661046194227501e-22
-0.4778609762499997	2.678139696361058e-22
-0.4777999410937497	2.695094906826425e-22
-0.4777389059374997	2.711910912049343e-22
-0.4776778707812497	2.7285866167899405e-22
-0.4776168356249997	2.745121183250318e-22
-0.4775558004687497	2.7615138774209355e-22
-0.4774947653124997	2.7777635877928403e-22
-0.4774337301562497	2.7938693029722613e-22
-0.4773726949999997	2.809830338930179e-22
-0.4773116598437497	2.825645837164864e-22
-0.4772506246874997	2.8413147373066044e-22
-0.4771895895312497	2.856836166820181e-22
-0.4771285543749997	2.872209403003757e-22
-0.4770675192187497	2.8874335348632737e-22
-0.4770064840624997	2.902507585561416e-22
-0.4769454489062497	2.9174307881796595e-22
-0.4768844137499997	2.932202313405747e-22
-0.4768233785937497	2.946821177823207e-22
-0.4767623434374997	2.961286624694624e-22
-0.4767013082812497	2.9755979337176523e-22
-0.4766402731249997	2.989754125485384e-22
-0.4765792379687497	3.003754357999092e-22
-0.4765182028124997	3.0175980067280134e-22
-0.4764571676562497	3.0312843092950064e-22
-0.4763961324999997	3.044812370635066e-22
-0.4763350973437497	3.0581813324435135e-22
-0.4762740621874997	3.0713904840516553e-22
-0.4762130270312497	3.084439203769631e-22
-0.4761519918749997	3.097326689318618e-22
-0.4760909567187497	3.1100520694046694e-22
-0.4760299215624997	3.122614784952116e-22
-0.4759688864062497	3.1350142517233655e-22
-0.4759078512499997	3.1472494943056713e-22
-0.4758468160937497	3.1593197404049604e-22
-0.4757857809374997	3.171224515949693e-22
-0.4757247457812497	3.182963001134299e-22
-0.4756637106249997	3.1945343776857703e-22
-0.4756026754687497	3.2059382523568027e-22
-0.4755416403124997	3.217173979467424e-22
-0.4754806051562497	3.228240665232292e-22
-0.4754195699999997	3.2391378474172323e-22
-0.4753585348437497	3.2498650026916883e-22
-0.4752974996874997	3.260421206293437e-22
-0.4752364645312497	3.270805891002201e-22
-0.4751754293749997	3.281018686723658e-22
-0.4751143942187497	3.2910588035730855e-22
-0.4750533590624997	3.3009255685154594e-22
-0.4749923239062497	3.3106185885043313e-22
-0.4749312887499997	3.320137237479231e-22
-0.4748702535937497	3.3294809237758785e-22
-0.4748092184374997	3.338649196733611e-22
-0.4747481832812497	3.3476414200497476e-22
-0.4746871481249997	3.35645701424509e-22
-0.4746261129687497	3.365095504808065e-22
-0.4745650778124997	3.373556354344263e-22
-0.4745040426562497	3.3818391215320553e-22
-0.4744430074999997	3.3899432920542967e-22
-0.4743819723437497	3.3978682509684013e-22
-0.4743209371874997	3.4056136249220044e-22
-0.4742599020312497	3.413178988925516e-22
-0.4741988668749997	3.4205637344482865e-22
-0.4741378317187497	3.4277675367553604e-22
-0.4740767965624997	3.4347900484177853e-22
-0.4740157614062497	3.441630600620047e-22
-0.4739547262499997	3.4482887967041183e-22
-0.4738936910937497	3.4547644156074237e-22
-0.4738326559374997	3.4610569223389957e-22
-0.4737716207812497	3.4671658581594125e-22
-0.4737105856249997	3.4730909584471315e-22
-0.4736495504687497	3.478831780193996e-22
-0.4735885153124997	3.4843879446845976e-22
-0.4735274801562497	3.489759238285408e-22
-0.4734664449999997	3.4949452019904114e-22
-0.4734054098437497	3.499945373546312e-22
-0.4733443746874997	3.504759615888578e-22
-0.4732833395312497	3.509387650131078e-22
-0.4732223043749997	3.513828963733861e-22
-0.4731612692187497	3.5180832994589587e-22
-0.4731002340624997	3.522150540817939e-22
-0.4730391989062497	3.5260303317187186e-22
-0.4729781637499997	3.529722291147977e-22
-0.4729171285937497	3.533226247591486e-22
-0.4728560934374997	3.536541970193814e-22
-0.4727950582812497	3.5396691258059434e-22
-0.4727340231249997	3.5426075756173924e-22
-0.4726729879687497	3.5453571800780166e-22
-0.4726119528124997	3.54791760312797e-22
-0.4725509176562497	3.5502886653707395e-22
-0.4724898824999997	3.5524703291982475e-22
-0.4724288473437497	3.5544623252715144e-22
-0.4723678121874997	3.556264309347539e-22
-0.4723067770312497	3.5578762549826593e-22
-0.4722457418749997	3.559298203682832e-22
-0.4721847067187497	3.560529825184875e-22
-0.4721236715624997	3.561570827665014e-22
-0.4720626364062497	3.5624212971357396e-22
-0.4720016012499997	3.5630811837978652e-22
-0.4719405660937497	3.5635502478769385e-22
-0.4718795309374997	3.563828463975262e-22
-0.4718184957812497	3.563915814888799e-22
-0.4717574606249997	3.5638121613849716e-22
