Time	Frequency
-0.5000305136249992	-1.903872757133976e-22
-0.4999694784687492	-1.8858745646597874e-22
-0.4999084433124992	-1.867480548813891e-22
-0.4998474081562492	-1.8487993999191175e-22
-0.4997863729999992	-1.829958910470655e-22
-0.4997253378437492	-1.8110887539362913e-22
-0.4996643026874992	-1.7923036431868472e-22
-0.4996032675312492	-1.7736890699552467e-22
-0.4995422323749992	-1.7552914052570068e-22
-0.4994811972187492	-1.7371134969911474e-22
-0.4994201620624992	-1.7191161346403176e-22
-0.4993591269062492	-1.7012249578422744e-22
-0.4992980917499992	-1.6833417092745392e-22
-0.4992370565937492	-1.6653582196203217e-22
-0.4991760214374992	-1.6471711601311396e-22
-0.4991149862812492	-1.628695576701857e-22
-0.4990539511249992	-1.6098754926125087e-22
-0.4989929159687492	-1.5906902760770452e-22
-0.4989318808124992	-1.571156068752127e-22
-0.4988708456562492	-1.5513222880300108e-22
-0.4988098104999992	-1.5312638589883593e-22
-0.4987487753437492	-1.5110703712773855e-22
-0.4986877401874992	-1.490833744121141e-22
-0.4986267050312492	-1.470636089886828e-22
-0.4985656698749992	-1.4505393386405613e-22
-0.4985046347187492	-1.4305779428568026e-22
-0.4984435995624992	-1.4107555476815938e-22
-0.4983825644062492	-1.3910459117338036e-22
-0.4983215292499992	-1.3713977859619784e-22
-0.4982604940937492	-1.3517429353106983e-22
-0.4981994589374992	-1.3320060950452894e-22
-0.4981384237812492	-1.3121154819251494e-22
-0.4980773886249992	-1.292012443384973e-22
-0.4980163534687492	-1.2716589649813765e-22
-0.4979553183124992	-1.2510421089754774e-22
-0.4978942831562492	-1.2301748933992403e-22
-0.4978332479999992	-1.209093621499069e-22
-0.4977722128437492	-1.1878521958169475e-22
-0.4977111776874992	-1.1665143118194668e-22
-0.4976501425312492	-1.1451446275614264e-22
-0.4975891073749992	-1.1238001363122863e-22
-0.4975280722187492	-1.102522916402012e-22
-0.4974670370624992	-1.0813351801742221e-22
-0.4974060019062492	-1.0602372069705402e-22
-0.4973449667499992	-1.0392083428361976e-22
-0.4972839315937492	-1.018210805861999e-22
-0.4972228964374992	-9.971956421385587e-23
-0.4971618612812492	-9.761099430195394e-23
-0.4971008261249992	-9.549043387379046e-23
-0.4970397909687492	-9.335397563941878e-23
-0.4969787558124992	-9.119925354456843e-23
-0.4969177206562492	-8.902572411956784e-23
-0.4968566854999992	-8.683468619144018e-23
-0.4967956503437492	-8.462904795532764e-23
-0.4967346151874992	-8.241288539704458e-23
-0.4966735800312492	-8.019085831050034e-23
-0.4966125448749992	-7.796756524429682e-23
-0.4965515097187492	-7.57469299483136e-23
-0.4964904745624992	-7.353170513240815e-23
-0.4964294394062492	-7.132315495800093e-23
-0.4963684042499992	-6.912095317595331e-23
-0.4963073690937492	-6.692330450980758e-23
-0.4962463339374992	-6.4727263737765e-23
-0.4961852987812492	-6.252920204829492e-23
-0.4961242636249992	-6.032535095876286e-23
-0.4960632284687492	-5.811234459954696e-23
-0.4960021933124992	-5.588768621807428e-23
-0.4959411581562492	-5.36500789399347e-23
-0.4958801229999992	-5.1399580500518176e-23
-0.4958190878437492	-4.913756478816941e-23
-0.4957580526874992	-4.6866501703166587e-23
-0.4956970175312492	-4.458959374168426e-23
-0.4956359823749992	-4.2310323073605436e-23
-0.4955749472187492	-4.0031973698534574e-23
-0.4955139120624992	-3.77571978249815e-23
-0.4954528769062492	-3.548768512271231e-23
-0.4953918417499992	-3.32239755881126e-23
-0.4953308065937492	-3.0965438795860254e-23
-0.4952697714374992	-2.871041920191624e-23
-0.4952087362812492	-2.645652113006981e-23
-0.4951477011249992	-2.4200988212349138e-23
-0.4950866659687492	-2.1941119942694438e-23
-0.4950256308124992	-1.9674664974740978e-23
-0.4949645956562492	-1.7400139727118372e-23
-0.4949035604999992	-1.511703277333982e-23
-0.4948425253437492	-1.282586788129357e-23
-0.4947814901874992	-1.0528117818178347e-23
-0.4947204550312492	-8.225986264374792e-24
-0.4946594198749992	-5.922094147646168e-24
-0.4945983847187492	-3.6191159947560914e-24
-0.4945373495624992	-1.3194179019082102e-24
-0.4944763144062492	9.75252253164576e-25
-0.4944152792499992	3.2639797091148452e-24
-0.4943542440937492	5.546772293195119e-24
-0.4942932089374992	7.824516093134277e-24
-0.4942321737812492	1.0098810010018866e-23
-0.4941711386249992	1.2371703361414451e-23
-0.4941101034687492	1.4645375981983818e-23
-0.4940490683124992	1.6921809287476942e-23
-0.4939880331562492	1.920249071782815e-23
-0.4939269979999992	2.1488191444845305e-23
-0.4938659628437492	2.3778852204910279e-23
-0.4938049276874992	2.6073591259704377e-23
-0.4937438925312492	2.8370828035268267e-23
-0.4936828573749992	3.066850272421986e-23
-0.4936218222187492	3.296435933889405e-23
-0.4935607870624992	3.5256251706209894e-23
-0.4934997519062492	3.7542428331644126e-23
-0.4934387167499992	3.982175553325145e-23
-0.4933776815937492	4.2093850472622834e-23
-0.4933166464374992	4.4359106406892894e-23
-0.4932556112812492	4.6618607400664116e-23
-0.4931945761249992	4.887394829047374e-23
-0.4931335409687492	5.1126984987240047e-23
-0.4930725058124992	5.337954848258975e-23
-0.4930114706562492	5.563316542366175e-23
-0.4929504354999992	5.788882704457535e-23
-0.4928894003437492	6.014683910226869e-23
-0.4928283651874992	6.240677078004914e-23
-0.4927673300312492	6.466750413632441e-23
-0.4927062948749992	6.692737745362657e-23
-0.4926452597187492	6.91844044406142e-23
-0.4925842245624992	7.143653760070388e-23
-0.4925231894062492	7.368194027505338e-23
-0.4924621542499992	7.591922704807339e-23
-0.4924011190937492	7.814763539026727e-23
-0.4923400839374992	8.036710892030653e-23
-0.4922790487812492	8.257828371431566e-23
-0.4922180136249992	8.478237717688855e-23
-0.4921569784687492	8.698099515584458e-23
-0.4920959433124992	8.91758877355136e-23
-0.4920349081562492	9.136868892746515e-23
-0.4919738729999992	9.356067364581978e-23
-0.4919128378437492	9.575256538228438e-23
-0.4918518026874992	9.794442382957228e-23
-0.4917907675312492	1.0013562427755713e-22
-0.4917297323749992	1.0232492734091067e-22
-0.4916686972187492	1.045106337953671e-22
-0.4916076620624992	1.0669080468002973e-22
-0.4915466269062492	1.088635121657309e-22
-0.4914855917499992	1.110270866517761e-22
-0.4914245565937492	1.1318032661732363e-22
-0.4913635214374992	1.1532264263023665e-22
-0.4913024862812492	1.1745411865565371e-22
-0.4912414511249992	1.1957548187546295e-22
-0.4911804159687492	1.2168798301738203e-22
-0.4911193808124992	1.2379320638690131e-22
-0.4910583456562492	1.2589283856293032e-22
-0.4909973104999992	1.2798842520750057e-22
-0.4909362753437492	1.3008114641347118e-22
-0.4908752401874992	1.321716413843484e-22
-0.4908142050312492	1.3425990845095967e-22
-0.4907531698749992	1.3634529349101519e-22
-0.4906921347187492	1.3842656496831045e-22
-0.4906310995624992	1.4050206568759293e-22
-0.4905700644062492	1.4256992144588792e-22
-0.4905090292499992	1.446282761637152e-22
-0.4904479940937492	1.4667552132730557e-22
-0.4903869589374992	1.48710491168318e-22
-0.4903259237812492	1.5073259922733665e-22
-0.4902648886249992	1.5274189752400614e-22
-0.4902038534687492	1.5473905109608617e-22
-0.4901428183124992	1.5672523322536658e-22
-0.4900817831562492	1.5870195374580277e-22
-0.4900207479999992	1.606708416034152e-22
-0.4899597128437492	1.626334135314074e-22
-0.4898986776874992	1.6459086159920499e-22
-0.4898376425312492	1.6654388536266029e-22
-0.4897766073749992	1.6849258924894384e-22
-0.4897155722187492	1.704364578306017e-22
-0.4896545370624992	1.7237441134593655e-22
-0.4895935019062492	1.7430493541603425e-22
-0.4895324667499992	1.7622626687691893e-22
-0.4894714315937492	1.7813660940248937e-22
-0.4894103964374992	1.800343512985122e-22
-0.4893493612812492	1.819182568563059e-22
-0.4892883261249992	1.8378760733764766e-22
-0.4892272909687492	1.8564227607859226e-22
-0.4891662558124992	1.8748272727328786e-22
-0.4891052206562492	1.8930993741845765e-22
-0.4890441854999992	1.9112525235408193e-22
-0.4889831503437492	1.9293019938824158e-22
-0.4889221151874992	1.9472627777056853e-22
-0.4888610800312492	1.9651475504995424e-22
-0.4888000448749992	1.9829649473273166e-22
-0.4887390097187492	2.0007183658902334e-22
-0.4886779745624992	2.0184054504929168e-22
-0.4886169394062492	2.0360183082985516e-22
-0.4885559042499992	2.0535444172067687e-22
-0.4884948690937492	2.0709681146624618e-22
-0.4884338339374992	2.0882724762861456e-22
-0.4883727987812492	2.1054413265173726e-22
-0.4883117636249992	2.1224611272091214e-22
-0.4882507284687492	2.1393225242674644e-22
-0.4881896933124992	2.1560213570208616e-22
-0.4881286581562492	2.172559000001745e-22
-0.4880676229999992	2.1889420133904372e-22
-0.4880065878437492	2.2051811637081367e-22
-0.4879455526874992	2.22128992682787e-22
-0.4878845175312492	2.23728265688528e-22
-0.4878234823749992	2.253172676095456e-22
-0.4877624472187492	2.2689705287642087e-22
-0.4877014120624992	2.2846825960792815e-22
-0.4876403769062492	2.300310237000283e-22
-0.4875793417499992	2.315849551657444e-22
-0.4875183065937492	2.3312917827000515e-22
-0.4874572714374992	2.346624317378881e-22
-0.4873962362812492	2.3618321728717163e-22
-0.4873352011249992	2.376899757800475e-22
-0.4872741659687492	2.3918126815038464e-22
-0.4872131308124992	2.4065593958000092e-22
-0.4871520956562492	2.421132467402966e-22
-0.4870910604999992	2.435529333630286e-22
-0.4870300253437492	2.4497524657284935e-22
-0.4869689901874992	2.4638089188443847e-22
-0.4869079550312492	2.477709326543294e-22
-0.4868469198749992	2.4914664759037112e-22
-0.4867858847187492	2.5050936306437236e-22
-0.4867248495624992	2.5186028065805116e-22
-0.4866638144062492	2.532003224345626e-22
-0.4866027792499992	2.545300117887562e-22
-0.4865417440937492	2.558494028917817e-22
-0.4864807089374992	2.5715806771325006e-22
-0.4864196737812492	2.584551422692103e-22
-0.4863586386249992	2.5973942579691297e-22
-0.4862976034687492	2.6100952038941426e-22
-0.4862365683124992	2.6226399333467047e-22
-0.4861755331562492	2.635015414016307e-22
-0.4861144979999992	2.6472113766519795e-22
-0.4860534628437492	2.659221445372418e-22
-0.4859924276874992	2.671043795841136e-22
-0.4859313925312492	2.6826812593511274e-22
-0.4858703573749992	2.6941408597398276e-22
-0.4858093222187492	2.705432840525912e-22
-0.4857482870624992	2.716569311582642e-22
-0.4856872519062492	2.727562685250819e-22
-0.4856262167499992	2.7384240869736816e-22
-0.4855651815937492	2.749161936623288e-22
-0.4855041464374992	2.7597808745239477e-22
-0.4854431112812492	2.770281154315935e-22
-0.4853820761249992	2.7806585676330954e-22
-0.4853210409687492	2.7909049034410196e-22
-0.4852600058124992	2.801008884693614e-22
-0.4851989706562492	2.8109574741474123e-22
-0.4851379354999992	2.820737395799948e-22
-0.4850769003437492	2.8303366823079687e-22
-0.4850158651874992	2.8397460480963234e-22
-0.4849548300312492	2.848959915323158e-22
-0.4848937948749992	2.857976980300005e-22
-0.4848327597187492	2.8668002691838815e-22
-0.4847717245624992	2.8754366797301404e-22
-0.4847106894062492	2.8838960584528267e-22
-0.4846496542499992	2.892189922346383e-22
-0.4845886190937492	2.9003299888777146e-22
-0.4845275839374992	2.9083266985039247e-22
-0.4844665487812492	2.9161879002204573e-22
-0.4844055136249992	2.9239178563121966e-22
-0.4843444784687492	2.931516690448413e-22
-0.4842834433124992	2.9389803394566343e-22
-0.4842224081562492	2.946301008127674e-22
-0.4841613729999992	2.9534680753485657e-22
-0.4841003378437492	2.9604693429922137e-22
-0.4840393026874992	2.967292470331439e-22
-0.4839782675312492	2.973926416001036e-22
-0.4839172323749992	2.98036271296013e-22
-0.4838561972187492	2.986596424945304e-22
-0.4837951620624992	2.9926266693851027e-22
-0.4837341269062492	2.998456640760712e-22
-0.4836730917499992	3.004093134948219e-22
-0.4836120565937492	3.009545640234961e-22
-0.4835510214374992	3.014825109980693e-22
-0.4834899862812492	3.0199425686709904e-22
-0.4834289511249992	3.024907724649117e-22
-0.4833679159687492	3.029727761897229e-22
-0.4833068808124992	3.0344064579261795e-22
-0.4832458456562492	3.0389437318163083e-22
-0.4831848104999992	3.0433356729135763e-22
-0.4831237753437492	3.0475750415086014e-22
-0.4830627401874992	3.0516521731404977e-22
-0.4830017050312492	3.0555561674638597e-22
-0.4829406698749992	3.0592762105346715e-22
-0.4828796347187492	3.0628028659892903e-22
-0.4828185995624992	3.0661291750368616e-22
-0.4827575644062492	3.0692514303917734e-22
-0.4826965292499992	3.0721695337041068e-22
-0.4826354940937492	3.0748869006730336e-22
-0.4825744589374992	3.0774099340319253e-22
-0.4825134237812492	3.0797471375931736e-22
-0.4824523886249992	3.0819079884312874e-22
-0.4823913534687492	3.0839017157616805e-22
-0.4823303183124992	3.08573614648685e-22
-0.4822692831562492	3.08741675766582e-22
-0.4822082479999992	3.0889460428895136e-22
-0.4821472128437492	3.090323266048647e-22
-0.4820861776874992	3.091544626437913e-22
-0.4820251425312492	3.092603802531063e-22
-0.4819641073749992	3.093492795655811e-22
-0.4819030722187492	3.094202957899305e-22
-0.4818420370624992	3.094726071167341e-22
-0.4817810019062492	3.0950553447650365e-22
-0.4817199667499992	3.095186205183399e-22
-0.4816589315937492	3.095116780459069e-22
-0.4815978964374992	3.094848032108072e-22
-0.4815368612812492	3.0943835314545356e-22
-0.4814758261249992	3.093728916393875e-22
-0.4814147909687492	3.092891110563497e-22
-0.4813537558124992	3.0918774153707173e-22
-0.4812927206562492	3.090694587497318e-22
-0.4812316854999992	3.0893480172483656e-22
-0.4811706503437492	3.087841114802038e-22
-0.4811096151874992	3.086174973180184e-22
-0.4810485800312492	3.084348337078362e-22
-0.4809875448749992	3.082357871413057e-22
-0.4809265097187492	3.0801986790007924e-22
-0.4808654745624992	3.0778649834781104e-22
-0.4808044394062492	3.075350888630615e-22
-0.4807434042499992	3.072651123715875e-22
-0.4806823690937492	3.0697616810272184e-22
-0.4806213339374992	3.06668027050261e-22
-0.4805602987812492	3.063406538963637e-22
-0.4804992636249992	3.059942026772493e-22
-0.4804382284687492	3.056289883874697e-22
-0.4803771933124992	3.052454407847281e-22
-0.4803161581562492	3.0484404706894946e-22
-0.4802551229999992	3.044252901484008e-22
-0.4801940878437492	3.0398959054435903e-22
-0.4801330526874992	3.0353725972395426e-22
-0.4800720175312492	3.030684703734685e-22
-0.4800109823749992	3.0258324656994965e-22
-0.4799499472187492	3.020814738061923e-22
-0.4798889120624992	3.015629255689636e-22
-0.4798278769062492	3.010273013897441e-22
-0.4797668417499992	3.0047427150951235e-22
-0.4797058065937492	2.9990352285823765e-22
-0.4796447714374992	2.993147995722655e-22
-0.4795837362812492	2.9870793354880625e-22
-0.4795227011249992	2.980828638282136e-22
-0.4794616659687492	2.974396422416191e-22
-0.4794006308124992	2.96778423040928e-22
-0.4793395956562492	2.9609943907758746e-22
-0.4792785604999992	2.9540297031159764e-22
-0.4792175253437492	2.9468930990958124e-22
-0.4791564901874992	2.9395873153519705e-22
-0.4790954550312492	2.932114617583739e-22
-0.4790344198749992	2.9244766111641997e-22
-0.4789733847187492	2.9166741430944997e-22
-0.4789123495624992	2.908707298687537e-22
-0.4788513144062492	2.9005755005903636e-22
-0.4787902792499992	2.892277680621579e-22
-0.4787292440937492	2.883812486275177e-22
-0.4786682089374992	2.8751785076156785e-22
-0.4786071737812492	2.8663745017740093e-22
-0.4785461386249992	2.857399584070457e-22
-0.4784851034687492	2.848253363915999e-22
-0.4784240683124992	2.838936010414325e-22
-0.4783630331562492	2.8294482496671357e-22
-0.4783019979999992	2.819791304308277e-22
-0.4782409628437492	2.809966777033997e-22
-0.4781799276874992	2.7999764934485193e-22
-0.4781188925312492	2.789822341804686e-22
-0.4780578573749992	2.7795061249618455e-22
-0.4779968222187492	2.769029430737602e-22
-0.4779357870624992	2.7583935410768334e-22
-0.4778747519062492	2.7475993642828727e-22
-0.4778137167499992	2.736647389615706e-22
-0.4777526815937492	2.7255377178959734e-22
-0.4776916464374992	2.7142701555497563e-22
-0.4776306112812492	2.702844302052656e-22
-0.4775695761249992	2.691259633554048e-22
-0.4775085409687492	2.6795156140144143e-22
-0.4774475058124992	2.667611811375047e-22
-0.4773864706562492	2.655548001519716e-22
-0.4773254354999992	2.6433242626716756e-22
-0.4772644003437492	2.630941049713039e-22
-0.4772033651874992	2.618399235718829e-22
-0.4771423300312492	2.6057001001611844e-22
-0.4770812948749992	2.5928452640214294e-22
-0.4770202597187492	2.5798366021511586e-22
-0.4769592245624992	2.5666761394156577e-22
-0.4768981894062492	2.5533659154395575e-22
-0.4768371542499992	2.53990781507827e-22
-0.4767761190937492	2.5263033968104927e-22
-0.4767150839374992	2.512553776555561e-22
-0.4766540487812492	2.4986595817825975e-22
-0.4765930136249992	2.4846209444309766e-22
-0.4765319784687492	2.470437538294505e-22
-0.4764709433124992	2.45610869123871e-22
-0.4764099081562492	2.441633551707581e-22
-0.4763488729999992	2.4270112737405748e-22
-0.4762878378437492	2.4122412152316384e-22
-0.4762268026874992	2.397323142594842e-22
-0.4761657675312492	2.3822574034511036e-22
-0.4761047323749992	2.3670450061309244e-22
-0.4760436972187492	2.351687592582079e-22
-0.4759826620624992	2.336187362889052e-22
-0.4759216269062492	2.320546962352872e-22
-0.4758605917499992	2.3047692723372125e-22
-0.4757995565937492	2.288857124738975e-22
-0.4757385214374992	2.2728130276665375e-22
-0.4756774862812492	2.2566389386094573e-22
-0.4756164511249992	2.240336102377341e-22
-0.4755554159687492	2.223904988873249e-22
-0.4754943808124992	2.207345335652835e-22
-0.4754333456562492	2.1906562662111883e-22
-0.4753723104999992	2.1738364822800927e-22
-0.4753112753437492	2.1568845492945904e-22
-0.4752502401874992	2.139799230300257e-22
-0.4751892050312492	2.122579784457427e-22
-0.4751281698749992	2.105226195570884e-22
-0.4750671347187492	2.087739327213764e-22
-0.4750060995624992	2.070120978469603e-22
-0.4749450644062492	2.0523738064611784e-22
-0.4748840292499992	2.03450112196584e-22
-0.4748229940937492	2.0165065915211056e-22
-0.4747619589374992	1.998393872237156e-22
-0.4747009237812492	1.9801662294705797e-22
-0.4746398886249992	1.9618262141648948e-22
-0.4745788534687492	1.943375440660203e-22
-0.4745178183124992	1.924814474443702e-22
-0.4744567831562492	1.9061428584255168e-22
-0.4743957479999992	1.8873592935155477e-22
-0.4743347128437492	1.8684619473224342e-22
-0.4742736776874992	1.8494488386270216e-22
-0.4742126425312492	1.8303182444153926e-22
-0.4741516073749992	1.8110691108429888e-22
-0.4740905722187492	1.7917014071835527e-22
-0.4740295370624992	1.7722163026223465e-22
-0.4739685019062492	1.752616145764358e-22
-0.4739074667499992	1.732904308258914e-22
-0.4738464315937492	1.7130849136983893e-22
-0.4737853964374992	1.6931624508895417e-22
-0.4737243612812492	1.6731412956062878e-22
-0.4736633261249992	1.6530252249691753e-22
-0.4736022909687492	1.6328170176965644e-22
-0.4735412558124992	1.6125181870469683e-22
-0.4734802206562492	1.5921288974895203e-22
-0.4734191854999992	1.5716480852571183e-22
-0.4733581503437492	1.5510737386676686e-22
-0.4732971151874992	1.530403315974879e-22
-0.4732360800312492	1.5096342766939467e-22
-0.4731750448749992	1.48876462189238e-22
-0.4731140097187492	1.4677933438032583e-22
-0.4730529745624992	1.44672075783059e-22
-0.4729919394062492	1.4255486741533848e-22
-0.4729309042499992	1.4042803403492058e-22
-0.4728698690937492	1.3829201706559758e-22
-0.4728088339374992	1.3614733256193329e-22
-0.4727477987812492	1.3399451704247619e-22
-0.4726867636249992	1.318340672153356e-22
-0.4726257284687492	1.2966638456850095e-22
-0.4725646933124992	1.2749173296034686e-22
-0.4725036581562492	1.2531021413765554e-22
-0.4724426229999992	1.2312176707138604e-22
-0.4723815878437492	1.2092619277099041e-22
-0.4723205526874992	1.1872319812823112e-22
-0.4722595175312492	1.1651245210731e-22
-0.4721984823749992	1.1429364940869882e-22
-0.4721374472187492	1.1206657346791688e-22
-0.4720764120624992	1.0983114789011408e-22
-0.4720153769062492	1.075874687311067e-22
-0.4719543417499992	1.053358141347167e-22
-0.4718933065937492	1.0307662725290113e-22
-0.4718322714374992	1.0081047223277991e-22
-0.4717712362812492	9.853797140756461e-23
-0.4717102011249992	9.625973538857806e-23
-0.4716491659687492	9.397629705729712e-23
-0.4715881308124992	9.168805572354567e-23
-0.4715270956562492	8.939523540414956e-23
