Time	Frequency
-0.5000383142187488	0.5742942921495139
-0.4999772790624988	0.5759950683920225
-0.4999162439062488	0.5776826381209695
-0.4998552087499988	0.5793565457586581
-0.4997941735937488	0.5810139844643568
-0.4997331384374988	0.5826503780809291
-0.4996721032812488	0.5842603321805685
-0.4996110681249988	0.5858387456941007
-0.4995500329687488	0.5873818397051426
-0.4994889978124988	0.5888878884415261
-0.4994279626562488	0.5903575029484817
-0.4993669274999988	0.5917934162948875
-0.4993058923437488	0.5931998303691489
-0.4992448571874988	0.594581473399689
-0.4991838220312488	0.5959425776077071
-0.4991227868749988	0.5972860025915153
-0.4990617517187488	0.5986126865246921
-0.4990007165624988	0.599921528832641
-0.4989396814062488	0.601209715903499
-0.4988786462499988	0.6024734021390465
-0.4988176110937488	0.6037085801009627
-0.4987565759374988	0.6049119411238588
-0.4986955407812488	0.6060815388569343
-0.4986345056249988	0.6072171163714708
-0.4985734704687488	0.6083200377100215
-0.4985124353124988	0.6093928586907156
-0.4984514001562488	0.6104386540431516
-0.4983903649999988	0.6114602668589115
-0.4983293298437488	0.6124596549838139
-0.4982682946874988	0.613437480510384
-0.4982072595312488	0.6143930267506699
-0.4981462243749988	0.615324446185532
-0.4980851892187488	0.6162292653818369
-0.4980241540624988	0.6171050159681393
-0.4979631189062488	0.6179498353088878
-0.4979020837499988	0.6187628932954164
-0.4978410485937488	0.619544548579016
-0.4977800134374988	0.6202962048800058
-0.4977189782812488	0.6210199112666772
-0.4976579431249988	0.6217178117851774
-0.4975969079687488	0.6223915832449207
-0.4975358728124988	0.6230419993615702
-0.4974748376562488	0.6236687262479105
-0.4974138024999988	0.62427039617346
-0.4973527673437488	0.6248449381889398
-0.4972917321874988	0.6253900824397742
-0.4972306970312488	0.6259039138965008
-0.4971696618749988	0.626385340609795
-0.4971086267187488	0.6268343642788137
-0.4970475915624988	0.6272520893982161
-0.4969865564062488	0.6276404682337797
-0.4969255212499988	0.6280018412324986
-0.4968644860937488	0.6283383830250813
-0.4968034509374988	0.6286515857687915
-0.4967424157812488	0.6289419001950541
-0.4966813806249988	0.6292086182354641
-0.4966203454687488	0.6294500245244927
-0.4965593103124988	0.6296637796699369
-0.4964982751562488	0.6298474449169831
-0.4964372399999988	0.6299990278448715
-0.4963762048437488	0.6301174258780482
-0.4963151696874988	0.630202666706295
-0.4962541345312488	0.6302558914364713
-0.4961930993749988	0.6302790877096094
-0.4961320642187488	0.6302746358902858
-0.4960710290624988	0.6302447731829943
-0.4960099939062488	0.6301910988896954
-0.4959489587499988	0.6301142297578506
-0.4958879235937488	0.6300136790243424
-0.4958268884374988	0.6298879847576245
-0.4957658532812488	0.6297350541662543
-0.4957048181249988	0.6295526394239424
-0.4956437829687488	0.6293388363737084
-0.4955827478124988	0.6290924971422048
-0.4955217126562488	0.6288134664925741
-0.4954606774999988	0.6285025920633206
-0.4953996423437488	0.628161509929873
-0.4953386071874988	0.6277922584252039
-0.4952775720312488	0.627396814516585
-0.4952165368749988	0.6269766585195421
-0.4951555017187488	0.6265324584850626
-0.4950944665624988	0.6260639430342372
-0.4950334314062488	0.6255699912905277
-0.4949723962499988	0.6250489126386094
-0.4949113610937488	0.6244988481016629
-0.4948503259374988	0.6239182012752391
-0.4947892907812488	0.6233059967026368
-0.4947282556249988	0.6226620858687423
-0.4946672204687488	0.6219871627852911
-0.4946061853124988	0.621282589454462
-0.4945451501562488	0.6205500722172769
-0.4944841149999988	0.6197912688052067
-0.4944230798437488	0.6190074176230308
-0.4943620446874988	0.6181990684859021
-0.4943010095312488	0.6173659754837368
-0.4942399743749988	0.6165071752066452
-0.4941789392187488	0.6156212260297411
-0.4941179040624988	0.6147065552393193
-0.4940568689062488	0.6137618368697745
-0.4939958337499988	0.6127863055614066
-0.4939347985937488	0.6117799320410915
-0.4938737634374988	0.6107434284321317
-0.4938127282812488	0.609678088827974
-0.4937516931249988	0.6085855001796805
-0.4936906579687488	0.6074671820136274
-0.4936296228124988	0.6063242358052543
-0.4935685876562488	0.6051570919087899
-0.4935075524999988	0.6039654185464819
-0.4934465173437488	0.60274820933919
-0.4933854821874988	0.6015040234888215
-0.4933244470312488	0.6002313275686779
-0.4932634118749988	0.5989288571439503
-0.4932023767187488	0.5975959150383792
-0.4931413415624988	0.596232551748562
-0.4930803064062488	0.5948395872654302
-0.4930192712499988	0.5934184597878341
-0.4929582360937488	0.5919709250210987
-0.4928972009374988	0.5904986700494081
-0.4928361657812488	0.5890029420396128
-0.4927751306249988	0.5874842736398513
-0.4927140954687488	0.5859423526368267
-0.4926530603124988	0.5843760752591559
-0.4925920251562488	0.5827837831210789
-0.4925309899999988	0.5811636287970243
-0.4924699548437488	0.5795139969299556
-0.4924089196874988	0.5778338913661368
-0.4923478845312488	0.5761231896855231
-0.4922868493749988	0.5743827059575435
-0.4922258142187488	0.5726140508261987
-0.4921647790624988	0.570819316142218
-0.4921037439062488	0.5690006533965569
-0.4920427087499988	0.5671598335877579
-0.4919816735937488	0.5652978710480605
-0.4919206384374988	0.5634147888983335
-0.4918596032812488	0.5615095894108386
-0.4917985681249988	0.5595804553582622
-0.4917375329687488	0.5576251437085943
-0.4916764978124988	0.5556414778629858
-0.4916154626562488	0.5536278378834577
-0.4915544274999988	0.5515835455388175
-0.4914933923437488	0.54950905044974
-0.4914323571874988	0.5474058793874469
-0.4913713220312488	0.5452763548500411
-0.4913102868749988	0.5431231257486083
-0.4912492517187488	0.5409486162625599
-0.4911882165624988	0.5387545230331959
-0.4911271814062488	0.5365414565755405
-0.4910661462499988	0.5343087996251219
-0.4910051110937488	0.5320548284725716
-0.4909440759374988	0.5297770767642098
-0.4908830407812488	0.5274728687108559
-0.4908220056249988	0.5251399156645984
-0.4907609704687488	0.5227768430779004
-0.4906999353124988	0.5203835314332355
-0.4906389001562488	0.5179611975857598
-0.4905778649999988	0.5155121863687726
-0.4905168298437488	0.5130395041281867
-0.4904557946874988	0.5105461961177546
-0.4903947595312488	0.5080347074907221
-0.4903337243749988	0.5055063652732119
-0.4902726892187488	0.5029610985178278
-0.4902116540624988	0.5003974641166087
-0.4901506189062488	0.4978129726352424
-0.4900895837499988	0.49520464924504376
-0.4900285485937488	0.4925697062938444
-0.4899675134374988	0.48990616732155584
-0.4899064782812488	0.48721331257845246
-0.4898454431249988	0.4844918635018781
-0.4897844079687488	0.481743857062759
-0.4897233728124988	0.47897221846093013
-0.4896623376562488	0.4761801272295264
-0.4896013024999988	0.4733703330129226
-0.4895402673437488	0.4705445731952301
-0.4894792321874988	0.4677032204053899
-0.4894181970312488	0.4648452477830868
-0.4893571618749988	0.461968511924159
-0.4892961267187488	0.45907027875273715
-0.4892350915624988	0.4561478751344558
-0.4891740564062488	0.4531993178366492
-0.4891130212499988	0.45022378011383296
-0.4890519860937488	0.4472217935665676
-0.4889909509374988	0.44419513271821565
-0.4889299157812488	0.44114641006804217
-0.4888688806249988	0.4380784885268095
-0.4888078454687488	0.43499385303001026
-0.4887468103124988	0.4318940861119151
-0.4886857751562488	0.42877956124175287
-0.4886247399999988	0.4256494124965912
-0.4885637048437488	0.422501787109056
-0.4885026696874988	0.41933431891491246
-0.4884416345312488	0.41614470994640124
-0.4883805993749988	0.4129312964460174
-0.4883195642187488	0.409693464624926
-0.4882585290624988	0.40643180524086436
-0.4881974939062488	0.4031479740646884
-0.4881364587499988	0.39984431006205623
-0.4880754235937488	0.39652331259737567
-0.4880143884374988	0.39318709466058094
-0.4879533532812488	0.38983692935128156
-0.4878923181249988	0.3864729908606393
-0.4878312829687488	0.3830943654215616
-0.4877702478124988	0.37969933358258023
-0.4877092126562488	0.3762858285546473
-0.4876481774999988	0.3728519547221062
-0.4875871423437488	0.3693964623579322
-0.4875261071874988	0.3659190692880538
-0.4874650720312488	0.36242054972299437
-0.4874040368749988	0.35890257246979534
-0.4873430017187488	0.35536732518645153
-0.4872819665624988	0.35181701592000436
-0.4872209314062488	0.34825338678666584
-0.4871598962499988	0.3446773555087936
-0.4870988610937488	0.34108885015178675
-0.4870378259374988	0.3374868773527316
-0.4869767907812488	0.33386981285971223
-0.4869157556249988	0.33023583315459726
-0.4868547204687488	0.326583387998828
-0.4867936853124988	0.32291160428908217
-0.4867326501562488	0.3192205123885084
-0.4866716149999988	0.3155110542569674
-0.4866105798437488	0.3117848892645128
-0.4865495446874988	0.30804402755727045
-0.4864885095312488	0.3042903792422913
-0.4864274743749988	0.3005253483502681
-0.4863664392187488	0.29674955979728185
-0.4863054040624988	0.2929627656727509
-0.4862443689062488	0.28916395287017616
-0.4861833337499988	0.28535163264553265
-0.4861222985937488	0.2815242441392629
-0.4860612634374988	0.2776805744231689
-0.4860002282812488	0.27382008523536105
-0.4859391931249988	0.2699430585245031
-0.4858781579687488	0.2660505438605881
-0.4858171228124988	0.2621441429367225
-0.4857560876562488	0.25822567262085055
-0.4856950524999988	0.2542967647159285
-0.4856340173437488	0.25035850562678025
-0.4855729821874988	0.24641122758224013
-0.4855119470312488	0.2424544959706899
-0.4854509118749988	0.23848727220839339
-0.4853898767187488	0.23450820759093108
-0.4853288415624988	0.2305160035480008
-0.4852678064062488	0.2265097582962223
-0.4852067712499988	0.2224892213380786
-0.4851457360937488	0.21845489502629797
-0.4850847009374988	0.2144079514572666
-0.4850236657812488	0.21034998468650284
-0.4849626306249988	0.20628266679701018
-0.4849015954687488	0.20220739081501116
-0.4848405603124988	0.19812499218912158
-0.4847795251562488	0.19403561101426645
-0.4847184899999988	0.18993870631851897
-0.4846574548437488	0.18583322353647444
-0.4845964196874988	0.18171788738862035
-0.4845353845312488	0.17759154714092257
-0.4844743493749988	0.17345348537055486
-0.4844133142187488	0.1693036133926635
-0.4843522790624988	0.1651425268317742
-0.4842912439062488	0.16097141760775413
-0.4842302087499988	0.1567918406612424
-0.4841691735937488	0.15260539238018556
-0.4841081384374988	0.14841339058469089
-0.4840471032812488	0.14421662260104146
-0.4839860681249988	0.1400152156265674
-0.4839250329687488	0.13580866106095663
-0.4838639978124988	0.13159598438585454
-0.4838029626562488	0.12737601445003727
-0.4837419274999988	0.12314768175953468
-0.4836808923437488	0.11891028566233919
-0.4836198571874988	0.11466368602758309
-0.4835588220312488	0.11040837165757912
-0.4834977868749988	0.10614537889237383
-0.4834367517187488	0.10187609107665957
-0.4833757165624988	0.09760197442309321
-0.4833146814062488	0.09332430080536028
-0.4832536462499988	0.08904392082757982
-0.4831926110937488	0.08476113804873019
-0.4831315759374988	0.08047570129799361
-0.4830705407812488	0.07618691580055495
-0.4830095056249988	0.07189384844397743
-0.4829484704687488	0.06759557215107496
-0.4828874353124988	0.06329139438254773
-0.4828264001562488	0.058981036282983124
-0.4827653649999988	0.05466472826274677
-0.4827043298437488	0.050343185108904794
-0.4826432946874988	0.046017466600532846
-0.4825822595312488	0.04168877565631081
-0.4825212243749988	0.0373582501959588
-0.4824601892187488	0.033026782763385304
-0.4823991540624988	0.028694885512706922
-0.4823381189062488	0.024362629527061704
-0.4822770837499988	0.020029687366409695
-0.4822160485937488	0.01569546519233665
-0.4821550134374988	0.011359278215868334
-0.4820939782812488	0.007020528302025629
-0.4820329431249988	0.00267886057673104
-0.4819719079687488	-0.0016657202835141268
-0.4819108728124988	-0.006012811732665711
-0.4818498376562488	-0.010361679379436349
-0.4817888024999988	-0.01471139449069031
-0.4817277673437488	-0.019060993699890734
-0.4816667321874988	-0.023409640686483935
-0.4816056970312488	-0.027756756014855655
-0.4815446618749988	-0.03210207766804408
-0.4814836267187488	-0.0364456578330622
-0.4814225915624988	-0.04078781002008635
-0.4813615564062488	-0.045129004097796105
-0.4813005212499988	-0.0494697161755305
-0.4812394860937488	-0.053810267846171024
-0.4811784509374988	-0.058150705319552125
-0.4811174157812488	-0.062490753330874504
-0.4810563806249988	-0.06682984747658831
-0.4809953454687488	-0.07116722694496173
-0.4809343103124988	-0.07550206426577645
-0.4808732751562488	-0.0798336066392542
-0.4808122399999988	-0.08416130311727406
-0.4807512048437488	-0.08848488801761166
-0.4806901696874988	-0.09280439500894384
-0.4806291345312488	-0.09712010767186471
-0.4805680993749988	-0.10143245408836721
-0.4805070642187488	-0.1057418522700037
-0.4804460290624988	-0.11004855535385515
-0.4803849939062488	-0.11435254350878996
-0.4803239587499988	-0.11865347680113736
-0.4802629235937488	-0.1229507177818095
-0.4802018884374988	-0.12724342653943266
-0.4801408532812488	-0.13153071562002194
-0.4800798181249988	-0.13581182553664847
-0.4800187829687488	-0.1400862630766322
-0.4799577478124988	-0.14435386914325335
-0.4798967126562488	-0.14861482044137783
-0.4798356774999988	-0.15286956616617306
-0.4797746423437488	-0.1571186896056668
-0.4797136071874988	-0.16136272252328093
-0.4796525720312488	-0.16560196690426032
-0.4795915368749988	-0.16983636380742861
-0.4795305017187488	-0.17406544223484055
-0.4794694665624988	-0.17828836565328798
-0.4794084314062488	-0.18250406638487174
-0.4793473962499988	-0.18671144232858639
-0.4792863610937488	-0.19090957258192226
-0.4792253259374988	-0.19509789500764801
-0.4791642907812488	-0.1992763011441164
-0.4791032556249988	-0.20344513313596915
-0.4790422204687488	-0.20760508842552575
-0.4789811853124988	-0.21175703326230788
-0.4789201501562488	-0.21590174986260094
-0.4788591149999988	-0.22003970247277987
-0.4787980798437488	-0.22417088807568242
-0.4787370446874988	-0.22829477951970253
-0.4786760095312488	-0.2324103749427975
-0.4786149743749988	-0.23651636590828728
-0.4785539392187488	-0.24061139459991895
-0.4784929040624988	-0.2446943285545968
-0.4784318689062488	-0.24876447404671767
-0.4783708337499988	-0.2528216918483677
-0.4783097985937488	-0.25686640382032727
-0.4782487634374988	-0.26089947183857115
-0.4781877282812488	-0.26492196219837116
-0.4781266931249988	-0.268934855553257
-0.4780656579687488	-0.27293877515031956
-0.4780046228124988	-0.2769337991700148
-0.4779435876562488	-0.2809193997404269
-0.4778825524999988	-0.28489452044202124
-0.4778215173437488	-0.2888577760783743
-0.4777604821874988	-0.2928077273729633
-0.4776994470312488	-0.2967431686843592
-0.4776384118749988	-0.3006633632282455
-0.4775773767187488	-0.30456816018508004
-0.4775163415624988	-0.3084579707676413
-0.4774553064062488	-0.31233363082849447
-0.4773942712499988	-0.3161961743686182
-0.4773332360937488	-0.32004654847322084
-0.4772722009374988	-0.3238853440747262
-0.4772111657812488	-0.3277126215945082
-0.4771501306249988	-0.3315278712424673
-0.4770890954687488	-0.3353301068924324
-0.4770280603124988	-0.3391180620834256
-0.4769670251562488	-0.3428904496477712
-0.4769059899999988	-0.3466462352943307
-0.4768449548437488	-0.35038484446191254
-0.4767839196874988	-0.35410623622937043
-0.4767228845312488	-0.3578108416807507
-0.4766618493749988	-0.36149939973225403
-0.4766008142187488	-0.3651727262724241
-0.4765397790624988	-0.36883146428045893
-0.4764787439062488	-0.3724758818970319
-0.4764177087499988	-0.3761057805575866
-0.4763566735937488	-0.37972052832771924
-0.4762956384374988	-0.38331919492162936
-0.4762346032812488	-0.38690075697155984
-0.4761735681249988	-0.3904643225547306
-0.4761125329687488	-0.3940093177316658
-0.4760514978124988	-0.3975355915202898
-0.4759904626562488	-0.4010434019971963
-0.4759294274999988	-0.4045332794831642
-0.4758683923437488	-0.4080058165516368
-0.4758073571874988	-0.41146145408344564
-0.4757463220312488	-0.4149003167164404
-0.4756852868749988	-0.4183221360145616
-0.4756242517187488	-0.4217262839547376
-0.4755632165624988	-0.42511190728166737
-0.4755021814062488	-0.4284781275357739
-0.4754411462499988	-0.43182425110331096
-0.4753801110937488	-0.4351499224491661
-0.4753190759374988	-0.43845518546055834
-0.4752580407812488	-0.4417404470899451
-0.4751970056249988	-0.44500633848347615
-0.4751359704687488	-0.44825349679707815
-0.4750749353124988	-0.4514823322804537
-0.4750139001562488	-0.4546928498311465
-0.4749528649999988	-0.4578845753026702
-0.4748918298437488	-0.4610566162146203
-0.4748307946874988	-0.4642078466829151
-0.4747697595312488	-0.46733716182534857
-0.4747087243749988	-0.4704437377877112
-0.4746476892187488	-0.47352723406346703
-0.4745866540624988	-0.4765878764778577
-0.4745256189062488	-0.4796263951858417
-0.4744645837499988	-0.4826438317771729
-0.4744035485937488	-0.48564125324612367
-0.4743425134374988	-0.4886194374909211
-0.4742814782812488	-0.49157861198731817
-0.4742204431249988	-0.49451832086678127
-0.4741594079687488	-0.49743746284584606
-0.4740983728124988	-0.5003344931367182
-0.4740373376562488	-0.5032077458690947
-0.4739763024999988	-0.5060558096101225
-0.4739152673437488	-0.5088778607800105
-0.4738542321874988	-0.511673857727984
-0.4737931970312488	-0.5144445475446208
-0.4737321618749988	-0.5171912891742122
-0.4736711267187488	-0.5199157247103927
-0.4736100915624988	-0.5226193684643885
-0.4735490564062488	-0.5253032118284002
-0.4734880212499988	-0.5279674365838684
-0.4734269860937488	-0.5306113109183243
-0.4733659509374988	-0.533233304167639
-0.4733049157812488	-0.5358313957792677
-0.4732438806249988	-0.5384035080878111
-0.4731828454687488	-0.5409479668945384
-0.4731218103124988	-0.5434638768760642
-0.4730607751562488	-0.5459513136137455
-0.4729997399999988	-0.5484112838700158
-0.4729387048437488	-0.5508454635851536
-0.4728776696874988	-0.55325577793369
-0.4728166345312488	-0.555643922471159
-0.4727555993749988	-0.5580109324118034
-0.4726945642187488	-0.5603569039666981
-0.4726335290624988	-0.5626809454589181
-0.4725724939062488	-0.5649813733093781
-0.4725114587499988	-0.5672561000734077
-0.4724504235937488	-0.5695031186692914
-0.4723893884374988	-0.5717209635568835
-0.4723283532812488	-0.5739090351440553
-0.4722673181249988	-0.5760677106967775
-0.4722062829687488	-0.5781982092407117
-0.4721452478124988	-0.5803022404794843
-0.4720842126562488	-0.5823815365996442
-0.4720231774999988	-0.5844373908116547
-0.4719621423437488	-0.5864703130753154
-0.4719011071874988	-0.5884798851874838
-0.4718400720312488	-0.5904648539093458
-0.4717790368749988	-0.5924234428533816
-0.4717180017187488	-0.5943538008164617
-0.4716569665624988	-0.5962544628807285
-0.4715959314062488	-0.5981247013448694
-0.4715348962499988	-0.5999646793303814
-0.4714738610937488	-0.6017753726428795
-0.4714128259374988	-0.6035582804195354
-0.4713517907812488	-0.6053149969116235
-0.4712907556249988	-0.6070467593967216
-0.4712297204687488	-0.6087540966600093
-0.4711686853124988	-0.6104366674987911
-0.4711076501562488	-0.6120933288965849
-0.4710466149999988	-0.6137224215435646
-0.4709855798437488	-0.6153221987375668
-0.4709245446874988	-0.6168912793276515
-0.4708635095312488	-0.6184290008793257
-0.4708024743749988	-0.6199355788815117
-0.4707414392187488	-0.6214120285620303
-0.4706804040624988	-0.6228598681018442
-0.4706193689062488	-0.6242806811204046
-0.4705583337499988	-0.625675656755676
-0.4704972985937488	-0.6270452351879521
-0.4704362634374988	-0.6283889576238606
-0.4703752282812488	-0.6297055631629748
-0.4703141931249988	-0.6309933091563381
-0.4702531579687488	-0.6322504314244661
-0.4701921228124988	-0.6334756205614859
-0.4701310876562488	-0.6346683826983699
-0.4700700524999988	-0.63582918254183
-0.4700090173437488	-0.6369593239068382
-0.4699479821874988	-0.6380605927326649
-0.4698869470312488	-0.6391347536803869
-0.4698259118749988	-0.6401830350517338
-0.4697648767187488	-0.6412057442889619
-0.4697038415624988	-0.6422021234264724
-0.4696428064062488	-0.6431704915048464
-0.4695817712499988	-0.6441086469210986
-0.4695207360937488	-0.6450144311912457
-0.4694597009374988	-0.6458863079154238
-0.4693986657812488	-0.6467238025170389
