Time	Frequency
-0.5000305139687491	0.44681186765689745
-0.4999694788124991	0.45033169965914943
-0.4999084436562491	0.4538348995783197
-0.4998474084999991	0.45731375684755515
-0.4997863733437491	0.4607613770458073
-0.4997253381874991	0.4641726164539864
-0.4996643030312491	0.46754468136563165
-0.4996032678749991	0.47087732355004663
-0.4995422327187491	0.47417263828372336
-0.4994811975624991	0.47743452872574904
-0.4994201624062491	0.48066794240973637
-0.4993591272499991	0.48387801410353587
-0.4992980920937491	0.48706925815024543
-0.4992370569374991	0.4902449281583495
-0.4991760217812491	0.4934066198885869
-0.4991149866249991	0.49655416206683556
-0.4990539514687491	0.4996857966035712
-0.4989929163124991	0.5027985939953791
-0.4989318811562491	0.5058890080451494
-0.4988708459999991	0.5089534634576498
-0.4988098108437491	0.511988888413738
-0.4987487756874991	0.5149931167046632
-0.4986877405312491	0.5179650981548851
-0.4986267053749991	0.5209048984021464
-0.4985656702187491	0.5238135115816153
-0.4985046350624991	0.5266925385964726
-0.4984435999062491	0.5295437996614786
-0.4983825647499991	0.532368951290581
-0.4983215295937491	0.535169178513883
-0.4982604944374991	0.5379450147603045
-0.4981994592812491	0.5406963094641497
-0.4981384241249991	0.5434223380051848
-0.4980773889687491	0.5461220194078086
-0.4980163538124991	0.5487941859045666
-0.4979553186562491	0.5514378443222683
-0.4978942834999991	0.5540523767686047
-0.4978332483437491	0.5566376454223484
-0.4977722131874991	0.5591939850819464
-0.4977111780312491	0.561722086246575
-0.4976501428749991	0.5642227934141121
-0.4975891077187491	0.5666968604907454
-0.4975280725624991	0.569144714033629
-0.4974670374062491	0.5715662763584886
-0.4974060022499991	0.5739608882371408
-0.4973449670937491	0.5763273486020764
-0.4972839319374991	0.57866406926451
-0.4972228967812491	0.5809693244018042
-0.4971618616249991	0.5832415493136673
-0.4971008264687491	0.5854796273906043
-0.4970397913124991	0.5876831142909549
-0.4969787561562491	0.5898523594420266
-0.4969177209999991	0.5919884922692771
-0.4968566858437491	0.594093269101506
-0.4967956506874991	0.596168804604827
-0.4967346155312491	0.5982172255515159
-0.4966735803749991	0.60024030232694
-0.4966125452187491	0.6022391179829641
-0.4965515100624991	0.6042138300561181
-0.4964904749062491	0.6061635756974134
-0.4964294397499991	0.608086542055804
-0.4963684045937491	0.6099801897844427
-0.4963073694374991	0.6118416017971112
-0.4962463342812491	0.613667910059966
-0.4961852991249991	0.6154567308421107
-0.4961242639687491	0.6172065383747495
-0.4960632288124991	0.6189169168813443
-0.4960021936562491	0.6205886462252039
-0.4959411584999991	0.6222236058455486
-0.4958801233437491	0.6238245066560645
-0.4958190881874991	0.625394484408349
-0.4957580530312491	0.6269366160746943
-0.4956970178749991	0.6284534344309773
-0.4956359827187491	0.6299465162159064
-0.4955749475624991	0.6314162094399054
-0.4955139124062491	0.632861542882644
-0.4954528772499991	0.6342803324073752
-0.4953918420937491	0.6356694713565879
-0.4953308069374991	0.6370253658803995
-0.4952697717812491	0.6383444516895788
-0.4952087366249991	0.6396237149639853
-0.4951477014687491	0.6408611401226714
-0.4950866663124991	0.6420560167114695
-0.4950256311562491	0.6432090574821675
-0.4949645959999991	0.6443223079390223
-0.4949035608437491	0.6453988569022915
-0.4948425256874991	0.6464423877792377
-0.4947814905312491	0.6474566364523994
-0.4947204553749991	0.648444834661539
-0.4946594202187491	0.6494092197505967
-0.4945983850624991	0.6503506829631772
-0.4945373499062491	0.6512686082458938
-0.4944763147499991	0.6521609270600979
-0.4944152795937491	0.6530243841206868
-0.4943542444374991	0.6538549781281532
-0.4942932092812491	0.6546485168254779
-0.4942321741249991	0.6554012090231884
-0.4941711389687491	0.656110209383042
-0.4941101038124991	0.6567740376308133
-0.4940490686562491	0.6573928107313991
-0.4939880334999991	0.6579682515712969
-0.4939269983437491	0.6585034697366831
-0.4938659631874991	0.659002543526276
-0.4938049280312491	0.6594699592538237
-0.4937438928749991	0.65990998302474
-0.4936828577187491	0.660326051818968
-0.4936218225624991	0.660720269448758
-0.4935607874062491	0.6610930781561667
-0.4934997522499991	0.661443153701941
-0.4934387170937491	0.6617675433929687
-0.4933776819374991	0.6620620338316389
-0.4933166467812491	0.6623217032101456
-0.4932556116249991	0.6625415856221443
-0.4931945764687491	0.6627173554060314
-0.4931335413124991	0.6628459357814679
-0.4930725061562491	0.6629259492702395
-0.4930114709999991	0.6629579473437708
-0.4929504358437491	0.6629443821438025
-0.4928894006874991	0.662889319047982
-0.4928283655312491	0.6627979221814129
-0.4927673303749991	0.6626757726543013
-0.4927062952187491	0.6625281101880734
-0.4926452600624991	0.6623591055356522
-0.4925842249062491	0.6621712627282099
-0.4925231897499991	0.6619650326044543
-0.4924621545937491	0.6617386970441648
-0.4924011194374991	0.6614885475844366
-0.4923400842812491	0.6612093400821419
-0.4922790491249991	0.6608949709921482
-0.4922180139687491	0.6605392899945444
-0.4921569788124991	0.6601369414348167
-0.4920959436562491	0.6596841184657379
-0.4920349084999991	0.6591791232143205
-0.4919738733437491	0.6586226533824822
-0.4919128381874991	0.6580177693319277
-0.4918518030312491	0.6573695359302647
-0.4917907678749991	0.6566843816545628
-0.4917297327187491	0.6559692559707259
-0.4916686975624991	0.6552306915606951
-0.4916076624062491	0.6544738996790516
-0.4915466272499991	0.6537020280844921
-0.4914855920937491	0.6529156867769121
-0.4914245569374991	0.6521128126408836
-0.4913635217812491	0.6512888990235127
-0.4913024866249991	0.6504375679959652
-0.4912414514687491	0.6495514173727711
-0.4911804163124991	0.6486230273563351
-0.4911193811562491	0.6476459863379219
-0.4910583459999991	0.6466158020114936
-0.4909973108437491	0.6455305711980663
-0.4909362756874991	0.6443912983905247
-0.4908752405312491	0.6432018110314153
-0.4908142053749991	0.6419682815200354
-0.4907531702187491	0.6406984116550889
-0.4906921350624991	0.6394003898546923
-0.4906310999062491	0.638081767527786
-0.4905700647499991	0.6367484050637796
-0.4905090295937491	0.6354036356129672
-0.4904479944374991	0.6340477728932787
-0.4903869592812491	0.6326780420739224
-0.4903259241249991	0.6312889472313352
-0.4902648889687491	0.6298730178613344
-0.4902038538124991	0.6284218352259612
-0.4901428186562491	0.6269272092585809
-0.4900817834999991	0.6253823436141763
-0.4900207483437491	0.6237828189800227
-0.4899597131874991	0.6221272505799471
-0.4898986780312491	0.6204175233469508
-0.4898376428749991	0.6186585604370815
-0.4897766077187491	0.6168576522365408
-0.4897155725624991	0.6150234508895706
-0.4896545374062491	0.6131647709228099
-0.4895935022499991	0.611289354297556
-0.4895324670937491	0.6094027766739311
-0.4894714319374991	0.6075076577238856
-0.4894103967812491	0.6056032896761092
-0.4893493616249991	0.603685737632181
-0.4892883264687491	0.6017484038690024
-0.4892272913124991	0.599782977324315
-0.4891662561562491	0.597780623940951
-0.4891052209999991	0.5957332514760728
-0.4890441858437491	0.5936346774199712
-0.4889831506874991	0.5914815258865311
-0.4889221155312491	0.5892737226780851
-0.4888610803749991	0.5870145229746908
-0.4888000452187491	0.5847100622596043
-0.4887390100624991	0.5823684935892361
-0.4886779749062491	0.5799988430252504
-0.4886169397499991	0.5776097412594545
-0.4885559045937491	0.5752082024035897
-0.4884948694374991	0.5727986337614307
-0.4884338342812491	0.5703822262792095
-0.4883727991249991	0.5679568097020927
-0.4883117639687491	0.5655171911892393
-0.4882507288124991	0.5630559271937242
-0.4881896936562491	0.5605644179941524
-0.4881286584999991	0.5580341625452689
-0.4880676233437491	0.5554579894805576
-0.4880065881874991	0.5528310931144222
-0.4879455530312491	0.5501517253505552
-0.4878845178749991	0.5474214421198472
-0.4878234827187491	0.5446448747822065
-0.4877624475624991	0.5418290646005421
-0.4877014124062491	0.5389824595190661
-0.4876403772499991	0.5361137232231172
-0.4875793420937491	0.5332305197244236
-0.4875183069374991	0.5303384400978116
-0.4874572717812491	0.5274402401487686
-0.4873962366249991	0.5245355000751379
-0.4873352014687491	0.5216207433777275
-0.4872741663124991	0.5186899902064789
-0.4872131311562491	0.5157356531945116
-0.4871520959999991	0.5127496521871928
-0.4870910608437491	0.509724593917251
-0.4870300256874991	0.5066548336347941
-0.4869689905312491	0.5035372699864399
-0.4869079553749991	0.5003717732500361
-0.4868469202187491	0.49716117962557693
-0.4867858850624991	0.4939108532265097
-0.4867248499062491	0.4906279049511675
-0.4866638147499991	0.48732019370664775
-0.4866027795937491	0.4839952331988594
-0.4865417444374991	0.48065914745952704
-0.4864807092812491	0.4773158495164495
-0.4864196741249991	0.47396657323534946
-0.4863586389687491	0.47060978539489884
-0.4862976038124991	0.46724147469808613
-0.4862365686562491	0.46385579962130186
-0.4861755334999991	0.46044598580734614
-0.4861144983437491	0.45700531597727967
-0.4860534631874991	0.4535280841076099
-0.4859924280312491	0.45001039269335297
-0.4859313928749991	0.4464506740724814
-0.4858703577187491	0.4428498681723195
-0.4858093225624991	0.43921124569053016
-0.4857482874062491	0.43553990483246074
-0.4856872522499991	0.4318420202348697
-0.4856262170937491	0.42812396707044353
-0.4855651819374991	0.4243914523340613
-0.4855041467812491	0.4206487688083591
-0.4854431116249991	0.4168982743719487
-0.4853820764687491	0.41314017071490533
-0.4853210413124991	0.40937259218873934
-0.4852600061562491	0.4055919732284802
-0.4851989709999991	0.401793647251122
-0.4851379358437491	0.397972584508948
-0.4850769006874991	0.39412413536367535
-0.4850158655312491	0.3902446757382761
-0.4849548303749991	0.3863320889483104
-0.4848937952187491	0.38238602274131267
-0.4848327600624991	0.3784078880033431
-0.4847717249062491	0.37440059586216273
-0.4847106897499991	0.37036807635930263
-0.4846496545937491	0.3663146876856126
-0.4845886194374991	0.3622446122811111
-0.4845275842812491	0.35816130182970757
-0.4844665491249991	0.3540670539671506
-0.4844055139687491	0.34996278670833675
-0.4843444788124991	0.3458480194533126
-0.4842834436562491	0.34172105044728474
-0.4842224084999991	0.3375793103732746
-0.4841613733437491	0.33341983366317823
-0.4841003381874991	0.32923975827160096
-0.4840393030312491	0.3250367715252401
-0.4839782678749991	0.32080944388262433
-0.4839172327187491	0.31655741143597627
-0.4838561975624991	0.31228139376212527
-0.4837951624062491	0.3079830531710215
-0.4837341272499991	0.30366471064401973
-0.4836730920937491	0.29932897499617256
-0.4836120569374991	0.29497836665052374
-0.4835510217812491	0.2906149769043226
-0.4834899866249991	0.2862401977494129
-0.4834289514687491	0.2818545807085101
-0.4833679163124991	0.27745784096742315
-0.4833068811562491	0.27304898309322256
-0.4832458459999991	0.26862652764600636
-0.4831848108437491	0.26418880560482044
-0.4831237756874991	0.2597342666968097
-0.4830627405312491	0.2552617521172775
-0.4830017053749991	0.2507706989002582
-0.4829406702187491	0.24626124042011246
-0.4828796350624991	0.24173417989548082
-0.4828185999062491	0.2371908662982104
-0.4827575647499991	0.23263301256568625
-0.4826965295937491	0.22806246365063332
-0.4826354944374991	0.2234809350061545
-0.4825744592812491	0.2188897767192602
-0.4825134241249991	0.21428980911725654
-0.4824523889687491	0.2096812518666891
-0.4823913538124991	0.20506375376713612
-0.4823303186562491	0.20043650358638213
-0.4822692834999991	0.19579839302525978
-0.4822082483437491	0.19114821695636022
-0.4821472131874991	0.186484898109112
-0.4820861780312491	0.18180769627417
-0.4820251428749991	0.17711634270653365
-0.4819641077187491	0.1724110905564079
-0.4819030725624991	0.1676927051127703
-0.4818420374062491	0.16296238141614658
-0.4817810022499991	0.15822159161039048
-0.4817199670937491	0.1534719036164849
-0.4816589319374991	0.1487147907456049
-0.4815978967812491	0.14395144474127167
-0.4815368616249991	0.1391826333023656
-0.4814758264687491	0.1344086342864324
-0.4814147913124991	0.12962924241217938
-0.4813537561562491	0.1248438438604422
-0.4812927209999991	0.12005155909908753
-0.4812316858437491	0.11525141821622602
-0.4811706506874991	0.11044253069764748
-0.4811096155312491	0.10562424760526397
-0.4810485803749991	0.10079629926445953
-0.4809875452187491	0.09595886563231752
-0.4809265100624991	0.09111257503376967
-0.4808654749062491	0.08625844945529627
-0.4808044397499991	0.0813977825210421
-0.4807434045937491	0.07653196651065736
-0.4806823694374991	0.0716623290264094
-0.4806213342812491	0.06678999191858877
-0.4805602991249991	0.061915735157517075
-0.4804992639687491	0.05703990269322109
-0.4804382288124991	0.05216240023727708
-0.4803771936562491	0.04728276073328647
-0.4803161584999991	0.042400243412905304
-0.4802551233437491	0.03751398359723155
-0.4801940881874991	0.03262317494300616
-0.4801330530312491	0.02772722809331831
-0.4800720178749991	0.02282588891041575
-0.4800109827187491	0.01791931191132966
-0.4799499475624991	0.013008070197311594
-0.4798889124062491	0.008093107149068586
-0.4798278772499991	0.003175653911631458
-0.4797668420937491	-0.0017428992492299908
-0.4797058069374991	-0.006661189185503886
-0.4796447717812491	-0.01157806322552225
-0.4795837366249991	-0.01649270356038712
-0.4795227014687491	-0.021404698321101926
-0.4794616663124991	-0.026314065400815018
-0.4794006311562491	-0.03122122295903126
-0.4793395959999991	-0.03612690855056459
-0.4792785608437491	-0.04103204830481684
-0.4792175256874991	-0.04593757944151164
-0.4791564905312491	-0.05084426117771142
-0.4790954553749991	-0.055752528306516794
-0.4790344202187491	-0.06066239843727026
-0.4789733850624991	-0.0655734154933002
-0.4789123499062491	-0.07048465150646346
-0.4788513147499991	-0.07539479800980453
-0.4787902795937491	-0.08030231785174548
-0.4787292444374991	-0.08520561940046371
-0.4786682092812491	-0.09010324946066751
-0.4786071741249991	-0.09499407987336314
-0.4785461389687491	-0.09987744825828401
-0.4784851038124991	-0.10475323088694354
-0.4784240686562491	-0.10962183217299856
-0.4783630334999991	-0.11448408679503032
-0.4783019983437491	-0.11934110067309325
-0.4782409631874991	-0.12419407187971139
-0.4781799280312491	-0.1290440943897917
-0.4781188928749991	-0.13389194524987333
-0.4780578577187491	-0.13873791748542977
-0.4779968225624991	-0.1435817416793059
-0.4779357874062491	-0.14842257701774225
-0.4778747522499991	-0.15325907158153773
-0.4778137170937491	-0.15808950818809506
-0.4777526819374991	-0.1629120146679753
-0.4776916467812491	-0.16772480312559618
-0.4776306116249991	-0.17252641227537127
-0.4775695764687491	-0.17731590621386217
-0.4775085413124991	-0.18209297659204232
-0.4774475061562491	-0.18685794825747087
-0.4773864709999991	-0.19161171081025058
-0.4773254358437491	-0.1963555653290897
-0.4772644006874991	-0.20109098942752546
-0.4772033655312491	-0.20581937302760211
-0.4771423303749991	-0.2105417709255843
-0.4770812952187491	-0.21525869642509898
-0.4770202600624991	-0.21996999657179853
-0.4769592249062491	-0.22467483391421703
-0.4768981897499991	-0.22937175994720527
-0.4768371545937491	-0.23405887846290135
-0.4767761194374991	-0.23873410092388436
-0.4767150842812491	-0.24339544282593847
-0.4766540491249991	-0.2480412952847477
-0.4765930139687491	-0.25267064194485833
-0.4765319788124991	-0.2572831885646105
-0.4764709436562491	-0.2618793720846154
-0.4764099084999991	-0.26646025817258995
-0.4763488733437491	-0.27102734633248204
-0.4762878381874991	-0.2755823003884532
-0.4762268030312491	-0.28012664679565874
-0.4761657678749991	-0.2846614849353362
-0.4761047327187491	-0.2891872561873368
-0.4760436975624991	-0.29370362669558364
-0.4759826624062491	-0.2982094990765716
-0.4759216272499991	-0.30270313500358415
-0.4758605920937491	-0.3071823813435572
-0.4757995569374991	-0.31164498029117854
-0.4757385217812491	-0.31608890159459585
-0.4756774866249991	-0.320512637184054
-0.4756164514687491	-0.3249154274635942
-0.4755554163124991	-0.3292973766540083
-0.4754943811562491	-0.33365942013895955
-0.4754333459999991	-0.3380031480232837
-0.4753723108437491	-0.3423305140144045
-0.4753112756874991	-0.34664348160299474
-0.4752502405312491	-0.35094366093043555
-0.4751892053749991	-0.355231980835575
-0.4751281702187491	-0.35950846093506916
-0.4750671350624991	-0.36377213779960826
-0.4750060999062491	-0.3680211506375223
-0.4749450647499991	-0.37225297311286143
-0.4748840295937491	-0.3764647721935546
-0.4748229944374991	-0.38065384072794967
-0.4747619592812491	-0.38481802251102554
-0.4747009241249991	-0.3889560583659889
-0.4746398889687491	-0.39306780115956935
-0.4745788538124991	-0.3971542558077109
-0.4745178186562491	-0.4012174264410934
-0.4744567834999991	-0.4052599971145262
-0.4743957483437491	-0.4092848877608891
-0.4743347131874991	-0.41329474103784264
-0.4742736780312491	-0.41729142934882407
-0.4742126428749991	-0.4212756744999913
-0.4741516077187491	-0.42524684469219576
-0.4740905725624991	-0.42920295922197316
-0.4740295374062491	-0.43314090489996726
-0.4739685022499991	-0.4370568506106722
-0.4739074670937491	-0.4409468039226214
-0.4738464319374991	-0.44480721095015413
-0.4737853967812491	-0.44863550853382234
-0.4737243616249991	-0.4524305512099294
-0.4736633264687491	-0.456192832593857
-0.4736022913124991	-0.459924449432935
-0.4735412561562491	-0.46362880506967113
-0.4734802209999991	-0.4673100883955121
-0.4734191858437491	-0.4709726031626311
-0.4733581506874991	-0.4746200568945114
-0.4732971155312491	-0.4782549211750268
-0.4732360803749991	-0.48187795629187263
-0.4731750452187491	-0.4854879867506827
-0.4731140100624991	-0.4890819833191007
-0.4730529749062491	-0.4926554430127481
-0.4729919397499991	-0.496203016136566
-0.4729309045937491	-0.4997192954604389
-0.4728698694374991	-0.5031996384568084
-0.4728088342812491	-0.5066408852770944
-0.4727477991249991	-0.5100418663869449
-0.4726867639687491	-0.5134036212460854
-0.4726257288124991	-0.5167292749816785
-0.4725646936562491	-0.520023575716842
-0.4725036584999991	-0.5232921629272045
-0.4724426233437491	-0.5265406758704084
-0.4723815881874991	-0.5297738377395774
-0.4723205530312491	-0.5329946639533182
-0.4722595178749991	-0.5362039200309423
-0.4721984827187491	-0.5393999242899287
-0.4721374475624991	-0.5425787390413015
-0.4720764124062491	-0.5457347174416989
-0.4720153772499991	-0.5488613264311283
-0.4719543420937491	-0.5519521337349491
-0.4718933069374991	-0.5550017989802616
-0.4718322717812491	-0.5580068999488932
-0.4717712366249991	-0.5609664701908837
-0.4717102014687491	-0.5638821604798196
-0.4716491663124991	-0.5667579824524374
-0.4715881311562491	-0.5695996742097638
-0.4715270959999991	-0.572413786447374
-0.4714660608437491	-0.5752066266381215
-0.4714050256874991	-0.577983233398226
-0.4713439905312491	-0.5807465493019385
-0.4712829553749991	-0.5834969212473854
-0.4712219202187491	-0.5862320061068681
-0.4711608850624991	-0.5889471015420578
-0.4710998499062491	-0.5916358553444827
-0.4710388147499991	-0.5942912415235274
-0.4709777795937491	-0.5969066476548704
-0.4709167444374991	-0.5994769015063476
-0.4708557092812491	-0.601999073107055
-0.4707946741249991	-0.6044729194042222
-0.4707336389687491	-0.6069008985080205
-0.4706726038124991	-0.6092877582670253
-0.4706115686562491	-0.6116397652696796
-0.4705505334999991	-0.6139636892358433
-0.4704894983437491	-0.6162657025170655
-0.4704284631874991	-0.618550372607285
-0.4703674280312491	-0.6208199119526026
-0.4703063928749991	-0.6230738068725729
-0.4702453577187491	-0.6253088829999542
-0.4701843225624991	-0.6275197952051081
-0.4701232874062491	-0.6296998628291768
-0.4700622522499991	-0.6318421161289766
-0.4700012170937491	-0.6339403896440653
-0.4699401819374991	-0.6359902888848593
-0.4698791467812491	-0.6379898717370336
-0.4698181116249991	-0.6399399362190453
-0.4697570764687491	-0.641843872080074
-0.4696960413124991	-0.6437070979947518
-0.4696350061562491	-0.6455361741994028
-0.4695739709999991	-0.6473377339768598
-0.4695129358437491	-0.6491174012502572
-0.4694519006874991	-0.6508788675503139
-0.4693908655312491	-0.6526232816859804
-0.4693298303749991	-0.6543490512199197
