Time	Frequency
-0.5000228845624974	-0.6232078194951913
-0.49996184940624744	-0.6258501645159738
-0.49990081424999744	-0.6284530953532095
-0.49983977909374744	-0.6310167469310489
-0.49977874393749744	-0.6335409635833231
-0.49971770878124744	-0.6360252262445262
-0.49965667362499744	-0.6384696080314901
-0.49959563846874744	-0.6408741503610238
-0.49953460331249744	-0.6432383456494916
-0.49947356815624744	-0.6455620267851322
-0.49941253299999744	-0.6478453216264934
-0.49935149784374744	-0.6500879334041462
-0.49929046268749744	-0.6522895801477269
-0.49922942753124744	-0.6544502968449142
-0.49916839237499744	-0.6565699154017061
-0.49910735721874744	-0.6586481638782073
-0.49904632206249744	-0.6606849832097451
-0.49898528690624744	-0.662680251413451
-0.49892425174999744	-0.6646337691782391
-0.49886321659374744	-0.6665454711209816
-0.49880218143749744	-0.6684152366490822
-0.49874114628124744	-0.6702428500349283
-0.49868011112499744	-0.6720282199034825
-0.49861907596874744	-0.6737712677252353
-0.49855804081249744	-0.675471811216433
-0.49849700565624744	-0.677129740608493
-0.49843597049999744	-0.6787449910810143
-0.49837493534374744	-0.680317400702872
-0.49831390018749744	-0.6818468428603804
-0.49825286503124744	-0.6833332742265477
-0.49819182987499744	-0.6847765769145361
-0.49813079471874744	-0.6861766033710758
-0.49806975956249744	-0.6875332811595058
-0.49800872440624744	-0.6888465286296224
-0.49794768924999744	-0.6901162307224703
-0.49788665409374744	-0.6913423008077203
-0.49782561893749744	-0.6925246598115653
-0.49776458378124744	-0.6936632181674978
-0.49770354862499744	-0.6947578907919079
-0.49764251346874744	-0.6958085878219197
-0.49758147831249744	-0.6968152266535872
-0.49752044315624744	-0.6977777474258153
-0.49745940799999744	-0.6986960847161714
-0.49739837284374744	-0.6995701606300267
-0.49733733768749744	-0.7003999085097534
-0.49727630253124744	-0.7011852567682862
-0.49721526737499744	-0.701926132422885
-0.49715423221874744	-0.7026225079685211
-0.49709319706249744	-0.7032743514429561
-0.49703216190624744	-0.7038815632392494
-0.49697112674999744	-0.7044440683009833
-0.49691009159374744	-0.7049618625877473
-0.49684905643749744	-0.7054349103344144
-0.49678802128124744	-0.7058631487186184
-0.49672698612499744	-0.7062465573053953
-0.49666595096874744	-0.7065850931979817
-0.49660491581249744	-0.7068786895660584
-0.49654388065624744	-0.7071273459142713
-0.49648284549999744	-0.7073310689082933
-0.49642181034374744	-0.7074897972598416
-0.49636077518749744	-0.7076034770909063
-0.49629974003124744	-0.7076721247277238
-0.49623870487499744	-0.7076957623735554
-0.49617766971874744	-0.7076743377286348
-0.49611663456249744	-0.7076077868053282
-0.49605559940624744	-0.7074961420131536
-0.49599456424999744	-0.7073394581441159
-0.49593352909374744	-0.7071377030283369
-0.49587249393749744	-0.7068908321497974
-0.49581145878124744	-0.7065988708765075
-0.49575042362499744	-0.7062618520300715
-0.49568938846874744	-0.7058797639078489
-0.49562835331249744	-0.7054526141625665
-0.49556731815624744	-0.7049804368083692
-0.49550628299999744	-0.7044632256877519
-0.49544524784374744	-0.7039010032117455
-0.49538421268749744	-0.7032938406778212
-0.49532317753124744	-0.7026417314514223
-0.49526214237499744	-0.7019446641826311
-0.49520110721874744	-0.7012027360322193
-0.49514007206249744	-0.7004159993869405
-0.49507903690624744	-0.699584420575599
-0.49501800174999744	-0.6987080447501329
-0.49495696659374744	-0.697786962337834
-0.49489593143749744	-0.6968212029456284
-0.49483489628124744	-0.6958108060189333
-0.49477386112499744	-0.6947558494134286
-0.49471282596874744	-0.693656370544837
-0.49465179081249744	-0.6925123958988519
-0.49459075565624744	-0.6913240229989008
-0.49452972049999744	-0.6900913392917553
-0.49446868534374744	-0.6888143587828637
-0.49440765018749744	-0.6874931547713514
-0.49434661503124744	-0.6861278604134391
-0.49428557987499744	-0.6847185118698146
-0.49422454471874744	-0.6832651249763386
-0.49416350956249744	-0.6817678391696115
-0.49410247440624744	-0.6802267988328148
-0.49404143924999744	-0.6786420369872386
-0.49398040409374744	-0.6770135892382515
-0.49391936893749744	-0.6753415835327286
-0.49385833378124744	-0.673626149754974
-0.49379729862499744	-0.6718673563151554
-0.49373626346874744	-0.6700652989906035
-0.49367522831249744	-0.6682201318926776
-0.49361419315624744	-0.6663319504773586
-0.49355315799999744	-0.6644007966332384
-0.49349212284374744	-0.6624267946862464
-0.49343108768749744	-0.6604101130897132
-0.49337005253124744	-0.6583508487718995
-0.49330901737499744	-0.6562491051234953
-0.49324798221874744	-0.6541050346478398
-0.49318694706249744	-0.6519187262956058
-0.49312591190624744	-0.6496902789587473
-0.49306487674999744	-0.6474198940390631
-0.49300384159374744	-0.6451077211795764
-0.49294280643749744	-0.6427538468857831
-0.49288177128124744	-0.6403584200252507
-0.49282073612499744	-0.6379215928936565
-0.49275970096874744	-0.6354434948675555
-0.49269866581249744	-0.6329242937927767
-0.49263763065624744	-0.6303641489668762
-0.49257659549999744	-0.6277631823317663
-0.49251556034374744	-0.6251215402905654
-0.49245452518749744	-0.6224394030162915
-0.49239349003124744	-0.619716927779188
-0.49233245487499744	-0.6169542580673463
-0.49227141971874744	-0.6141515725999084
-0.49221038456249744	-0.6113090420444568
-0.49214934940624744	-0.608426806394155
-0.49208831424999744	-0.6055050348275441
-0.49202727909374744	-0.6025439214013432
-0.49196624393749744	-0.5995436704112819
-0.49190520878124744	-0.5965044884913143
-0.49184417362499744	-0.5934265142381135
-0.49178313846874744	-0.5903098888151959
-0.49172210331249744	-0.5871548633308642
-0.49166106815624744	-0.5839616603308408
-0.49160003299999744	-0.5807304159672869
-0.49153899784374744	-0.5774613235467185
-0.49147796268749744	-0.5741546192386169
-0.49141692753124744	-0.5708104842453381
-0.49135589237499744	-0.5674290884497104
-0.49129485721874744	-0.5640106398848509
-0.49123382206249744	-0.560555357407209
-0.49117278690624744	-0.5570634802911552
-0.49111175174999744	-0.5535352372802546
-0.49105071659374744	-0.5499707862946825
-0.49098968143749744	-0.5463703396439151
-0.49092864628124744	-0.542734209689951
-0.49086761112499744	-0.5390626068585533
-0.49080657596874744	-0.535355675245812
-0.49074554081249744	-0.5316136984313943
-0.49068450565624744	-0.5278369504373023
-0.49062347049999744	-0.5240255578087294
-0.49056243534374744	-0.5201797374954991
-0.49050140018749744	-0.5162998330693513
-0.49044036503124744	-0.5123860785277464
-0.49037932987499744	-0.5084386538824144
-0.49031829471874744	-0.5044578203326805
-0.49025725956249744	-0.5004438183199061
-0.49019622440624744	-0.49639686802094074
-0.49013518924999744	-0.4923172405393266
-0.49007415409374744	-0.4882051922576594
-0.49001311893749744	-0.4840609739467761
-0.48995208378124744	-0.4798848534025254
-0.48989104862499744	-0.4756770780906534
-0.48983001346874744	-0.4714379248949461
-0.48976897831249744	-0.46716769955294185
-0.48970794315624744	-0.46286664719608894
-0.48964690799999744	-0.4585349727720972
-0.48958587284374744	-0.4541729394568213
-0.48952483768749744	-0.449780861650017
-0.48946380253124744	-0.44535902593212806
-0.48940276737499744	-0.44090768256497975
-0.48934173221874744	-0.4364270857210241
-0.48928069706249744	-0.43191751840116205
-0.48921966190624744	-0.42737928804508535
-0.48915862674999744	-0.42281266925426775
-0.48909759159374744	-0.41821790670095715
-0.48903655643749744	-0.41359532039304453
-0.48897552128124744	-0.4089452437191029
-0.48891448612499744	-0.40426792999721395
-0.48885345096874744	-0.3995636900477203
-0.48879241581249744	-0.39483285603849533
-0.48873138065624744	-0.3900756346269279
-0.48867034549999744	-0.38529229695130934
-0.48860931034374744	-0.3804832559973391
-0.48854827518749744	-0.37564882333948246
-0.48848724003124744	-0.3707892151245765
-0.48842620487499744	-0.36590473449932776
-0.48836516971874744	-0.36099573329388707
-0.48830413456249744	-0.35606251719257503
-0.48824309940624744	-0.3511053652206378
-0.48818206424999744	-0.34612457625590487
-0.48812102909374744	-0.341120460906679
-0.48805999393749744	-0.33609331910213086
-0.48799895878124744	-0.3310434784340062
-0.48793792362499744	-0.3259713230992642
-0.48787688846874744	-0.3208772066909631
-0.48781585331249744	-0.31576138082876026
-0.48775481815624744	-0.3106241221252299
-0.48769378299999744	-0.30546581764292174
-0.48763274784374744	-0.3002868012059649
-0.48757171268749744	-0.2950873102708389
-0.48751067753124744	-0.28986767811285424
-0.48744964237499744	-0.28462830330876493
-0.48738860721874744	-0.279369491282096
-0.48732757206249744	-0.2740915593198249
-0.48726653690624744	-0.26879489017482433
-0.48720550174999744	-0.2634798162382159
-0.48714446659374744	-0.25814665613060167
-0.48708343143749744	-0.2527957437691295
-0.48702239628124744	-0.24742737925083755
-0.48696136112499744	-0.24204190791346705
-0.48690032596874744	-0.23663973227986512
-0.48683929081249744	-0.23122119228307228
-0.48677825565624744	-0.22578658719933434
-0.48671722049999744	-0.22033624402324967
-0.48665618534374744	-0.21487047349901822
-0.48659515018749744	-0.2093896216553965
-0.48653411503124744	-0.2038941366230926
-0.48647307987499744	-0.19838440686108097
-0.48641204471874744	-0.19286069461415567
-0.48635100956249744	-0.18732334400865738
-0.48628997440624744	-0.18177278698421476
-0.48622893924999744	-0.17620934204277333
-0.48616790409374744	-0.1706332868038297
-0.48610686893749744	-0.16504499421112737
-0.48604583378124744	-0.15944483633334475
-0.48598479862499744	-0.1538331444911643
-0.48592376346874744	-0.14821029006191894
-0.48586272831249744	-0.14257667478984076
-0.48580169315624744	-0.136932666703946
-0.48574065799999744	-0.1312786000845292
-0.48567962284374744	-0.1256148178906477
-0.48561858768749744	-0.11994168822090033
-0.48555755253124744	-0.11425958097169295
-0.48549651737499744	-0.10856885290578043
-0.48543548221874744	-0.10286986636537791
-0.48537444706249744	-0.09716300610365579
-0.48531341190624744	-0.09144865126066279
-0.48525237674999744	-0.08572713603785997
-0.48519134159374744	-0.0799987864489994
-0.48513030643749744	-0.07426398582113751
-0.48506927128124744	-0.06852314343631657
-0.48500823612499744	-0.0627766152130015
-0.48494720096874744	-0.05702472971494623
-0.48488616581249744	-0.051267859527898585
-0.48482513065624744	-0.04550640786760226
-0.48476409549999744	-0.03974077099246062
-0.48470306034374744	-0.03397130380756706
-0.48464202518749744	-0.028198336012155652
-0.48458099003124744	-0.022422252406001236
-0.48451995487499744	-0.016643447825706776
-0.48445891971874744	-0.010862258009921624
-0.48439788456249744	-0.005079036749567118
-0.48433684940624744	0.0007058222228886847
-0.48427581424999744	0.0064919397035697384
-0.48421477909374744	0.012278943208003447
-0.48415374393749744	0.018066473149886474
-0.48409270878124744	0.02385418939707574
-0.48403167362499744	0.02964168167408485
-0.48397063846874744	0.035428490286534595
-0.48390960331249744	0.04121427431154778
-0.48384856815624744	0.04699873017577352
-0.48378753299999744	0.05278144875356654
-0.48372649784374744	0.05856207282873547
-0.48366546268749744	0.06434028231781125
-0.48360442753124744	0.07011562059281691
-0.48354339237499744	0.07588769227179257
-0.48348235721874744	0.08165624482087579
-0.48342132206249744	0.08742085776129176
-0.48336028690624744	0.0931810229280701
-0.48329925174999744	0.09893649165010586
-0.48323821659374744	0.10468702801604958
-0.48317718143749744	0.1104321145859192
-0.48311614628124744	0.11617131995794204
-0.48305511112499744	0.12190440972636396
-0.48299407596874744	0.12763094978629988
-0.48293304081249744	0.13335044054544004
-0.48287200565624744	0.1390626058209905
-0.48281097049999744	0.1447671162248735
-0.48274993534374744	0.15046353679075536
-0.48268890018749744	0.15615159424672248
-0.48262786503124744	0.16183097637773994
-0.48256682987499744	0.16750114749826386
-0.48250579471874744	0.17316170217359242
-0.48244475956249744	0.17881241175721896
-0.48238372440624744	0.1844528558335748
-0.48232268924999744	0.19008258998622363
-0.48226165409374744	0.19570138451434554
-0.48220061893749744	0.20130887291013067
-0.48213958378124744	0.20690455136080502
-0.48207854862499744	0.212488148509487
-0.48201751346874744	0.21805939079354866
-0.48195647831249744	0.2236177847994309
-0.48189544315624744	0.229162971988981
-0.48183440799999744	0.23469470856065516
-0.48177337284374744	0.24021254889568108
-0.48171233768749744	0.2457160689459404
-0.48165130253124744	0.25120502893512164
-0.48159026737499744	0.25667907456120964
-0.48152923221874744	0.2621377446845529
-0.48146819706249744	0.2675807005521095
-0.48140716190624744	0.27300760496728843
-0.48134612674999744	0.27841807433315874
-0.48128509159374744	0.28381182677555933
-0.48122405643749744	0.2891885427387932
-0.48116302128124744	0.2945477989741214
-0.48110198612499744	0.29988926654745046
-0.48104095096874744	0.3052126137002244
-0.48097991581249744	0.31051739479660284
-0.48091888065624744	0.31580328178314865
-0.48085784549999744	0.32107002845999666
-0.48079681034374744	0.32631723030932486
-0.48073577518749744	0.3315444961338351
-0.48067474003124744	0.3367515646392695
-0.48061370487499744	0.3419380710705126
-0.48055266971874744	0.34710360656513534
-0.48049163456249744	0.35224790047744103
-0.48043059940624744	0.3573706456776228
-0.48036956424999744	0.3624714352633357
-0.48030852909374744	0.36754994897729865
-0.48024749393749744	0.37260589803428035
-0.48018645878124744	0.3776389042561301
-0.48012542362499744	0.38264863199854904
-0.48006438846874744	0.3876347788222863
-0.48000335331249744	0.39259694251873084
-0.47994231815624744	0.3975347825491426
-0.47988128299999744	0.4024480884256693
-0.47982024784374744	0.4073365478131304
-0.47975921268749744	0.412199766694794
-0.47969817753124744	0.417037441396151
-0.47963714237499744	0.4218492473559447
-0.47957610721874744	0.4266348094988342
-0.47951507206249744	0.4313938510992089
-0.47945403690624744	0.43612609074595454
-0.47939300174999744	0.4408311784428249
-0.47933196659374744	0.4455088404207185
-0.47927093143749744	0.4501587874221103
-0.47920989628124744	0.4547806356672993
-0.47914886112499744	0.4593740920162763
-0.47908782596874744	0.4639389047646623
-0.47902679081249744	0.468474717434235
-0.47896575565624744	0.47298122395654696
-0.47890472049999744	0.477458182337907
-0.47884368534374744	0.48190526479345835
-0.47878265018749744	0.486322151681105
-0.47872161503124744	0.4907085749893087
-0.47866057987499744	0.4950642239311618
-0.47859954471874744	0.49938879322233654
-0.47853850956249744	0.5036820089853292
-0.47847747440624744	0.5079435826763856
-0.47841643924999744	0.5121732423161782
-0.47835540409374744	0.5163707135394967
-0.47829436893749744	0.5205356813776704
-0.47823333378124744	0.5246678617869521
-0.47817229862499744	0.528767015038745
-0.47811126346874744	0.5328328706042129
-0.47805022831249744	0.5368651332893757
-0.47798919315624744	0.5408635345387228
-0.47792815799999744	0.5448278197445214
-0.47786712284374744	0.5487577216443449
-0.47780608768749744	0.5526529708778557
-0.47774505253124744	0.556513290075995
-0.47768401737499744	0.5603383915516086
-0.47762298221874744	0.56412802306958
-0.47756194706249744	0.5678819633998222
-0.47750091190624744	0.5715999557930564
-0.47743987674999744	0.5752817374689531
-0.47737884159374744	0.5789270936406099
-0.47731780643749744	0.5825357754949148
-0.47725677128124744	0.5861074956631892
-0.47719573612499744	0.5896420339838583
-0.47713470096874744	0.5931391617898425
-0.47707366581249744	0.5965985794554233
-0.47701263065624744	0.6000200614894059
-0.47695159549999744	0.6034034479021778
-0.47689056034374744	0.6067484930403824
-0.47682952518749744	0.6100549343243407
-0.47676849003124744	0.6133225845080256
-0.47670745487499744	0.6165512193147877
-0.47664641971874744	0.619740560769558
-0.47658538456249744	0.6228904000474094
-0.47652434940624744	0.6260005595923847
-0.47646331424999744	0.6290708155473387
-0.47640227909374744	0.6321009543381927
-0.47634124393749744	0.6350907645472214
-0.47628020878124744	0.6380400078814292
-0.47621917362499744	0.6409485019308675
-0.47615813846874744	0.6438160927294795
-0.47609710331249744	0.6466425511534216
-0.47603606815624744	0.6494276516994345
-0.47597503299999744	0.652171237535219
-0.47591399784374744	0.6548731126110866
-0.47585296268749744	0.657533051356336
-0.47579192753124744	0.660150895377211
-0.47573089237499744	0.6627264853409315
-0.47566985721874744	0.6652596211664065
-0.47560882206249744	0.6677501277664151
-0.47554778690624744	0.6701978355363541
-0.47548675174999744	0.6726025524259934
-0.47542571659374744	0.674964099050393
-0.47536468143749744	0.6772823239913406
-0.47530364628124744	0.6795570912471164
-0.47524261112499744	0.6817882415679687
-0.47518157596874744	0.6839755893927153
-0.47512054081249744	0.6861189729657083
-0.47505950565624744	0.6882182485664604
-0.47499847049999744	0.6902732710309729
-0.47493743534374744	0.6922839022578112
-0.47487640018749744	0.6942499931904142
-0.47481536503124744	0.6961713915060246
-0.47475432987499744	0.698047967949428
-0.47469329471874744	0.6998796052901797
-0.47463225956249744	0.7016661784046571
-0.47457122440624744	0.7034075446805655
-0.47451018924999744	0.7051035692282348
-0.47444915409374744	0.7067541466355032
-0.47438811893749744	0.7083591663313015
-0.47432708378124744	0.7099184985825729
-0.47426604862499744	0.7114320206923228
-0.47420501346874744	0.7128996209777713
-0.47414397831249744	0.7143211916976467
-0.47408294315624744	0.7156966256616202
-0.47402190799999744	0.7170258118402991
-0.47396087284374744	0.7183086469847327
-0.47389983768749744	0.7195450344005809
-0.47383880253124744	0.7207348746696234
-0.47377776737499744	0.7218780851759433
-0.47371673221874744	0.7229745868481435
-0.47365569706249744	0.7240242829754616
-0.47359466190624744	0.7250270860525732
-0.47353362674999744	0.7259829100531787
-0.47347259159374744	0.7268916658940191
-0.47341155643749744	0.7277532973176671
-0.47335052128124744	0.7285677492872066
-0.47328948612499744	0.7293349384090221
-0.47322845096874744	0.7300547944579138
-0.47316741581249744	0.7307272639570673
-0.47310638065624744	0.7313522886786993
-0.47304534549999744	0.7319298134844774
-0.47298431034374744	0.7324597805962331
-0.47292327518749744	0.7329421351999523
-0.47286224003124744	0.7333768524714273
-0.47280120487499744	0.7337638963010187
-0.47274016971874744	0.7341031969921498
-0.47267913456249744	0.7343947303186669
-0.47261809940624744	0.7346384944004132
-0.47255706424999744	0.7348344327824611
-0.47249602909374744	0.7349825068652259
-0.47243499393749744	0.7350827204765332
-0.47237395878124744	0.7351350402591933
-0.47231292362499744	0.7351394309143768
-0.47225188846874744	0.7350959086995467
-0.47219085331249744	0.7350044713825516
-0.47212981815624744	0.7348650762539091
-0.47206878299999744	0.7346777286333251
-0.47200774784374744	0.7344424630825558
-0.47194671268749744	0.7341592589230793
-0.47188567753124744	0.7338281082169518
-0.47182464237499744	0.7334490556010076
-0.47176360721874744	0.7330220947564954
-0.47170257206249744	0.7325471871888241
-0.47164153690624744	0.7320243767730024
-0.47158050174999744	0.7314537251193937
-0.47151946659374744	0.730835226583416
-0.47145843143749744	0.7301688985308591
-0.47139739628124744	0.729454787135954
-0.47133636112499744	0.7286928961592598
-0.47127532596874744	0.7278832564875863
-0.47121429081249744	0.727025942153162
-0.47115325565624744	0.7261209889662474
-0.47109222049999744	0.7251684163392275
-0.47103118534374744	0.7241682679343906
-0.47097015018749744	0.7231205899181701
-0.47090911503124744	0.7220254432230461
-0.47084807987499744	0.7208829112310128
-0.47078704471874744	0.7196930536303192
-0.47072600956249744	0.7184559109395849
-0.47066497440624744	0.7171715481845294
-0.47060393924999744	0.7158400410503497
-0.47054290409374744	0.7144614579483907
-0.47048186893749744	0.7130358793416406
-0.47042083378124744	0.7115634004306484
-0.47035979862499744	0.7100441105643157
-0.47029876346874744	0.7084780795623523
-0.47023772831249744	0.7068653701676572
-0.47017669315624744	0.7052060663180508
