Time	Frequency
-0.500045773062503	1.3365595240755926e-22
-0.499984737906253	1.3199283331192906e-22
-0.499923702750003	1.30280249615664e-22
-0.499862667593753	1.2851214989761944e-22
-0.499801632437503	1.266870595650263e-22
-0.499740597281253	1.2480816153865547e-22
-0.499679562125003	1.228829239844636e-22
-0.499618526968753	1.2092232156977093e-22
-0.499557491812503	1.1893973660075968e-22
-0.499496456656253	1.1694964916071807e-22
-0.499435421500003	1.1496624481591734e-22
-0.499374386343753	1.1300207780846952e-22
-0.499313351187503	1.110669179171584e-22
-0.499252316031253	1.0916688986406454e-22
-0.499191280875003	1.0730398375439732e-22
-0.499130245718753	1.0547597391621136e-22
-0.499069210562503	1.0367674328603919e-22
-0.499008175406253	1.0189697302410131e-22
-0.498947140250003	1.0012512379442747e-22
-0.498886105093753	9.834860738572828e-23
-0.498825069937503	9.655502907892713e-23
-0.498764034781253	9.473337880612018e-23
-0.498702999625003	9.287505621609086e-23
-0.498641964468753	9.097463415334084e-23
-0.498580929312503	8.903029733840326e-23
-0.498519894156253	8.70439219804429e-23
-0.498458859000003	8.502079438677133e-23
-0.498397823843753	8.296900887382643e-23
-0.498336788687503	8.08986154573082e-23
-0.498275753531253	7.882060392716045e-23
-0.498214718375003	7.674582617395302e-23
-0.498153683218753	7.468396513179128e-23
-0.498092648062503	7.264265081614217e-23
-0.498031612906253	7.062680518203913e-23
-0.497970577750003	6.863827110308197e-23
-0.497909542593753	6.667575156321442e-23
-0.497848507437503	6.473505465477948e-23
-0.497787472281253	6.280961055407255e-23
-0.497726437125003	6.089120253265221e-23
-0.497665401968753	5.89708358566423e-23
-0.497604366812503	5.703965602443245e-23
-0.497543331656253	5.508982337753632e-23
-0.497482296500003	5.311525611071892e-23
-0.497421261343753	5.111217060321153e-23
-0.497360226187503	4.907937599745893e-23
-0.497299191031253	4.7018307147469177e-23
-0.497238155875003	4.493280123897676e-23
-0.497177120718753	4.282864536643493e-23
-0.497116085562503	4.071294547615017e-23
-0.497055050406253	3.859338704442652e-23
-0.496994015250003	3.647746753703753e-23
-0.496932980093753	3.4371775670327065e-23
-0.496871944937503	3.2281383846415697e-23
-0.496810909781253	3.02094122297422e-23
-0.496749874625003	2.81568049341497e-23
-0.496688839468753	2.6122331518018172e-23
-0.496627804312503	2.4102802876688053e-23
-0.496566769156253	2.209347368573039e-23
-0.496505734000003	2.0088586476859362e-23
-0.496444698843753	1.8081997668749e-23
-0.496383663687503	1.6067820718649085e-23
-0.496322628531253	1.4041019681452935e-23
-0.496261593375003	1.1997893590401692e-23
-0.496200558218753	9.936411513072623e-24
-0.496139523062503	7.856371274143355e-24
-0.496078487906253	5.7593659790380435e-24
-0.496017452750003	3.6485675575889945e-24
-0.495956417593753	1.5283609616466474e-24
-0.495895382437503	-5.961288375308582e-25
-0.495834347281253	-2.7195691012471462e-24
-0.495773312125003	-4.836953748066705e-24
-0.495712276968753	-6.944085082280238e-24
-0.495651241812503	-9.037958539214947e-24
-0.495590206656253	-1.1117013820473283e-23
-0.495529171500003	-1.3181228895829582e-23
-0.495468136343753	-1.5232053552367483e-23
-0.495407101187503	-1.7272196108503984e-23
-0.495346066031253	-1.9305290623771616e-23
-0.495285030875003	-2.133548206163919e-23
-0.495223995718753	-2.3366972904044675e-23
-0.495162960562503	-2.5403579215802002e-23
-0.495101925406253	-2.7448340980642673e-23
-0.495040890250003	-2.9503223224982663e-23
-0.494979855093753	-3.156893706560991e-23
-0.494918819937503	-3.3644897000242576e-23
-0.494857784781253	-3.572931271095832e-23
-0.494796749625003	-3.781939924802023e-23
-0.494735714468753	-3.9911682389027607e-23
-0.494674679312503	-4.2002367401341133e-23
-0.494613644156253	-4.408772831658764e-23
-0.494552609000003	-4.6164475514275027e-23
-0.494491573843753	-4.8230066468631803e-23
-0.494430538687503	-5.028292996471428e-23
-0.494369503531253	-5.232258444243267e-23
-0.494308468375003	-5.434964144600831e-23
-0.494247433218753	-5.636569537218668e-23
-0.494186398062503	-5.837311426137092e-23
-0.494125362906253	-6.037475690720662e-23
-0.494064327750003	-6.237364851127562e-23
-0.494003292593753	-6.437264971328974e-23
-0.493942257437503	-6.637415236231778e-23
-0.493881222281253	-6.837983190437105e-23
-0.493820187125003	-7.039048048092096e-23
-0.493759151968753	-7.240593803776142e-23
-0.493698116812503	-7.442512562397527e-23
-0.493637081656253	-7.644617123757526e-23
-0.493576046500003	-7.846661358022472e-23
-0.493515011343753	-8.048366303088573e-23
-0.493453976187503	-8.249449032757516e-23
-0.493392941031253	-8.449650956923179e-23
-0.493331905875003	-8.648762591826911e-23
-0.493270870718753	-8.846642684994979e-23
-0.493209835562503	-9.043229896655676e-23
-0.493148800406253	-9.238545705890808e-23
-0.493087765250003	-9.43268863857281e-23
-0.493026730093753	-9.625820745038536e-23
-0.492965694937503	-9.81814770612617e-23
-0.492904659781253	-1.0009894970554179e-22
-0.492843624625003	-1.0201282579215109e-22
-0.492782589468753	-1.0392501067820025e-22
-0.492721554312503	-1.0583690968653634e-22
-0.492660519156253	-1.077492812236907e-22
-0.492599484000003	-1.0966216156178214e-22
-0.492538448843753	-1.1157486697298534e-22
-0.492477413687503	-1.1348607063543067e-22
-0.492416378531253	-1.1539394349393085e-22
-0.492355343375003	-1.172963445265514e-22
-0.492294308218753	-1.191910407167062e-22
-0.492233273062503	-1.2107593033734545e-22
-0.492172237906253	-1.2294924597793894e-22
-0.492111202750003	-1.2480971886681696e-22
-0.492050167593753	-1.2665668756873137e-22
-0.491989132437503	-1.2849014091088009e-22
-0.491928097281253	-1.3031069244926026e-22
-0.491867062125003	-1.3211948976897117e-22
-0.491806026968753	-1.339180706909778e-22
-0.491744991812503	-1.3570818271582673e-22
-0.491683956656253	-1.3749158379828508e-22
-0.491622921500003	-1.392698467311948e-22
-0.491561886343753	-1.410441884538943e-22
-0.491500851187503	-1.4281534045859433e-22
-0.491439816031253	-1.4458347259053813e-22
-0.491378780875003	-1.4634817622876808e-22
-0.491317745718753	-1.4810850664315876e-22
-0.491256710562503	-1.498630808896258e-22
-0.491195675406253	-1.5161022009844459e-22
-0.491134640250003	-1.5334811833270092e-22
-0.491073605093753	-1.5507502088553173e-22
-0.491012569937503	-1.5678939510579373e-22
-0.490951534781253	-1.5849007455782952e-22
-0.490890499625003	-1.6017635985946414e-22
-0.490829464468753	-1.6184806818566426e-22
-0.490768429312503	-1.6350553015345616e-22
-0.490707394156253	-1.6514953474594069e-22
-0.490646359000003	-1.6678122736819563e-22
-0.490585323843753	-1.6840197286296492e-22
-0.490524288687503	-1.70013198651887e-22
-0.490463253531253	-1.7161623478398034e-22
-0.490402218375003	-1.732121687252184e-22
-0.490341183218753	-1.7480172890311784e-22
-0.490280148062503	-1.7638520654434003e-22
-0.490219112906253	-1.7796242430102863e-22
-0.490158077750003	-1.7953275497624886e-22
-0.490097042593753	-1.8109518652850753e-22
-0.490036007437503	-1.8264842470302643e-22
-0.489974972281253	-1.8419102146182302e-22
-0.489913937125003	-1.8572151694064706e-22
-0.489852901968753	-1.8723858026165902e-22
-0.489791866812503	-1.8874113333769428e-22
-0.489730831656253	-1.9022844522215014e-22
-0.489669796500003	-1.9170018814737707e-22
-0.489608761343753	-1.9315645093330979e-22
-0.489547726187503	-1.945977105267919e-22
-0.489486691031253	-1.960247656992817e-22
-0.489425655875003	-1.9743863931281882e-22
-0.489364620718753	-1.988404588538889e-22
-0.489303585562503	-2.0023132806410503e-22
-0.489242550406253	-2.016122047192768e-22
-0.489181515250003	-2.029837987219388e-22
-0.489120480093753	-2.0434649839937192e-22
-0.489059444937503	-2.05700329474196e-22
-0.488998409781253	-2.0704495203035384e-22
-0.488937374625003	-2.0837969616289186e-22
-0.488876339468753	-2.0970363005665632e-22
-0.488815304312503	-2.1101565259401673e-22
-0.488754269156253	-2.1231460187855547e-22
-0.488693234000003	-2.135993679582869e-22
-0.488632198843753	-2.148689964056225e-22
-0.488571163687503	-2.1612277160949216e-22
-0.488510128531253	-2.1736027301461644e-22
-0.488449093375003	-2.1858140046480207e-22
-0.488388058218753	-2.1978636694494645e-22
-0.488327023062503	-2.2097566049763674e-22
-0.488265987906253	-2.2214997938292738e-22
-0.488204952750003	-2.233101467014044e-22
-0.488143917593753	-2.244570146229231e-22
-0.488082882437503	-2.2559136979734443e-22
-0.488021847281253	-2.2671384889431723e-22
-0.487960812125003	-2.2782487119804273e-22
-0.487899776968753	-2.2892459498554353e-22
-0.487838741812503	-2.300129020889066e-22
-0.487777706656253	-2.3108941144891866e-22
-0.487716671500003	-2.321535196695663e-22
-0.487655636343753	-2.332044630493345e-22
-0.487594601187503	-2.342413933419346e-22
-0.487533566031253	-2.3526345952804275e-22
-0.487472530875003	-2.36269887544334e-22
-0.487411495718753	-2.372600496809916e-22
-0.487350460562503	-2.382335164813329e-22
-0.487289425406253	-2.3919008642427227e-22
-0.487228390250003	-2.401297914973806e-22
-0.487167355093753	-2.4105287898368027e-22
-0.487106319937503	-2.4195977206774123e-22
-0.487045284781253	-2.4285101415678566e-22
-0.486984249625003	-2.437272029970381e-22
-0.486923214468753	-2.44588921381354e-22
-0.486862179312503	-2.454366720068774e-22
-0.486801144156253	-2.462708233211098e-22
-0.486740109000003	-2.470915712720811e-22
-0.486679073843753	-2.478989204434484e-22
-0.486618038687503	-2.486926861626913e-22
-0.486557003531253	-2.494725158670215e-22
-0.486495968375003	-2.502379259402029e-22
-0.486434933218753	-2.509883506353731e-22
-0.486373898062503	-2.5172319854164656e-22
-0.486312862906253	-2.524419096552899e-22
-0.486251827750003	-2.531440067498711e-22
-0.486190792593753	-2.5382913615280165e-22
-0.486129757437503	-2.5449709383830556e-22
-0.486068722281253	-2.551478349167844e-22
-0.486007687125003	-2.557814666412032e-22
-0.485946651968753	-2.563982263906569e-22
-0.485885616812503	-2.5699844745070326e-22
-0.485824581656253	-2.57582516282245e-22
-0.485763546500003	-2.5815082588670483e-22
-0.485702511343753	-2.58703730601823e-22
-0.485641476187503	-2.5924150706275335e-22
-0.485580441031253	-2.5976432489703787e-22
-0.485519405875003	-2.6027222972412307e-22
-0.485458370718753	-2.6076513974479355e-22
-0.485397335562503	-2.612428558271212e-22
-0.485336300406253	-2.617050836231618e-22
-0.485275265250003	-2.6215146483000455e-22
-0.485214230093753	-2.6258161385741914e-22
-0.485153194937503	-2.6299515575500076e-22
-0.485092159781253	-2.633917612890351e-22
-0.485031124625003	-2.637711758723895e-22
-0.484970089468753	-2.641332398239416e-22
-0.484909054312503	-2.6447789809941604e-22
-0.484848019156253	-2.64805198809206e-22
-0.484786984000003	-2.6511528120203313e-22
-0.484725948843753	-2.654083548529608e-22
-0.484664913687503	-2.6568467258777703e-22
-0.484603878531253	-2.6594450026270714e-22
-0.484542843375003	-2.6618808663422203e-22
-0.484481808218753	-2.664156364350681e-22
-0.484420773062503	-2.666272894593007e-22
-0.484359737906253	-2.668231074808697e-22
-0.484298702750003	-2.6700306965672464e-22
-0.484237667593753	-2.6716707630512073e-22
-0.484176632437503	-2.6731496046448953e-22
-0.484115597281253	-2.67446506020081e-22
-0.484054562125003	-2.6756147005690905e-22
-0.483993526968753	-2.6765960651477005e-22
-0.483932491812503	-2.677406889167708e-22
-0.483871456656253	-2.6780453045431855e-22
-0.483810421500003	-2.6785099973313565e-22
-0.483749386343753	-2.6788003055073903e-22
-0.483688351187503	-2.6789162471224024e-22
-0.483627316031253	-2.6788584840975303e-22
-0.483566280875003	-2.6786282315075157e-22
-0.483505245718753	-2.678227118932095e-22
-0.483444210562503	-2.67765701946763e-22
-0.483383175406253	-2.6769198668022434e-22
-0.483322140250003	-2.676017474974335e-22
-0.483261105093753	-2.6749513770650197e-22
-0.483200069937503	-2.673722699886548e-22
-0.483139034781253	-2.672332085145274e-22
-0.483077999625003	-2.6707796632886784e-22
-0.483016964468753	-2.669065076232189e-22
-0.482955929312503	-2.667187535275129e-22
-0.482894894156253	-2.6651459074708486e-22
-0.482833859000003	-2.6629388279412095e-22
-0.482772823843753	-2.6605648277695024e-22
-0.482711788687503	-2.658022462446869e-22
-0.482650753531253	-2.6553104266513824e-22
-0.482589718375003	-2.652427649722528e-22
-0.482528683218753	-2.649373368413313e-22
-0.482467648062503	-2.646147166637082e-22
-0.482406612906253	-2.6427489852746067e-22
-0.482345577750003	-2.639179115054297e-22
-0.482284542593753	-2.6354381713105703e-22
-0.482223507437503	-2.6315270516044556e-22
-0.482162472281253	-2.627446888740984e-22
-0.482101437125003	-2.6231990041262105e-22
-0.482040401968753	-2.6187848570047664e-22
-0.481979366812503	-2.614205985524189e-22
-0.481918331656253	-2.609463940703779e-22
-0.481857296500003	-2.604560218172919e-22
-0.481796261343753	-2.599496192020954e-22
-0.481735226187503	-2.5942730489845975e-22
-0.481674191031253	-2.588891718399633e-22
-0.481613155875003	-2.583352804210067e-22
-0.481552120718753	-2.577656534633296e-22
-0.481491085562503	-2.571802732773603e-22
-0.481430050406253	-2.565790802784232e-22
-0.481369015250003	-2.5596197449429246e-22
-0.481307980093753	-2.5532882070835145e-22
-0.481246944937503	-2.546794564462528e-22
-0.481185909781253	-2.54013704294906e-22
-0.481124874625003	-2.533313885351172e-22
-0.481063839468753	-2.5263235243829035e-22
-0.481002804312503	-2.5191647522315807e-22
-0.480941769156253	-2.511836890260526e-22
-0.480880734000003	-2.504339933808746e-22
-0.480819698843753	-2.496674651600338e-22
-0.480758663687503	-2.488842627571377e-22
-0.480697628531253	-2.480846225582721e-22
-0.480636593375003	-2.472688476603034e-22
-0.480575558218753	-2.464372901550581e-22
-0.480514523062503	-2.4559032741817366e-22
-0.480453487906253	-2.4472833382054843e-22
-0.480392452750003	-2.4385165105377443e-22
-0.480331417593753	-2.429605593189284e-22
-0.480270382437503	-2.4205525161446936e-22
-0.480209347281253	-2.4113581454897617e-22
-0.480148312125003	-2.402022174098356e-22
-0.480087276968753	-2.392543116548333e-22
-0.480026241812503	-2.3829184355611785e-22
-0.479965206656253	-2.373144779210753e-22
-0.479904171500003	-2.3632182941090394e-22
-0.479843136343753	-2.3531350047354894e-22
-0.479782101187503	-2.3428912343885633e-22
-0.479721066031253	-2.3324840259082143e-22
-0.479660030875003	-2.321911519782352e-22
-0.479598995718753	-2.311173242068022e-22
-0.479537960562503	-2.300270269625386e-22
-0.479476925406253	-2.289205255942947e-22
-0.479415890250003	-2.277982303365704e-22
-0.479354855093753	-2.266606685274595e-22
-0.479293819937503	-2.2550844492914355e-22
-0.479232784781253	-2.2434219438748166e-22
-0.479171749625003	-2.231625293264901e-22
-0.479110714468753	-2.219699860173078e-22
-0.479049679312503	-2.2076497761973e-22
-0.478988644156253	-2.1954775835294215e-22
-0.478927609000003	-2.183183996380364e-22
-0.478866573843753	-2.1707678289500204e-22
-0.478805538687503	-2.1582261299935435e-22
-0.478744503531253	-2.1455545011083174e-22
-0.478683468375003	-2.1327475575543227e-22
-0.478622433218753	-2.119799498858275e-22
-0.478561398062503	-2.106704727679239e-22
-0.478500362906253	-2.093458447877859e-22
-0.478439327750003	-2.080057203738323e-22
-0.478378292593753	-2.0664993145701829e-22
-0.478317257437503	-2.0527851447067327e-22
-0.478256222281253	-2.0389171770397373e-22
-0.478195187125003	-2.0248998882907491e-22
-0.478134151968753	-2.0107394355777084e-22
-0.478073116812503	-1.9964431692886432e-22
-0.478012081656253	-1.982019009837971e-22
-0.477951046500003	-1.9674747683741003e-22
-0.477890011343753	-1.9528174902805653e-22
-0.477828976187503	-1.9380528633232266e-22
-0.477767941031253	-1.9231847397386746e-22
-0.477706905875003	-1.9082148344074005e-22
-0.477645870718753	-1.893142631036711e-22
-0.477584835562503	-1.8779655064386232e-22
-0.477523800406253	-1.8626790671222438e-22
-0.477462765250003	-1.84727765827629e-22
-0.477401730093753	-1.8317549904080683e-22
-0.477340694937503	-1.8161048313586556e-22
-0.477279659781253	-1.8003217022105244e-22
-0.477218624625003	-1.784401499445719e-22
-0.477157589468753	-1.7683419772890158e-22
-0.477096554312503	-1.7521430547361514e-22
-0.477035519156253	-1.735806911925851e-22
-0.476974484000003	-1.7193378520396841e-22
-0.476913448843753	-1.7027419484027723e-22
-0.476852413687503	-1.6860265266965975e-22
-0.476791378531253	-1.6691995486546975e-22
-0.476730343375003	-1.65226895148902e-22
-0.476669308218753	-1.63524197812311e-22
-0.476608273062503	-1.6181245621979435e-22
-0.476547237906253	-1.6009208591622674e-22
-0.476486202750003	-1.5836329831397167e-22
-0.476425167593753	-1.5662609588723754e-22
-0.476364132437503	-1.5488028638732595e-22
-0.476303097281253	-1.5312551355757605e-22
-0.476242062125003	-1.5136130374877791e-22
-0.476181026968753	-1.4958712427491996e-22
-0.476119991812503	-1.4780244570956172e-22
-0.476058956656253	-1.4600680380327486e-22
-0.475997921500003	-1.4419985690838848e-22
-0.475936886343753	-1.4238142983203534e-22
-0.475875851187503	-1.4055153729041297e-22
-0.475814816031253	-1.3871038774339324e-22
-0.475753780875003	-1.3685836921025708e-22
-0.475692745718753	-1.349960174072657e-22
-0.475631710562503	-1.3312396974938464e-22
-0.475570675406253	-1.3124290981476318e-22
-0.475509640250003	-1.2935350839236796e-22
-0.475448605093753	-1.2745636849768978e-22
-0.475387569937503	-1.2555197833093908e-22
-0.475326534781253	-1.236406766765451e-22
-0.475265499625003	-1.217226350707014e-22
-0.475204464468753	-1.197978573291007e-22
-0.475143429312503	-1.1786619657770046e-22
-0.475082394156253	-1.1592738776873658e-22
-0.475021359000003	-1.1398109114997934e-22
-0.474960323843753	-1.1202694183795776e-22
-0.474899288687503	-1.1006460065077463e-22
-0.474838253531253	-1.0809380169456394e-22
-0.474777218375003	-1.0611439034685946e-22
-0.474716183218753	-1.04126347480106e-22
-0.474655148062503	-1.0212980033230261e-22
-0.474594112906253	-1.0012501815475168e-22
-0.474533077750003	-9.811239101613385e-23
-0.474472042593753	-9.609239486938875e-23
-0.474411007437503	-9.40655491998546e-23
-0.474349972281253	-9.203237439619429e-23
-0.474288937125003	-8.99933505564852e-23
-0.474227901968753	-8.794887884177361e-23
-0.474166866812503	-8.589925270897002e-23
-0.474105831656253	-8.38446435012351e-23
-0.474044796500003	-8.178509868581933e-23
-0.473983761343753	-7.972055268837516e-23
-0.473922726187503	-7.765085230629696e-23
-0.473861691031253	-7.557579306332998e-23
-0.473800655875003	-7.349515894601017e-23
-0.473739620718753	-7.140876215898937e-23
-0.473678585562503	-6.931648005824531e-23
-0.473617550406253	-6.721828249237552e-23
-0.473556515250003	-6.511424622704407e-23
-0.473495480093753	-6.300455887606655e-23
-0.473434444937503	-6.088951216662889e-23
-0.473373409781253	-5.876948201017083e-23
-0.473312374625003	-5.664489745084354e-23
-0.473251339468753	-5.45162032996217e-23
-0.473190304312503	-5.238382195525559e-23
-0.473129269156253	-5.024812052096677e-23
-0.473068234000003	-4.810938507866525e-23
-0.473007198843753	-4.59678021405912e-23
-0.472946163687503	-4.3823451400886145e-23
-0.472885128531253	-4.1676313169018774e-23
-0.472824093375003	-3.9526287428086684e-23
-0.472763058218753	-3.737322053015418e-23
-0.472702023062503	-3.521693948310776e-23
-0.472640987906253	-3.305729022444712e-23
-0.472579952750003	-3.089417113816111e-23
-0.472518917593753	-2.872755783688516e-23
-0.472457882437503	-2.655752102950174e-23
-0.472396847281253	-2.438423696464574e-23
-0.472335812125003	-2.2207985231397954e-23
-0.472274776968753	-2.0029131354224825e-23
-0.472213741812503	-1.7848098850943388e-23
-0.472152706656253	-1.5665337131642456e-23
-0.472091671500003	-1.348128766017775e-23
-0.472030636343753	-1.1296348762694542e-23
-0.471969601187503	-9.110842690061077e-24
-0.471908566031253	-6.924991072556066e-24
-0.471847530875003	-4.738903301591361e-24
-0.471786495718753	-2.5525793664654635e-24
-0.471725460562503	-3.6592639445111808e-25
-0.471664425406253	1.821213882887461e-24
-0.471603390250003	4.009032316280346e-24
-0.471542355093753	6.197717522737104e-24
-0.471481319937503	8.387419272037876e-24
-0.471420284781253	1.0578214346782782e-23
-0.471359249625003	1.2770080491575559e-23
-0.471298214468753	1.4962881587308132e-23
