Time	Frequency
-0.5000076254687507	-0.640928089471168
-0.49994659031250066	-0.6409992491593751
-0.49988555515625066	-0.6410377041821961
-0.49982452000000066	-0.6410508207389188
-0.49976348484375066	-0.6410450813828622
-0.49970244968750066	-0.6410252696912272
-0.49964141453125066	-0.6409939039720951
-0.49958037937500066	-0.6409509861121577
-0.49951934421875066	-0.6408940886638794
-0.49945830906250066	-0.6408187575702192
-0.49939727390625066	-0.6407191665716615
-0.49933623875000066	-0.640588928203037
-0.49927520359375066	-0.640421948975235
-0.49921416843750066	-0.6402132157046629
-0.49915313328125066	-0.6399594126533937
-0.49909209812500066	-0.6396592918570073
-0.49903106296875066	-0.6393137554191519
-0.49897002781250066	-0.638925650660627
-0.49890899265625066	-0.6384993149703494
-0.49884795750000066	-0.6380399396510527
-0.49878692234375066	-0.6375528460845488
-0.49872588718750066	-0.6370427736016107
-0.49866485203125066	-0.6365132724087871
-0.49860381687500066	-0.6359662799652073
-0.49854278171875066	-0.635401932524488
-0.49848174656250066	-0.6348186293743048
-0.49842071140625066	-0.6342133317813787
-0.49835967625000066	-0.6335820463350018
-0.49829864109375066	-0.6329204183505918
-0.49823760593750066	-0.6322243498611709
-0.49817657078125066	-0.6314905571398017
-0.49811553562500066	-0.6307169928611708
-0.49805450046875066	-0.6299030796932927
-0.49799346531250066	-0.6290497305415056
-0.49793243015625066	-0.6281591592173821
-0.49787139500000066	-0.6272345133404478
-0.49781035984375066	-0.626279385424725
-0.49774932468750066	-0.6252972764317797
-0.49768828953125066	-0.6242910945272645
-0.49762725437500066	-0.6232627594040758
-0.49756621921875066	-0.6222129622621558
-0.49750518406250066	-0.6211411130461288
-0.49744414890625066	-0.6200454767512678
-0.49738311375000066	-0.618923471963394
-0.49732207859375066	-0.6177720882718521
-0.49726104343750066	-0.6165883629327278
-0.49720000828125066	-0.6153698430524227
-0.49713897312500066	-0.6141149611631328
-0.49707793796875066	-0.6128232708403132
-0.49701690281250066	-0.61149551221965
-0.49695586765625066	-0.6101334997486435
-0.49689483250000066	-0.6087398484276271
-0.49683379734375066	-0.607317579391567
-0.49677276218750066	-0.6058696651580425
-0.49671172703125066	-0.6043985815455725
-0.49665069187500066	-0.6029059310679207
-0.49658965671875066	-0.6013921923439604
-0.49652862156250066	-0.5998566323398168
-0.49646758640625066	-0.5982974004399826
-0.49640655125000066	-0.5967117959212629
-0.49634551609375066	-0.5950966657091133
-0.49628448093750066	-0.5934488705657106
-0.49622344578125066	-0.5917657563164033
-0.49616241062500066	-0.5900455680473443
-0.49610137546875066	-0.5882877476160416
-0.49604034031250066	-0.5864930659623476
-0.49597930515625066	-0.5846635638321631
-0.49591827000000066	-0.582802306276571
-0.49585723484375066	-0.5809129871872106
-0.49579619968750066	-0.5789994369106395
-0.49573516453125066	-0.5770650991892283
-0.49567412937500066	-0.5751125516133876
-0.49561309421875066	-0.5731431323439137
-0.49555205906250066	-0.5711567260771169
-0.49549102390625066	-0.5691517490404616
-0.49542998875000066	-0.5671253370407181
-0.49536895359375066	-0.5650737101386465
-0.49530791843750066	-0.5629926688930506
-0.49524688328125066	-0.5608781593619713
-0.49518584812500066	-0.5587268339470969
-0.49512481296875066	-0.5565365316966058
-0.49506377781250066	-0.5543066082668443
-0.49500274265625066	-0.5520380685016085
-0.49494170750000066	-0.5497334834040832
-0.49488067234375066	-0.5473966996232248
-0.49481963718750066	-0.5450323774997895
-0.49475860203125066	-0.5426454165749406
-0.49469756687500066	-0.5402403381254185
-0.49463653171875066	-0.5378207019138006
-0.49457549656250066	-0.5353886378809909
-0.49451446140625066	-0.5329445614686797
-0.49445342625000066	-0.5304871097738808
-0.49439239109375066	-0.5280133007445221
-0.49433135593750066	-0.5255188984416492
-0.49427032078125066	-0.5229989473328029
-0.49420928562500066	-0.5204484096707116
-0.49414825046875066	-0.5178628220347653
-0.49408721531250066	-0.5152388820885843
-0.49402618015625066	-0.512574887587582
-0.49396514500000066	-0.5098709779564313
-0.49390410984375066	-0.5071291532191621
-0.49384307468750066	-0.5043530601641905
-0.49378203953125066	-0.501547565882355
-0.49372100437500066	-0.49871817683077946
-0.49365996921875066	-0.4958703746803063
-0.49359893406250066	-0.49300894722639066
-0.49353789890625066	-0.490137402289266
-0.49347686375000066	-0.4872575413378366
-0.49341582859375066	-0.48436924783843116
-0.49335479343750066	-0.48147051519387357
-0.49329375828125066	-0.4785577049588812
-0.49323272312500066	-0.4756260037821921
-0.49317168796875066	-0.4726700271931387
-0.49311065281250066	-0.46968449805493534
-0.49304961765625066	-0.46666491118617953
-0.49298858250000066	-0.4636080945206148
-0.49292754734375066	-0.4605126030928587
-0.49286651218750066	-0.45737890793412744
-0.49280547703125066	-0.4542093545216482
-0.49274444187500066	-0.4510078889240381
-0.49268340671875066	-0.4477795860712193
-0.49262237156250066	-0.44453004459110684
-0.49256133640625066	-0.4412647263408828
-0.49250030125000066	-0.4379883216409191
-0.49243926609375066	-0.4347042163961312
-0.49237823093750066	-0.4314141196546271
-0.49231719578125066	-0.4281178918573176
-0.49225616062500066	-0.4248135971178431
-0.49219512546875066	-0.421497773462192
-0.49213409031250066	-0.4181658842948162
-0.49207305515625066	-0.41481289232299406
-0.49201202000000066	-0.4114338801858181
-0.49195098484375066	-0.4080246432586642
-0.49188994968750066	-0.4045821915310181
-0.49182891453125066	-0.40110509865153077
-0.49176787937500066	-0.39759365579312295
-0.49170684421875066	-0.39404982470821764
-0.49164580906250066	-0.3904769952209327
-0.49158477390625066	-0.3868795698750443
-0.49152373875000066	-0.3832624429116504
-0.49146270359375066	-0.3796304464766068
-0.49140166843750066	-0.37598781327317254
-0.49134063328125066	-0.37233771754352474
-0.49127959812500066	-0.3686819617425673
-0.49121856296875066	-0.3650208337740764
-0.49115752781250066	-0.3613531328873026
-0.49109649265625066	-0.3576763638029153
-0.49103545750000066	-0.3539870832723481
-0.49097442234375066	-0.350281352094487
-0.49091338718750066	-0.3465552248347149
-0.49085235203125066	-0.342805216250491
-0.49079131687500066	-0.3390286987017301
-0.49073028171875066	-0.3352241873591268
-0.49066924656250066	-0.3313914794494799
-0.49060821140625066	-0.32753164079351293
-0.49054717625000066	-0.3236468532081543
-0.49048614109375066	-0.3197401428054606
-0.49042510593750066	-0.3158150230433931
-0.49036407078125066	-0.31187510009660735
-0.49030303562500066	-0.307923686631666
-0.49024200046875066	-0.3039634655328507
-0.49018096531250066	-0.29999624285151627
-0.49011993015625066	-0.29602281794270063
-0.49005889500000066	-0.29204297463807305
-0.48999785984375066	-0.28805558097360157
-0.48993682468750066	-0.2840587803838294
-0.48987578953125066	-0.28005025344054474
-0.48981475437500066	-0.2760275239748212
-0.48975371921875066	-0.2719882672326609
-0.48969268406250066	-0.2679305754246702
-0.48963164890625066	-0.26385315626274514
-0.48957061375000066	-0.2597554484019006
-0.48950957859375066	-0.2556376472844775
-0.48944854343750066	-0.2515006526711079
-0.48938750828125066	-0.24734594923850467
-0.48932647312500066	-0.24317542843048462
-0.48926543796875066	-0.23899117211295165
-0.48920440281250066	-0.23479523084238074
-0.48914336765625066	-0.2305894281174327
-0.48908233250000066	-0.2263752099782749
-0.48902129734375066	-0.22215354679262478
-0.48896026218750066	-0.21792489071001095
-0.48889922703125066	-0.21368919051059443
-0.48883819187500066	-0.20944595891080278
-0.48877715671875066	-0.20519438374290888
-0.48871612156250066	-0.20093346615222857
-0.48865508640625066	-0.19666216345689885
-0.48859405125000066	-0.1923795238340248
-0.48853301609375066	-0.18808480147579204
-0.48847198093750066	-0.18377753773506697
-0.48841094578125066	-0.17945760268185318
-0.48834991062500066	-0.1751251998617761
-0.48828887546875066	-0.17078083794407128
-0.48822784031250066	-0.16642526969747473
-0.48816680515625066	-0.16205940349086975
-0.48810577000000066	-0.15768420520686482
-0.48804473484375066	-0.15330060668557502
-0.48798369968750066	-0.1489094268724982
-0.48792266453125066	-0.14451131388745542
-0.48786162937500066	-0.14010671594573448
-0.48780059421875066	-0.1356958759475996
-0.48773955906250066	-0.13127884489854053
-0.48767852390625066	-0.1268555202445705
-0.48761748875000066	-0.12242570388563796
-0.48755645359375066	-0.11798916430718268
-0.48749541843750066	-0.11354569656903478
-0.48743438328125066	-0.10909517672010018
-0.48737334812500066	-0.10463760376947624
-0.48731231296875066	-0.10017312239277512
-0.48725127781250066	-0.09570202338681547
-0.48719024265625066	-0.09122472017783939
-0.48712920750000066	-0.08674170305400129
-0.48706817234375066	-0.0822534853897576
-0.48700713718750066	-0.07776055274599233
-0.48694610203125066	-0.07326331654163433
-0.48688506687500066	-0.0687620799381417
-0.48682403171875066	-0.06425702388231691
-0.48676299656250066	-0.05974821575711997
-0.48670196140625066	-0.05523563803456695
-0.48664092625000066	-0.05071922958354293
-0.48657989109375066	-0.04619893123605651
-0.48651885593750066	-0.04167472829721651
-0.48645782078125066	-0.037146687309285775
-0.48639678562500066	-0.03261498317567612
-0.48633575046875066	-0.02807991033150613
-0.48627471531250066	-0.023541880757428305
-0.48621368015625066	-0.019001409358329585
-0.48615264500000066	-0.014459075205992567
-0.48609160984375066	-0.009915462813116033
-0.48603057468750066	-0.005371106224171539
-0.48596953953125066	-0.000826444057267092
-0.48590850437500066	0.0037182196787790525
-0.48584746921875066	0.008262741723029512
-0.48578643406250066	0.01280713821520822
-0.48572539890625066	0.01735155706214751
-0.48566436375000066	0.021896233588920705
-0.48560332859375066	0.026441433909287493
-0.48554229343750066	0.030987392219069616
-0.48548125828125066	0.035534249413863725
-0.48542022312500066	0.040082000131507665
-0.48535918796875066	0.04463045636991034
-0.48529815281250066	0.04917923463102925
-0.48523711765625066	0.053727771976476324
-0.48517608250000066	0.05827536801426791
-0.48511504734375066	0.06282124269483245
-0.48505401218750066	0.06736460230595696
-0.48499297703125066	0.07190470968613727
-0.48493194187500066	0.07644095272327522
-0.48487090671875066	0.08097289958461681
-0.48480987156250066	0.08550033209083611
-0.48474883640625066	0.09002325273964895
-0.48468780125000066	0.09454186049320015
-0.48462676609375066	0.099056496989363
-0.48456573093750066	0.10356757450794168
-0.48450469578125066	0.1080754990111407
-0.48444366062500066	0.11258059285802056
-0.48438262546875066	0.1170830213139946
-0.48432159031250066	0.12158273908376006
-0.48426055515625066	0.12607947008533907
-0.48419952000000066	0.13057271697624345
-0.48413848484375066	0.13506179284641054
-0.48407744968750066	0.13954587485449357
-0.48401641453125066	0.14402408082246423
-0.48395537937500066	0.1484955593108172
-0.48389434421875066	0.15295957522022818
-0.48383330906250066	0.1574155787293982
-0.48377227390625066	0.16186325024866158
-0.48371123875000066	0.1663025149547492
-0.48365020359375066	0.17073352771808778
-0.48358916843750066	0.1751566296549047
-0.48352813328125066	0.179572276834666
-0.48346709812500066	0.1839809533032794
-0.48340606296875066	0.188383083646073
-0.48334502781250066	0.1927789493265032
-0.48328399265625066	0.19716861287391899
-0.48322295750000066	0.2015518699340487
-0.48316192234375066	0.2059282454406317
-0.48310088718750066	0.21029702714676568
-0.48303985203125066	0.2146573258875926
-0.48297881687500066	0.2190081556364193
-0.48291778171875066	0.22334853043467542
-0.48285674656250066	0.22767757447648956
-0.48279571140625066	0.23199462002419804
-0.48273467625000066	0.23629926954893302
-0.48267364109375066	0.24059142300534736
-0.48261260593750066	0.24487126913570825
-0.48255157078125066	0.2491392375529959
-0.48249053562500066	0.2533959202518663
-0.48242950046875066	0.25764197232154007
-0.48236846531250066	0.2618780034519065
-0.48230743015625066	0.26610447539993914
-0.48224639500000066	0.2703216141865919
-0.48218535984375066	0.2745293454545865
-0.48212432468750066	0.2787272673283509
-0.48206328953125066	0.2829146683037087
-0.48200225437500066	0.287090586115885
-0.48194121921875066	0.2912538996364417
-0.48188018406250066	0.29540344285223236
-0.48181914890625066	0.299538126213473
-0.48175811375000066	0.3036570505632331
-0.48169707859375066	0.3077595993454633
-0.48163604343750066	0.3118454962551744
-0.48157500828125066	0.3159148197102009
-0.48151397312500066	0.31996797251546577
-0.48145293796875066	0.3240056117508162
-0.48139190281250066	0.32802854434588574
-0.48133086765625066	0.332037600653016
-0.48126983250000066	0.3360335066711426
-0.48120879734375066	0.34001676882988874
-0.48114776218750066	0.3439875824895162
-0.48108672703125066	0.3479457773339612
-0.48102569187500066	0.35189080863160177
-0.48096465671875066	0.3558217984875154
-0.48090362156250066	0.35973762063302817
-0.48084258640625066	0.36363701438217994
-0.48078155125000066	0.367518715358469
-0.48072051609375066	0.37138159080497063
-0.48065948093750066	0.37522476179337266
-0.48059844578125066	0.3790476914663029
-0.48053741062500066	0.38285022629605314
-0.48047637546875066	0.38663258930916533
-0.48041534031250066	0.39039533063495024
-0.48035430515625066	0.39413924046451143
-0.48029327000000066	0.39786522936442487
-0.48023223484375066	0.40157418885264934
-0.48017119968750066	0.4052668537554975
-0.48011016453125066	0.40894368792835706
-0.48004912937500066	0.41260480493519364
-0.47998809421875066	0.4162499287476742
-0.47992705906250066	0.4198784028635245
-0.47986602390625066	0.4234892501588609
-0.47980498875000066	0.4270812742394373
-0.47974395359375066	0.4306531883612103
-0.47968291843750066	0.43420375649001874
-0.47962188328125066	0.4377319300860662
-0.47956084812500066	0.4412369591113219
-0.47949981296875066	0.44471845933184806
-0.47943877781250066	0.44817643371936666
-0.47937774265625066	0.4516112499025559
-0.47931670750000066	0.4550235716937975
-0.47925567234375066	0.4584142506042727
-0.47919463718750066	0.46178419461523057
-0.47913360203125066	0.4651342321690073
-0.47907256687500066	0.46846498524364216
-0.47901153171875066	0.4717767676353291
-0.47895049656250066	0.47506952549681697
-0.47888946140625066	0.47834282615289503
-0.47882842625000066	0.4815958926371673
-0.47876739109375066	0.48482768274542365
-0.47870635593750066	0.4880370058457127
-0.47864532078125066	0.49122265780876473
-0.47858428562500066	0.4943835553497499
-0.47852325046875066	0.49751885621633596
-0.47846221531250066	0.5006280454119887
-0.47840118015625066	0.5037109746452796
-0.47834014500000066	0.5067678580718818
-0.47827910984375066	0.5097992263154764
-0.47821807468750066	0.512805838015407
-0.47815703953125066	0.5157885577416513
-0.47809600437500066	0.5187482203496366
-0.47803496921875066	0.5216855014049849
-0.47797393406250066	0.5246008084834606
-0.47791289890625066	0.5274942089296276
-0.47785186375000066	0.5303654044693736
-0.47779082859375066	0.5332137539386523
-0.47772979343750066	0.5360383402723781
-0.47766875828125066	0.5388380728444991
-0.47760772312500066	0.5416118129009961
-0.47754668796875066	0.5443585071339718
-0.47748565281250066	0.5470773101059595
-0.47742461765625066	0.5497676775909377
-0.47736358250000066	0.552429420816054
-0.47730254734375066	0.5550627145273456
-0.47724151218750066	0.5576680526806144
-0.47718047703125066	0.5602461584598979
-0.47711944187500066	0.5627978676336304
-0.47705840671875066	0.5653240001032568
-0.47699737156250066	0.5678252307708865
-0.47693633640625066	0.5703019768430507
-0.47687530125000066	0.5727543209672267
-0.47681426609375066	0.5751819823242044
-0.47675323093750066	0.5775843385600926
-0.47669219578125066	0.5799604961638021
-0.47663116062500066	0.582309399187375
-0.47657012546875066	0.5846299590693573
-0.47650909031250066	0.5869211887312005
-0.47644805515625066	0.5891823234198102
-0.47638702000000066	0.5914129098495979
-0.47632598484375066	0.5936128511528889
-0.47626494968750066	0.5957824024266212
-0.47620391453125066	0.5979221178384013
-0.47614287937500066	0.6000327570737739
-0.47608184421875066	0.6021151630006872
-0.47602080906250066	0.6041701262467118
-0.47595977390625066	0.6061982583963069
-0.47589873875000066	0.6081998933764429
-0.47583770359375066	0.6101750268849927
-0.47577666843750066	0.6121233011395647
-0.47571563328125066	0.6140440411353902
-0.47565459812500066	0.6159363375450226
-0.47559356296875066	0.6177991612317555
-0.47553252781250066	0.6196314931802294
-0.47547149265625066	0.6214324542943813
-0.47541045750000066	0.6232014167239618
-0.47534942234375066	0.6249380782451748
-0.47528838718750066	0.626642489715629
-0.47522735203125066	0.628315033798336
-0.47516631687500066	0.6299563571033178
-0.47510528171875066	0.631567264656672
-0.47504424656250066	0.6331485927673345
-0.47498321140625066	0.6347010791382116
-0.47492217625000066	0.6362252484041747
-0.47486114109375066	0.637721328478012
-0.47480010593750066	0.6391892086521956
-0.47473907078125066	0.640628445196936
-0.47467803562500066	0.6420383139690033
-0.47461700046875066	0.6434179014486295
-0.47455596531250066	0.6447662203820046
-0.47449493015625066	0.6460823349865712
-0.47443389500000066	0.6473654782340432
-0.47437285984375066	0.6486151441970778
-0.47431182468750066	0.6498311442907573
-0.47425078953125066	0.6510136205475505
-0.47418975437500066	0.6521630135551603
-0.47412871921875066	0.653279990453609
-0.47406768406250066	0.6543653441582358
-0.47400664890625066	0.6554198781229377
-0.47394561375000066	0.6564442927950623
-0.47388457859375066	0.6574390884603317
-0.47382354343750066	0.6584044962491298
-0.47376250828125066	0.6593404456518919
-0.47370147312500066	0.6602465718224915
-0.47364043796875066	0.6611222606589041
-0.47357940281250066	0.6619667248589257
-0.47351836765625066	0.6627791001161376
-0.47345733250000066	0.6635585481327037
-0.47339629734375066	0.6643043529423354
-0.47333526218750066	0.6650159993200379
-0.47327422703125066	0.6656932249070774
-0.47321319187500066	0.6663360401696675
-0.47315215671875066	0.6669447143833214
-0.47309112156250066	0.6675197317429528
-0.47303008640625066	0.668061725393946
-0.47296905125000066	0.6685713973831748
-0.47290801609375066	0.6690494327734724
-0.47284698093750066	0.6694964174207202
-0.47278594578125066	0.6699127697714752
-0.47272491062500066	0.6702986949242301
-0.47266387546875066	0.6706541635330484
-0.47260284031250066	0.6709789152798428
-0.47254180515625066	0.6712724873073838
-0.47248077000000066	0.6715342648364037
-0.47241973484375066	0.6717635467000309
-0.47235869968750066	0.6719596183795178
-0.47229766453125066	0.6721218259843126
-0.47223662937500066	0.6722496444196789
-0.47217559421875066	0.6723427324082042
-0.47211455906250066	0.6724009680720353
-0.47205352390625066	0.672424462995989
-0.47199248875000066	0.6724135534497898
-0.47193145359375066	0.6723687655922359
-0.47187041843750066	0.6722907573432674
-0.47180938328125066	0.6721802462462828
-0.47174834812500066	0.6720379306534762
-0.47168731296875066	0.6718644100730731
-0.47162627781250066	0.67166011335013
-0.47156524265625066	0.6714252445798146
-0.47150420750000066	0.6711597548279908
-0.47144317234375066	0.6708633424049013
-0.47138213718750066	0.6705354797372471
-0.47132110203125066	0.6701754661914443
-0.47126006687500066	0.669782505424374
-0.47119903171875066	0.6693557994735715
-0.47113799656250066	0.6688946483317757
-0.47107696140625066	0.6683985414015176
-0.47101592625000066	0.6678672271467831
-0.47095489109375066	0.6673007528658578
-0.47089385593750066	0.666699470269221
-0.47083282078125066	0.6660640051111988
-0.47077178562500066	0.6653951922401234
-0.47071075046875066	0.6646939802031574
-0.47064971531250066	0.6639613160042338
-0.47058868015625066	0.6631980266050356
-0.47052764500000066	0.6624047129610151
-0.47046660984375066	0.6615816688656199
-0.47040557468750066	0.6607288358354437
-0.47034453953125066	0.659845801738448
-0.47028350437500066	0.6589318440824624
-0.47022246921875066	0.6579860158840838
-0.47016143406250066	0.6570072668084904
-0.47010039890625066	0.6559945831701077
