Time	Frequency
-0.5000482908750001	-0.6044229870897215
-0.49998725571875013	-0.6036181347153788
-0.49992622056250013	-0.602787963325232
-0.49986518540625013	-0.601932972492872
-0.49980415025000013	-0.6010528434746603
-0.49974311509375013	-0.6001466649477007
-0.49968207993750013	-0.599213576366591
-0.49962104478125013	-0.598253380525901
-0.49956000962500013	-0.5972667084945635
-0.49949897446875013	-0.5962546227434782
-0.49943793931250013	-0.5952179200669551
-0.49937690415625013	-0.5941566123919253
-0.49931586900000013	-0.5930699447447645
-0.49925483384375013	-0.5919569340198363
-0.49919379868750013	-0.590817050672413
-0.49913276353125013	-0.5896505801875663
-0.49907172837500013	-0.5884584470222621
-0.49901069321875013	-0.5872416391324418
-0.49894965806250013	-0.5860006031738378
-0.49888862290625013	-0.584734997831232
-0.49882758775000013	-0.5834439553730895
-0.49876655259375013	-0.582126663746618
-0.49870551743750013	-0.580782902788117
-0.49864448228125013	-0.5794132058082004
-0.49858344712500013	-0.57801854242587
-0.49852241196875013	-0.5765997311611571
-0.49846137681250013	-0.5751569722128796
-0.49840034165625013	-0.5736897914820382
-0.49833930650000013	-0.5721973940830288
-0.49827827134375013	-0.5706791856828021
-0.49821723618750013	-0.5691351437160632
-0.49815620103125013	-0.5675658257993265
-0.49809516587500013	-0.565972038293458
-0.49803413071875013	-0.5643543859103396
-0.49797309556250013	-0.5627129805850317
-0.49791206040625013	-0.5610474676692918
-0.49785102525000013	-0.5593573140682999
-0.49778999009375013	-0.5576421504831102
-0.49772895493750013	-0.5559019662297643
-0.49766791978125013	-0.5541370991454164
-0.49760688462500013	-0.5523480667561204
-0.49754584946875013	-0.5505353249677463
-0.49748481431250013	-0.5486990851645732
-0.49742377915625013	-0.5468392779341744
-0.49736274400000013	-0.5449556452759634
-0.49730170884375013	-0.543047907414308
-0.49724067368750013	-0.5411159306045079
-0.49717963853125013	-0.5391598061902041
-0.49711860337500013	-0.5371798302267423
-0.49705756821875013	-0.5351764167595385
-0.49699653306250013	-0.5331499513935241
-0.49693549790625013	-0.5311006330825224
-0.49687446275000013	-0.52902838582185
-0.49681342759375013	-0.5269329057419869
-0.49675239243750013	-0.5248138690655231
-0.49669135728125013	-0.522671191812585
-0.49663032212500013	-0.5205051417306703
-0.49656928696875013	-0.5183162293888557
-0.49650825181250013	-0.5161049667633804
-0.49644721665625013	-0.5138716226944815
-0.49638618150000013	-0.5116161107765854
-0.49632514634375013	-0.5093380847952881
-0.49626411118750013	-0.5070371874569041
-0.49620307603125013	-0.504713319684342
-0.49614204087500013	-0.5023667631217346
-0.49608100571875013	-0.4999980672207656
-0.49601997056250013	-0.49760777901636816
-0.49595893540625013	-0.49519616715217296
-0.49589790025000013	-0.49276310590914796
-0.49583686509375013	-0.4903082155092298
-0.49577582993750013	-0.48783117232336154
-0.49571479478125013	-0.4853319723097217
-0.49565375962500013	-0.4828109715570728
-0.49559272446875013	-0.48026870535293287
-0.49553168931250013	-0.4777056168210297
-0.49547065415625013	-0.4751218626092535
-0.49540961900000013	-0.47251731801445285
-0.49534858384375013	-0.46989173953268953
-0.49528754868750013	-0.4672449619368378
-0.49522651353125013	-0.4645770468240577
-0.49516547837500013	-0.4618882996844018
-0.49510444321875013	-0.45917912674451866
-0.49504340806250013	-0.45644983637626907
-0.49498237290625013	-0.4537005368415561
-0.49492133775000013	-0.4509311888124826
-0.49486030259375013	-0.4481417388776756
-0.49479926743750013	-0.44533222306156733
-0.49473823228125013	-0.4425027831582817
-0.49467719712500013	-0.43965359878177623
-0.49461616196875013	-0.43678480745818754
-0.49455512681250013	-0.4338965042091494
-0.49449409165625013	-0.43098880173544574
-0.49443305650000013	-0.42806187204187585
-0.49437202134375013	-0.42511593677486853
-0.49431098618750013	-0.42215119676512375
-0.49424995103125013	-0.4191677485246713
-0.49418891587500013	-0.41616556514573005
-0.49412788071875013	-0.4131445671612847
-0.49406684556250013	-0.4101047580280559
-0.49400581040625013	-0.4070463295098705
-0.49394477525000013	-0.4039696483317821
-0.49388374009375013	-0.4008751212086465
-0.49382270493750013	-0.3977630022066448
-0.49376166978125013	-0.39463327946852295
-0.49370063462500013	-0.3914857458661812
-0.49363959946875013	-0.38832020840309656
-0.49357856431250013	-0.3851366945010464
-0.49351752915625013	-0.38193550735113774
-0.49345649400000013	-0.3787171030916828
-0.49339545884375013	-0.37548190510981494
-0.49333442368750013	-0.37223017209785253
-0.49327338853125013	-0.3689619852670898
-0.49321235337500013	-0.3656773238824921
-0.49315131821875013	-0.3623761296386285
-0.49309028306250013	-0.3590583666853163
-0.49302924790625013	-0.3557241027280225
-0.49296821275000013	-0.3523735134231343
-0.49290717759375013	-0.3490068136227479
-0.49284614243750013	-0.3456242520045986
-0.49278510728125013	-0.3422261224051481
-0.49272407212500013	-0.33881267895890427
-0.49266303696875013	-0.3353840527257456
-0.49260200181250013	-0.33194025668508903
-0.49254096665625013	-0.3284812378590662
-0.49247993150000013	-0.32500698104030484
-0.49241889634375013	-0.32151763147907153
-0.49235786118750013	-0.3180135027454499
-0.49229682603125013	-0.31449494867800004
-0.49223579087500013	-0.3109622319322621
-0.49217475571875013	-0.3074154777571038
-0.49211372056250013	-0.3038546987944134
-0.49205268540625013	-0.30027987256215033
-0.49199165025000013	-0.2966910431163675
-0.49193061509375013	-0.2930883840457571
-0.49186957993750013	-0.28947219893748044
-0.49180854478125013	-0.28584284695847584
-0.49174750962500013	-0.28220060303944716
-0.49168647446875013	-0.27854555938346287
-0.49162543931250013	-0.2748776598350892
-0.49156440415625013	-0.2711968360333315
-0.49150336900000013	-0.26750314619431914
-0.49144233384375013	-0.2637968403463966
-0.49138129868750013	-0.2600783101655005
-0.49132026353125013	-0.2563479313601491
-0.49125922837500013	-0.25260591433845114
-0.49119819321875013	-0.24885227759145798
-0.49113715806250013	-0.24508694781412957
-0.49107612290625013	-0.2413099198874416
-0.49101508775000013	-0.23752137155808387
-0.49095405259375013	-0.23372165253818591
-0.49089301743750013	-0.22991113960904186
-0.49083198228125013	-0.22609005989872646
-0.49077094712500013	-0.2222584478312669
-0.49070991196875013	-0.21841626269243025
-0.49064887681250013	-0.21456355807035674
-0.49058784165625013	-0.2107005631648488
-0.49052680650000013	-0.2068276030484931
-0.49046577134375013	-0.2029449684450122
-0.49040473618750013	-0.1990528446273946
-0.49034370103125013	-0.1951512827356074
-0.49028266587500013	-0.19124025059668248
-0.49022163071875013	-0.1873198090703348
-0.49016059556250013	-0.18339024360705636
-0.49009956040625013	-0.17945197207484836
-0.49003852525000013	-0.17550534652936223
-0.48997749009375013	-0.17155052006970836
-0.48991645493750013	-0.167587431224427
-0.48985541978125013	-0.16361594717235353
-0.48979438462500013	-0.15963608203331925
-0.48973334946875013	-0.15564811862719502
-0.48967231431250013	-0.15165256428071477
-0.48961127915625013	-0.147649946561835
-0.48955024400000013	-0.14364054907164236
-0.48948920884375013	-0.13962429544022878
-0.48942817368750013	-0.1356009016445602
-0.48936713853125013	-0.13157017826293102
-0.48930610337500013	-0.12753226978708085
-0.48924506821875013	-0.1234877034621408
-0.48918403306250013	-0.11943719160249822
-0.48912299790625013	-0.11538127473732511
-0.48906196275000013	-0.11132005655258874
-0.48900092759375013	-0.10725324027042331
-0.48893989243750013	-0.10318045756748262
-0.48887885728125013	-0.09910162746137655
-0.48881782212500013	-0.09501709307436951
-0.48875678696875013	-0.09092751138177031
-0.48869575181250013	-0.08683355558067553
-0.48863471665625013	-0.08273557107808219
-0.48857368150000013	-0.0786334576122447
-0.48851264634375013	-0.07452689274978297
-0.48845161118750013	-0.07041568827457366
-0.48839057603125013	-0.06630000210570096
-0.48832954087500013	-0.062180317913649794
-0.48826850571875013	-0.05805724732117581
-0.48820747056250013	-0.05393124488685991
-0.48814643540625013	-0.04980240591650733
-0.48808540025000013	-0.045670521627861185
-0.48802436509375013	-0.04153537371214491
-0.48796332993750013	-0.03739703527771156
-0.48790229478125013	-0.033255943776777
-0.48784125962500013	-0.029112707061554704
-0.48778022446875013	-0.024967783734944883
-0.48771918931250013	-0.020821270400476922
-0.48765815415625013	-0.016672954422290064
-0.48759711900000013	-0.012522590068509119
-0.48753608384375013	-0.008370213084786441
-0.48747504868750013	-0.00421627133648775
-0.48741401353125013	-6.145461672960953e-05
-0.48735297837500013	0.004093677046521344
-0.48729194321875013	0.008248995319771718
-0.48723090806250013	0.012404780420705315
-0.48716987290625013	0.016561375752238355
-0.48710883775000013	0.020718808393654833
-0.48704780259375013	0.024876649175350287
-0.48698676743750013	0.029034162157429672
-0.48692573228125013	0.033190657909101674
-0.48686469712500013	0.037345866940797535
-0.48680366196875013	0.04150005245882118
-0.48674262681250013	0.04565372189836757
-0.48668159165625013	0.049807134802271474
-0.48662055650000013	0.05395998211158161
-0.48655952134375013	0.058111479173050914
-0.48649848618750013	0.06226079307101051
-0.48643745103125013	0.06640747979931239
-0.48637641587500013	0.0705516493314705
-0.48631538071875013	0.07469377360819154
-0.48625434556250013	0.07883424312529408
-0.48619331040625013	0.08297296366086589
-0.48613227525000013	0.08710930295961104
-0.48607124009375013	0.09124241438165566
-0.48601020493750013	0.09537167488029334
-0.48594916978125013	0.09949696449703944
-0.48588813462500013	0.10361862418274678
-0.48582709946875013	0.10773709378791062
-0.48576606431250013	0.11185249037550192
-0.48570502915625013	0.11596443332458897
-0.48564399400000013	0.12007220207439234
-0.48558295884375013	0.12417511098445777
-0.48552192368750013	0.12827285430219912
-0.48546088853125013	0.13236556843479078
-0.48539985337500013	0.13645358446153907
-0.48533881821875013	0.1405370753179209
-0.48527778306250013	0.14461582071511175
-0.48521674790625013	0.14868923424425365
-0.48515571275000013	0.15275665988050588
-0.48509467759375013	0.15681773188640927
-0.48503364243750013	0.16087251101526445
-0.48497260728125013	0.1649212863499886
-0.48491157212500013	0.16896421157667937
-0.48485053696875013	0.17300106778208443
-0.48478950181250013	0.17703131618906268
-0.48472846665625013	0.18105437174100933
-0.48466743150000013	0.18506989310028502
-0.48460639634375013	0.18907789996754987
-0.48454536118750013	0.19307863185315313
-0.48448432603125013	0.19707224199479487
-0.48442329087500013	0.20105856017069246
-0.48436225571875013	0.205037079577354
-0.48430122056250013	0.20900716657327736
-0.48424018540625013	0.21296838553696873
-0.48417915025000013	0.2169207179996118
-0.48411811509375013	0.2208644782208484
-0.48405707993750013	0.22479995195930044
-0.48399604478125013	0.2287270372062065
-0.48393500962500013	0.23264519505274242
-0.48387397446875013	0.23655372768248473
-0.48381293931250013	0.24045214150282898
-0.48375190415625013	0.24434035315241262
-0.48369086900000013	0.24821862245298315
-0.48362983384375013	0.25208726913418644
-0.48356879868750013	0.25594635222254236
-0.48350776353125013	0.2597955171883284
-0.48344672837500013	0.2636341110836263
-0.48338569321875013	0.2674614861498633
-0.48332465806250013	0.27127731548220413
-0.48326362290625013	0.27508170612409927
-0.48320258775000013	0.2788750092168563
-0.48314155259375013	0.28265746704427513
-0.48308051743750013	0.28642893379938855
-0.48301948228125013	0.2901888676081864
-0.48295844712500013	0.2939366177161443
-0.48289741196875013	0.29767176916448207
-0.48283637681250013	0.30139427872816393
-0.48277534165625013	0.3051043472994161
-0.48271430650000013	0.3088021530037715
-0.48265327134375013	0.3124876291316376
-0.48259223618750013	0.3161604253080956
-0.48253120103125013	0.3198200595148629
-0.48247016587500013	0.32346613756797077
-0.48240913071875013	0.3270985010547448
-0.48234809556250013	0.33071721786744473
-0.48228706040625013	0.33432239148006754
-0.48222602525000013	0.33791393116732843
-0.48216499009375013	0.3414915127877636
-0.48210395493750013	0.3450547444471774
-0.48204291978125013	0.3486033530493542
-0.48198188462500013	0.3521372677780376
-0.48192084946875013	0.3556565689727108
-0.48185981431250013	0.35916131150263525
-0.48179877915625013	0.36265132674132994
-0.48173774400000013	0.3661261856713296
-0.48167670884375013	0.36958539728123957
-0.48161567368750013	0.37302868535563966
-0.48155463853125013	0.376456102592588
-0.48149360337500013	0.37986789189582704
-0.48143256821875013	0.3832642047524391
-0.48137153306250013	0.38664486280241683
-0.48131049790625013	0.39000933832532375
-0.48124946275000013	0.3933570073578706
-0.48118842759375013	0.39668749683182464
-0.48112739243750013	0.4000008645632496
-0.48106635728125013	0.40329747381305453
-0.48100532212500013	0.40657763373821804
-0.48094428696875013	0.4098412651808426
-0.48088325181250013	0.41308783682611816
-0.48082221665625013	0.4163166223849927
-0.48076118150000013	0.41952710337421245
-0.48070014634375013	0.4227192311589646
-0.48063911118750013	0.4258933645498314
-0.48057807603125013	0.4290499190970713
-0.48051704087500013	0.43218897123109873
-0.48045600571875013	0.43531010370057205
-0.48039497056250013	0.4384126019532835
-0.48033393540625013	0.4414958629160696
-0.48027290025000013	0.44455972463212784
-0.48021186509375013	0.44760448125971164
-0.48015082993750013	0.4506305625035958
-0.48008979478125013	0.4536381086323718
-0.48002875962500013	0.4566267807459089
-0.47996772446875013	0.4595959255390688
-0.47990668931250013	0.46254493581099987
-0.47984565415625013	0.4654735782542711
-0.47978461900000013	0.46838206868270016
-0.47972358384375013	0.47127081694758066
-0.47966254868750013	0.4741400345279934
-0.47960151353125013	0.4769894950691446
-0.47954047837500013	0.479818600791245
-0.47947944321875013	0.4826267065953169
-0.47941840806250013	0.48541349219606883
-0.47935737290625013	0.4881791122789668
-0.47929633775000013	0.4909239996350412
-0.47923530259375013	0.49364846638556015
-0.47917426743750013	0.49635238253189173
-0.47911323228125013	0.49903515658817077
-0.47905219712500013	0.5016960565189484
-0.47899116196875013	0.5043346514311031
-0.47893012681250013	0.5069510462440737
-0.47886909165625013	0.5095457384451577
-0.47880805650000013	0.5121191865168045
-0.47874702134375013	0.514671380043581
-0.47868598618750013	0.5172017298160871
-0.47862495103125013	0.5197093796692938
-0.47856391587500013	0.5221937320200098
-0.47850288071875013	0.5246548145196298
-0.47844184556250013	0.5270932068730217
-0.47838081040625013	0.5295095587546231
-0.47831977525000013	0.531904042510917
-0.47825874009375013	0.534276132942926
-0.47819770493750013	0.5366248681358152
-0.47813666978125013	0.5389494319954642
-0.47807563462500013	0.5412496738825213
-0.47801459946875013	0.5435261731324817
-0.47795356431250013	0.5457797710267386
-0.47789252915625013	0.5480109049833056
-0.47783149400000013	0.5502192116414656
-0.47777045884375013	0.5524036700280461
-0.47770942368750013	0.554563214038797
-0.47764838853125013	0.5566974140239495
-0.47758735337500013	0.5588067390833685
-0.47752631821875013	0.5608921945537111
-0.47746528306250013	0.5629545753753266
-0.47740424790625013	0.5649938438607565
-0.47734321275000013	0.5670090519655134
-0.47728217759375013	0.5689988750072007
-0.47722114243750013	0.5709624234149948
-0.47716010728125013	0.572899788583312
-0.47709907212500013	0.5748119491888548
-0.47703803696875013	0.5767001029114922
-0.47697700181250013	0.578564847375285
-0.47691596665625013	0.5804057235932082
-0.47685493150000013	0.5822214282533729
-0.47679389634375013	0.5840105700086877
-0.47673286118750013	0.5857724817049912
-0.47667182603125013	0.5875075724569604
-0.47661079087500013	0.5892170081734139
-0.47654975571875013	0.5909019374903661
-0.47648872056250013	0.5925627474080534
-0.47642768540625013	0.5941987982890555
-0.47636665025000013	0.5958087899312027
-0.47630561509375013	0.5973915214975226
-0.47624457993750013	0.598946576664876
-0.47618354478125013	0.6004745106802922
-0.47612250962500013	0.6019764193625088
-0.47606147446875013	0.6034531768355511
-0.47600043931250013	0.604904843554677
-0.47593940415625013	0.6063306183523127
-0.47587836900000013	0.6077293508113348
-0.47581733384375013	0.6091002649940406
-0.47575629868750013	0.6104434072044773
-0.47569526353125013	0.6117595267237874
-0.47563422837500013	0.6130494877374681
-0.47557319321875013	0.6143136239398054
-0.47551215806250013	0.6155514847617081
-0.47545112290625013	0.6167621457747502
-0.47539008775000013	0.6179448453939218
-0.47532905259375013	0.6190994810726398
-0.47526801743750013	0.62022661480544
-0.47520698228125013	0.6213269940197707
-0.47514594712500013	0.6224009465493626
-0.47508491196875013	0.6234481027973515
-0.47502387681250013	0.6244676443527026
-0.47496284165625013	0.6254588818880947
-0.47490180650000013	0.6264217322998098
-0.47484077134375013	0.6273567427707976
-0.47477973618750013	0.6282646419652301
-0.47471870103125013	0.629145754110111
-0.47465766587500013	0.6299997168679521
-0.47459663071875013	0.630825715729212
-0.47453559556250013	0.6316230589076045
-0.47447456040625013	0.6323916592251401
-0.47441352525000013	0.6331320604883165
-0.47435249009375013	0.6338449901310089
-0.47429145493750013	0.634530778479512
-0.47423041978125013	0.6351890887528099
-0.47416938462500013	0.6358191634028614
-0.47410834946875013	0.6364203919927154
-0.47404731431250013	0.6369927534389339
-0.47398627915625013	0.6375367832521524
-0.47392524400000013	0.6380530974136778
-0.47386420884375013	0.6385418597633252
-0.47380317368750013	0.6390026256826903
-0.47374213853125013	0.6394346936875062
-0.47368110337500013	0.6398376779428043
-0.47362006821875013	0.6402118262977631
-0.47355903306250013	0.6405578124529857
-0.47349799790625013	0.6408761582100199
-0.47343696275000013	0.6411667505527894
-0.47337592759375013	0.6414288615609489
-0.47331489243750013	0.6416616869455751
-0.47325385728125013	0.6418649893289708
-0.47319282212500013	0.6420393252209977
-0.47313178696875013	0.642185652612246
-0.47307075181250013	0.6423045981142725
-0.47300971665625013	0.6423959331315303
-0.47294868150000013	0.6424586716019084
-0.47288764634375013	0.6424917498999748
-0.47282661118750013	0.6424948031258154
-0.47276557603125013	0.6424684657112113
-0.47270454087500013	0.6424139652881061
-0.47264350571875013	0.6423322684392221
-0.47258247056250013	0.642223362099877
-0.47252143540625013	0.6420862042870554
-0.47246040025000013	0.6419194168082781
-0.47239936509375013	0.641722242494888
-0.47233832993750013	0.6414950959265731
-0.47227729478125013	0.6412393175949956
-0.47221625962500013	0.6409562803487344
-0.47215522446875013	0.6406464451779221
-0.47209418931250013	0.6403090172763728
-0.47203315415625013	0.6399424610120373
-0.47197211900000013	0.6395455441356694
-0.47191108384375013	0.6391181989743919
-0.47185004868750013	0.6386615913211364
-0.47178901353125013	0.6381773355873938
-0.47172797837500013	0.6376664041902861
-0.47166694321875013	0.6371284868426283
-0.47160590806250013	0.6365622275965563
-0.47154487290625013	0.6359661604770506
-0.47148383775000013	0.6353397021568742
-0.47142280259375013	0.6346835316180925
-0.47136176743750013	0.6339991047641113
-0.47130073228125013	0.6332876636646949
-0.47123969712500013	0.6325494380780569
-0.47117866196875013	0.631783557644545
-0.47111762681250013	0.6309886983447539
-0.47105659165625013	0.6301640028548774
-0.47099555650000013	0.6293096408228607
-0.47093452134375013	0.628426647358125
-0.47087348618750013	0.6275161932730674
-0.47081245103125013	0.6265788188644955
-0.47075141587500013	0.6256141454153238
-0.47069038071875013	0.6246212197544497
-0.47062934556250013	0.6235992222017915
-0.47056831040625013	0.6225480291759995
-0.47050727525000013	0.6214682496987568
-0.47044624009375013	0.620360771321965
-0.47038520493750013	0.6192261750616194
-0.47032416978125013	0.6180644137004894
-0.47026313462500013	0.6168749359215087
-0.47020209946875013	0.615657123815274
