Time	Frequency
-0.5000076261250008	0.15246426201881874
-0.4999465909687508	0.15661722821953858
-0.4998855558125008	0.16074746686669725
-0.4998245206562508	0.1648929875427972
-0.4997634855000008	0.1690897311640803
-0.4997024503437508	0.17336915884439266
-0.4996414151875008	0.17775618195188916
-0.4995803800312508	0.18226756714148393
-0.4995193448750008	0.186910913707598
-0.4994583097187508	0.19168426328477464
-0.4993972745625008	0.19657636126109923
-0.4993362394062508	0.2015675413212921
-0.4992752042500008	0.2066311620315009
-0.4992141690937508	0.2117354923082389
-0.4991531339375008	0.2168459125229527
-0.4990920987812508	0.22192727777669055
-0.4990310636250008	0.22694628116878016
-0.4989700284687508	0.2318736520306458
-0.4989089933125008	0.23668603841938274
-0.4988479581562508	0.24136745636758955
-0.4987869230000008	0.24591022014761324
-0.4987258878437508	0.25031529739523595
-0.4986648526875008	0.25459207347853363
-0.4986038175312508	0.2587575505869929
-0.4985427823750008	0.2628350425836361
-0.4984817472187508	0.26685246446940697
-0.4984207120625008	0.27084034489736913
-0.4983596769062508	0.27482970051884187
-0.4982986417500008	0.278849915777699
-0.4982376065937508	0.28292677524720905
-0.4981765714375008	0.28708077860455417
-0.4981155362812508	0.29132584117051596
-0.4980545011250008	0.29566846475941244
-0.4979934659687508	0.30010743363598646
-0.4979324308125008	0.3046340405891509
-0.4978713956562508	0.3092328112743987
-0.4978103605000008	0.3138826759706997
-0.4977493253437508	0.31855850420502474
-0.4976882901875008	0.32323288156627245
-0.4976272550312508	0.32787800076363316
-0.4975662198750008	0.33246754294624636
-0.4975051847187508	0.3369784208555398
-0.4974441495625008	0.34139226125591077
-0.4973831144062508	0.34569653299126313
-0.4973220792500008	0.34988525482444005
-0.4972610440937508	0.3539592415225206
-0.4972000089375008	0.3579258829375761
-0.4971389737812508	0.36179848041372786
-0.4970779386250008	0.36559519039710553
-0.4970169034687508	0.3693376593739923
-0.4969558683125008	0.3730494535831005
-0.4968948331562508	0.3767543919574767
-0.4968337980000008	0.3804748982470915
-0.4967727628437508	0.38423048519010333
-0.4967117276875008	0.38803646989997265
-0.4966506925312508	0.3919030070326577
-0.4965896573750008	0.3958345011327558
-0.4965286222187508	0.399829426289192
-0.4964675870625008	0.4038805568872088
-0.4964065519062508	0.407975585439938
-0.4963455167500008	0.4120980724757235
-0.4962844815937508	0.4162286559050475
-0.4962234464375008	0.42034643679761374
-0.4961624112812508	0.42443044364192606
-0.4961013761250008	0.42846106681972645
-0.4960403409687508	0.43242136168807815
-0.4959793058125008	0.43629813574588666
-0.4959182706562508	0.44008275329758817
-0.4958572355000008	0.4437716078344853
-0.4957962003437508	0.44736623289367117
-0.4957351651875008	0.45087305553619705
-0.4956741300312508	0.45430282251164644
-0.4956130948750008	0.45766973988243864
-0.4955520597187508	0.46099038845683843
-0.4954910245625008	0.46428249962449825
-0.4954299894062508	0.4675636826421757
-0.4953689542500008	0.4708501929934278
-0.4953079190937508	0.4741558248275282
-0.4952468839375008	0.47749100033042824
-0.4951858487812508	0.48086211547553276
-0.4951248136250008	0.48427118343136977
-0.4950637784687508	0.4877157920387403
-0.4950027433125008	0.4911893674639222
-0.4949417081562508	0.49468172026131674
-0.4948806730000008	0.4981798325239488
-0.4948196378437508	0.5016688253027406
-0.4947586026875008	0.5051330323798132
-0.4946975675312508	0.5085571022281478
-0.4946365323750008	0.5119270535257714
-0.4945754972187508	0.5152312100785504
-0.4945144620625008	0.5184609473146939
-0.4944534269062508	0.5216112063415573
-0.4943923917500008	0.5246807493575197
-0.4943313565937508	0.5276721400591653
-0.4942703214375008	0.5305914556644157
-0.4942092862812508	0.5334477608844266
-0.4941482511250008	0.5362523854131749
-0.4940872159687508	0.5390180567654826
-0.4940261808125008	0.5417579547301666
-0.4939651456562508	0.544484760151156
-0.4939041105000008	0.5472097640289718
-0.4938430753437508	0.5499420946637099
-0.4937820401875008	0.5526881140871364
-0.4937210050312508	0.5554510246311846
-0.4936599698750008	0.5582307104053083
-0.4935989347187508	0.5610238180938121
-0.4935378995625008	0.5638240638196438
-0.4934768644062508	0.5666227402126309
-0.4934158292500008	0.5694093839671022
-0.4933547940937508	0.572172551817049
-0.4932937589375008	0.5749006471696986
-0.4932327237812508	0.5775827376451753
-0.4931716886250008	0.5802093057447386
-0.4931106534687508	0.5827728807262362
-0.4930496183125008	0.5852685096197947
-0.4929885831562508	0.5876940389888071
-0.4929275480000008	0.5900501911085749
-0.4928665128437508	0.5923404316528238
-0.4928054776875008	0.5945706440588788
-0.4927444425312508	0.5967486407970063
-0.4926834073750008	0.598883549298483
-0.4926223722187508	0.6009851168098426
-0.4925613370625008	0.6030629866352071
-0.4925003019062508	0.605126000214693
-0.4924392667500008	0.6071815742062107
-0.4923782315937508	0.6092351943697766
-0.4923171964375008	0.6112900594246762
-0.4922561612812508	0.613346897402313
-0.4921951261250008	0.6154039642681406
-0.4921340909687508	0.6174572210039925
-0.4920730558125008	0.6195006717363518
-0.4920120206562508	0.6215268342397618
-0.4919509855000008	0.6235273072997236
-0.4918899503437508	0.6254933925990369
-0.4918289151875008	0.6274167233145617
-0.4917678800312508	0.6292898534530383
-0.4917068448750008	0.6311067671341847
-0.4916458097187508	0.6328632727515043
-0.4915847745625008	0.6345572560291831
-0.4915237394062508	0.6361887774453366
-0.4914627042500008	0.6377600103933578
-0.4914016690937508	0.6392750269255879
-0.4913406339375008	0.6407394499177174
-0.4912795987812508	0.6421600008959343
-0.4912185636250008	0.6435439785694177
-0.4911575284687508	0.6448987066963908
-0.4910964933125008	0.6462309920663386
-0.4910354581562508	0.6475466328673862
-0.4909744230000008	0.6488500122405586
-0.4909133878437508	0.6501438032998058
-0.4908523526875008	0.6514288050747531
-0.4907913175312508	0.6527039202930884
-0.4907302823750008	0.6539662733648932
-0.4906692472187508	0.6552114555482896
-0.4906082120625008	0.6564338767049344
-0.4905471769062508	0.6576271969891818
-0.4904861417500008	0.6587848055522928
-0.4904251065937508	0.6599003092868715
-0.4903640714375008	0.6609679950311516
-0.4903030362812508	0.6619832322940106
-0.4902420011250008	0.6629427883140642
-0.4901809659687508	0.6638450334286554
-0.4901199308125008	0.6646900237301475
-0.4900588956562508	0.6654794578733719
-0.4899978605000008	0.6662165135196856
-0.4899368253437508	0.6669055772967537
-0.4898757901875008	0.6675518903943972
-0.4898147550312508	0.6681611379756235
-0.4897537198750008	0.6687390136936786
-0.4896926847187508	0.6692907916955485
-0.4896316495625008	0.6698209378217047
-0.4895706144062508	0.6703327884271029
-0.4895095792500008	0.6708283192958981
-0.4894485440937508	0.6713080198812628
-0.4893875089375008	0.6717708806424413
-0.4893264737812508	0.6722144928697434
-0.4892654386250008	0.6726352511936181
-0.4892044034687508	0.6730286418992089
-0.4891433683125008	0.6733895951314478
-0.4890823331562508	0.6737128738485869
-0.4890212980000008	0.6739934690851072
-0.4889602628437508	0.6742269711082948
-0.4888992276875008	0.6744098895630805
-0.4888381925312508	0.6745399011699896
-0.4887771573750008	0.6746160068723216
-0.4887161222187508	0.6746385862494196
-0.4886550870625008	0.674609347624168
-0.4885940519062508	0.6745311798015815
-0.4885330167500008	0.6744079170368047
-0.4884719815937508	0.6742440359097059
-0.4884109464375008	0.6740443080398749
-0.4883499112812508	0.6738134355257072
-0.4882888761250008	0.6735556964158083
-0.4882278409687508	0.6732746253277908
-0.4881668058125008	0.6729727525948499
-0.4881057706562508	0.6726514230283552
-0.4880447355000008	0.6723107082429881
-0.4879837003437508	0.6719494161595091
-0.4879226651875008	0.6715651938052184
-0.4878616300312508	0.6711547163512297
-0.4878005948750008	0.6707139494766177
-0.4877395597187508	0.6702384626106267
-0.4876785245625008	0.669723767448057
-0.4876174894062508	0.66916565887485
-0.4875564542500008	0.66856053432379
-0.4874954190937508	0.6679056652535614
-0.4874343839375008	0.6671993997200792
-0.4873733487812508	0.6664412822245782
-0.4873123136250008	0.6656320820673024
-0.4872512784687508	0.6647737299034978
-0.4871902433125008	0.6638691689950911
-0.4871292081562508	0.6629221318167718
-0.4870681730000008	0.6619368584931374
-0.4870071378437508	0.660917777804257
-0.4869461026875008	0.6598691746702099
-0.4868850675312508	0.6587948693123145
-0.4868240323750008	0.6576979326639785
-0.4867629972187508	0.6565804613483249
-0.4867019620625008	0.655443428443923
-0.4866409269062508	0.6542866176299017
-0.4865798917500008	0.6531086454626115
-0.4865188565937508	0.6519070708143653
-0.4864578214375008	0.6506785816590049
-0.4863967862812508	0.6494192466542926
-0.4863357511250008	0.6481248146352064
-0.4862747159687508	0.6467910375055614
-0.4862136808125008	0.6454139917668816
-0.4861526456562508	0.6439903773139753
-0.4860916105000008	0.6425177700913407
-0.4860305753437508	0.6409948057776816
-0.4859695401875008	0.6394212822842129
-0.4859085050312508	0.6377981784502503
-0.4858474698750008	0.6361275896182454
-0.4857864347187508	0.6344125808330967
-0.4857253995625008	0.6326569644036446
-0.4856643644062508	0.6308650235970629
-0.4856033292500008	0.6290412065458876
-0.4855422940937508	0.6271898063176525
-0.4854812589375008	0.6253146478314924
-0.4854202237812508	0.6234188090104417
-0.4853591886250008	0.6215043999850676
-0.4852981534687508	0.6195724161671499
-0.4852371183125008	0.6176226719844135
-0.4851760831562508	0.6156538200462572
-0.4851150480000008	0.6136634574463425
-0.4850540128437508	0.6116483099378462
-0.4849929776875008	0.6096044779430323
-0.4849319425312508	0.6075277240268173
-0.4848709073750008	0.6054137838548985
-0.4848098722187508	0.6032586842416683
-0.4847488370625008	0.6010590415067777
-0.4846878019062508	0.598812314630043
-0.4846267667500008	0.5965169971548187
-0.4845657315937508	0.5941727351895553
-0.4845046964375008	0.5917803640112049
-0.4844436612812508	0.5893418590743726
-0.4843826261250008	0.5868602018511915
-0.4843215909687508	0.5843391717065356
-0.4842605558125008	0.5817830829979391
-0.4841995206562508	0.5791964866309428
-0.4841384855000008	0.5765838529973335
-0.4840774503437508	0.5739492584889434
-0.4840164151875008	0.571296103821949
-0.4839553800312508	0.5686268842304683
-0.4838943448750008	0.5659430208033867
-0.4838333097187508	0.5632447649090541
-0.4837722745625008	0.5605311882947047
-0.4837112394062508	0.557800258529542
-0.4836502042500008	0.5550489895167982
-0.4835891690937508	0.5522736582954115
-0.4835281339375008	0.5494700788376702
-0.4834670987812508	0.5466339120449578
-0.4834060636250008	0.543760983913144
-0.4833450284687508	0.5408475902651194
-0.4832839933125008	0.5378907690933838
-0.4832229581562508	0.5348885198274591
-0.4831619230000008	0.5318399537887571
-0.4831008878437508	0.5287453673594936
-0.4830398526875008	0.5256062348048591
-0.4829788175312508	0.5224251182550699
-0.4829177823750008	0.5192054980255428
-0.4828567472187508	0.5159515393539583
-0.4827957120625008	0.512667814697622
-0.4827346769062508	0.509358998091275
-0.4826736417500008	0.5060295505220658
-0.4826126065937508	0.5026834195011882
-0.4825515714375008	0.4993237755666806
-0.4824905362812508	0.49595280333872227
-0.4824295011250008	0.4925715603833753
-0.4823684659687508	0.48917991470966515
-0.4823074308125008	0.4857765657509461
-0.4822463956562508	0.4823591450005884
-0.4821853605000008	0.4789243905756056
-0.4821243253437508	0.47546838679162406
-0.4820632901875008	0.4719868498706168
-0.4820022550312508	0.46847543704356537
-0.4819412198750008	0.4649300578643305
-0.4818801847187508	0.46134716759000216
-0.4818191495625008	0.4577240215139737
-0.4817581144062508	0.454058871914137
-0.4816970792500008	0.450351099988169
-0.4816360440937508	0.44660127601386373
-0.4815750089375008	0.4428111352265645
-0.4815139737812508	0.4389834681922361
-0.4814529386250008	0.4351219400531088
-0.4813919034687508	0.43123085289046614
-0.4813308683125008	0.4273148633748169
-0.4812698331562508	0.4233786753706874
-0.4812087980000008	0.4194267314836224
-0.4811477628437508	0.41546292635835963
-0.4810867276875008	0.4114903602266774
-0.4810256925312508	0.40751114243527964
-0.4809646573750008	0.40352625918805396
-0.4809036222187508	0.3995355252380445
-0.4808425870625008	0.39553762061251496
-0.4807815519062508	0.3915301982207594
-0.4807205167500008	0.3875100540092815
-0.4806594815937508	0.383473356358882
-0.4805984464375008	0.3794159244535228
-0.4805374112812508	0.37533353376119105
-0.4804763761250008	0.3712222192952207
-0.4804153409687508	0.3670785534675762
-0.4803543058125008	0.3628998871173647
-0.4802932706562508	0.3586845390063681
-0.4802322355000008	0.35443191810193014
-0.4801712003437508	0.3501425751338789
-0.4801101651875008	0.3458181801659726
-0.4800491300312508	0.341461419986951
-0.4799880948750008	0.33707582195138186
-0.4799270597187508	0.3326655247723249
-0.4798660245625008	0.32823501359595886
-0.4798049894062508	0.32378883135789044
-0.4797439542500008	0.3193312871854062
-0.4796829190937508	0.31486618310981984
-0.4796218839375008	0.310396576155094
-0.4795608487812508	0.3059245937724358
-0.4794998136250008	0.30145131321712426
-0.4794387784687508	0.2969767123550589
-0.4793777433125008	0.2924996969623881
-0.4793167081562508	0.28801820165727815
-0.4792556730000008	0.2835293548482047
-0.4791946378437508	0.27902969186829724
-0.4791336026875008	0.27451540554806336
-0.4790725675312508	0.2699826222705788
-0.4790115323750008	0.26542767867504263
-0.4789504972187508	0.2608473781814634
-0.4788894620625008	0.25623921644373426
-0.4788284269062508	0.2516015614320135
-0.4787673917500008	0.24693377013170495
-0.4787063565937508	0.2422362358335733
-0.4786453214375008	0.23751036876731427
-0.4785842862812508	0.23275850507267873
-0.4785232511250008	0.22798375009387956
-0.4784622159687508	0.22318977919136157
-0.4784011808125008	0.21838060675539797
-0.4783401456562508	0.213560331378558
-0.4782791105000008	0.20873287771484908
-0.4782180753437508	0.20390175211515782
-0.4781570401875008	0.19906982885354765
-0.4780960050312508	0.19423918508996346
-0.4780349698750008	0.18941099256533483
-0.4779739347187508	0.18458547258172217
-0.4779128995625008	0.1797619191137154
-0.4778518644062508	0.1749387790265153
-0.4777908292500008	0.17011377992965585
-0.4777297940937508	0.16528410853795633
-0.4776687589375008	0.16044662766115683
-0.4776077237812508	0.15559810450686096
-0.4775466886250008	0.15073543679489776
-0.4774856534687508	0.14585587194393673
-0.4774246183125008	0.14095720415182753
-0.4773635831562508	0.13603793064247857
-0.4773025480000008	0.13109735269231795
-0.4772415128437508	0.12613562128567796
-0.4771804776875008	0.12115373169940784
-0.4771194425312508	0.11615345791362554
-0.4770584073750008	0.11113723285777541
-0.4769973722187508	0.10610799417312856
-0.4769363370625008	0.10106899977193895
-0.4768753019062508	0.09602362035029084
-0.4768142667500008	0.09097512868906335
-0.4767532315937508	0.08592650597678614
-0.4766921964375008	0.08088027767150233
-0.4766311612812508	0.07583837961716616
-0.4765701261250008	0.0708020606761793
-0.4765090909687508	0.06577183496340898
-0.4764480558125008	0.060747482972500204
-0.4763870206562508	0.05572809819690656
-0.4763259855000008	0.05071218181277238
-0.4762649503437508	0.04569777702667681
-0.4762039151875008	0.04068262719024183
-0.4761428800312508	0.03566434803390595
-0.4760818448750008	0.03064060413174917
-0.4760208097187508	0.025609274559375356
-0.4759597745625008	0.02056859874799041
-0.4758987394062508	0.015517297910365704
-0.4758377042500008	0.010454663615137904
-0.4757766690937508	0.005380607326938827
-0.4757156339375008	0.00029566697361922033
-0.4756545987812508	-0.004799032063128855
-0.4755935636250008	-0.009901856406302966
-0.4755325284687508	-0.015010773862422219
-0.4754714933125008	-0.02012347991080798
-0.4754104581562508	-0.025237530752615006
-0.4753494230000008	-0.03035048048458381
-0.4752883878437508	-0.03546002011754667
-0.4752273526875008	-0.04056410554743201
-0.4751663175312508	-0.04566106145251187
-0.4751052823750008	-0.05074965679087789
-0.4750442472187508	-0.05582914934207513
-0.4749832120625008	-0.06089929618012198
-0.4749221769062508	-0.06596033205936526
-0.4748611417500008	-0.07101292018021939
-0.4748001065937508	-0.07605807739388655
-0.4747390714375008	-0.08109707762835575
-0.4746780362812508	-0.08613134265844523
-0.4746170011250008	-0.09116232997917922
-0.4745559659687508	-0.09619142478834664
-0.4744949308125008	-0.10121984093263467
-0.4744338956562508	-0.1062485343883539
-0.4743728605000008	-0.1112781377448804
-0.4743118253437508	-0.11630892259768663
-0.4742507901875008	-0.12134078504597207
-0.4741897550312508	-0.1263732504962853
-0.4741287198750008	-0.1314055011984303
-0.4740676847187508	-0.13643642867910952
-0.4740066495625008	-0.14146470493386903
-0.4739456144062508	-0.14648885691389113
-0.4738845792500008	-0.15150733695402357
-0.4738235440937508	-0.15651859770723253
-0.4737625089375008	-0.16152117132406427
-0.4737014737812508	-0.16651373766472125
-0.4736404386250008	-0.17149517576553558
-0.4735794034687508	-0.17646460131671526
-0.4735183683125008	-0.18142138760268847
-0.4734573331562508	-0.18636517038804565
-0.4733962980000008	-0.19129584129089286
-0.4733352628437508	-0.1962135289408103
-0.4732742276875008	-0.20111856517505902
-0.4732131925312508	-0.206011437991364
-0.4731521573750008	-0.2108927390050109
-0.4730911222187508	-0.21576311307205448
-0.4730300870625008	-0.22062321049944494
-0.4729690519062508	-0.22547364055714236
-0.4729080167500008	-0.23031492824846836
-0.4728469815937508	-0.235147473512154
-0.4727859464375008	-0.23997151552005452
-0.4727249112812508	-0.2447871145992781
-0.4726638761250008	-0.24959415344588542
-0.4726028409687508	-0.2543923427854155
-0.4725418058125008	-0.2591812259990531
-0.4724807706562508	-0.26396019188101777
-0.4724197355000008	-0.2687284990868928
-0.4723587003437508	-0.2734853058591495
-0.4722976651875008	-0.27822969935876146
-0.4722366300312508	-0.28296072390411137
-0.4721755948750008	-0.28767741123268786
-0.4721145597187508	-0.29237881425315954
-0.4720535245625008	-0.2970640405652988
-0.4719924894062508	-0.3017322831254083
-0.4719314542500008	-0.30638284834551544
-0.4718704190937508	-0.3110151784363999
-0.4718093839375008	-0.3156288655393283
-0.4717483487812508	-0.32022365936535646
-0.4716873136250008	-0.32479946670298104
-0.4716262784687508	-0.3293563431590873
-0.4715652433125008	-0.3338944806756361
-0.4715042081562508	-0.3384141871747188
-0.4714431730000008	-0.3429158578395068
-0.4713821378437508	-0.3473999453931247
-0.4713211026875008	-0.3518669280699075
-0.4712600675312508	-0.3563172690234231
-0.4711990323750008	-0.3607513723698124
-0.4711379972187508	-0.3651695465384302
-0.4710769620625008	-0.36957197507305234
-0.4710159269062508	-0.37395868803919485
-0.4709548917500008	-0.3783295370801442
-0.4708938565937508	-0.3826841827587693
-0.4708328214375008	-0.387022096907034
-0.4707717862812508	-0.3913425789225216
-0.4707107511250008	-0.3956447808844596
-0.4706497159687508	-0.3999277397747819
-0.4705886808125008	-0.4041904199599823
-0.4705276456562508	-0.40843176163566297
-0.4704666105000008	-0.41265072904170025
-0.4704055753437508	-0.41684635758137306
-0.4703445401875008	-0.42101779942646095
-0.4702835050312508	-0.42516436754052217
-0.4702224698750008	-0.4292855743945356
-0.4701614347187508	-0.4333811532541522
-0.4701003995625008	-0.43745105866391737
-0.4700393644062508	-0.4414954569883058
-0.4699783292500008	-0.44551470761899664
-0.4699172940937508	-0.4495093256531443
-0.4698562589375008	-0.4534799284306944
-0.4697952237812508	-0.4574271784672062
-0.4697341886250008	-0.46135172871594327
-0.4696731534687508	-0.46525416595063146
-0.4696121183125008	-0.4691349538007899
-0.4695510831562508	-0.472994384814611
-0.4694900480000008	-0.4768325463875155
-0.4694290128437508	-0.4806493001024739
-0.4693679776875008	-0.48444427478364005
-0.4693069425312508	-0.4882168772010268
-0.4692459073750008	-0.4919663212001907
