Time	Frequency
-0.5000610319062488	-0.389387439151874
-0.49999999674999884	-0.3934876113538918
-0.49993896159374884	-0.39751965818688045
-0.49987792643749884	-0.4014888239267115
-0.49981689128124884	-0.4054065357215417
-0.49975585612499884	-0.4092883715839866
-0.49969482096874884	-0.41315147414438336
-0.49963378581249884	-0.4170118305370426
-0.49957275065624884	-0.4208818435392801
-0.49951171549999884	-0.42476855139644415
-0.49945068034374884	-0.4286727408551245
-0.49938964518749884	-0.4325890533392978
-0.49932861003124884	-0.4365070253768775
-0.49926757487499884	-0.44041286735887875
-0.49920653971874884	-0.44429168305765154
-0.49914550456249884	-0.44812977147068556
-0.49908446940624884	-0.45191665439594875
-0.49902343424999884	-0.45564653130415034
-0.49896239909374884	-0.45931895855751437
-0.49890136393749884	-0.4629386753473308
-0.49884032878124884	-0.4665146347841613
-0.49877929362499884	-0.47005842403461595
-0.49871825846874884	-0.47358234351388967
-0.49865722331249884	-0.4770974470730685
-0.49859618815624884	-0.4806118431674425
-0.49853515299999884	-0.48412951648480534
-0.49847411784374884	-0.48764983367308284
-0.49841308268749884	-0.4911677810347638
-0.49835204753124884	-0.4946748739187733
-0.49829101237499884	-0.4981605730855507
-0.49822997721874884	-0.5016139672681913
-0.49816894206249884	-0.5050254528720288
-0.49810790690624884	-0.508388152478717
-0.49804687174999884	-0.5116988606056513
-0.49798583659374884	-0.5149583864453173
-0.49792480143749884	-0.5181712628110654
-0.49786376628124884	-0.5213448856725482
-0.49780273112499884	-0.5244882341973321
-0.49774169596874884	-0.5276103876138171
-0.49768066081249884	-0.5307190778613442
-0.49761962565624884	-0.5338194987608752
-0.49755859049999884	-0.536913548085003
-0.49749755534374884	-0.5399996084331188
-0.49743652018749884	-0.5430728840786813
-0.49737548503124884	-0.5461262220160231
-0.49731444987499884	-0.5491512736877634
-0.49725341471874884	-0.5521398077792729
-0.49719237956249884	-0.5550849662956481
-0.49713134440624884	-0.5579822701003102
-0.49707030924999884	-0.5608302231240286
-0.49700927409374884	-0.5636304314174165
-0.49694823893749884	-0.5663872357018392
-0.49688720378124884	-0.5691069327837787
-0.49682616862499884	-0.5717967168457113
-0.49676513346874884	-0.5744635082202141
-0.49670409831249884	-0.5771128545792611
-0.49664306315624884	-0.5797480761822462
-0.49658202799999884	-0.5823697836539513
-0.49652099284374884	-0.5849758336745993
-0.49645995768749884	-0.5875617149173551
-0.49639892253124884	-0.5901212901646867
-0.49633788737499884	-0.5926477700911928
-0.49627685221874884	-0.5951347622222997
-0.49621581706249884	-0.5975772303526344
-0.49615478190624884	-0.5999722194597589
-0.49609374674999884	-0.6023192413913745
-0.49603271159374884	-0.6046202683928409
-0.49597167643749884	-0.6068793444224927
-0.49591064128124884	-0.6091018858103695
-0.49584960612499884	-0.6112937880213797
-0.49578857096874884	-0.613460481068401
-0.49572753581249884	-0.6156060813669084
-0.49566650065624884	-0.6177327687540882
-0.49560546549999884	-0.6198404775362766
-0.49554443034374884	-0.6219269411369321
-0.49548339518749884	-0.6239880758103504
-0.49542236003124884	-0.6260186359491956
-0.49536132487499884	-0.6280130316995685
-0.49530028971874884	-0.6299661778177819
-0.49523925456249884	-0.6318742442639932
-0.49517821940624884	-0.6337351968501609
-0.49511718424999884	-0.6355490490338812
-0.49505614909374884	-0.6373177929702494
-0.49499511393749884	-0.6390450293564705
-0.49493407878124884	-0.6407353614387701
-0.49487304362499884	-0.6423936518249508
-0.49481200846874884	-0.6440242585467518
-0.49475097331249884	-0.6456303672107766
-0.49468993815624884	-0.6472135194742488
-0.49462890299999884	-0.6487734054174066
-0.49456786784374884	-0.6503079428437211
-0.49450683268749884	-0.6518136233637597
-0.49444579753124884	-0.6532860669412668
-0.49438476237499884	-0.6547206940860716
-0.49432372721874884	-0.6561134096834472
-0.49426269206249884	-0.6574611954309871
-0.49420165690624884	-0.6587625238648971
-0.49414062174999884	-0.6600175362155413
-0.49407958659374884	-0.6612279639503961
-0.49401855143749884	-0.6623968134197342
-0.49395751628124884	-0.6635278686171983
-0.49389648112499884	-0.6646250922068467
-0.49383544596874884	-0.6656920175276552
-0.49377441081249884	-0.6667312231955936
-0.49371337565624884	-0.6677439663895172
-0.49365234049999884	-0.6687300245848613
-0.49359130534374884	-0.6696877630530922
-0.49353027018749884	-0.6706144108306219
-0.49346923503124884	-0.6715064968217841
-0.49340819987499884	-0.6723603755386466
-0.49334716471874884	-0.6731727612969767
-0.49328612956249884	-0.673941191398885
-0.49322509440624884	-0.6746643523401377
-0.49316405924999884	-0.6753422258052677
-0.49310302409374884	-0.6759760393972991
-0.49304198893749884	-0.6765680367292682
-0.49298095378124884	-0.67712110795497
-0.49291991862499884	-0.6776383405312765
-0.49285888346874884	-0.678122559262572
-0.49279784831249884	-0.6785759235039314
-0.49273681315624884	-0.678999637570018
-0.49267577799999884	-0.6793938112118666
-0.49261474284374884	-0.6797574838620325
-0.49255370768749884	-0.6800888018631807
-0.49249267253124884	-0.6803853160832561
-0.49243163737499884	-0.6806443513426376
-0.49237060221874884	-0.6808633909663544
-0.49230956706249884	-0.6810404202761474
-0.49224853190624884	-0.6811741818212333
-0.49218749674999884	-0.6812643112879521
-0.49212646159374884	-0.6813113413608887
-0.49206542643749884	-0.6813165798026952
-0.49200439128124884	-0.6812818870922936
-0.49194335612499884	-0.6812093910702621
-0.49188232096874884	-0.681101181413628
-0.49182128581249884	-0.6809590285205794
-0.49176025065624884	-0.6807841643842929
-0.49169921549999884	-0.6805771497509637
-0.49163818034374884	-0.6803378392872097
-0.49157714518749884	-0.6800654439252138
-0.49151611003124884	-0.6797586756785747
-0.49145507487499884	-0.6794159480965026
-0.49139403971874884	-0.6790356004748992
-0.49133300456249884	-0.6786161147623455
-0.49127196940624884	-0.6781562972302047
-0.49121093424999884	-0.6776554045829067
-0.49114989909374884	-0.677113204162232
-0.49108886393749884	-0.6765299669862616
-0.49102782878124884	-0.6759064016671801
-0.49096679362499884	-0.6752435434567232
-0.49090575846874884	-0.6745426152415478
-0.49084472331249884	-0.6738048797789477
-0.49078368815624884	-0.6730315017093167
-0.49072265299999884	-0.6722234327511175
-0.49066161784374884	-0.671381328279628
-0.49060058268749884	-0.6705055002025904
-0.49053954753124884	-0.6695959083012394
-0.49047851237499884	-0.6686521865917523
-0.49041747721874884	-0.667673695875786
-0.49035644206249884	-0.6666595954650212
-0.49029540690624884	-0.6656089293851448
-0.49023437174999884	-0.6645207209669899
-0.49017333659374884	-0.6633940706694824
-0.49011230143749884	-0.6622282499201917
-0.49005126628124884	-0.661022781196548
-0.48999023112499884	-0.6597774985884469
-0.48992919596874884	-0.6584925839553347
-0.48986816081249884	-0.6571685726842753
-0.48980712565624884	-0.6558063246823955
-0.48974609049999884	-0.6544069572491552
-0.48968505534374884	-0.6529717417001902
-0.48962402018749884	-0.6515019727981285
-0.48956298503124884	-0.6499988238701954
-0.48950194987499884	-0.6484632045830211
-0.48944091471874884	-0.6468956404814753
-0.48937987956249884	-0.6452961903144054
-0.48931884440624884	-0.6436644138163692
-0.48925780924999884	-0.6419994010313096
-0.48919677409374884	-0.6402998678474295
-0.48913573893749884	-0.6385643101790646
-0.48907470378124884	-0.636791199697431
-0.48901366862499884	-0.6349791975490173
-0.48895263346874884	-0.6331273568733893
-0.48889159831249884	-0.6312352852861358
-0.48883056315624884	-0.6293032433159916
-0.48876952799999884	-0.6273321593681509
-0.48870849284374884	-0.6253235513983199
-0.48864745768749884	-0.6232793604721889
-0.48858642253124884	-0.621201715054311
-0.48852538737499884	-0.6190926590388605
-0.48846435221874884	-0.616953883254143
-0.48840331706249884	-0.614786493552116
-0.48834228190624884	-0.612590845806003
-0.48828124674999884	-0.6103664784513226
-0.48822021159374884	-0.6081121608164314
-0.48815917643749884	-0.6058260546608721
-0.48809814128124884	-0.6035059668591712
-0.48803710612499884	-0.6011496591163704
-0.48797607096874884	-0.5987551764593129
-0.48791503581249884	-0.5963211483438926
-0.48785400065624884	-0.593847012639584
-0.48779296549999884	-0.5913331301004588
-0.48773193034374884	-0.5887807746154747
-0.48767089518749884	-0.5861919941000859
-0.48760986003124884	-0.5835693570528984
-0.48754882487499884	-0.5809156211461808
-0.48748778971874884	-0.578233368416471
-0.48742675456249884	-0.5755246558943755
-0.48736571940624884	-0.5727907346521658
-0.48730468424999884	-0.5700318822595071
-0.48724364909374884	-0.5672473730542694
-0.48718261393749884	-0.5644355907521326
-0.48712157878124884	-0.5615942702176024
-0.48706054362499884	-0.5587208347860814
-0.48699950846874884	-0.5558127773670858
-0.48693847331249884	-0.5528680299350627
-0.48687743815624884	-0.5498852744754443
-0.48681640299999884	-0.5468641539535883
-0.48675536784374884	-0.5438053491491458
-0.48669433268749884	-0.5407105058319901
-0.48663329753124884	-0.5375820211965775
-0.48657226237499884	-0.5344227237376097
-0.48651122721874884	-0.5312354980934607
-0.48645019206249884	-0.528022905391488
-0.48638915690624884	-0.5247868453336745
-0.48632812174999884	-0.5215283124043673
-0.48626708659374884	-0.5182472878733829
-0.48620605143749884	-0.5149427774890105
-0.48614501628124884	-0.5116129862669943
-0.48608398112499884	-0.5082556081546932
-0.48602294596874884	-0.504868185859751
-0.48596191081249884	-0.501448484388308
-0.48590087565624884	-0.49799482695873803
-0.48583984049999884	-0.4945063498520897
-0.48577880534374884	-0.49098313550775696
-0.48571777018749884	-0.4874262041391266
-0.48565673503124884	-0.48383737764884327
-0.48559569987499884	-0.4802190379946561
-0.48553466471874884	-0.47657380579596315
-0.48547362956249884	-0.4729041880445163
-0.48541259440624884	-0.46921225458045673
-0.48535155924999884	-0.4654993865074955
-0.48529052409374884	-0.46176612641794906
-0.48522948893749884	-0.4580121518325844
-0.48516845378124884	-0.4542363711699087
-0.48510741862499884	-0.4504371253193221
-0.48504638346874884	-0.44661246770523433
-0.48498534831249884	-0.44276047891207265
-0.48492431315624884	-0.4388795657526623
-0.48486327799999884	-0.4349687017635359
-0.48480224284374884	-0.43102757921740387
-0.48474120768749884	-0.42705665521707387
-0.48468017253124884	-0.42305708765932554
-0.48461913737499884	-0.4190305773922403
-0.48455810221874884	-0.4149791424231167
-0.48449706706249884	-0.41090485139629235
-0.48443603190624884	-0.4068095554482729
-0.48437499674999884	-0.40269466217342087
-0.48431396159374884	-0.3985609844823077
-0.48425292643749884	-0.394408683704732
-0.48419189128124884	-0.3902373071599647
-0.48413085612499884	-0.3860459078093087
-0.48406982096874884	-0.3818332332879254
-0.48400878581249884	-0.37759795670012336
-0.48394775065624884	-0.37333890961669497
-0.48388671549999884	-0.3690552839227379
-0.48382568034374884	-0.36474677049417853
-0.48376464518749884	-0.36041361334137484
-0.48370361003124884	-0.3560565786775119
-0.48364257487499884	-0.35167684955697714
-0.48358153971874884	-0.34727586432467084
-0.48352050456249884	-0.34285512507841426
-0.48345946940624884	-0.3384160055869105
-0.48339843424999884	-0.33395958143741833
-0.48333739909374884	-0.32948650657996775
-0.48327636393749884	-0.3249969668947154
-0.48321532878124884	-0.3204907166185663
-0.48315429362499884	-0.31596717436040944
-0.48309325846874884	-0.3114255600674195
-0.48303222331249884	-0.3068650598339994
-0.48297118815624884	-0.3022849954094272
-0.48291015299999884	-0.2976849690986504
-0.48284911784374884	-0.29306495448136616
-0.48278808268749884	-0.288425320882098
-0.48272704753124884	-0.2837668024324776
-0.48266601237499884	-0.27909041636970167
-0.48260497721874884	-0.274397332816194
-0.48254394206249884	-0.26968872048984327
-0.48248290690624884	-0.26496559999133606
-0.48242187174999884	-0.26022872849225015
-0.48236083659374884	-0.2554785307057006
-0.48229980143749884	-0.2507150786092692
-0.48223876628124884	-0.24593812333048237
-0.48217773112499884	-0.2411471828341909
-0.48211669596874884	-0.23634166928886266
-0.48205566081249884	-0.23152102936958044
-0.48199462565624884	-0.22668487365971668
-0.48193359049999884	-0.22183307531539226
-0.48187255534374884	-0.21696582800409794
-0.48181152018749884	-0.2120836535316352
-0.48175048503124884	-0.20718735141162184
-0.48168944987499884	-0.20227790459468464
-0.48162841471874884	-0.1973563631049683
-0.48156737956249884	-0.1924237200735858
-0.48150634440624884	-0.18748080055804645
-0.48144530924999884	-0.18252818060026146
-0.48138427409374884	-0.17756614228221584
-0.48132323893749884	-0.17259467183348923
-0.48126220378124884	-0.16761350694074234
-0.48120116862499884	-0.16262222643571367
-0.48114013346874884	-0.15762036202907753
-0.48107909831249884	-0.15260751437728817
-0.48101806315624884	-0.14758346259562038
-0.48095702799999884	-0.14254824558129
-0.48089599284374884	-0.13750219156029592
-0.48083495768749884	-0.13244589627346154
-0.48077392253124884	-0.12738016748244832
-0.48071288737499884	-0.12230594489369531
-0.48065185221874884	-0.11722419726005771
-0.48059081706249884	-0.11213581203213203
-0.48052978190624884	-0.10704150090809461
-0.48046874674999884	-0.10194173391137365
-0.48040771159374884	-0.09683670956424216
-0.48034667643749884	-0.091726368815581
-0.48028564128124884	-0.08661045183147771
-0.48022460612499884	-0.0814885890590568
-0.48016357096874884	-0.07636040929715283
-0.48010253581249884	-0.07122564157060997
-0.48004150065624884	-0.06608419732830344
-0.47998046549999884	-0.06093622591451597
-0.47991943034374884	-0.05578213430037375
-0.47985839518749884	-0.05062256742879253
-0.47979736003124884	-0.04545835069350924
-0.47973632487499884	-0.04029039976655258
-0.47967528971874884	-0.03511961639205223
-0.47961425456249884	-0.029946795131462603
-0.47955321940624884	-0.02477255072946646
-0.47949218424999884	-0.019597265148322638
-0.47943114909374884	-0.014421066546677696
-0.47937011393749884	-0.009243854853200976
-0.47930907878124884	-0.004065366552737202
-0.47924804362499884	0.0011147355523524682
-0.47918700846874884	0.006296762075333824
-0.47912597331249884	0.011480907751395892
-0.47906493815624884	0.01666718274820032
-0.47900390299999884	0.021855364183823407
-0.47894286784374884	0.02704497980005786
-0.47888183268749884	0.03223533849335169
-0.47882079753124884	0.03742559911421842
-0.47875976237499884	0.042614854224418734
-0.47869872721874884	0.047802220804615804
-0.47863769206249884	0.052986934128356346
-0.47857665690624884	0.058168422928872476
-0.47851562174999884	0.06334635111512056
-0.47845458659374884	0.06852062777173132
-0.47839355143749884	0.07369137993696091
-0.47833251628124884	0.07885888687584824
-0.47827148112499884	0.08402349065543334
-0.47821044596874884	0.08918550033873306
-0.47814941081249884	0.09434510409154688
-0.47808837565624884	0.09950229780199941
-0.47802734049999884	0.10465683935895058
-0.47796630534374884	0.10980824047524824
-0.47790527018749884	0.11495579753924963
-0.47784423503124884	0.12009865521246839
-0.47778319987499884	0.1252358943040376
-0.47772216471874884	0.13036662785837275
-0.47766112956249884	0.13549009023857378
-0.47760009440624884	0.1406057093802027
-0.47753905924999884	0.145713148049865
-0.47747802409374884	0.15081230489918657
-0.47741698893749884	0.15590328245867097
-0.47735595378124884	0.16098633427582426
-0.47729491862499884	0.16606179347169728
-0.47723388346874884	0.17112998041696795
-0.47717284831249884	0.17619110652331024
-0.47711181315624884	0.18124520204005443
-0.47705077799999884	0.1862920749754764
-0.47698974284374884	0.1913312982213223
-0.47692870768749884	0.19636222902237274
-0.47686767253124884	0.20138406080199991
-0.47680663737499884	0.20639590041662517
-0.47674560221874884	0.21139685981264464
-0.47668456706249884	0.2163861477238367
-0.47662353190624884	0.22136314531804108
-0.47656249674999884	0.2263274522928524
-0.47650146159374884	0.2312789022740055
-0.47644042643749884	0.23621754817796725
-0.47637939128124884	0.2411436125670501
-0.47631835612499884	0.24605741094777106
-0.47625732096874884	0.25095926540570007
-0.47619628581249884	0.2558494181879195
-0.47613525065624884	0.2607279525492225
-0.47607421549999884	0.2655947364736072
-0.47601318034374884	0.27044940475598456
-0.47595214518749884	0.27529137930834213
-0.47589111003124884	0.2801199177333601
-0.47583007487499884	0.2849341820059806
-0.47576903971874884	0.2897333188240448
-0.47570800456249884	0.2945165430916612
-0.47564696940624884	0.2992832159386133
-0.47558593424999884	0.3040329021262739
-0.47552489909374884	0.30876539232219585
-0.47546386393749884	0.313480687439904
-0.47540282878124884	0.31817895365970444
-0.47534179362499884	0.3228604597745569
-0.47528075846874884	0.3275254997892503
-0.47521972331249884	0.33217430673301035
-0.47515868815624884	0.3368069752583874
-0.47509765299999884	0.34142340981437214
-0.47503661784374884	0.3460233071419694
-0.47497558268749884	0.3506061678489633
-0.47491454753124884	0.3551713328059706
-0.47485351237499884	0.35971804690943493
-0.47479247721874884	0.3642455380248496
-0.47473144206249884	0.3687530931848162
-0.47467040690624884	0.3732401234975063
-0.47460937174999884	0.3777062100837349
-0.47454833659374884	0.3821511223658821
-0.47448730143749884	0.3865748070271037
-0.47442626628124884	0.3909773540177319
-0.47436523112499884	0.3953589446761975
-0.47430419596874884	0.39971978410179565
-0.47424316081249884	0.40406002857869616
-0.47418212565624884	0.4083797263933847
-0.47412109049999884	0.4126787816370472
-0.47406005534374884	0.41695693927864325
-0.47399902018749884	0.42121379161527606
-0.47393798503124884	0.42544880992902107
-0.47387694987499884	0.42966139605315185
-0.47381591471874884	0.4338509398178752
-0.47375487956249884	0.4380168721532353
-0.47369384440624884	0.44215870796768897
-0.47363280924999884	0.44627607494446647
-0.47357177409374884	0.4503687263311035
-0.47351073893749884	0.4544365344514278
-0.47344970378124884	0.45847946467103184
-0.47338866862499884	0.4624975375404739
-0.47332763346874884	0.46649078892446727
-0.47326659831249884	0.4704592331850929
-0.47320556315624884	0.47440283136548855
-0.47314452799999884	0.47832146913191564
-0.47308349284374884	0.4822149508001223
-0.47302245768749884	0.48608300869882176
-0.47296142253124884	0.4899253197102334
-0.47290038737499884	0.49374152383606623
-0.47283935221874884	0.4975312453527516
-0.47277831706249884	0.5012941146276954
-0.47271728190624884	0.5050297850115988
-0.47265624674999884	0.5087379417723347
-0.47259521159374884	0.5124183047459112
-0.47253417643749884	0.5160706278614718
-0.47247314128124884	0.5196946945034211
-0.47241210612499884	0.5232903090033139
-0.47235107096874884	0.5268572918645971
-0.47229003581249884	0.5303954818395267
-0.47222900065624884	0.533904738800637
-0.47216796549999884	0.5373849431951259
-0.47210693034374884	0.5408359951093424
-0.47204589518749884	0.54425781259978
-0.47198486003124884	0.5476503215171115
-0.47192382487499884	0.5510134375068176
-0.47186278971874884	0.5543470477081243
-0.47180175456249884	0.5576509934757601
-0.47174071940624884	0.5609250558123784
-0.47167968424999884	0.5641689493338476
-0.47161864909374884	0.567382326786294
-0.47155761393749884	0.5705647923153446
-0.47149657878124884	0.5737159248073547
-0.47143554362499884	0.5768353121249535
-0.47137450846874884	0.579922589410277
-0.47131347331249884	0.5829774724783889
-0.47125243815624884	0.5859997805500057
-0.47119140299999884	0.5889894446209892
-0.47113036784374884	0.5919464999174179
-0.47106933268749884	0.5948710615015631
-0.47100829753124884	0.5977632837717826
-0.47094726237499884	0.6006233105513517
-0.47088622721874884	0.603451224521693
-0.47082519206249884	0.6062470028692132
-0.47076415690624884	0.6090104874323312
-0.47070312174999884	0.6117413764351859
-0.47064208659374884	0.6144392381868512
-0.47058105143749884	0.617103545510085
-0.47052001628124884	0.6197337291957655
-0.47045898112499884	0.6223292412065452
-0.47039794596874884	0.6248896166413324
-0.47033691081249884	0.6274145279853345
