Time	Frequency
-0.5000258421250017	-0.6009896626688176
-0.4999648069687517	-0.601885446701158
-0.4999037718125017	-0.602755864135141
-0.4998427366562517	-0.6036008719363752
-0.4997817015000017	-0.6044204046151734
-0.4997206663437517	-0.6052144156442307
-0.4996596311875017	-0.6059828800209714
-0.4995985960312517	-0.6067257604399535
-0.4995375608750017	-0.6074430087960816
-0.4994765257187517	-0.6081345811466233
-0.4994154905625017	-0.6088004533787608
-0.4993544554062517	-0.6094405968084112
-0.4992934202500017	-0.610054954378646
-0.4992323850937517	-0.6106434865819618
-0.4991713499375017	-0.6112061839152563
-0.4991103147812517	-0.6117430176666075
-0.4990492796250017	-0.6122539329064164
-0.4989882444687517	-0.6127389027025587
-0.4989272093125017	-0.613197918070852
-0.4988661741562517	-0.6136309416338974
-0.4988051390000017	-0.6140379395977641
-0.4987441038437517	-0.6144188929848651
-0.4986830686875017	-0.6147737802722388
-0.4986220335312517	-0.6151025816152178
-0.4985609983750017	-0.615405270517738
-0.4984999632187517	-0.6156818210204257
-0.4984389280625017	-0.6159322194567967
-0.4983778929062517	-0.6161564578138483
-0.4983168577500017	-0.6163545141064424
-0.4982558225937517	-0.6165263588380424
-0.4981947874375017	-0.6166719834345836
-0.4981337522812517	-0.6167913790837248
-0.4980727171250017	-0.6168845285474426
-0.4980116819687517	-0.6169514205985599
-0.4979506468125017	-0.6169920453122008
-0.4978896116562517	-0.6170064022760972
-0.4978285765000017	-0.6169944821902135
-0.4977675413437517	-0.6169562593744332
-0.4977065061875017	-0.6168917275151503
-0.4976454710312517	-0.6168008929554927
-0.4975844358750017	-0.6166837479118285
-0.4975234007187517	-0.6165402831417887
-0.4974623655625017	-0.6163705052139369
-0.4974013304062517	-0.6161744287043054
-0.4973402952500017	-0.6159520524524064
-0.4972792600937517	-0.6157033565941086
-0.4972182249375017	-0.6154283388062806
-0.4971571897812517	-0.6151270282109012
-0.4970961546250017	-0.6147994367767081
-0.4970351194687517	-0.614445537658398
-0.4969740843125017	-0.6140653306138993
-0.4969130491562517	-0.6136588493821759
-0.4968520140000017	-0.6132261007797328
-0.4967909788437517	-0.6127670839796123
-0.4967299436875017	-0.612281814028471
-0.4966689085312517	-0.6117703169641798
-0.4966078733750017	-0.6112326133655986
-0.4965468382187517	-0.6106686959597756
-0.4964858030625017	-0.6100785786629842
-0.4964247679062517	-0.6094622920533085
-0.4963637327500017	-0.6088198521572611
-0.4963026975937517	-0.6081512837222661
-0.4962416624375017	-0.6074566060654004
-0.4961806272812517	-0.6067358328257593
-0.4961195921250017	-0.6059889765275933
-0.4960585569687517	-0.6052160673058287
-0.4959975218125017	-0.6044171501945145
-0.4959364866562517	-0.6035922416903808
-0.4958754515000017	-0.6027413531644571
-0.4958144163437517	-0.6018645144225111
-0.4957533811875017	-0.6009617800181564
-0.4956923460312517	-0.6000331861835653
-0.4956313108750017	-0.5990787341584075
-0.4955702757187517	-0.5980984565587252
-0.4955092405625017	-0.5970924044764041
-0.4954482054062517	-0.5960606304093674
-0.4953871702500017	-0.5950031576245968
-0.4953261350937517	-0.593919987730445
-0.4952650999375017	-0.5928111732017214
-0.4952040647812517	-0.5916767699231382
-0.4951430296250017	-0.590516819778414
-0.4950819944687517	-0.5893313590528783
-0.4950209593125017	-0.5881204240205189
-0.4949599241562517	-0.586884084981634
-0.4948988890000017	-0.5856223813167409
-0.4948378538437517	-0.5843353328682386
-0.4947768186875017	-0.583022992756761
-0.4947157835312517	-0.5816854153860499
-0.4946547483750017	-0.5803226505506996
-0.4945937132187517	-0.5789347513742191
-0.4945326780625017	-0.5775217756037463
-0.4944716429062517	-0.5760837640810381
-0.4944106077500017	-0.5746207631550719
-0.4943495725937517	-0.5731328453103093
-0.4942885374375017	-0.571620078238901
-0.4942275022812517	-0.5700825291419171
-0.4941664671250017	-0.5685202331063474
-0.4941054319687517	-0.5669332265264282
-0.4940443968125017	-0.5653215999585441
-0.4939833616562517	-0.5636854334758342
-0.4939223265000017	-0.5620248253426388
-0.4938612913437517	-0.5603398540291561
-0.4938002561875017	-0.5586304587708424
-0.4937392210312517	-0.5568966205636372
-0.4936781858750017	-0.555138485599861
-0.4936171507187517	-0.5533561952877241
-0.4935561155625017	-0.5515498209196096
-0.4934950804062517	-0.5497194196559821
-0.4934340452500017	-0.5478650759147101
-0.4933730100937517	-0.545986855744804
-0.4933119749375017	-0.5440847812591988
-0.4932509397812517	-0.542158946553319
-0.4931899046250017	-0.540209483202212
-0.4931288694687517	-0.5382364616669782
-0.4930678343125017	-0.5362399259160516
-0.4930067991562517	-0.5342199222468225
-0.4929457640000017	-0.5321765430832643
-0.4928847288437517	-0.5301098928789795
-0.4928236936875017	-0.528020049936934
-0.4927626585312517	-0.5259071121062335
-0.4927016233750017	-0.5237711581447119
-0.4926405882187517	-0.5216122579074236
-0.4925795530625017	-0.5194304991038842
-0.4925185179062517	-0.5172259661480799
-0.4924574827500017	-0.5149987501096079
-0.4923964475937517	-0.5127489237314029
-0.4923354124375017	-0.5104765761685406
-0.4922743772812517	-0.5081818236895161
-0.4922133421250017	-0.5058647559782871
-0.4921523069687517	-0.5035254534892329
-0.4920912718125017	-0.501164003647968
-0.4920302366562517	-0.49878052222532754
-0.4919692015000017	-0.49637512744808315
-0.4919081663437517	-0.4939478911714643
-0.4918471311875017	-0.49149889440376987
-0.4917860960312517	-0.4890282503309994
-0.4917250608750017	-0.4865360643628879
-0.4916640257187517	-0.48402241232551557
-0.4916029905625017	-0.4814873742244645
-0.4915419554062517	-0.47893108621372316
-0.4914809202500017	-0.47635368007387524
-0.4914198850937517	-0.47375524063274405
-0.4913588499375017	-0.4711358525127487
-0.4912978147812517	-0.468495629963721
-0.4912367796250017	-0.4658346967899587
-0.4911757444687517	-0.4631531331421412
-0.4911147093125017	-0.4604510314559803
-0.4910536741562517	-0.45772853975293704
-0.4909926390000017	-0.45498579757991814
-0.4909316038437517	-0.45222291791658364
-0.4908705686875017	-0.44943999152677244
-0.4908095335312517	-0.4466371158929106
-0.4907484983750017	-0.443814405989821
-0.4906874632187517	-0.44097197054193027
-0.4906264280625017	-0.4381099235713731
-0.4905653929062517	-0.4352283928388025
-0.4905043577500017	-0.43232750656949276
-0.4904433225937517	-0.42940737288767766
-0.4903822874375017	-0.42646810303422894
-0.4903212522812517	-0.42350982490441286
-0.4902602171250017	-0.42053266392758953
-0.4901991819687517	-0.4175367556372966
-0.4901381468125017	-0.4145222279045871
-0.4900771116562517	-0.4114891918466434
-0.4900160765000017	-0.40843776439945406
-0.4899550413437517	-0.40536806227843625
-0.4898940061875017	-0.40228021530333524
-0.4898329710312517	-0.3991743664878346
-0.4897719358750017	-0.3960506432709259
-0.4897109007187517	-0.3929091764237565
-0.4896498655625017	-0.3897501026986363
-0.4895888304062517	-0.38657353295142993
-0.4895277952500017	-0.38337957929085376
-0.4894667600937517	-0.38016839055997376
-0.4894057249375017	-0.3769401241662391
-0.4893446897812517	-0.3736949164872455
-0.4892836546250017	-0.37043290011755525
-0.4892226194687517	-0.3671542079987482
-0.4891615843125017	-0.3638589778394303
-0.4891005491562517	-0.3605473749940289
-0.4890395140000017	-0.35721952959208586
-0.4889784788437517	-0.3538755058855392
-0.4889174436875017	-0.35051540549277144
-0.4888564085312517	-0.347139420680602
-0.4887953733750017	-0.343747768382193
-0.4887343382187517	-0.34034059414754037
-0.4886733030625017	-0.33691799914950105
-0.4886122679062517	-0.3334801169493878
-0.4885512327500017	-0.3300270731495728
-0.4884901975937517	-0.3265589949445174
-0.4884291624375017	-0.323076040920599
-0.4883681272812517	-0.3195783824166785
-0.4883070921250017	-0.31606620483649733
-0.4882460569687517	-0.3125396209055487
-0.4881850218125017	-0.3089987072738205
-0.4881239866562517	-0.30544365364335974
-0.4880629515000017	-0.301874671893075
-0.4880019163437517	-0.2982918961405312
-0.4879408811875017	-0.29469543620034566
-0.4878798460312517	-0.2910854155569104
-0.4878188108750017	-0.28746201172306673
-0.4877577757187517	-0.28382542722560367
-0.4876967405625017	-0.2801758023145581
-0.4876357054062517	-0.2765132653284789
-0.4875746702500017	-0.27283797611004523
-0.4875136350937517	-0.26915007776603
-0.4874525999375017	-0.26544973485630663
-0.4873915647812517	-0.2617371257302521
-0.4873305296250017	-0.25801239276334276
-0.4872694944687517	-0.25427569886439066
-0.4872084593125017	-0.25052720482525426
-0.4871474241562517	-0.24676702721937527
-0.4870863890000017	-0.2429953189161941
-0.4870253538437517	-0.23921227730780253
-0.4869643186875017	-0.2354180807881679
-0.4869032835312517	-0.23161289960234432
-0.4868422483750017	-0.22779688885998245
-0.4867812132187517	-0.22397016925345
-0.4867201780625017	-0.2201328715953604
-0.4866591429062517	-0.21628515204134044
-0.4865981077500017	-0.21242721535697032
-0.4865370725937517	-0.2085592966958361
-0.4864760374375017	-0.2046815601993618
-0.4864150022812517	-0.20079412528758325
-0.4863539671250017	-0.19689713377833742
-0.4862929319687517	-0.19299075148577444
-0.4862318968125017	-0.18907514985030843
-0.4861708616562517	-0.18515047658021858
-0.4861098265000017	-0.18121692431803602
-0.4860487913437517	-0.1772747038382172
-0.4859877561875017	-0.17332395004293405
-0.4859267210312517	-0.169364810278156
-0.4858656858750017	-0.1653974550710768
-0.4858046507187517	-0.16142206034481993
-0.4857436155625017	-0.15743882432709794
-0.4856825804062517	-0.1534478908731751
-0.4856215452500017	-0.14944941742505732
-0.4855605100937517	-0.14544360533819436
-0.4854994749375017	-0.14143061108821858
-0.4854384397812517	-0.1374105850382353
-0.4853774046250017	-0.133383706676426
-0.4853163694687517	-0.12935018819092145
-0.4852553343125017	-0.12531021448381355
-0.4851942991562517	-0.12126390375627649
-0.4851332640000017	-0.11721141396456147
-0.4850722288437517	-0.11315294221872854
-0.4850111936875017	-0.10908867136635382
-0.4849501585312517	-0.10501879110188542
-0.4848891233750017	-0.10094347012254948
-0.4848280882187517	-0.09686286407668428
-0.4847670530625017	-0.09277715933865688
-0.4847060179062517	-0.08868654458476209
-0.4846449827500017	-0.08459120228955067
-0.4845839475937517	-0.08049131016047087
-0.4845229124375017	-0.07638701366599497
-0.4844618772812517	-0.0722784580241687
-0.4844008421250017	-0.06816583914567745
-0.4843398069687517	-0.0640493781628273
-0.4842787718125017	-0.059929246637594115
-0.4842177366562517	-0.05580557804270111
-0.4841567015000017	-0.051678548420535625
-0.4840956663437517	-0.047548387001954066
-0.4840346311875017	-0.0434153049466039
-0.4839735960312517	-0.03927945800782712
-0.4839125608750017	-0.035141014418846456
-0.4838515257187517	-0.031000148916401116
-0.4837904905625017	-0.0268570112366333
-0.4837294554062517	-0.02271178158724605
-0.4836684202500017	-0.0185646415421512
-0.4836073850937517	-0.014415770866156152
-0.4835463499375017	-0.01026537634012938
-0.4834853147812517	-0.006113648853852556
-0.4834242796250017	-0.0019607687535721273
-0.4833632444687517	0.0021930997034622186
-0.4833022093125017	0.006347804369691832
-0.4832411741562517	0.010503170125939277
-0.4831801390000017	0.014659005404575983
-0.4831191038437517	0.018815112108388442
-0.4830580686875017	0.022971310154600504
-0.4829970335312517	0.027127420117879535
-0.4829359983750017	0.03128325177099522
-0.4828749632187517	0.035438626448638676
-0.4828139280625017	0.039593358503823665
-0.4827528929062517	0.04374728292441437
-0.4826918577500017	0.047900237579176205
-0.4826308225937517	0.05205202091480056
-0.4825697874375017	0.05620243501153789
-0.4825087522812517	0.06035130410317931
-0.4824477171250017	0.06449847025973657
-0.4823866819687517	0.06864375588710407
-0.4823256468125017	0.072786976754108
-0.4822646116562517	0.07692795802908564
-0.4822035765000017	0.08106648317007682
-0.4821425413437517	0.08520235315133817
-0.4820815061875017	0.08933540433010817
-0.4820204710312517	0.09346547127712707
-0.4819594358750017	0.09759238701030723
-0.4818984007187517	0.10171595546824751
-0.4818373655625017	0.105835996128643
-0.4817763304062517	0.1099523508441563
-0.4817152952500017	0.11406484091435151
-0.4816542600937517	0.11817325934805958
-0.4815932249375017	0.12227737635157086
-0.4815321897812517	0.1263770130440601
-0.4814711546250017	0.13047203778044025
-0.4814101194687517	0.13456229490511973
-0.4813490843125017	0.1386475860671321
-0.4812880491562517	0.14272771719560623
-0.4812270140000017	0.14680255247458868
-0.4811659788437517	0.15087192253962708
-0.4811049436875017	0.15493558800874274
-0.4810439085312517	0.15899335688500313
-0.4809828733750017	0.16304510838219133
-0.4809218382187517	0.16709067079065132
-0.4808608030625017	0.171129799771679
-0.4807997679062517	0.1751623080252283
-0.4807387327500017	0.1791880321954267
-0.4806776975937517	0.18320679592399133
-0.4806166624375017	0.18721846896509559
-0.4805556272812517	0.19122289515806976
-0.4804945921250017	0.19521987345539896
-0.4804335569687517	0.19920919204336374
-0.4803725218125017	0.20319066718998696
-0.4803114866562517	0.2071641617337171
-0.4802504515000017	0.2111295026901236
-0.4801894163437517	0.21508648568628574
-0.4801283811875017	0.2190349190231574
-0.4800673460312517	0.22297464859320415
-0.4800063108750017	0.22690552128937838
-0.4799452757187517	0.23082732754682878
-0.4798842405625017	0.2347398853765871
-0.4798232054062517	0.23864304494437397
-0.4797621702500017	0.24253663884056942
-0.4797011350937517	0.24642048948098946
-0.4796400999375017	0.2502944121767585
-0.4795790647812517	0.25415824587042407
-0.4795180296250017	0.25801181763621006
-0.4794569944687517	0.26185495232304495
-0.4793959593125017	0.2656874931019499
-0.4793349241562517	0.2695092600971621
-0.4792738890000017	0.27332008578327105
-0.4792128538437517	0.27711979845819684
-0.4791518186875017	0.28090821792157583
-0.4790907835312517	0.28468516699815816
-0.4790297483750017	0.28845045970452626
-0.4789687132187517	0.29220395882148725
-0.4789076780625017	0.2959455183047323
-0.4788466429062517	0.2996749546145541
-0.4787856077500017	0.30339209494132335
-0.4787245725937517	0.30709675353052746
-0.4786635374375017	0.3107887723052044
-0.4786025022812517	0.3144679961738857
-0.4785414671250017	0.3181342495855319
-0.4784804319687517	0.32178737804753776
-0.4784193968125017	0.3254272170563389
-0.4783583616562517	0.3290536088161889
-0.4782973265000017	0.3326663868576355
-0.4782362913437517	0.3362653982551449
-0.4781752561875017	0.3398504992915904
-0.4781142210312517	0.3434214879927518
-0.4780531858750017	0.3469782029359491
-0.4779921507187517	0.3505204792353693
-0.4779311155625017	0.3540481538977765
-0.4778700804062517	0.35756111610777674
-0.4778090452500017	0.36105916254259046
-0.4777480100937517	0.36454216360368497
-0.4776869749375017	0.36801000892268004
-0.4776259397812517	0.37146242562048226
-0.4775649046250017	0.37489932165672724
-0.4775038694687517	0.37832062324262145
-0.4774428343125017	0.3817260244729851
-0.4773817991562517	0.3851153509332519
-0.4773207640000017	0.38848852582926013
-0.4772597288437517	0.3918454396372232
-0.4771986936875017	0.3951859555770852
-0.4771376585312517	0.3985098257382845
-0.4770766233750017	0.40181689187191405
-0.4770155882187517	0.40510707792922834
-0.4769545530625017	0.40838024185323674
-0.4768935179062517	0.41163622832595265
-0.4768324827500017	0.4148748676787498
-0.4767714475937517	0.4180960037478997
-0.4767104124375017	0.42129945970301774
-0.4766493772812517	0.42448507748402803
-0.4765883421250017	0.42765277405664387
-0.4765273069687517	0.43080240808450104
-0.4764662718125017	0.4339337944090871
-0.4764052366562517	0.43704677259005387
-0.4763442015000017	0.44014123072755534
-0.4762831663437517	0.4432170754774485
-0.4762221311875017	0.4462741207985765
-0.4761610960312517	0.4493121911368664
-0.4761000608750017	0.4523312041822789
-0.4760390257187517	0.45533104288214066
-0.4759779905625017	0.45831152051060947
-0.4759169554062517	0.4612724649210704
-0.4758559202500017	0.4642137742215966
-0.4757948850937517	0.46713533902467613
-0.4757338499375017	0.47003699880711974
-0.4756728147812517	0.4729186160955199
-0.4756117796250017	0.47578007557513863
-0.4755507444687517	0.4786212562919171
-0.4754897093125017	0.48144200619365374
-0.4754286741562517	0.48424217169699313
-0.4753676390000017	0.4870216510491824
-0.4753066038437517	0.48978032657890064
-0.4752455686875017	0.49251805367218826
-0.4751845335312517	0.49523470851941687
-0.4751234983750017	0.497930180026965
-0.4750624632187517	0.5006043410077817
-0.4750014280625017	0.5032570440252341
-0.4749403929062517	0.5058881707325426
-0.4748793577500017	0.5084976157906683
-0.4748183225937517	0.5110852470117978
-0.4747572874375017	0.5136509301595755
-0.4746962522812517	0.5161945538588221
-0.4746352171250017	0.518716023177794
-0.4745741819687517	0.5212152131805478
-0.4745131468125017	0.5236919765062333
-0.4744521116562517	0.526146192978142
-0.4743910765000017	0.5285777683677539
-0.4743300413437517	0.5309866007638664
-0.4742690061875017	0.5333725616937658
-0.4742079710312517	0.5357355404284031
-0.4741469358750017	0.538075441547716
-0.4740859007187517	0.5403921424624167
-0.4740248655625017	0.5426855169167403
-0.4739638304062517	0.5449554525531124
-0.4739027952500017	0.5472018582617328
-0.4738417600937517	0.5494246358845458
-0.4737807249375017	0.5516236641904982
-0.4737196897812517	0.5537988473597446
-0.4736586546250017	0.5559500953143833
-0.4735976194687517	0.5580772912329501
-0.4735365843125017	0.5601803154150409
-0.4734755491562517	0.562259078810843
-0.4734145140000017	0.5643135077003348
-0.4733534788437517	0.5663434905320129
-0.4732924436875017	0.5683489163350777
-0.4732314085312517	0.5703296985271398
-0.4731703733750017	0.5722857387182374
-0.4731093382187517	0.5742169338449725
-0.4730483030625017	0.5761231828221673
-0.4729872679062517	0.5780044096453235
-0.4729262327500017	0.5798605453161325
-0.4728651975937517	0.5816914883686116
-0.4728041624375017	0.5834971378013422
-0.4727431272812517	0.5852773999030375
-0.4726820921250017	0.587032193480722
-0.4726210569687517	0.5887614397858421
-0.4725600218125017	0.5904650522841661
-0.4724989866562517	0.5921429645247043
-0.4724379515000017	0.5937950808778554
-0.4723769163437517	0.5954213008345561
-0.4723158811875017	0.5970215630036754
-0.4722548460312517	0.598595786904058
-0.4721938108750017	0.6001438945983278
-0.4721327757187517	0.6016658115660625
-0.4720717405625017	0.603161452643027
-0.4720107054062517	0.6046307526832426
-0.4719496702500017	0.6060736368351233
-0.4718886350937517	0.6074900281493462
-0.4718275999375017	0.6088798600962847
-0.4717665647812517	0.6102430633255665
-0.4717055296250017	0.6115795667883118
-0.4716444944687517	0.612889294519451
-0.4715834593125017	0.6141721885083758
-0.4715224241562517	0.6154281801363324
-0.4714613890000017	0.6166571989145718
-0.4714003538437517	0.6178592020497861
-0.4713393186875017	0.6190341168933258
-0.4712782835312517	0.6201818716150775
-0.4712172483750017	0.6213024161747153
-0.4711562132187517	0.6223956973058952
-0.4710951780625017	0.6234616665667009
-0.4710341429062517	0.6245002483516386
-0.4709731077500017	0.6255113802835235
-0.4709120725937517	0.6264950286012654
-0.4708510374375017	0.6274511377100449
-0.4707900022812517	0.6283796496499573
-0.4707289671250017	0.6292805094599772
-0.4706679319687517	0.6301536769438683
-0.4706068968125017	0.630999117077202
-0.4705458616562517	0.631816769362996
-0.4704848265000017	0.6326065860065022
-0.4704237913437517	0.6333685286527337
-0.4703627561875017	0.6341025545982514
-0.4703017210312517	0.6348086234964306
-0.4702406858750017	0.6354866890691564
-0.4701796507187517	0.6361367198479826
-0.4701186155625017	0.636758677564799
-0.4700575804062517	0.6373525182346427
-0.4699965452500017	0.6379182116205071
-0.4699355100937517	0.638455722277707
-0.4698744749375017	0.6389650275960013
-0.4698134397812517	0.6394460885764809
-0.4697524046250017	0.639898862101776
-0.4696913694687517	0.640323334124736
-0.4696303343125017	0.6407194750399557
-0.4695692991562517	0.641087258309095
-0.4695082640000017	0.641426655824318
