Time	Frequency
-0.500045773062503	0.3526086446102245
-0.499984737906253	0.34822103478385585
-0.499923702750003	0.34370292836925537
-0.499862667593753	0.3390383606198531
-0.499801632437503	0.3342234412924662
-0.499740597281253	0.3292665675093982
-0.499679562125003	0.3241874416469987
-0.499618526968753	0.31901501686821443
-0.499557491812503	0.3137845981240009
-0.499496456656253	0.30853438650043097
-0.499435421500003	0.3033018060942687
-0.499374386343753	0.29811997727326056
-0.499313351187503	0.2930146744858543
-0.499252316031253	0.2880020558597842
-0.499191280875003	0.2830873716535525
-0.499130245718753	0.2782647501408807
-0.499069210562503	0.27351805339884494
-0.499008175406253	0.2688226966378808
-0.498947140250003	0.26414823699672485
-0.498886105093753	0.2594614644907796
-0.498825069937503	0.25472967960299986
-0.498764034781253	0.2499238357772788
-0.498702999625003	0.24502124372719836
-0.498641964468753	0.24000758563219102
-0.498580929312503	0.23487807245577272
-0.498519894156253	0.22963765397802197
-0.498458859000003	0.22430027643644285
-0.498397823843753	0.21888729410592386
-0.498336788687503	0.2134252207507268
-0.498275753531253	0.2079430494300221
-0.498214718375003	0.20246940939941985
-0.498153683218753	0.19702984599535478
-0.498092648062503	0.1916444885825401
-0.498031612906253	0.18632632217108502
-0.497970577750003	0.18108020859580132
-0.497909542593753	0.1759027260930836
-0.497848507437503	0.17078281565021575
-0.497787472281253	0.16570314488064786
-0.497726437125003	0.16064203656442325
-0.497665401968753	0.1555757609621356
-0.497604366812503	0.15048095829253127
-0.497543331656253	0.14533694611458683
-0.497482296500003	0.1401276795229907
-0.497421261343753	0.13484317663989212
-0.497360226187503	0.12948029576706582
-0.497299191031253	0.12404282230963473
-0.497238155875003	0.11854087945954526
-0.497177120718753	0.11298973462161274
-0.497116085562503	0.1074081345710514
-0.497055050406253	0.10181635498832255
-0.496994015250003	0.09623417554800706
-0.496932980093753	0.09067897847886372
-0.496871944937503	0.08516414569770515
-0.496810909781253	0.07969790876424773
-0.496749874625003	0.07428275842205041
-0.496688839468753	0.06891544854294565
-0.496627804312503	0.06358756569041027
-0.496566769156253	0.05828659083790671
-0.496505734000003	0.05299733473982297
-0.496444698843753	0.04770358951431427
-0.496383663687503	0.042389825393919736
-0.496322628531253	0.03704275664204206
-0.496261593375003	0.03165261943710005
-0.496200558218753	0.026214055810997408
-0.496139523062503	0.02072653238856364
-0.496078487906253	0.015194252070860925
-0.496017452750003	0.009625582984103246
-0.495956417593753	0.004032093426602763
-0.495895382437503	-0.0015726959979081982
-0.495834347281253	-0.007174716557510379
-0.495773312125003	-0.012760761301386881
-0.495712276968753	-0.01831975594689024
-0.495651241812503	-0.0238437739074531
-0.495590206656253	-0.029328698832900443
-0.495529171500003	-0.03477447260350122
-0.495468136343753	-0.04018492002054052
-0.495407101187503	-0.04556718611923005
-0.495346066031253	-0.050930858207752845
-0.495285030875003	-0.05628687145154196
-0.495223995718753	-0.06164631276018448
-0.495162960562503	-0.06701924960480676
-0.495101925406253	-0.07241370201387717
-0.495040890250003	-0.07783485408349224
-0.494979855093753	-0.08328458186871916
-0.494918819937503	-0.08876134070834174
-0.494857784781253	-0.09426040741895723
-0.494796749625003	-0.09977443479803352
-0.494735714468753	-0.10529425721673238
-0.494674679312503	-0.11080986348207236
-0.494613644156253	-0.11631142381367926
-0.494552609000003	-0.1217902595960321
-0.494491573843753	-0.12723966318498894
-0.494430538687503	-0.13265548943054556
-0.494369503531253	-0.13803646788984114
-0.494308468375003	-0.14338421192745202
-0.494247433218753	-0.1487029278511802
-0.494186398062503	-0.15399886298111792
-0.494125362906253	-0.1592795593334228
-0.494064327750003	-0.16455299793857012
-0.494003292593753	-0.16982672568297547
-0.493942257437503	-0.17510705269830976
-0.493881222281253	-0.18039839911503872
-0.493820187125003	-0.1857028547460402
-0.493759151968753	-0.19101999733928876
-0.493698116812503	-0.19634698042656717
-0.493637081656253	-0.201678865327094
-0.493576046500003	-0.20700915868943373
-0.493515011343753	-0.21233050098731432
-0.493453976187503	-0.21763542811446007
-0.493392941031253	-0.22291711799484773
-0.493331905875003	-0.22817004406696823
-0.493270870718753	-0.23339047983436453
-0.493209835562503	-0.23857680704260276
-0.493148800406253	-0.2437295923488184
-0.493087765250003	-0.24885143504423032
-0.493026730093753	-0.25394661031064736
-0.492965694937503	-0.2590205443816391
-0.492904659781253	-0.2640791850033115
-0.492843624625003	-0.2691283372535144
-0.492782589468753	-0.27417302780989394
-0.492721554312503	-0.27921696416901476
-0.492660519156253	-0.2842621471448639
-0.492599484000003	-0.28930867242987
-0.492538448843753	-0.294354736226017
-0.492477413687503	-0.2993968381365577
-0.492416378531253	-0.30443015278215896
-0.492355343375003	-0.30944903175862465
-0.492294308218753	-0.31444758396318206
-0.492233273062503	-0.3194202646586681
-0.492172237906253	-0.3243624110955359
-0.492111202750003	-0.32927067602399424
-0.492050167593753	-0.33414331445788886
-0.491989132437503	-0.3389802969213414
-0.491928097281253	-0.3437832420863577
-0.491867062125003	-0.34855517749057574
-0.491806026968753	-0.35330016018462695
-0.491744991812503	-0.35802280039191026
-0.491683956656253	-0.36272773591595436
-0.491622921500003	-0.3674191160695451
-0.491561886343753	-0.3721001513593824
-0.491500851187503	-0.3767727715945944
-0.491439816031253	-0.3814374248577389
-0.491378780875003	-0.38609303313261534
-0.491317745718753	-0.3907371040497999
-0.491256710562503	-0.3953659891519635
-0.491195675406253	-0.3999752592762638
-0.491134640250003	-0.40456015003356494
-0.491073605093753	-0.40911603218889814
-0.491012569937503	-0.41363886233055963
-0.490951534781253	-0.41812556318972
-0.490890499625003	-0.4225742896693493
-0.490829464468753	-0.4269845594438492
-0.490768429312503	-0.43135724474090187
-0.490707394156253	-0.4356944270410312
-0.490646359000003	-0.4399991281305827
-0.490585323843753	-0.44427494871226636
-0.490524288687503	-0.44852565458326615
-0.490463253531253	-0.45275475465413345
-0.490402218375003	-0.4569651178573482
-0.490341183218753	-0.4611586659168199
-0.490280148062503	-0.46533616714130266
-0.490219112906253	-0.4694971536549845
-0.490158077750003	-0.4736399707985922
-0.490097042593753	-0.47776194862310545
-0.490036007437503	-0.48185967264967067
-0.489974972281253	-0.4859293226914491
-0.489913937125003	-0.4899670473617627
-0.489852901968753	-0.4939693355634796
-0.489791866812503	-0.49793334310711884
-0.489730831656253	-0.5018571416229646
-0.489669796500003	-0.5057398664005086
-0.489608761343753	-0.5095817517628485
-0.489547726187503	-0.513384055982265
-0.489486691031253	-0.5171488863627437
-0.489425655875003	-0.5208789413998687
-0.489364620718753	-0.5245771956074905
-0.489303585562503	-0.5282465608561777
-0.489242550406253	-0.5318895639322352
-0.489181515250003	-0.5355080776873091
-0.489120480093753	-0.5391031265992007
-0.489059444937503	-0.5426747785288459
-0.488998409781253	-0.5462221367160337
-0.488937374625003	-0.5497434338299904
-0.488876339468753	-0.5532362115733299
-0.488815304312503	-0.5566975649980256
-0.488754269156253	-0.5601244288105861
-0.488693234000003	-0.5635138747563537
-0.488632198843753	-0.5668633848822379
-0.488571163687503	-0.5701710712764406
-0.488510128531253	-0.5734358244378551
-0.488449093375003	-0.5766573801362773
-0.488388058218753	-0.5798363002644974
-0.488327023062503	-0.5829738723673799
-0.488265987906253	-0.5860719385815968
-0.488204952750003	-0.5891326703957862
-0.488143917593753	-0.5921583159885909
-0.488082882437503	-0.5951509506850241
-0.488021847281253	-0.5981122541350966
-0.487960812125003	-0.60104333248658
-0.487899776968753	-0.6039446033029681
-0.487838741812503	-0.6068157548358732
-0.487777706656253	-0.6096557817819752
-0.487716671500003	-0.6124630922731484
-0.487655636343753	-0.6152356715262775
-0.487594601187503	-0.6179712817138014
-0.487533566031253	-0.620667677692388
-0.487472530875003	-0.6233228173425879
-0.487411495718753	-0.6259350446520521
-0.487350460562503	-0.6285032266361581
-0.487289425406253	-0.6310268316457311
-0.487228390250003	-0.6335059440697847
-0.487167355093753	-0.6359412162857833
-0.487106319937503	-0.6383337647313785
-0.487045284781253	-0.640685023013384
-0.486984249625003	-0.6429965680947584
-0.486923214468753	-0.6452699374887596
-0.486862179312503	-0.6475064574016315
-0.486801144156253	-0.6497070998647109
-0.486740109000003	-0.6518723818244415
-0.486679073843753	-0.654002315373342
-0.486618038687503	-0.6560964133118076
-0.486557003531253	-0.6581537455152566
-0.486495968375003	-0.6601730361163407
-0.486434933218753	-0.6621527925722235
-0.486373898062503	-0.6640914546337202
-0.486312862906253	-0.6659875449094105
-0.486251827750003	-0.6678398043894083
-0.486190792593753	-0.6696473000212773
-0.486129757437503	-0.6714094935480147
-0.486068722281253	-0.6731262665427179
-0.486007687125003	-0.6747979019581616
-0.485946651968753	-0.6764250260434538
-0.485885616812503	-0.6780085180663458
-0.485824581656253	-0.6795493975807944
-0.485763546500003	-0.6810487013958344
-0.485702511343753	-0.6825073643186931
-0.485641476187503	-0.6839261161630822
-0.485580441031253	-0.6853054044372238
-0.485519405875003	-0.6866453494934919
-0.485458370718753	-0.6879457355307196
-0.485397335562503	-0.6892060372027629
-0.485336300406253	-0.6904254779663568
-0.485275265250003	-0.6916031125534351
-0.485214230093753	-0.6927379237070326
-0.485153194937503	-0.6938289222399738
-0.485092159781253	-0.694875239574005
-0.485031124625003	-0.6958762040620939
-0.484970089468753	-0.6968313944364768
-0.484909054312503	-0.697740665480372
-0.484848019156253	-0.6986041441177223
-0.484786984000003	-0.6994221977119127
-0.484725948843753	-0.7001953791599724
-0.484664913687503	-0.700924355462187
-0.484603878531253	-0.7016098279954991
-0.484542843375003	-0.7022524530245974
-0.484481808218753	-0.7028527706716008
-0.484420773062503	-0.703411149738583
-0.484359737906253	-0.7039277531964281
-0.484298702750003	-0.7044025260573885
-0.484237667593753	-0.7048352053429416
-0.484176632437503	-0.7052253505781871
-0.484115597281253	-0.7055723916132159
-0.484054562125003	-0.7058756875942354
-0.483993526968753	-0.7061345893697984
-0.483932491812503	-0.7063484994527832
-0.483871456656253	-0.7065169250082394
-0.483810421500003	-0.7066395193942299
-0.483749386343753	-0.706716107956597
-0.483688351187503	-0.706746695457553
-0.483627316031253	-0.7067314565238991
-0.483566280875003	-0.7066707117143909
-0.483505245718753	-0.7065648909417197
-0.483444210562503	-0.7064144883626798
-0.483383175406253	-0.7062200141192704
-0.483322140250003	-0.7059819467877241
-0.483261105093753	-0.7057006908226456
-0.483200069937503	-0.7053765434975444
-0.483139034781253	-0.7050096741061961
-0.483077999625003	-0.704600117063012
-0.483016964468753	-0.7041477778987867
-0.482955929312503	-0.7036524485399767
-0.482894894156253	-0.7031138300947065
-0.482833859000003	-0.7025315624833682
-0.482772823843753	-0.7019052581790904
-0.482711788687503	-0.7012345360942365
-0.482650753531253	-0.700519051861206
-0.482589718375003	-0.6997585230203358
-0.482528683218753	-0.6989527482132262
-0.482467648062503	-0.6981016176686701
-0.482406612906253	-0.6972051157899432
-0.482345577750003	-0.6962633192764729
-0.482284542593753	-0.6952763904646393
-0.482223507437503	-0.6942445661473217
-0.482162472281253	-0.6931681451790337
-0.482101437125003	-0.6920474761706596
-0.482040401968753	-0.6908829440974013
-0.481979366812503	-0.689674954750477
-0.481918331656253	-0.6884239173169104
-0.481857296500003	-0.6871302263708603
-0.481796261343753	-0.6857942444220183
-0.481735226187503	-0.6844162845530544
-0.481674191031253	-0.6829965919396042
-0.481613155875003	-0.6815353259130504
-0.481552120718753	-0.6800325466812824
-0.481491085562503	-0.6784882075760013
-0.481430050406253	-0.6769021514020251
-0.481369015250003	-0.6752741144144899
-0.481307980093753	-0.6736037398874354
-0.481246944937503	-0.6718905991840642
-0.481185909781253	-0.6701342242564647
-0.481124874625003	-0.6683341515255319
-0.481063839468753	-0.6664899675128031
-0.481002804312503	-0.6646013535753872
-0.480941769156253	-0.6626681306766202
-0.480880734000003	-0.6606902975868474
-0.480819698843753	-0.6586680571094284
-0.480758663687503	-0.6566018271154289
-0.480697628531253	-0.6544922312342186
-0.480636593375003	-0.6523400690903057
-0.480575558218753	-0.65014626956579
-0.480514523062503	-0.6479118282460502
-0.480453487906253	-0.6456377327894189
-0.480392452750003	-0.6433248846402908
-0.480331417593753	-0.6409740230199288
-0.480270382437503	-0.6385856570932725
-0.480209347281253	-0.6361600153494625
-0.480148312125003	-0.6336970167630548
-0.480087276968753	-0.631196269452745
-0.480026241812503	-0.6286571040384409
-0.479965206656253	-0.6260786362212305
-0.479904171500003	-0.6234598494074632
-0.479843136343753	-0.6207996947827117
-0.479782101187503	-0.6180972023664222
-0.479721066031253	-0.6153515920061388
-0.479660030875003	-0.6125623731288447
-0.479598995718753	-0.6097294206997917
-0.479537960562503	-0.6068530188142228
-0.479476925406253	-0.6039338675105331
-0.479415890250003	-0.6009730490617406
-0.479354855093753	-0.5979719546813841
-0.479293819937503	-0.5949321798417885
-0.479232784781253	-0.5918553993814768
-0.479171749625003	-0.588743228986084
-0.479110714468753	-0.5855970834361417
-0.479049679312503	-0.5824180527221278
-0.478988644156253	-0.5792068075203628
-0.478927609000003	-0.5759635362526423
-0.478866573843753	-0.5726879260833901
-0.478805538687503	-0.5693791984206871
-0.478744503531253	-0.5660361928861456
-0.478683468375003	-0.5626574888876817
-0.478622433218753	-0.5592415561552356
-0.478561398062503	-0.5557869180087456
-0.478500362906253	-0.5522923091396583
-0.478439327750003	-0.5487568178674639
-0.478378292593753	-0.5451800007955381
-0.478317257437503	-0.5415619540416122
-0.478256222281253	-0.5379033326375677
-0.478195187125003	-0.5342053176237477
-0.478134151968753	-0.530469533359541
-0.478073116812503	-0.5266979190106288
-0.478012081656253	-0.5228925641259924
-0.477951046500003	-0.519055529428259
-0.477890011343753	-0.5151886736173923
-0.477828976187503	-0.5112934972291892
-0.477767941031253	-0.507371016553533
-0.477706905875003	-0.5034216840070015
-0.477645870718753	-0.49944536338221773
-0.477584835562503	-0.49544136263461364
-0.477523800406253	-0.49140852268160296
-0.477462765250003	-0.4873453516814038
-0.477401730093753	-0.48325019035176653
-0.477340694937503	-0.47912139453613
-0.477279659781253	-0.47495751879667525
-0.477218624625003	-0.47075748055093714
-0.477157589468753	-0.4665206873226784
-0.477096554312503	-0.46224711774150506
-0.477035519156253	-0.4579373469675556
-0.476974484000003	-0.45359251025817815
-0.476913448843753	-0.44921420986669586
-0.476852413687503	-0.4448043784407552
-0.476791378531253	-0.4403651164300714
-0.476730343375003	-0.4358985178151192
-0.476669308218753	-0.43140649341049986
-0.476608273062503	-0.4268906086183258
-0.476547237906253	-0.42235195972134676
-0.476486202750003	-0.4177911044637232
-0.476425167593753	-0.4132080493728654
-0.476364132437503	-0.4086022872618377
-0.476303097281253	-0.40397287826095185
-0.476242062125003	-0.3993185727976828
-0.476181026968753	-0.3946379655497145
-0.476119991812503	-0.38992965979407135
-0.476058956656253	-0.3851924307565573
-0.475997921500003	-0.38042537710864915
-0.475936886343753	-0.3756280366597869
-0.475875851187503	-0.370800448233969
-0.475814816031253	-0.36594316178614733
-0.475753780875003	-0.3610572009815628
-0.475692745718753	-0.35614397913687945
-0.475631710562503	-0.3512051778683885
-0.475570675406253	-0.34624260057923395
-0.475509640250003	-0.3412580169323754
-0.475448605093753	-0.33625301779205086
-0.475387569937503	-0.33122889111896425
-0.475326534781253	-0.3261865306878873
-0.475265499625003	-0.3211263890424117
-0.475204464468753	-0.3160484762490269
-0.475143429312503	-0.3109524048273693
-0.475082394156253	-0.3058374755333637
-0.475021359000003	-0.3007027920390045
-0.474960323843753	-0.2955473917155134
-0.474899288687503	-0.2903703797395257
-0.474838253531253	-0.28517105463479553
-0.474777218375003	-0.2799490084792122
-0.474716183218753	-0.27470419081081626
-0.474655148062503	-0.2694369373065269
-0.474594112906253	-0.264147958300116
-0.474533077750003	-0.2588382828635126
-0.474472042593753	-0.25350916664689893
-0.474411007437503	-0.24816198014681956
-0.474349972281253	-0.24279809624295426
-0.474288937125003	-0.23741878152110987
-0.474227901968753	-0.23202509431688798
-0.474166866812503	-0.22661780882284474
-0.474105831656253	-0.22119737707331577
-0.474044796500003	-0.21576392429551744
-0.473983761343753	-0.21031727749242704
-0.473922726187503	-0.2048570324877836
-0.473861691031253	-0.19938264983613974
-0.473800655875003	-0.19389355965479715
-0.473739620718753	-0.1883892665055659
-0.473678585562503	-0.1828694468312702
-0.473617550406253	-0.17733402108704183
-0.473556515250003	-0.1717831917946261
-0.473495480093753	-0.1662174539132974
-0.473434444937503	-0.16063757707228482
-0.473373409781253	-0.15504455299414824
-0.473312374625003	-0.14943951357517746
-0.473251339468753	-0.14382363230740208
-0.473190304312503	-0.1381980235553388
-0.473129269156253	-0.13256365580387017
-0.473068234000003	-0.12692128378896386
-0.473007198843753	-0.12127139956373842
-0.472946163687503	-0.11561421337579385
-0.472885128531253	-0.1099496732779372
-0.472824093375003	-0.10427751540743921
-0.472763058218753	-0.0985973344131772
-0.472702023062503	-0.09290867391057896
-0.472640987906253	-0.0872111274548248
-0.472579952750003	-0.08150442696444664
-0.472518917593753	-0.07578850810115338
-0.472457882437503	-0.07006355740780222
-0.472396847281253	-0.06433003986025974
-0.472335812125003	-0.05858869306523207
-0.472274776968753	-0.05284048134255934
-0.472213741812503	-0.04708652200905939
-0.472152706656253	-0.04132800069005932
-0.472091671500003	-0.03556608204728237
-0.472030636343753	-0.029801816937346796
-0.471969601187503	-0.02403605551649194
-0.471908566031253	-0.01826938248559197
-0.471847530875003	-0.012502086439032433
-0.471786495718753	-0.006734167348580836
-0.471725460562503	-0.0009653801991374689
-0.471664425406253	0.004804692550137343
-0.471603390250003	0.010576554398085518
-0.471542355093753	0.01635070295058901
-0.471481319937503	0.02212753332749254
-0.471420284781253	0.027907248095222034
-0.471359249625003	0.03368978854000549
-0.471298214468753	0.03947479555494708
-0.471237179312503	0.04526160646141354
-0.471176144156253	0.0510492867061054
-0.471115109000003	0.05683669108789031
-0.471054073843753	0.0626225499732875
-0.470993038687503	0.06840557026870218
-0.470932003531253	0.07418453951217298
-0.470870968375003	0.07995842577207832
-0.470809933218753	0.08572646284047032
-0.470748898062503	0.09148820272034675
-0.470687862906253	0.09724352312303232
-0.470626827750003	0.10299259923706833
-0.470565792593753	0.10873585212893153
-0.470504757437503	0.11447386908308561
-0.470443722281253	0.12020729554644337
-0.470382687125003	0.12593671538402285
-0.470321651968753	0.13166254004418215
-0.470260616812503	0.137384919815122
-0.470199581656253	0.14310368314376318
-0.470138546500003	0.14881830965569226
-0.470077511343753	0.1545279388480201
-0.470016476187503	0.16023141643763034
-0.469955441031253	0.16592738047368397
-0.469894405875003	0.17161437477790994
-0.469833370718753	0.17729097194428392
-0.469772335562503	0.1829558957424363
-0.469711300406253	0.18860813079723032
-0.469650265250003	0.19424700281827031
-0.469589230093753	0.1998722199544446
-0.469528194937503	0.20548387341161953
-0.469467159781253	0.21108239552012967
-0.469406124625003	0.2166684787594461
-0.469345089468753	0.2222429655824735
-0.469284054312503	0.22780671944006076
-0.469223019156253	0.23336048817558683
-0.469161984000003	0.23890477482012318
-0.469100948843753	0.2444397351600389
-0.469039913687503	0.24996511498123675
-0.468978878531253	0.25548023137564774
