Time	Frequency
-0.5000398123125009	-9.385692816036407e-23
-0.49997877715625094	-9.174162616130533e-23
-0.49991774200000094	-8.967520161628994e-23
-0.49985670684375094	-8.764395232644031e-23
-0.49979567168750094	-8.563162099135883e-23
-0.49973463653125094	-8.362053079536074e-23
-0.49967360137500094	-8.159280635428928e-23
-0.49961256621875094	-7.953159392000187e-23
-0.49955153106250094	-7.742219465483988e-23
-0.49949049590625094	-7.525303600818506e-23
-0.49942946075000094	-7.30164198030904e-23
-0.49936842559375094	-7.070899948766517e-23
-0.49930739043750094	-6.83319546531489e-23
-0.49924635528125094	-6.589085271058157e-23
-0.49918532012500094	-6.339521484790974e-23
-0.49912428496875094	-6.085782357511805e-23
-0.49906324981250094	-5.829381982941428e-23
-0.49900221465625094	-5.571965073426225e-23
-0.49894117950000094	-5.315194417233096e-23
-0.49888014434375094	-5.060639138747732e-23
-0.49881910918750094	-4.809671218275964e-23
-0.49875807403125094	-4.5633768480923544e-23
-0.49869703887500094	-4.3224884821730307e-23
-0.49863600371875094	-4.087342053123422e-23
-0.49857496856250094	-3.8578619393797496e-23
-0.49851393340625094	-3.63357440609648e-23
-0.49845289825000094	-3.4136478803666317e-23
-0.49839186309375094	-3.1969564688235535e-23
-0.49833082793750094	-2.982162343995793e-23
-0.49826979278125094	-2.767811311495432e-23
-0.49820875762500094	-2.552434336955208e-23
-0.49814772246875094	-2.334648005075612e-23
-0.49808668731250094	-2.1132475268381823e-23
-0.49802565215625094	-1.8872860102211027e-23
-0.49796461700000094	-1.6561345919748085e-23
-0.49790358184375094	-1.4195196865252598e-23
-0.49784254668750094	-1.177535290194805e-23
-0.49778151153125094	-9.306299387524625e-24
-0.49772047637500094	-6.795696875326528e-24
-0.49765944121875094	-4.253801867900083e-24
-0.49759840606250094	-1.692722531969947e-24
-0.49753737090625094	8.74436460242389e-25
-0.49747633575000094	3.434478736865585e-24
-0.49741530059375094	5.97500826333601e-24
-0.49735426543750094	8.485248903442059e-24
-0.49729323028125094	1.0956735954201807e-23
-0.49723219512500094	1.3383833634898897e-23
-0.49717115996875094	1.5764047948194958e-23
-0.49711012481250094	1.8098119335695726e-23
-0.49704908965625094	2.0389891642403402e-23
-0.49698805450000094	2.2645968482734705e-23
-0.49692701934375094	2.487518638690385e-23
-0.49686598418750094	2.7087948872622344e-23
-0.49680494903125094	2.9295470325744957e-23
-0.49674391387500094	3.150898000724627e-23
-0.49668287871875094	3.3738941066042345e-23
-0.49662184356250094	3.599433938736301e-23
-0.49656080840625094	3.828209155955766e-23
-0.49649977325000094	4.060661119176281e-23
-0.49643873809375094	4.296955713944518e-23
-0.49637770293750094	4.5369774709035406e-23
-0.49631666778125094	4.780343200884213e-23
-0.49625563262500094	5.0264339650835096e-23
-0.49619459746875094	5.27444267006355e-23
-0.49613356231250094	5.52343359404014e-23
-0.49607252715625094	5.772409508378533e-23
-0.49601149200000094	6.020381541416319e-23
-0.49595045684375094	6.26643670601385e-23
-0.49588942168750094	6.509798402810772e-23
-0.49582838653125094	6.749876037066599e-23
-0.49576735137500094	6.986300575057695e-23
-0.49570631621875094	7.218943716232519e-23
-0.49564528106250094	7.447919815008677e-23
-0.49558424590625094	7.673571017703944e-23
-0.49552321075000094	7.896436939804947e-23
-0.49546217559375094	8.117211214190648e-23
-0.49540114043750094	8.336688244617604e-23
-0.49534010528125094	8.555704233084164e-23
-0.49527907012500094	8.775076909863581e-23
-0.49521803496875094	8.995547992718285e-23
-0.49515699981250094	9.217732066800064e-23
-0.49509596465625094	9.442075694922806e-23
-0.49503492950000094	9.668829613434377e-23
-0.49497389434375094	9.898035214103419e-23
-0.49491285918750094	1.0129525852240749e-22
-0.49485182403125094	1.0362942897499258e-22
-0.49479078887500094	1.0597765069272674e-22
-0.49472975371875094	1.0833348453585394e-22
-0.49466871856250094	1.106897401726129e-22
-0.49460768340625094	1.1303899282252654e-22
-0.49454664825000094	1.15374105509598e-22
-0.49448561309375094	1.176887185850248e-22
-0.49442457793750094	1.199776730432336e-22
-0.49436354278125094	1.222373387171019e-22
-0.49430250762500094	1.244658244608845e-22
-0.49424147246875094	1.266630597258673e-22
-0.49418043731250094	1.28830745683128e-22
-0.49411940215625094	1.3097218087312735e-22
-0.49405836700000094	1.3309197839042412e-22
-0.49399733184375094	1.3519569841476415e-22
-0.49393629668750094	1.37289420509611e-22
-0.49387526153125094	1.3937928665321209e-22
-0.49381422637500094	1.4147105148348071e-22
-0.49375319121875094	1.435696723396265e-22
-0.49369215606250094	1.456789660134978e-22
-0.49363112090625094	1.4780135519196965e-22
-0.49357008575000094	1.4993772044803444e-22
-0.49350905059375094	1.5208736422421984e-22
-0.49344801543750094	1.542480882967012e-22
-0.49338698028125094	1.5641637936343028e-22
-0.49332594512500094	1.5858768550387405e-22
-0.49326490996875094	1.6075676004529052e-22
-0.49320387481250094	1.6291804675958657e-22
-0.49314283965625094	1.6506607810114424e-22
-0.49308180450000094	1.6719585956452163e-22
-0.49302076934375094	1.6930321315520708e-22
-0.49295973418750094	1.7138505294569743e-22
-0.49289869903125094	1.7343957399354472e-22
-0.49283766387500094	1.754663457131609e-22
-0.49277662871875094	1.7746630462674956e-22
-0.49271559356250094	1.7944164729096987e-22
-0.49265455840625094	1.813956342070361e-22
-0.49259352325000094	1.8333232260030195e-22
-0.49253248809375094	1.852562477440669e-22
-0.49247145293750094	1.8717207410626855e-22
-0.49241041778125094	1.8908424358463086e-22
-0.49234938262500094	1.9099664929128153e-22
-0.49228834746875094	1.9291235651602312e-22
-0.49222731231250094	1.9483338867736517e-22
-0.49216627715625094	1.9676059328912752e-22
-0.49210524200000094	1.9869359594037493e-22
-0.49204420684375094	2.0063084406264457e-22
-0.49198317168750094	2.0256973590062691e-22
-0.49192213653125094	2.0450682297921121e-22
-0.49186110137500094	2.0643807074605826e-22
-0.49180006621875094	2.0835915828203679e-22
-0.49173903106250094	2.1026579364500476e-22
-0.49167799590625094	2.121540211764472e-22
-0.49161696075000094	2.140204980472516e-22
-0.49155592559375094	2.158627200183282e-22
-0.49149489043750094	2.176791825145088e-22
-0.49143385528125094	2.194694667886309e-22
-0.49137282012500094	2.212342443694456e-22
-0.49131178496875094	2.229752007555419e-22
-0.49125074981250094	2.246948862351743e-22
-0.49118971465625094	2.263965058705403e-22
-0.49112867950000094	2.2808366472327633e-22
-0.49106764434375094	2.2976008847361597e-22
-0.49100660918750094	2.314293401100925e-22
-0.49094557403125094	2.3309455185578383e-22
-0.49088453887500094	2.3475819308098444e-22
-0.49082350371875094	2.364218921045811e-22
-0.49076246856250094	2.380863221976098e-22
-0.49070143340625094	2.3975115878039696e-22
-0.49064039825000094	2.414151108873809e-22
-0.49057936309375094	2.430760237204883e-22
-0.49051832793750094	2.447310440507074e-22
-0.49045729278125094	2.463768343341292e-22
-0.49039625762500094	2.4800981867405686e-22
-0.49033522246875094	2.496264438300795e-22
-0.49027418731250094	2.5122343592295056e-22
-0.49021315215625094	2.52798032987564e-22
-0.49015211700000094	2.5434817595376373e-22
-0.49009108184375094	2.5587264441423323e-22
-0.49003004668750094	2.573711294997788e-22
-0.48996901153125094	2.58844240165585e-22
-0.48990797637500094	2.6029344218030053e-22
-0.48984694121875094	2.617209341875227e-22
-0.48978590606250094	2.6312947056778073e-22
-0.48972487090625094	2.645221448815175e-22
-0.48966383575000094	2.6590215032876066e-22
-0.48960280059375094	2.6727253584880493e-22
-0.48954176543750094	2.6863597628174586e-22
-0.48948073028125094	2.699945720652034e-22
-0.48941969512500094	2.713496927443483e-22
-0.48935865996875094	2.7270187702756725e-22
-0.48929762481250094	2.74050795937465e-22
-0.48923658965625094	2.753952794114065e-22
-0.48917555450000094	2.7673340434765073e-22
-0.48911451934375094	2.7806263819525683e-22
-0.48905348418750094	2.7938002595628924e-22
-0.48899244903125094	2.80682406249758e-22
-0.48893141387500094	2.819666411345032e-22
-0.48887037871875094	2.832298421527519e-22
-0.48880934356250094	2.8446957588993123e-22
-0.48874830840625094	2.8568403507977953e-22
-0.48868727325000094	2.8687216272209004e-22
-0.48862623809375094	2.8803371917815274e-22
-0.48856520293750094	2.8916928805547e-22
-0.48850416778125094	2.9028022246907914e-22
-0.48844313262500094	2.9136853612979815e-22
-0.48838209746875094	2.92436746206116e-22
-0.48832106231250094	2.9348767943589823e-22
-0.48826002715625094	2.945242570914773e-22
-0.48819899200000094	2.95549275168409e-22
-0.48813795684375094	2.9656519522537913e-22
-0.48807692168750094	2.975739607362977e-22
-0.48801588653125094	2.985768526099806e-22
-0.48795485137500094	2.995743944957779e-22
-0.48789381621875094	3.005663141972046e-22
-0.48783278106250094	3.015515635524854e-22
-0.48777174590625094	3.0252839518891944e-22
-0.48771071075000094	3.034944901129584e-22
-0.48764967559375094	3.044471264393397e-22
-0.48758864043750094	3.0538337659043595e-22
-0.48752760528125094	3.0630031842805795e-22
-0.48746657012500094	3.0719524501139335e-22
-0.48740553496875094	3.080658573674229e-22
-0.48734449981250094	3.089104265219589e-22
-0.48728346465625094	3.0972791371423212e-22
-0.48722242950000094	3.105180397148378e-22
-0.48716139434375094	3.1128129818898995e-22
-0.48710035918750094	3.12018912914339e-22
-0.48703932403125094	3.127327421313095e-22
-0.48697828887500094	3.134251370157672e-22
-0.48691725371875094	3.140987649037738e-22
-0.48685621856250094	3.147564104131654e-22
-0.48679518340625094	3.154007692274589e-22
-0.48673414825000094	3.1603424953094424e-22
-0.48667311309375094	3.1665879516970684e-22
-0.48661207793750094	3.172757432672359e-22
-0.48655104278125094	3.1788572677408345e-22
-0.48649000762500094	3.184886287099678e-22
-0.48642897246875094	3.1908359075695417e-22
-0.48636793731250094	3.1966907544540965e-22
-0.48630690215625094	3.2024297760357617e-22
-0.48624586700000094	3.2080277673309038e-22
-0.48618483184375094	3.213457186728249e-22
-0.48612379668750094	3.218690131022237e-22
-0.48606276153125094	3.2237003286179e-22
-0.48600172637500094	3.228465009472063e-22
-0.48594069121875094	3.2329665149484152e-22
-0.48587965606250094	3.2371935305384864e-22
-0.48581862090625094	3.241141855818168e-22
-0.48575758575000094	3.244814659254635e-22
-0.48569655059375094	3.248222200931326e-22
-0.48563551543750094	3.2513810451008374e-22
-0.48557448028125094	3.254312822330969e-22
-0.48551344512500094	3.257042632647332e-22
-0.48545240996875094	3.2595972057023115e-22
-0.48539137481250094	3.2620029521757314e-22
-0.48533033965625094	3.264284048358286e-22
-0.48526930450000094	3.266460692276324e-22
-0.48520826934375094	3.2685476556613182e-22
-0.48514723418750094	3.2705532330173474e-22
-0.48508619903125094	3.2724786621488876e-22
-0.48502516387500094	3.274318056522919e-22
-0.48496412871875094	3.276058850991686e-22
-0.48490309356250094	3.277682727088787e-22
-0.48484205840625094	3.279166947665138e-22
-0.48478102325000094	3.2804860010710353e-22
-0.48471998809375094	3.281613438723539e-22
-0.48465895293750094	3.282523773921764e-22
-0.48459791778125094	3.283194300320418e-22
-0.48453688262500094	3.2836066966487646e-22
-0.48447584746875094	3.2837483073323654e-22
-0.48441481231250094	3.2836130146258106e-22
-0.48435377715625094	3.283201639440243e-22
-0.48429274200000094	3.2825218419535974e-22
-0.48423170684375094	3.2815875333704874e-22
-0.48417067168750094	3.280417841856174e-22
-0.48410963653125094	3.279035710757206e-22
-0.48404860137500094	3.2774662344885624e-22
-0.48398756621875094	3.2757348508433564e-22
-0.48392653106250094	3.273865522188518e-22
-0.48386549590625094	3.271879035336249e-22
-0.48380446075000094	3.2697915357952615e-22
-0.48374342559375094	3.267613405120977e-22
-0.48368239043750094	3.265348561032798e-22
-0.48362135528125094	3.2629942208009895e-22
-0.48356032012500094	3.2605411458032437e-22
-0.48349928496875094	3.2579743456323593e-22
-0.48343824981250094	3.2552741808186957e-22
-0.48337721465625094	3.2524177926112965e-22
-0.48331617950000094	3.249380762291682e-22
-0.48325514434375094	3.246138867442645e-22
-0.48319410918750094	3.242669806720264e-22
-0.48313307403125094	3.2389547832940573e-22
-0.48307203887500094	3.2349798379414204e-22
-0.48301100371875094	3.230736828981035e-22
-0.48294996856250094	3.226223986814949e-22
-0.48288893340625094	3.221446010586551e-22
-0.48282789825000094	3.216413706528779e-22
-0.48276686309375094	3.211143196967033e-22
-0.48270582793750094	3.205654760304555e-22
-0.48264479278125094	3.1999713863270183e-22
-0.48258375762500094	3.1941171493288125e-22
-0.48252272246875094	3.1881155163821035e-22
-0.48246168731250094	3.1819877091067364e-22
-0.48240065215625094	3.175751233754031e-22
-0.48233961700000094	3.169418691923389e-22
-0.48227858184375094	3.1629969553547855e-22
-0.48221754668750094	3.156486745155416e-22
-0.48215651153125094	3.1498826358386745e-22
-0.48209547637500094	3.1431734879711466e-22
-0.48203444121875094	3.136343286387864e-22
-0.48197340606250094	3.1293723292330403e-22
-0.48191237090625094	3.1222386703954207e-22
-0.48185133575000094	3.1149196970500004e-22
-0.48179030059375094	3.1073937373122814e-22
-0.48172926543750094	3.0996415963660515e-22
-0.48166823028125094	3.091647910814065e-22
-0.48160719512500094	3.0834022254829343e-22
-0.48154615996875094	3.0748997192384934e-22
-0.48148512481250094	3.0661415242479945e-22
-0.48142408965625094	3.0571346259047175e-22
-0.48136305450000094	3.047891364216697e-22
-0.48130201934375094	3.0384285647761625e-22
-0.48124098418750094	3.0287663599622333e-22
-0.48117994903125094	3.0189267921540227e-22
-0.48111891387500094	3.008932295073263e-22
-0.48105787871875094	2.998804158059638e-22
-0.48099684356250094	2.988561088615709e-22
-0.48093580840625094	2.978217978462667e-22
-0.48087477325000094	2.9677849432682453e-22
-0.48081373809375094	2.9572666925224104e-22
-0.48075270293750094	2.9466622898713596e-22
-0.48069166778125094	2.9359653186940104e-22
-0.48063063262500094	2.925164417992874e-22
-0.48056959746875094	2.914244147851789e-22
-0.48050856231250094	2.9031861304332576e-22
-0.48044752715625094	2.8919703890966573e-22
-0.48038649200000094	2.880576790773096e-22
-0.48032545684375094	2.8689864750511716e-22
-0.48026442168750094	2.8571831648863395e-22
-0.48020338653125094	2.845154291404778e-22
-0.48014235137500094	2.832891865275098e-22
-0.48008131621875094	2.820393018736469e-22
-0.48002028106250094	2.8076601784885297e-22
-0.47995924590625094	2.794700879725875e-22
-0.47989821075000094	2.781527247743187e-22
-0.47983717559375094	2.768155168466985e-22
-0.47977614043750094	2.7546031964567867e-22
-0.47971510528125094	2.740891291959835e-22
-0.47965407012500094	2.727039484223446e-22
-0.47959303496875094	2.713066549689354e-22
-0.47953199981250094	2.6989887931806567e-22
-0.47947096465625094	2.6848190124687416e-22
-0.47940992950000094	2.6705657218387895e-22
-0.47934889434375094	2.6562326924290005e-22
-0.47928785918750094	2.6418188221199767e-22
-0.47922682403125094	2.6273183264172063e-22
-0.47916578887500094	2.6127212446670783e-22
-0.47910475371875094	2.598014228606317e-22
-0.47904371856250094	2.5831815471887272e-22
-0.47898268340625094	2.568206237557046e-22
-0.47892164825000094	2.5530713251559057e-22
-0.47886061309375094	2.537761029823232e-22
-0.47879957793750094	2.522261879190245e-22
-0.47873854278125094	2.506563643220512e-22
-0.47867750762500094	2.4906600190852e-22
-0.47861647246875094	2.47454904432469e-22
-0.47855543731250094	2.458233218346743e-22
-0.47849440215625094	2.4417193068681834e-22
-0.47843336700000094	2.4250178626684774e-22
-0.47837233184375094	2.4081425114656525e-22
-0.47831129668750094	2.391109040468393e-22
-0.47825026153125094	2.3739343600107026e-22
-0.47818922637500094	2.35663540563492e-22
-0.47812819121875094	2.3392280481313763e-22
-0.47806715606250094	2.3217261057243774e-22
-0.47800612090625094	2.3041405286968323e-22
-0.47794508575000094	2.286478787526087e-22
-0.47788405059375094	2.2687444960755967e-22
-0.47782301543750094	2.250937303600802e-22
-0.47776198028125094	2.233053067786095e-22
-0.47770094512500094	2.2150842956050526e-22
-0.47763990996875094	2.197020793122989e-22
-0.47757887481250094	2.1788504557530173e-22
-0.47751783965625094	2.160560174833944e-22
-0.47745680450000094	2.1421368078385875e-22
-0.47739576934375094	2.123568114067037e-22
-0.47733473418750094	2.1048436031670987e-22
-0.47727369903125094	2.0859552656387893e-22
-0.47721266387500094	2.0668981201436901e-22
-0.47715162871875094	2.0476705310062994e-22
-0.47709059356250094	2.0282742916889848e-22
-0.47702955840625094	2.008714485340895e-22
-0.47696852325000094	1.9889991403021653e-22
-0.47690748809375094	1.9691386894872716e-22
-0.47684645293750094	1.9491452644522878e-22
-0.47678541778125094	1.9290318998248583e-22
-0.47672438262500094	1.908811721188585e-22
-0.47666334746875094	1.8884971677059467e-22
-0.47660231231250094	1.8680992775379708e-22
-0.47654127715625094	1.8476270629882459e-22
-0.47648024200000094	1.8270870391402984e-22
-0.47641920684375094	1.8064829574011415e-22
-0.47635817168750094	1.7858157362573476e-22
-0.47629713653125094	1.7650835631391758e-22
-0.47623610137500094	1.7442821655962266e-22
-0.47617506621875094	1.7234052525821612e-22
-0.47611403106250094	1.70244507936614e-22
-0.47605299590625094	1.6813930731841228e-22
-0.47599196075000094	1.6602404863389268e-22
-0.47593092559375094	1.6389790347697182e-22
-0.47586989043750094	1.6176014786183414e-22
-0.47580885528125094	1.5961021357085323e-22
-0.47574782012500094	1.5744772935394374e-22
-0.47568678496875094	1.5527254494517565e-22
-0.47562574981250094	1.5308473644274394e-22
-0.47556471465625094	1.5088459801623717e-22
-0.47550367950000094	1.4867262233649726e-22
-0.47544264434375094	1.464494679814328e-22
-0.47538160918750094	1.4421591710823193e-22
-0.47532057403125094	1.4197282977205725e-22
-0.47525953887500094	1.3972109473164593e-22
-0.47519850371875094	1.3746157806125775e-22
-0.47513746856250094	1.3519507708602025e-22
-0.47507643340625094	1.3292228272886018e-22
-0.47501539825000094	1.3064374910437361e-22
-0.47495436309375094	1.2835987155325415e-22
-0.47489332793750094	1.260708762043439e-22
-0.47483229278125094	1.2377682320271508e-22
-0.47477125762500094	1.2147762246825553e-22
-0.47471022246875094	1.1917305781361295e-22
-0.47464918731250094	1.168628142889751e-22
-0.47458815215625094	1.145465074602572e-22
-0.47452711700000094	1.1222371762163955e-22
-0.47446608184375094	1.0989402658069565e-22
-0.47440504668750094	1.0755705076657707e-22
-0.47434401153125094	1.0521246839802996e-22
-0.47428297637500094	1.0286004011917509e-22
-0.47422194121875094	1.0049962443305113e-22
-0.47416090606250094	9.81311882164845e-23
-0.47409987090625094	9.575480890809474e-23
-0.47403883575000094	9.337066901157063e-23
-0.47397780059375094	9.097904614599773e-23
-0.47391676543750094	8.858029918457563e-23
-0.47385573028125094	8.617485040283372e-23
-0.47379469512500094	8.376316470202053e-23
-0.47373365996875094	8.134572915773535e-23
-0.47367262481250094	7.892303439462403e-23
-0.47361158965625094	7.649555656747e-23
-0.47355055450000094	7.406374135183085e-23
-0.47348951934375094	7.162799170781979e-23
-0.47342848418750094	6.918865764876906e-23
-0.47336744903125094	6.674602678158153e-23
-0.47330641387500094	6.430031904606307e-23
-0.47324537871875094	6.185168861546369e-23
-0.47318434356250094	5.940023005740262e-23
-0.47312330840625094	5.694598423450044e-23
-0.47306227325000094	5.448894362276906e-23
-0.47300123809375094	5.202905920541559e-23
-0.47294020293750094	4.956624897342966e-23
-0.47287916778125094	4.710040769468473e-23
-0.47281813262500094	4.4631417324550603e-23
-0.47275709746875094	4.215915584887705e-23
-0.47269606231250094	3.968350579689318e-23
-0.47263502715625094	3.720436464695756e-23
-0.47257399200000094	3.472165600988917e-23
-0.47251295684375094	3.223534018457181e-23
-0.47245192168750094	2.9745422437148014e-23
-0.47239088653125094	2.725195909828877e-23
-0.47232985137500094	2.4755063330704948e-23
-0.47226881621875094	2.2254909112680256e-23
-0.47220778106250094	1.9751731074750112e-23
-0.47214674590625094	1.7245821219006588e-23
-0.47208571075000094	1.473752472709846e-23
