Time	Frequency
-0.5000493116875013	-0.6166009142094667
-0.49998827653125133	-0.615993977524518
-0.49992724137500133	-0.6153691600884822
-0.49986620621875133	-0.6147248556865399
-0.49980517106250133	-0.6140586517906576
-0.49974413590625133	-0.6133677001643242
-0.49968310075000133	-0.6126491123696968
-0.49962206559375133	-0.6119003253392236
-0.49956103043750133	-0.6111193941371795
-0.49949999528125133	-0.6103051815673197
-0.49943896012500133	-0.6094574301740413
-0.49937792496875133	-0.6085767197678791
-0.49931688981250133	-0.6076643252745428
-0.49925585465625133	-0.6067220016207674
-0.49919481950000133	-0.6057517327666119
-0.49913378434375133	-0.6047554816250202
-0.49907274918750133	-0.6037349709951229
-0.49901171403125133	-0.6026915186824866
-0.49895067887500133	-0.6016259401769986
-0.49888964371875133	-0.6005385195164639
-0.49882860856250133	-0.5994290407131011
-0.49876757340625133	-0.598296868333656
-0.49870653825000133	-0.5971410618956943
-0.49864550309375133	-0.5959605062456609
-0.49858446793750133	-0.5947540396305723
-0.49852343278125133	-0.5935205664691847
-0.49846239762500133	-0.5922591500970138
-0.49840136246875133	-0.5909690816949699
-0.49834032731250133	-0.5896499224291678
-0.49827929215625133	-0.5883015224743879
-0.49821825700000133	-0.5869240214452284
-0.49815722184375133	-0.5855178315041716
-0.49809618668750133	-0.5840836051450066
-0.49803515153125133	-0.5826221901659556
-0.49797411637500133	-0.581134573671314
-0.49791308121875133	-0.5796218144500654
-0.49785204606250133	-0.5780849599646493
-0.49779101090625133	-0.5765249490688471
-0.49772997575000133	-0.5749425125151102
-0.49766894059375133	-0.5733380877776868
-0.49760790543750133	-0.5717117597713597
-0.49754687028125133	-0.5700632336197643
-0.49748583512500133	-0.5683918474338876
-0.49742479996875133	-0.56669663302694
-0.49736376481250133	-0.5649764202807463
-0.49730272965625133	-0.5632299726948107
-0.49724169450000133	-0.5614561429575631
-0.49718065934375133	-0.5596540325649436
-0.49711962418750133	-0.5578231307659003
-0.49705858903125133	-0.5559634096801985
-0.49699755387500133	-0.554075363309468
-0.49693651871875133	-0.5521599798928417
-0.49687548356250133	-0.5502186414755669
-0.49681444840625133	-0.5482529643139843
-0.49675341325000133	-0.5462646025185687
-0.49669237809375133	-0.5442550383518135
-0.49663134293750133	-0.5422253855182885
-0.49657030778125133	-0.5401762317145721
-0.49650927262500133	-0.5381075501226109
-0.49644823746875133	-0.5360186981829954
-0.49638720231250133	-0.5339084998073048
-0.49632616715625133	-0.5317754047271898
-0.49626513200000133	-0.5296177096242972
-0.49620409684375133	-0.5274338043080244
-0.49614306168750133	-0.525222410311447
-0.49608202653125133	-0.5229827829520657
-0.49602099137500133	-0.5207148410863974
-0.49595995621875133	-0.5184192023812345
-0.49589892106250133	-0.5160971197881742
-0.49583788590625133	-0.5137503264891994
-0.49577685075000133	-0.5113808092882176
-0.49571581559375133	-0.508990540289322
-0.49565478043750133	-0.5065812058523698
-0.49559374528125133	-0.5041539771698434
-0.49553271012500133	-0.5017093547038226
-0.49547167496875133	-0.4992471018643835
-0.49541063981250133	-0.49676628236532017
-0.49534960465625133	-0.494265405381904
-0.49528856950000133	-0.4917426560725774
-0.49522753434375133	-0.48919617678597627
-0.49516649918750133	-0.48662435793270326
-0.49510546403125133	-0.4840260924788791
-0.49504442887500133	-0.48140095746394224
-0.49498339371875133	-0.47874929287765206
-0.49492235856250133	-0.4760721651565025
-0.49486132340625133	-0.47337122808413173
-0.49480028825000133	-0.4706484961070879
-0.49473925309375133	-0.4679060586512186
-0.49467821793750133	-0.46514578557984904
-0.49461718278125133	-0.46236906808039163
-0.49455614762500133	-0.4595766288937049
-0.49449511246875133	-0.45676842786746774
-0.49443407731250133	-0.45394368172903204
-0.49437304215625133	-0.45110100069285286
-0.49431200700000133	-0.44823861441603646
-0.49425097184375133	-0.44535465128542534
-0.49418993668750133	-0.44244743906017503
-0.49412890153125133	-0.439515780610448
-0.49406786637500133	-0.4365591535091381
-0.49400683121875133	-0.4335778028467708
-0.49394579606250133	-0.4305727176554426
-0.49388476090625133	-0.42754549663161684
-0.49382372575000133	-0.42449812624819383
-0.49376269059375133	-0.4214327047138237
-0.49370165543750133	-0.418351145560167
-0.49364062028125133	-0.4152549050172891
-0.49357958512500133	-0.4121447859147389
-0.49351854996875133	-0.4090208465548908
-0.49345751481250133	-0.405882416371713
-0.49339647965625133	-0.40272821720290514
-0.49333544450000133	-0.3995565776373126
-0.49327440934375133	-0.3963657061770427
-0.49321337418750133	-0.3931539797182199
-0.49315233903125133	-0.3899202039293801
-0.49309130387500133	-0.386663808031055
-0.49303026871875133	-0.3833849467812376
-0.49296923356250133	-0.38008449366948494
-0.49290819840625133	-0.3767639232500901
-0.49284716325000133	-0.37342510073715907
-0.49278612809375133	-0.3700700208040454
-0.49272509293750133	-0.3667005383964515
-0.49266405778125133	-0.3633181200036856
-0.49260302262500133	-0.35992365358783
-0.49254198746875133	-0.35651735394035095
-0.49248095231250133	-0.3530987684134194
-0.49241991715625133	-0.34966687564447557
-0.49235888200000133	-0.34622026717264326
-0.49229784684375133	-0.3427573822800551
-0.49223681168750133	-0.3392767548804097
-0.49217577653125133	-0.33577723720988073
-0.49211474137500133	-0.3322581726921257
-0.49205370621875133	-0.3287194960059702
-0.49199267106250133	-0.3251617475875907
-0.49193163590625133	-0.32158599763253304
-0.49187060075000133	-0.3179936893325905
-0.49180956559375133	-0.3143864375730928
-0.49174853043750133	-0.3107658201947139
-0.49168749528125133	-0.3071331835491978
-0.49162646012500133	-0.30348948552342125
-0.49156542496875133	-0.2998351970431338
-0.49150438981250133	-0.29617027994521833
-0.49144335465625133	-0.2924942459399605
-0.49138231950000133	-0.2888062740965452
-0.49132128434375133	-0.28510536647479057
-0.49126024918750133	-0.2813905298645127
-0.49119921403125133	-0.27766095176957345
-0.49113817887500133	-0.2739161290828314
-0.49107714371875133	-0.27015593446985703
-0.49101610856250133	-0.2663806291970426
-0.49095507340625133	-0.2625908232176958
-0.49089403825000133	-0.2587873834695395
-0.49083300309375133	-0.2549713105202583
-0.49077196793750133	-0.25114360530688934
-0.49071093278125133	-0.2473051437143577
-0.49064989762500133	-0.24345657827605752
-0.49058886246875133	-0.23959827819440593
-0.49052782731250133	-0.23573031658009727
-0.49046679215625133	-0.23185251356164951
-0.49040575700000133	-0.22796452271158743
-0.49034472184375133	-0.22406592973748976
-0.49028368668750133	-0.2201563472893023
-0.49022265153125133	-0.2162354991065254
-0.49016161637500133	-0.21230327829117746
-0.49010058121875133	-0.20835977570201752
-0.49003954606250133	-0.20440527716341444
-0.48997851090625133	-0.20044022404471015
-0.48991747575000133	-0.19646514768741524
-0.48985644059375133	-0.19248059328863187
-0.48979540543750133	-0.18848704727621826
-0.48973437028125133	-0.1844848864664677
-0.48967333512500133	-0.1804743565288477
-0.48961229996875133	-0.17645557413566249
-0.48955126481250133	-0.17242855004389618
-0.48949022965625133	-0.1683932333328648
-0.48942919450000133	-0.16434957141748183
-0.48936815934375133	-0.16029756783585258
-0.48930712418750133	-0.15623731704990884
-0.48924608903125133	-0.15216901640696526
-0.48918505387500133	-0.148092962290567
-0.48912401871875133	-0.14400952401592673
-0.48906298356250133	-0.13991909798801505
-0.48900194840625133	-0.1358220601306075
-0.48894091325000133	-0.13171872433617127
-0.48887987809375133	-0.12760930656763633
-0.48881884293750133	-0.12349390470359047
-0.48875780778125133	-0.11937250535781124
-0.48869677262500133	-0.11524501269667432
-0.48863573746875133	-0.11111129182604178
-0.48857470231250133	-0.10697122754326159
-0.48851366715625133	-0.10282478477716633
-0.48845263200000133	-0.09867205195231112
-0.48839159684375133	-0.09451326557662802
-0.48833056168750133	-0.09034881708207368
-0.48826952653125133	-0.08617923709062018
-0.48820849137500133	-0.08200514625001919
-0.48814745621875133	-0.07782717465055916
-0.48808642106250133	-0.07364587992379037
-0.48802538590625133	-0.06946168446754873
-0.48796435075000133	-0.06527483075808746
-0.48790331559375133	-0.06108536269025872
-0.48784228043750133	-0.056893141792598904
-0.48778124528125133	-0.052697892145486216
-0.48772021012500133	-0.04849926568802982
-0.48765917496875133	-0.044296921511026925
-0.48759813981250133	-0.04009060913202957
-0.48753710465625133	-0.03588024177692234
-0.48747606950000133	-0.03166594401841414
-0.48741503434375133	-0.027448065115145373
-0.48735399918750133	-0.023227160128635453
-0.48729296403125133	-0.01900394279003103
-0.48723192887500133	-0.0147792079719404
-0.48717089371875133	-0.010553733303071813
-0.48710985856250133	-0.006328190270391786
-0.48704882340625133	-0.0021030767268755066
-0.48698778825000133	0.0021213328040098397
-0.48692675309375133	0.006345003979030138
-0.48686571793750133	0.01056811931448648
-0.48680468278125133	0.014791027106688392
-0.48674364762500133	0.0190141695275072
-0.48668261246875133	0.023237993467297744
-0.48662157731250133	0.02746285510599608
-0.48656054215625133	0.031688933536415415
-0.48649950700000133	0.035916171430282674
-0.48643847184375133	0.04014425833207198
-0.48637743668750133	0.044372655396479166
-0.48631640153125133	0.048600646480334846
-0.48625536637500133	0.05282740757556017
-0.48619433121875133	0.057052095423938354
-0.48613329606250133	0.0612739492592058
-0.48607226090625133	0.06549238372062965
-0.48601122575000133	0.06970704292559426
-0.48595019059375133	0.07391780995835211
-0.48588915543750133	0.07812479180218034
-0.48582812028125133	0.0823282833595717
-0.48576708512500133	0.08652869895208715
-0.48570604996875133	0.09072647893858693
-0.48564501481250133	0.09492199795649928
-0.48558397965625133	0.09911549362696083
-0.48552294450000133	0.10330701717381563
-0.48546190934375133	0.10749640209150624
-0.48540087418750133	0.11168325718805237
-0.48533983903125133	0.11586699720480349
-0.48527880387500133	0.12004690598753749
-0.48521776871875133	0.12422221447425469
-0.48515673356250133	0.12839218209073594
-0.48509569840625133	0.13255616736879305
-0.48503466325000133	0.1367136794862758
-0.48497362809375133	0.14086441377213105
-0.48491259293750133	0.14500826481259535
-0.48485155778125133	0.14914530964103417
-0.48479052262500133	0.15327576658323425
-0.48472948746875133	0.1573999415051503
-0.48466845231250133	0.16151816994086815
-0.48460741715625133	0.16563075429213645
-0.48454638200000133	0.16973790302625674
-0.48448534684375133	0.1738396858106747
-0.48442431168750133	0.17793600443828994
-0.48436327653125133	0.18202658213176215
-0.48430224137500133	0.18611097778580235
-0.48424120621875133	0.190188616861321
-0.48418017106250133	0.19425883377998915
-0.48411913590625133	0.19832092786120006
-0.48405810075000133	0.20237422628349305
-0.48399706559375133	0.20641814778700637
-0.48393603043750133	0.2104522568951186
-0.48387499528125133	0.21447629104838656
-0.48381396012500133	0.21849016334819657
-0.48375292496875133	0.22249395465417646
-0.48369188981250133	0.22648789269013894
-0.48363085465625133	0.2304723116015354
-0.48356981950000133	0.23444759057973968
-0.48350878434375133	0.23841408017960328
-0.48344774918750133	0.24237203327236645
-0.48338671403125133	0.246321547288985
-0.48332567887500133	0.2502625201844938
-0.48326464371875133	0.25419463124256825
-0.48320360856250133	0.2581173554072798
-0.48314257340625133	0.2620300056749572
-0.48308153825000133	0.2659317929130417
-0.48302050309375133	0.2698219015975192
-0.48295946793750133	0.27369957711007525
-0.48289843278125133	0.27756420737326504
-0.48283739762500133	0.2814153862264608
-0.48277636246875133	0.28525295481864676
-0.48271532731250133	0.28907701380409684
-0.48265429215625133	0.2928878949316217
-0.48259325700000133	0.2966860902726801
-0.48253222184375133	0.30047215481459405
-0.48247118668750133	0.30424660308414353
-0.48241015153125133	0.3080098139672723
-0.48234911637500133	0.31176194865253387
-0.48228808121875133	0.31550288904755985
-0.48222704606250133	0.3192322196250645
-0.48216601090625133	0.3229492654249395
-0.48210497575000133	0.3266531684743022
-0.48204394059375133	0.33034298341778623
-0.48198290543750133	0.33401778669781507
-0.48192187028125133	0.33767678905919
-0.48186083512500133	0.34131943370228773
-0.48179979996875133	0.3449454624126756
-0.48173876481250133	0.3485549357275169
-0.48167772965625133	0.3521482034417615
-0.48161669450000133	0.355725831394592
-0.48155565934375133	0.35928849126366424
-0.48149462418750133	0.3628368243549707
-0.48143358903125133	0.3663713077338752
-0.48137255387500133	0.3698921533469078
-0.48131151871875133	0.37339925131106805
-0.48125048356250133	0.37689215856516367
-0.48118944840625133	0.3803701374970591
-0.48112841325000133	0.38383224705773666
-0.48106737809375133	0.3872774696276543
-0.48100634293750133	0.3907048464060158
-0.48094530778125133	0.3941136055583411
-0.48088427262500133	0.3975032654103717
-0.48082323746875133	0.40087369002233114
-0.48076220231250133	0.40422508853731987
-0.48070116715625133	0.4075579611004359
-0.48064013200000133	0.41087299813063244
-0.48057909684375133	0.4141709427901549
-0.48051806168750133	0.41745243724030606
-0.48045702653125133	0.4207178871780284
-0.48039599137500133	0.4239673701312056
-0.48033495621875133	0.4272005948453741
-0.48027392106250133	0.4304169193703037
-0.48021288590625133	0.433615430923936
-0.48015185075000133	0.4367950698605567
-0.48009081559375133	0.43995477571763203
-0.48002978043750133	0.4430936379570223
-0.47996874528125133	0.44621102653858186
-0.47990771012500133	0.4493066763646418
-0.47984667496875133	0.45238070966488725
-0.47978563981250133	0.45543359463806266
-0.47972460465625133	0.45846604973919486
-0.47966356950000133	0.46147890527869334
-0.47960253434375133	0.4644729434086402
-0.47954149918750133	0.4674487471427387
-0.47948046403125133	0.4704065815245924
-0.47941942887500133	0.473346321860268
-0.47935839371875133	0.476267444421699
-0.47929735856250133	0.47916908708906913
-0.47923632340625133	0.4820501657802233
-0.47917528825000133	0.4849095239229476
-0.47911425309375133	0.4877460969849242
-0.47905321793750133	0.49055906566074065
-0.47899218278125133	0.4933479672835441
-0.47893114762500133	0.49611275018321666
-0.47887011246875133	0.4988537661876048
-0.47880907731250133	0.5015716982426784
-0.47874804215625133	0.504267432623818
-0.47868700700000133	0.5069419003625971
-0.47862597184375133	0.5095959120158822
-0.47856493668750133	0.5122300077467624
-0.47850390153125133	0.5148443466359215
-0.47844286637500133	0.5174386549571676
-0.47838183121875133	0.5200122442781222
-0.47832079606250133	0.5225640970628042
-0.47825976090625133	0.5250930048571657
-0.47819872575000133	0.5275977367129774
-0.47813769059375133	0.5300772115759614
-0.47807665543750133	0.5325306505394019
-0.47801562028125133	0.5349576877302321
-0.47795458512500133	0.5373584185713046
-0.47789354996875133	0.5397333736843783
-0.47783251481250133	0.5420834235399593
-0.47777147965625133	0.5444096304273278
-0.47771044450000133	0.5467130708681626
-0.47764940934375133	0.5489946516379242
-0.47758837418750133	0.551254943131747
-0.47752733903125133	0.5534940610989618
-0.47746630387500133	0.5557116214556631
-0.47740526871875133	0.5579067717565114
-0.47734423356250133	0.5600782920653964
-0.47728319840625133	0.5622247554919808
-0.47722216325000133	0.5643447282342134
-0.47716112809375133	0.566436978780561
-0.47710009293750133	0.5685006642242962
-0.47703905778125133	0.5705354620201304
-0.47697802262500133	0.5725416240934514
-0.47691698746875133	0.5745199438638742
-0.47685595231250133	0.5764716369976743
-0.47679491715625133	0.578398152371586
-0.47673388200000133	0.5803009409519592
-0.47667284684375133	0.5821812140037326
-0.47661181168750133	0.5840397274712933
-0.47655077653125133	0.5858766280733821
-0.47648974137500133	0.5876913887971629
-0.47642870621875133	0.589482847388231
-0.47636767106250133	0.5912493441100799
-0.47630663590625133	0.592988942266437
-0.47624560075000133	0.5946997023948902
-0.47618456559375133	0.5963799706306617
-0.47612353043750133	0.5980286369779513
-0.47606249528125133	0.5996453207280933
-0.47600146012500133	0.6012304504843375
-0.47594042496875133	0.6027852223635709
-0.47587938981250133	0.6043114385496765
-0.47581835465625133	0.6058112465237092
-0.47575731950000133	0.6072868146034598
-0.47569628434375133	0.6087399905214356
-0.47563524918750133	0.6101719936431481
-0.47557421403125133	0.6115831884811025
-0.47551317887500133	0.6129729788588405
-0.47545214371875133	0.6143398447719645
-0.47539110856250133	0.6156815211347461
-0.47533007340625133	0.6169952971350008
-0.47526903825000133	0.6182783960769004
-0.47520800309375133	0.6195283813875945
-0.47514696793750133	0.620743528702897
-0.47508593278125133	0.6219231055626124
-0.47502489762500133	0.6230675126578183
-0.47496386246875133	0.6241782602917209
-0.47490282731250133	0.6252577759144765
-0.47484179215625133	0.6263090655084574
-0.47478075700000133	0.6273352755807948
-0.47471972184375133	0.6283392172396576
-0.47465868668750133	0.6293229223576817
-0.47459765153125133	0.6302873008685727
-0.47453661637500133	0.6312319553004891
-0.47447558121875133	0.6321551868035675
-0.47441454606250133	0.6330541985171662
-0.47435351090625133	0.6339254721451631
-0.47429247575000133	0.6347652670458463
-0.47423144059375133	0.6355701701538203
-0.47417040543750133	0.6363376141766167
-0.47410937028125133	0.6370662842727637
-0.47404833512500133	0.6377563480159434
-0.47398729996875133	0.6384094677637375
-0.47392626481250133	0.6390285863137507
-0.47386522965625133	0.6396175112544518
-0.47380419450000133	0.6401803554635129
-0.47374315934375133	0.6407209154992487
-0.47368212418750133	0.6412420816758906
-0.47362108903125133	0.6417453709286989
-0.47356005387500133	0.6422306572367936
-0.47349901871875133	0.6426961469605823
-0.47343798356250133	0.6431386094406173
-0.47337694840625133	0.6435538330107164
-0.47331591325000133	0.6439372417206993
-0.47325487809375133	0.6442845820936627
-0.47319384293750133	0.6445925756579585
-0.47313280778125133	0.6448594357340637
-0.47307177262500133	0.6450851659274107
-0.47301073746875133	0.6452715892785592
-0.47294970231250133	0.6454220975390085
-0.47288866715625133	0.6455411541700808
-0.47282763200000133	0.6456336233222875
-0.47276659684375133	0.6457040254433946
-0.47270556168750133	0.645755834884917
-0.47264452653125133	0.6457909295356972
-0.47258349137500133	0.6458092786735603
-0.47252245621875133	0.6458089208624113
-0.47246142106250133	0.6457862411749481
-0.47240038590625133	0.6457365089930821
-0.47233935075000133	0.645654595173076
-0.47227831559375133	0.6455357592183747
-0.47221728043750133	0.6453763853142945
-0.47215624528125133	0.6451745525294255
-0.47209521012500133	0.6449303479571131
-0.47203417496875133	0.64464586948652
-0.47197313981250133	0.6443249145585551
-0.47191210465625133	0.6439724016923348
-0.47185106950000133	0.6435936133312845
-0.47179003434375133	0.6431933772674849
-0.47172899918750133	0.6427753135141938
-0.47166796403125133	0.6423412639561871
-0.47160692887500133	0.6418909956512711
-0.47154589371875133	0.6414222289565248
-0.47148485856250133	0.6409309898694578
-0.47142382340625133	0.6404122300910181
-0.47136278825000133	0.6398606197434553
-0.47130175309375133	0.6392713908739377
-0.47124071793750133	0.6386410939115112
-0.47117968278125133	0.6379681467649995
-0.47111864762500133	0.6372530911740768
-0.47105761246875133	0.6364985107726737
-0.47099657731250133	0.6357086230499459
-0.47093554215625133	0.6348886119036853
-0.47087450700000133	0.6340438039835256
-0.47081347184375133	0.6331788209758662
-0.47075243668750133	0.6322968477513754
-0.47069140153125133	0.6313991321653303
-0.47063036637500133	0.6304847937660598
-0.47056933121875133	0.6295509753452936
-0.47050829606250133	0.6285933169123952
-0.47044726090625133	0.6276066737758507
-0.47038622575000133	0.6265859590232616
-0.47032519059375133	0.6255269736736652
-0.47026415543750133	0.624427091810726
-0.47020312028125133	0.6232856873452179
