Time	Frequency
-0.5000555777812501	0.5138017528078266
-0.4999945426250001	0.5171154980354007
-0.4999335074687501	0.5203949318366415
-0.4998724723125001	0.5236604785805989
-0.4998114371562501	0.5269290682980948
-0.4997504020000001	0.5302115377725842
-0.4996893668437501	0.5335111441701944
-0.4996283316875001	0.5368233811812493
-0.4995672965312501	0.5401370623295093
-0.4995062613750001	0.5434364351087757
-0.4994452262187501	0.5467039370286101
-0.4993841910625001	0.5499231144006566
-0.4993231559062501	0.5530812197087064
-0.4992621207500001	0.5561710807743038
-0.4992010855937501	0.5591919703826469
-0.4991400504375001	0.5621493804777759
-0.4990790152812501	0.5650537894649852
-0.4990179801250001	0.5679186702021359
-0.4989569449687501	0.570758100060304
-0.4988959098125001	0.5735843862242591
-0.4988348746562501	0.5764060974220908
-0.4987738395000001	0.5792268048412641
-0.4987128043437501	0.5820447036743354
-0.4986517691875001	0.5848531393748411
-0.4985907340312501	0.5876419154916642
-0.4985296988750001	0.5903991288939945
-0.4984686637187501	0.5931131990169095
-0.4984076285625001	0.5957747481727244
-0.4983465934062501	0.5983780314402363
-0.4982855582500001	0.6009216967645191
-0.4982245230937501	0.6034087762711298
-0.4981634879375001	0.6058459459622082
-0.4981024527812501	0.6082422135096038
-0.4980414176250001	0.6106072796125365
-0.4979803824687501	0.6129498569483443
-0.4979193473125001	0.615276227939911
-0.4978583121562501	0.6175892763465344
-0.4977972770000001	0.6198881355392022
-0.4977362418437501	0.6221684828808857
-0.4976752066875001	0.6244234020602774
-0.4976141715312501	0.6266446448803296
-0.4975531363750001	0.6288240631440917
-0.4974921012187501	0.630954961259279
-0.4974310660625001	0.6330331442098951
-0.4973700309062501	0.6350574977431517
-0.4973089957500001	0.6370300221901958
-0.4972479605937501	0.6389553349593816
-0.4971869254375001	0.6408397481881883
-0.4971258902812501	0.6426900973182513
-0.4970648551250001	0.6445125303459288
-0.4970038199687501	0.6463114658147698
-0.4969427848125001	0.6480888901723392
-0.4968817496562501	0.6498440996720436
-0.4968207145000001	0.6515739124001645
-0.4967596793437501	0.6532732957871492
-0.4966986441875001	0.6549362881067743
-0.4966376090312501	0.6565570458511071
-0.4965765738750001	0.6581308303294834
-0.4965155387187501	0.6596547650339672
-0.4964545035625001	0.6611282435250034
-0.4963934684062501	0.6625529312765204
-0.4963324332500001	0.6639323753389667
-0.4962713980937501	0.6652713038876102
-0.4962103629375001	0.6665747482019668
-0.4961493277812501	0.6678471435922632
-0.4960882926250001	0.6690915651413808
-0.4960272574687501	0.6703092269977083
-0.4959662223125001	0.6714993224312582
-0.4959051871562501	0.672659219949349
-0.4958441520000001	0.6737849699500772
-0.4957831168437501	0.674872024044894
-0.4957220816875001	0.6759160350246048
-0.4956610465312501	0.6769135959265324
-0.4956000113750001	0.6778627918175456
-0.4955389762187501	0.6787634743548574
-0.4954779410625001	0.679617220078745
-0.4954169059062501	0.6804269896001145
-0.4953558707500001	0.681196556636642
-0.4952948355937501	0.6819298135783306
-0.4952338004375001	0.6826300779934632
-0.4951727652812501	0.6832995208405397
-0.4951117301250001	0.6839388126768219
-0.4950506949687501	0.6845470430894977
-0.4949896598125001	0.6851219194388893
-0.4949286246562501	0.6856602020852585
-0.4948675895000001	0.6861582927797586
-0.4948065543437501	0.68661286899113
-0.4947455191875001	0.6870214522530219
-0.4946844840312501	0.6873828125097778
-0.4946234488750001	0.6876971422095117
-0.4945624137187501	0.6879659765360703
-0.4945013785625001	0.688191880418022
-0.4944403434062501	0.6883779630008428
-0.4943793082500001	0.6885273095902407
-0.4943182730937501	0.6886424339669976
-0.4942572379375001	0.6887248472628551
-0.4941962027812501	0.6887748154470507
-0.4941351676250001	0.688791342651165
-0.4940741324687501	0.688772378092357
-0.4940130973125001	0.6887152059015709
-0.4939520621562501	0.6886169447541253
-0.4938910270000001	0.6884750646935205
-0.4938299918437501	0.6882878281182182
-0.4937689566875001	0.6880545802088469
-0.4937079215312501	0.687775842463579
-0.4936468863750001	0.6874531942454573
-0.4935858512187501	0.6870889653992294
-0.4935248160625001	0.6866858010636806
-0.4934637809062501	0.6862461807436605
-0.4934027457500001	0.6857719776618978
-0.4933417105937501	0.685264135245379
-0.4932806754375001	0.6847225155256847
-0.4932196402812501	0.6841459439781252
-0.4931586051250001	0.6835324403317761
-0.4930975699687501	0.6828795913139232
-0.4930365348125001	0.6821849973620702
-0.4929754996562501	0.6814467136631116
-0.4929144645000001	0.6806636061988729
-0.4928534293437501	0.6798355581390028
-0.4927923941875001	0.6789634903670674
-0.4927313590312501	0.6780491950752566
-0.4926703238750001	0.6770950156271394
-0.4926092887187501	0.676103430496952
-0.4925482535625001	0.6750766129525148
-0.4924872184062501	0.6740160443204505
-0.4924261832500001	0.672922252198828
-0.4923651480937501	0.671794721471764
-0.4923041129375001	0.6706319919210864
-0.4922430777812501	0.6694319244768698
-0.4921820426250001	0.6681920891339833
-0.4921210074687501	0.6669102055048636
-0.4920599723125001	0.6655845604541775
-0.4919989371562501	0.6642143300375527
-0.4919379020000001	0.6627997482272248
-0.4918768668437501	0.6613420920192282
-0.4918158316875001	0.6598434817392701
-0.4917547965312501	0.6583065303422194
-0.4916937613750001	0.6567339058524693
-0.4916327262187501	0.6551278817218542
-0.4915716910625001	0.6534899504909353
-0.4915106559062501	0.6518205687304743
-0.4914496207500001	0.6501190791091466
-0.4913885855937501	0.6483838239626695
-0.4913275504375001	0.646612429437614
-0.4912665152812501	0.6448022131806241
-0.4912054801250001	0.6429506517090944
-0.4911444449687501	0.6410558278292539
-0.4910834098125001	0.6391167806508066
-0.4910223746562501	0.6371336983745421
-0.4909613395000001	0.6351079170845904
-0.4909003043437501	0.63304172690304
-0.4908392691875001	0.6309380209490849
-0.4907782340312501	0.628799839314306
-0.4907171988750001	0.6266298794121422
-0.4906561637187501	0.6244300592234915
-0.4905951285625001	0.6222012098265163
-0.4905340934062501	0.6199429466621942
-0.4904730582500001	0.6176537420773086
-0.4904120230937501	0.615331188550305
-0.4903509879375001	0.6129724062356934
-0.4902899527812501	0.6105745295136917
-0.4902289176250001	0.6081351975960909
-0.4901678824687501	0.6056529673032459
-0.4901068473125001	0.6031275778295612
-0.4900458121562501	0.600560024771687
-0.4899847770000001	0.5979524284407505
-0.4899237418437501	0.5953077155644745
-0.4898627066875001	0.5926291675917355
-0.4898016715312501	0.5899199102424274
-0.4897406363750001	0.5871824309245388
-0.4896796012187501	0.5844182001116084
-0.4896185660625001	0.5816274513384881
-0.4895575309062501	0.5788091613293698
-0.4894964957500001	0.5759612398284468
-0.4894354605937501	0.5730808911046791
-0.4893744254375001	0.5701650868404178
-0.4893133902812501	0.5672110818237088
-0.4892523551250001	0.5642168850421935
-0.4891913199687501	0.5611816032474186
-0.4891302848125001	0.5581056095653363
-0.4890692496562501	0.5549905140297325
-0.4890082145000001	0.5518389317384103
-0.4889471793437501	0.5486540843218645
-0.4888861441875001	0.5454393072033634
-0.4888251090312501	0.5421975438244044
-0.4887640738750001	0.5389309032697738
-0.4887030387187501	0.5356403509031981
-0.4886420035625001	0.5323255852486922
-0.4885809684062501	0.528985121910861
-0.4885199332500001	0.5256165650402999
-0.4884588980937501	0.5222170189810956
-0.4883978629375001	0.518783580119572
-0.4883368277812501	0.5153138354119406
-0.4882757926250001	0.5118062836479927
-0.4882147574687501	0.5082606052553407
-0.4881537223125001	0.5046777349574606
-0.4880926871562501	0.5010597320914679
-0.4880316520000001	0.4974094773300793
-0.4879706168437501	0.49373023982537884
-0.4879095816875001	0.4900251829036199
-0.4878485465312501	0.48629689474868737
-0.4877875113750001	0.4825470127249461
-0.4877264762187501	0.4787759964115925
-0.4876654410625001	0.47498309482589435
-0.4876044059062501	0.4711665122149652
-0.4875433707500001	0.46732373626677154
-0.4874823355937501	0.46345197690278483
-0.4874213004375001	0.4595486488298015
-0.4873602652812501	0.45561181686703606
-0.4872992301250001	0.45164053293313994
-0.4872381949687501	0.4476350165191083
-0.4871771598125001	0.44359664758528283
-0.4871161246562501	0.43952776943509275
-0.4870550895000001	0.43543134116734955
-0.4869940543437501	0.4313105004204125
-0.4869330191875001	0.42716809853886545
-0.4868719840312501	0.42300628024343745
-0.4868109488750001	0.4188261848477318
-0.4867499137187501	0.4146278164354166
-0.4866888785625001	0.41041008981857346
-0.4866278434062501	0.40617104547797517
-0.4865668082500001	0.4019082097528264
-0.4865057730937501	0.3976190354916471
-0.4864447379375001	0.39330134422089075
-0.4863837027812501	0.38895370602994367
-0.4863226676250001	0.3845756988046295
-0.4862616324687501	0.3801680043001696
-0.4862005973125001	0.3757323289247557
-0.4861395621562501	0.37127116211431826
-0.4860785270000001	0.3667874129784442
-0.4860174918437501	0.3622839867873066
-0.4859564566875001	0.35776336912691425
-0.4858954215312501	0.35322727970674334
-0.4858343863750001	0.34867644440700857
-0.4857733512187501	0.3441105256168787
-0.4857123160625001	0.3395282268811143
-0.4856512809062501	0.3349275493073683
-0.4855902457500001	0.3303061548399104
-0.4855292105937501	0.32566177779211886
-0.4854681754375001	0.3209926187668771
-0.4854071402812501	0.31629766209173305
-0.4853461051250001	0.3115768683498702
-0.4852850699687501	0.3068312108263521
-0.4852240348125001	0.30206255558762485
-0.4851629996562501	0.29727340751300496
-0.4851019645000001	0.2924665545488294
-0.4850409293437501	0.2876446673348917
-0.4849798941875001	0.28280992982773007
-0.4849188590312501	0.277963754954875
-0.4848578238750001	0.2731066184953104
-0.4847967887187501	0.2682380420374833
-0.4847357535625001	0.26335672605123717
-0.4846747184062501	0.25846080016187906
-0.4846136832500001	0.2535481560179866
-0.4845526480937501	0.24861681640725772
-0.4844916129375001	0.2436652757312352
-0.4844305777812501	0.23869276010498244
-0.4843695426250001	0.23369937553684197
-0.4843085074687501	0.22868612079754108
-0.4842474723125001	0.22365476333351272
-0.4841864371562501	0.2186076042695614
-0.4841254020000001	0.21354716592829553
-0.4840643668437501	0.20847584688002516
-0.4840033316875001	0.2033956064586502
-0.4839422965312501	0.19830772800947138
-0.4838812613750001	0.1932126855218737
-0.4838202262187501	0.18811013011732164
-0.4837591910625001	0.1829990044307719
-0.4836981559062501	0.17787776730889784
-0.4836371207500001	0.17274468692998726
-0.4835760855937501	0.16759815552319235
-0.4835150504375001	0.1624369793970361
-0.4834540152812501	0.15726059508227969
-0.4833929801250001	0.1520691771593276
-0.4833319449687501	0.14686363111932083
-0.4832709098125001	0.1416454775681163
-0.4832098746562501	0.13641664282818655
-0.4831488395000001	0.13117919037537001
-0.4830878043437501	0.12593504007028788
-0.4830267691875001	0.12068571610076584
-0.4829657340312501	0.11543216046611929
-0.4829046988750001	0.11017464844129968
-0.4828436637187501	0.10491281944462369
-0.4827826285625001	0.09964580941381768
-0.4827215934062501	0.0943724608717088
-0.4826605582500001	0.08909157521397973
-0.4825995230937501	0.08380216062944856
-0.4825384879375001	0.07850363609685772
-0.4824774527812501	0.07319596599356286
-0.4824164176250001	0.06787970207910686
-0.4823553824687501	0.0625559200491957
-0.4822943473125001	0.057226072034780244
-0.4822333121562501	0.051891788516417195
-0.4821722770000001	0.04655465234235917
-0.4821112418437501	0.041215979645799976
-0.4820502066875001	0.03587665228922031
-0.4819891715312501	0.030537030926672322
-0.4819281363750001	0.02519695827909459
-0.4818671012187501	0.01985584977214294
-0.4818060660625001	0.014512858217467683
-0.4817450309062501	0.009167081241646986
-0.4816839957500001	0.003817770490116175
-0.4816229605937501	-0.0015354909305785032
-0.4815619254375001	-0.00689266959078723
-0.4815008902812501	-0.012253239805681406
-0.4814398551250001	-0.017616222261265024
-0.4813788199687501	-0.022980301638030526
-0.4813177848125001	-0.028344010474383733
-0.4812567496562501	-0.03370593731400998
-0.4811957145000001	-0.03906491586400656
-0.4811346793437501	-0.044420171897215546
-0.4810736441875001	-0.04977140232730227
-0.4810126090312501	-0.055118766267586446
-0.4809515738750001	-0.060462796835121776
-0.4808905387187501	-0.06580425482548904
-0.4808295035625001	-0.07114394145330138
-0.4807684684062501	-0.07648250091681934
-0.4807074332500001	-0.08182025427569152
-0.4806463980937501	-0.08715709274287703
-0.4805853629375001	-0.09249244670005072
-0.4805243277812501	-0.09782533590023179
-0.4804632926250001	-0.1031544892009805
-0.4804022574687501	-0.10847851113580687
-0.4803412223125001	-0.11379606814627062
-0.4802801871562501	-0.11910606292156643
-0.4802191520000001	-0.1244077680147176
-0.4801581168437501	-0.12970090056235078
-0.4800970816875001	-0.13498561967155
-0.4800360465312501	-0.14026243739768643
-0.4799750113750001	-0.1455320672305546
-0.4799139762187501	-0.15079524719520052
-0.4798529410625001	-0.15605256376824653
-0.4797919059062501	-0.16130429836408017
-0.4797308707500001	-0.166550321566635
-0.4796698355937501	-0.17179006009216563
-0.4796088004375001	-0.1770225455138829
-0.4795477652812501	-0.1822465331233621
-0.4794867301250001	-0.18746066999439268
-0.4794256949687501	-0.19266368136475548
-0.4793646598125001	-0.1978545405419321
-0.4793036246562501	-0.2030325938960998
-0.4792425895000001	-0.20819761900606082
-0.4791815543437501	-0.2133498082811818
-0.4791205191875001	-0.2184896823006982
-0.4790594840312501	-0.22361794547602523
-0.4789984488750001	-0.22873530952012447
-0.4789374137187501	-0.233842315362953
-0.4788763785625001	-0.238939184092291
-0.4788153434062501	-0.24402572430352779
-0.4787543082500001	-0.2491013125599434
-0.4786932730937501	-0.25416494928208455
-0.4786322379375001	-0.2592153787075048
-0.4785712027812501	-0.26425125445569864
-0.4785101676250001	-0.2692713247962011
-0.4784491324687501	-0.2742746014062344
-0.4783880973125001	-0.2792604802975948
-0.4783270621562501	-0.28422879856023864
-0.4782660270000001	-0.2891798152433398
-0.4782049918437501	-0.29411411360562373
-0.4781439566875001	-0.2990324461094391
-0.4780829215312501	-0.3039355535557745
-0.4780218863750001	-0.3088239868030665
-0.4779608512187501	-0.3136979630164796
-0.4778998160625001	-0.3185572776288429
-0.4778387809062501	-0.32340128141519686
-0.4777777457500001	-0.32822893729511243
-0.4777167105937501	-0.33303895447560933
-0.4776556754375001	-0.33782996580961105
-0.4775946402812501	-0.342600711874096
-0.4775336051250001	-0.3473502070212773
-0.4774725699687501	-0.35207786275255537
-0.4774115348125001	-0.35678354373978033
-0.4773504996562501	-0.3614675441991182
-0.4772894645000001	-0.3661304890902956
-0.4772284293437501	-0.3707731774639544
-0.4771673941875001	-0.37539639674853537
-0.4771063590312501	-0.3800007399055896
-0.4770453238750001	-0.38458645289413756
-0.4769842887187501	-0.3891533409912485
-0.4769232535625001	-0.39370075610006455
-0.4768622184062501	-0.39822766424262873
-0.4768011832500001	-0.4027327755610242
-0.4767401480937501	-0.40721471512560603
-0.4766791129375001	-0.4116722114304704
-0.4766180777812501	-0.4161042739883361
-0.4765570426250001	-0.4205103225950952
-0.4764960074687501	-0.4248902402071709
-0.4764349723125001	-0.429244346249039
-0.4763739371562501	-0.4335732977277359
-0.4763129020000001	-0.43787793108370765
-0.4762518668437501	-0.4421590727263654
-0.4761908316875001	-0.4464173538862051
-0.4761297965312501	-0.4506530606005094
-0.4760687613750001	-0.45486604115196366
-0.4760077262187501	-0.4590556857380234
-0.4759466910625001	-0.4632209848761209
-0.4758856559062501	-0.4673606591388734
-0.4758246207500001	-0.47147333568720284
-0.4757635855937501	-0.47555773819734676
-0.4757025504375001	-0.47961286061694214
-0.4756415152812501	-0.4836380977197528
-0.4755804801250001	-0.4876333076318532
-0.4755194449687501	-0.49159879392223627
-0.4754584098125001	-0.49553521065198786
-0.4753973746562501	-0.49944340899415135
-0.4753363395000001	-0.5033242537334968
-0.4752753043437501	-0.5071784402299552
-0.4752142691875001	-0.5110063405180676
-0.4751532340312501	-0.5148079007872988
-0.4750921988750001	-0.5185826091401389
-0.4750311637187501	-0.5223295435691465
-0.4749701285625001	-0.5260474892120306
-0.4749090934062501	-0.529735103220573
-0.4748480582500001	-0.5333911015110899
-0.4747870230937501	-0.5370144348073802
-0.4747259879375001	-0.5406044253424223
-0.4746649527812501	-0.5441608432519238
-0.4746039176250001	-0.5476839075943855
-0.4745428824687501	-0.5511742116764482
-0.4744818473125001	-0.5546325883659358
-0.4744208121562501	-0.5580599380245503
-0.4743597770000001	-0.5614570449980697
-0.4742987418437501	-0.5648244124749271
-0.4742377066875001	-0.5681621442918431
-0.4741766715312501	-0.5714698949171416
-0.4741156363750001	-0.5747468964238605
-0.4740546012187501	-0.5779920532064339
-0.4739935660625001	-0.5812040866644201
-0.4739325309062501	-0.5843817109996469
-0.4738714957500001	-0.5875238108395989
-0.4738104605937501	-0.5906295891221123
-0.4737494254375001	-0.5936986640052663
-0.4736883902812501	-0.5967310992200313
-0.4736273551250001	-0.5997273609160405
-0.4735663199687501	-0.6026882096108598
-0.4735052848125001	-0.6056145469409066
-0.4734442496562501	-0.6085072416087411
-0.4733832145000001	-0.6113669615225379
-0.4733221793437501	-0.6141940382497081
-0.4732611441875001	-0.6169883854849701
-0.4732001090312501	-0.619749485646848
-0.4731390738750001	-0.6224764470416906
-0.4730780387187501	-0.6251681214395106
-0.4730170035625001	-0.6278232607640727
-0.4729559684062501	-0.6304406874001462
-0.4728949332500001	-0.633019453355543
-0.4728338980937501	-0.6355589632173154
-0.4727728629375001	-0.638059040908212
-0.4727118277812501	-0.640519930486502
-0.4726507926250001	-0.6429422314362377
-0.4725897574687501	-0.6453267789032089
-0.4725287223125001	-0.6476744876478707
-0.4724676871562501	-0.649986184520132
-0.4724066520000001	-0.6522624559765925
-0.4723456168437501	-0.6545035342573072
-0.4722845816875001	-0.6567092401949179
-0.4722235465312501	-0.6588789907858429
-0.4721625113750001	-0.661011869178486
-0.4721014762187501	-0.6631067469952843
-0.4720404410625001	-0.6651624403873481
-0.4719794059062501	-0.667177873770028
-0.4719183707500001	-0.6691522247291128
-0.4718573355937501	-0.6710850295708948
-0.4717963004375001	-0.6729762349182016
-0.4717352652812501	-0.674826186019471
-0.4716742301250001	-0.676635552592457
-0.4716131949687501	-0.6784052048258635
-0.4715521598125001	-0.6801360593104493
-0.4714911246562501	-0.6818289182229758
-0.4714300895000001	-0.683484326418519
-0.4713690543437501	-0.68510246911149
-0.4713080191875001	-0.6866831264842644
-0.4712469840312501	-0.6882256916453262
-0.4711859488750001	-0.6897292484218119
-0.4711249137187501	-0.6911926969863091
-0.4710638785625001	-0.6926149085914732
-0.4710028434062501	-0.69399488656801
-0.4709418082500001	-0.6953319086816766
-0.4708807730937501	-0.6966256275901789
-0.4708197379375001	-0.6978761129035222
-0.4707587027812501	-0.6990838283093497
-0.4706976676250001	-0.7002495472402573
-0.4706366324687501	-0.7013742192902377
-0.4705755973125001	-0.7024588077559027
-0.4705145621562501	-0.7035041240455967
-0.4704535270000001	-0.7045106850234221
-0.4703924918437501	-0.7054786159893538
-0.4703314566875001	-0.7064076156337619
-0.4702704215312501	-0.7072969897173353
-0.4702093863750001	-0.7081457487887536
-0.4701483512187501	-0.7089527548200377
-0.4700873160625001	-0.7097168940865339
-0.4700262809062501	-0.7104372487333362
-0.4699652457500001	-0.7111132386433426
-0.4699042105937501	-0.7117447103800276
-0.4698431754375001	-0.7123319583922822
-0.4697821402812501	-0.7128756735040438
-0.4697211051250001	-0.713376825834407
-0.4696600699687501	-0.7138365002146997
-0.4695990348125001	-0.7142557098195327
-0.4695379996562501	-0.7146352189719106
-0.4694769645000001	-0.714975405784208
-0.4694159293437501	-0.7152761886932598
-0.4693548941875001	-0.7155370302176829
