Time	Frequency
-0.5000569928749989	0.17586841059869934
-0.49999595771874894	0.17121107955139317
-0.49993492256249894	0.1664893137080272
-0.49987388740624894	0.16171835864721743
-0.49981285224999894	0.1569173385843868
-0.49975181709374894	0.15210696206009472
-0.49969078193749894	0.1473071450402855
-0.49962974678124894	0.14253481851262745
-0.49956871162499894	0.1378021520884068
-0.49950767646874894	0.1331153817135848
-0.49944664131249894	0.1284743585018111
-0.49938560615624894	0.12387284060541
-0.49932457099999894	0.11929946275407602
-0.49926353584374894	0.11473924941347183
-0.49920250068749894	0.1101754837260075
-0.49914146553124894	0.10559170956017332
-0.49908043037499894	0.10097363123724128
-0.49901939521874894	0.09631069408759885
-0.49895836006249894	0.0915971800173029
-0.49889732490624894	0.08683271366964117
-0.49883628974999894	0.08202213946997594
-0.49877525459374894	0.07717480701061713
-0.49871421943749894	0.07230337036068943
-0.49865318428124894	0.06742225192866085
-0.49859214912499894	0.06254595383166975
-0.49853111396874894	0.05768741515728656
-0.49847007881249894	0.052856606333590794
-0.49840904365624894	0.048059515267619424
-0.49834800849999894	0.04329762515905131
-0.49828697334374894	0.03856792928662511
-0.49822593818749894	0.03386346057410756
-0.49816490303124894	0.029174249732588996
-0.49810386787499894	0.024488595300556033
-0.49804283271874894	0.019794499656696746
-0.49798179756249894	0.01508109242532401
-0.49792076240624894	0.010339873262085518
-0.49785972724999894	0.00556564267736682
-0.49779869209374894	0.0007570244673060975
-0.49773765693749894	-0.004083468982992465
-0.49767662178124894	-0.008949822473426874
-0.49761558662499894	-0.01383329645244329
-0.49755455146874894	-0.018723493470445714
-0.49749351631249894	-0.023609582323381322
-0.49743248115624894	-0.0284815369760968
-0.49737144599999894	-0.033331242321677765
-0.49731041084374894	-0.03815334223586577
-0.49724937568749894	-0.042945743578241616
-0.49718834053124894	-0.04770972862615296
-0.49712730537499894	-0.052449677651326486
-0.49706627021874894	-0.05717244442237364
-0.49700523506249894	-0.0618864605463442
-0.49694419990624894	-0.0666006808497425
-0.49688316474999894	-0.0713235005951304
-0.49682212959374894	-0.07606177287332914
-0.49676109443749894	-0.08082003465004732
-0.49670005928124894	-0.08560001965666213
-0.49663902412499894	-0.09040050871239297
-0.49657798896874894	-0.09521752883318478
-0.49651695381249894	-0.10004486486940099
-0.49645591865624894	-0.10487481225735007
-0.49639488349999894	-0.10969908086928744
-0.49633384834374894	-0.11450974691805486
-0.49627281318749894	-0.1193001362328106
-0.49621177803124894	-0.12406553031400396
-0.49615074287499894	-0.1288036219689267
-0.49608970771874894	-0.13351468410987852
-0.49602867256249894	-0.1382014397852263
-0.49596763740624894	-0.14286864902728919
-0.49590660224999894	-0.1475224687995545
-0.49584556709374894	-0.1521696721748346
-0.49578453193749894	-0.15681682005789233
-0.49572349678124894	-0.16146948078272746
-0.49566246162499894	-0.16613158778492398
-0.49560142646874894	-0.1708050028532076
-0.49554039131249894	-0.17548932741798706
-0.49547935615624894	-0.1801819825100553
-0.49541832099999894	-0.18487854446828836
-0.49535728584374894	-0.18957328535105333
-0.49529625068749894	-0.19425984505019395
-0.49523521553124894	-0.1989319573897244
-0.49517418037499894	-0.20358414879369385
-0.49511314521874894	-0.20821232319023433
-0.49505211006249894	-0.21281416377611678
-0.49499107490624894	-0.21738931770615136
-0.49493003974999894	-0.22193935301579643
-0.49486900459374894	-0.22646749371132638
-0.49480796943749894	-0.23097816835383309
-0.49474693428124894	-0.23547643083965886
-0.49468589912499894	-0.23996732216516306
-0.49462486396874894	-0.2444552532706397
-0.49456382881249894	-0.24894348421208584
-0.49450279365624894	-0.25343375444188027
-0.49444175849999894	-0.2579261005379395
-0.49438072334374894	-0.2624188757654744
-0.49431968818749894	-0.2669089665695031
-0.49425865303124894	-0.27139217806283883
-0.49419761787499894	-0.2758637328514288
-0.49413658271874894	-0.280318820264963
-0.49407554756249894	-0.2847531348174945
-0.49401451240624894	-0.2891633399733008
-0.49395347724999894	-0.29354740212684927
-0.49389244209374894	-0.29790476036379326
-0.49383140693749894	-0.30223631991099753
-0.49377037178124894	-0.30654427488806185
-0.49370933662499894	-0.3108317811965166
-0.49364830146874894	-0.31510252176381226
-0.49358726631249894	-0.3193602236177178
-0.49352623115624894	-0.32360818520550133
-0.49346519599999894	-0.3278488649296753
-0.49340416084374894	-0.3320835809575015
-0.49334312568749894	-0.3363123599539437
-0.49328209053124894	-0.34053394647626156
-0.49322105537499894	-0.3447459661540773
-0.49316002021874894	-0.3489452193910645
-0.49309898506249894	-0.35312806599723334
-0.49303794990624894	-0.3572908529373434
-0.49297691474999894	-0.3614303337435471
-0.49291587959374894	-0.36554402894410654
-0.49285484443749894	-0.36963048654400354
-0.49279380928124894	-0.37368941307210807
-0.49273277412499894	-0.3777216562604085
-0.49267173896874894	-0.3817290438557871
-0.49261070381249894	-0.38571410883323065
-0.49254966865624894	-0.38967973667242034
-0.49248863349999894	-0.39362877242101213
-0.49242759834374894	-0.39756363922127713
-0.49236656318749894	-0.4014860183665691
-0.49230552803124894	-0.40539662420993156
-0.49224449287499894	-0.40929509938293296
-0.49218345771874894	-0.41318004283324483
-0.49212242256249894	-0.4170491657602791
-0.49206138740624894	-0.4208995592453249
-0.49200035224999894	-0.42472804038736117
-0.49193931709374894	-0.4285315293954535
-0.49187828193749894	-0.4323074094738226
-0.49181724678124894	-0.4360538270445903
-0.49175621162499894	-0.4397698968391322
-0.49169517646874894	-0.44345578657102314
-0.49163414131249894	-0.44711267295860607
-0.49157310615624894	-0.4507425760398316
-0.49151207099999894	-0.454348088732974
-0.49145103584374894	-0.45793203479396666
-0.49139000068749894	-0.46149709862008076
-0.49132896553124894	-0.4650454676444721
-0.49126793037499894	-0.46857853210804845
-0.49120689521874894	-0.47209668562810836
-0.49114586006249894	-0.47559924742237947
-0.49108482490624894	-0.4790845094022096
-0.49102378974999894	-0.482549906017426
-0.49096275459374894	-0.48599229137046157
-0.49090171943749894	-0.48940828853928303
-0.49084068428124894	-0.4927946671878728
-0.49077964912499894	-0.49614870760830976
-0.49071861396874894	-0.49946851067775133
-0.49065757881249894	-0.5027532151118601
-0.49059654365624894	-0.5060030924793155
-0.49053550849999894	-0.5092195081432157
-0.49047447334374894	-0.5124047553342992
-0.49041343818749894	-0.5155617792039955
-0.49035240303124894	-0.5186938206564001
-0.49029136787499894	-0.5218040256697157
-0.49023033271874894	-0.524895063305229
-0.49016929756249894	-0.5279687913833935
-0.49010826240624894	-0.5310260127030866
-0.49004722724999894	-0.5340663527400562
-0.48998619209374894	-0.5370882689934648
-0.48992515693749894	-0.5400891924056763
-0.48986412178124894	-0.5430657890355645
-0.48980308662499894	-0.5460143108731856
-0.48974205146874894	-0.5489309957146538
-0.48968101631249894	-0.5518124720940482
-0.48961998115624894	-0.5546561218347343
-0.48955894599999894	-0.5574603585984483
-0.48949791084374894	-0.5602247927375089
-0.48943687568749894	-0.5629502667753732
-0.48937584053124894	-0.5656387559258019
-0.48931480537499894	-0.5682931394422447
-0.48925377021874894	-0.5709168704307462
-0.48919273506249894	-0.5735135845634113
-0.48913169990624894	-0.5760866884680045
-0.48907066474999894	-0.5786389720748771
-0.48900962959374894	-0.5811722883023862
-0.48894859443749894	-0.5836873348577232
-0.48888755928124894	-0.5861835618808935
-0.48882652412499894	-0.5886592146158323
-0.48876548896874894	-0.5911115057081909
-0.48870445381249894	-0.5935368994518416
-0.48864341865624894	-0.5959314773652237
-0.48858238349999894	-0.5982913428976302
-0.48852134834374894	-0.6006130207287717
-0.48846031318749894	-0.6028938097166799
-0.48839927803124894	-0.6051320521388677
-0.48833824287499894	-0.6073272912068883
-0.48827720771874894	-0.609480301434875
-0.48821617256249894	-0.6115929881469722
-0.48815513740624894	-0.6136681674637092
-0.48809410224999894	-0.6157092524093316
-0.48803306709374894	-0.6177198797478066
-0.48797203193749894	-0.6197035176707297
-0.48791099678124894	-0.6216630954448699
-0.48784996162499894	-0.6236006927898914
-0.48778892646874894	-0.6255173211697617
-0.48772789131249894	-0.6274128192557792
-0.48766685615624894	-0.6292858711146023
-0.48760582099999894	-0.6311341428905866
-0.48754478584374894	-0.6329545229165903
-0.48748375068749894	-0.6347434397730979
-0.48742271553124894	-0.6364972234260672
-0.48736168037499894	-0.6382124697226567
-0.48730064521874894	-0.6398863707408045
-0.48723961006249894	-0.6415169799610105
-0.48717857490624894	-0.6431033871309204
-0.48711753974999894	-0.6446457845982002
-0.48705650459374894	-0.6461454194308929
-0.48699546943749894	-0.6476044402755757
-0.48693443428124894	-0.6490256575624791
-0.48687339912499894	-0.6504122415420439
-0.48681236396874894	-0.6517673895441549
-0.48675132881249894	-0.6530939981971067
-0.48669029365624894	-0.6543943734086991
-0.48662925849999894	-0.655670005243727
-0.48656822334374894	-0.6569214292376677
-0.48650718818749894	-0.6581481864745788
-0.48644615303124894	-0.6593488831947253
-0.48638511787499894	-0.660521341585956
-0.48632408271874894	-0.6616628253531561
-0.48626304756249894	-0.6627703155745966
-0.48620201240624894	-0.6638408076387767
-0.48614097724999894	-0.6648715993311697
-0.48607994209374894	-0.6658605420968138
-0.48601890693749894	-0.6668062315498228
-0.48595787178124894	-0.6677081196376056
-0.48589683662499894	-0.66856653952359
-0.48583580146874894	-0.6693826432950597
-0.48577476631249894	-0.670158260888051
-0.48571373115624894	-0.670895696252744
-0.48565269599999894	-0.6715974827979154
-0.48559166084374894	-0.6722661238630968
-0.48553062568749894	-0.6729038449721261
-0.48546959053124894	-0.6735123821371299
-0.48540855537499894	-0.6740928256644033
-0.48534752021874894	-0.6746455330611767
-0.48528648506249894	-0.675170117000209
-0.48522544990624894	-0.6756655061157234
-0.48516441474999894	-0.6761300698268056
-0.48510337959374894	-0.6765617927100899
-0.48504234443749894	-0.6769584790288976
-0.48498130928124894	-0.6773179658049514
-0.48492027412499894	-0.6776383238005677
-0.48485923896874894	-0.6779180278328495
-0.48479820381249894	-0.6781560808631795
-0.48473716865624894	-0.6783520821000302
-0.48467613349999894	-0.6785062362796618
-0.48461509834374894	-0.6786193065917038
-0.48455406318749894	-0.6786925178895007
-0.48449302803124894	-0.6787274215005948
-0.48443199287499894	-0.6787257370608946
-0.48437095771874894	-0.678689188144238
-0.48430992256249894	-0.6786193466273628
-0.48424888740624894	-0.6785174985158434
-0.48418785224999894	-0.6783845425545331
-0.48412681709374894	-0.6782209294483019
-0.48406578193749894	-0.6780266442775682
-0.48400474678124894	-0.6778012299700134
-0.48394371162499894	-0.6775438469922783
-0.48388267646874894	-0.6772533630530732
-0.48382164131249894	-0.6769284626270072
-0.48376060615624894	-0.6765677642198366
-0.48369957099999894	-0.6761699373524179
-0.48363853584374894	-0.6757338113336522
-0.48357750068749894	-0.6752584650851203
-0.48351646553124894	-0.674743291461404
-0.48345543037499894	-0.6741880346370973
-0.48339439521874894	-0.6735927989184044
-0.48333336006249894	-0.672958028860641
-0.48327232490624894	-0.6722844645846393
-0.48321128974999894	-0.6715730763753607
-0.48315025459374894	-0.6708249837194021
-0.48308921943749894	-0.6700413673418771
-0.48302818428124894	-0.6692233800602615
-0.48296714912499894	-0.6683720596830276
-0.48290611396874894	-0.6674882524760495
-0.48284507881249894	-0.6665725548536622
-0.48278404365624894	-0.6656252734042652
-0.48272300849999894	-0.6646464057169365
-0.48266197334374894	-0.6636356469655654
-0.48260093818749894	-0.6625924195478798
-0.48253990303124894	-0.6615159212775916
-0.48247886787499894	-0.660405192061823
-0.48241783271874894	-0.6592591953005646
-0.48235679756249894	-0.6580769064598097
-0.48229576240624894	-0.6568574024334067
-0.48223472724999894	-0.6555999435933639
-0.48217369209374894	-0.6543040413972797
-0.48211265693749894	-0.652969506388301
-0.48205162178124894	-0.6515964710473605
-0.48199058662499894	-0.6501853855438172
-0.48192955146874894	-0.6487369869565996
-0.48186851631249894	-0.6472522436500544
-0.48180748115624894	-0.6457322781123771
-0.48174644599999894	-0.6441782723251469
-0.48168541084374894	-0.6425913648488363
-0.48162437568749894	-0.6409725523377824
-0.48156334053124894	-0.6393226051399611
-0.48150230537499894	-0.6376420037735542
-0.48144127021874894	-0.6359309009600163
-0.48138023506249894	-0.6341891130554727
-0.48131919990624894	-0.6324161442689662
-0.48125816474999894	-0.6306112411976885
-0.48119712959374894	-0.6287734708234126
-0.48113609443749894	-0.6269018169164576
-0.48107505928124894	-0.6249952878091802
-0.48101402412499894	-0.6230530225789704
-0.48095298896874894	-0.6210743826812846
-0.48089195381249894	-0.6190590219385319
-0.48083091865624894	-0.617006929003259
-0.48076988349999894	-0.6149184355659644
-0.48070884834374894	-0.6127941896760054
-0.48064781318749894	-0.610635098682291
-0.48058677803124894	-0.6084422473427336
-0.48052574287499894	-0.6062167974257363
-0.48046470771874894	-0.6039598775205929
-0.48040367256249894	-0.6016724774989775
-0.48034263740624894	-0.5993553610474143
-0.48028160224999894	-0.5970090025818254
-0.48022056709374894	-0.5946335554613789
-0.48015953193749894	-0.5922288557418817
-0.48009849678124894	-0.5897944556418855
-0.48003746162499894	-0.5873296840313198
-0.47997642646874894	-0.5848337355328214
-0.47991539131249894	-0.5823057770455775
-0.47985435615624894	-0.5797450521411104
-0.47979332099999894	-0.5771509710044432
-0.47973228584374894	-0.5745231806223249
-0.47967125068749894	-0.5718616108805612
-0.47961021553124894	-0.5691664903446777
-0.47954918037499894	-0.5664383274783976
-0.47948814521874894	-0.5636778616850642
-0.47942711006249894	-0.5608859906652232
-0.47936607490624894	-0.5580636802523546
-0.47930503974999894	-0.5552118691413928
-0.47924400459374894	-0.5523313805802925
-0.47918296943749894	-0.5494228486841956
-0.47912193428124894	-0.5464866682740241
-0.47906089912499894	-0.5435229746802139
-0.47899986396874894	-0.5405316525424313
-0.47893882881249894	-0.5375123712310388
-0.47887779365624894	-0.5344646450004034
-0.47881675849999894	-0.5313879126811586
-0.47875572334374894	-0.528281625861219
-0.47869468818749894	-0.5251453312665795
-0.47863365303124894	-0.5219787404439169
-0.47857261787499894	-0.518781781976214
-0.47851158271874894	-0.5155546246497592
-0.47845054756249894	-0.5122976662615738
-0.47838951240624894	-0.5090114959726596
-0.47832847724999894	-0.5056968395531544
-0.47826744209374894	-0.5023544917185991
-0.47820640693749894	-0.49898524030393976
-0.47814537178124894	-0.49558979100741907
-0.47808433662499894	-0.4921687033827559
-0.47802330146874894	-0.48872234719921664
-0.47796226631249894	-0.485250882395822
-0.47790123115624894	-0.4817542618545505
-0.47784019599999894	-0.47823225893195914
-0.47777916084374894	-0.474684519029865
-0.47771812568749894	-0.4711106258350063
-0.47765709053124894	-0.46751017448234505
-0.47759605537499894	-0.4638828438767506
-0.47753502021874894	-0.46022845558111014
-0.47747398506249894	-0.45654701583378104
-0.47741294990624894	-0.4528387403799108
-0.47735191474999894	-0.44910405137795234
-0.47729087959374894	-0.44534354350244265
-0.47722984443749894	-0.44155793279441663
-0.47716880928124894	-0.43774799599915604
-0.47710777412499894	-0.4339145016359464
-0.47704673896874894	-0.43005814474380716
-0.47698570381249894	-0.4261794933034584
-0.47692466865624894	-0.42227894383603615
-0.47686363349999894	-0.4183566929863076
-0.47680259834374894	-0.4144127351866841
-0.47674156318749894	-0.41044688618886493
-0.47668052803124894	-0.40645882708563547
-0.47661949287499894	-0.4024481643902683
-0.47655845771874894	-0.39841450047429555
-0.47649742256249894	-0.39435750436789263
-0.47643638740624894	-0.3902769727442267
-0.47637535224999894	-0.38617287518791854
-0.47631431709374894	-0.38204538219207
-0.47625328193749894	-0.3778948724682415
-0.47619224678124894	-0.37372191466911187
-0.47613121162499894	-0.3695272278126966
-0.47607017646874894	-0.3653116280047089
-0.47600914131249894	-0.3610759629765073
-0.47594810615624894	-0.35682103973381224
-0.47588707099999894	-0.3525475572130585
-0.47582603584374894	-0.34825605273647914
-0.47576500068749894	-0.3439468667374418
-0.47570396553124894	-0.3396201290043761
-0.47564293037499894	-0.33527576693672256
-0.47558189521874894	-0.33091353223523123
-0.47552086006249894	-0.32653304425120566
-0.47545982490624894	-0.32213385362577096
-0.47539878974999894	-0.3177155213605011
-0.47533775459374894	-0.31327769609420547
-0.47527671943749894	-0.30882017953841095
-0.47521568428124894	-0.3043429766147527
-0.47515464912499894	-0.2998463235275276
-0.47509361396874894	-0.29533069297110387
-0.47503257881249894	-0.29079677733116505
-0.47497154365624894	-0.2862454453512615
-0.47491050849999894	-0.2816776751253839
-0.47484947334374894	-0.27709447248949287
-0.47478843818749894	-0.2724967833493267
-0.47472740303124894	-0.267885411744418
-0.47466636787499894	-0.26326095379248093
-0.47460533271874894	-0.25862375323943537
-0.47454429756249894	-0.25397388393424586
-0.47448326240624894	-0.2493111621558192
-0.47442222724999894	-0.24463518498962677
-0.47436119209374894	-0.23994539130396458
-0.47430015693749894	-0.23524114625193798
-0.47423912178124894	-0.2305218397099776
-0.47417808662499894	-0.2257869825464071
-0.47411705146874894	-0.22103629264034222
-0.47405601631249894	-0.21626976280351864
-0.47399498115624894	-0.21148770042133047
-0.47393394599999894	-0.20669073221389514
-0.47387291084374894	-0.20187976966002727
-0.47381187568749894	-0.19705593847390127
-0.47375084053124894	-0.1922204859682615
-0.47368980537499894	-0.1873746765069129
-0.47362877021874894	-0.1825196817468146
-0.47356773506249894	-0.17765647629342693
-0.47350669990624894	-0.17278574897087923
-0.47344566474999894	-0.16790784190679608
-0.47338462959374894	-0.163022731196137
-0.47332359443749894	-0.15813005243757794
-0.47326255928124894	-0.15322916249886517
-0.47320152412499894	-0.14831923097771663
-0.47314048896874894	-0.14339935794049988
-0.47307945381249894	-0.1384687040337446
-0.47301841865624894	-0.1335266143104712
-0.47295738349999894	-0.12857272493421706
-0.47289634834374894	-0.12360704122957833
-0.47283531318749894	-0.11862997444427341
-0.47277427803124894	-0.11364233379705788
-0.47271324287499894	-0.10864527264995115
-0.47265220771874894	-0.10364019182209191
-0.47259117256249894	-0.09862861603452777
-0.47253013740624894	-0.09361205887477742
-0.47246910224999894	-0.08859188302803124
-0.47240806709374894	-0.08356917093163992
-0.47234703193749894	-0.07854462796644361
-0.47228599678124894	-0.07351852738743955
-0.47222496162499894	-0.06849070373066697
-0.47216392646874894	-0.06346059806738111
-0.47210289131249894	-0.05842734186427205
-0.47204185615624894	-0.05338987324324952
-0.47198082099999894	-0.048347085817080686
-0.47191978584374894	-0.04329799066330255
-0.47185875068749894	-0.03824186247225359
-0.47179771553124894	-0.03317835072182922
-0.47173668037499894	-0.02810754843541088
-0.47167564521874894	-0.023030015977255295
-0.47161461006249894	-0.01794675747296794
-0.47155357490624894	-0.01285914891483875
-0.47149253974999894	-0.007768819465914262
-0.47143150459374894	-0.002677498549325054
-0.47137046943749894	0.0024131478689494923
-0.47130943428124894	0.007501675997521071
-0.47124839912499894	0.012587003283253115
-0.47118736396874894	0.01766850477583752
-0.47112632881249894	0.022746054803010517
-0.47106529365624894	0.02782001524694287
-0.47100425849999894	0.03289117164078926
-0.47094322334374894	0.037960622319684806
-0.47088218818749894	0.04302963059108989
-0.47082115303124894	0.04809945168806756
-0.47076011787499894	0.05317115610374004
-0.47069908271874894	0.058245473564069096
-0.47063804756249894	0.0633226746820099
-0.47057701240624894	0.06840250330886041
