Time	Frequency
-0.5000305140312484	2.934547097556607e-22
-0.49996947887499843	2.916832400442477e-22
-0.49990844371874843	2.898878663076589e-22
-0.49984740856249843	2.880641686772838e-22
-0.49978637340624843	2.8621051890112224e-22
-0.49972533824999843	2.8432851654258453e-22
-0.49966430309374843	2.8242277131751296e-22
-0.49960326793749843	2.8050006197025923e-22
-0.49954223278124843	2.7856802877357815e-22
-0.49948119762499843	2.766336597177976e-22
-0.49942016246874843	2.7470187430849867e-22
-0.49935912731249843	2.727744927890762e-22
-0.49929809215624843	2.7084981654334185e-22
-0.49923705699999843	2.6892291734969633e-22
-0.49917602184374843	2.669865803904554e-22
-0.49911498668749843	2.650327238170599e-22
-0.49905395153124843	2.630540247108331e-22
-0.49899291637499843	2.6104542138570554e-22
-0.49893188121874843	2.590051803270409e-22
-0.49887084606249843	2.56935308482591e-22
-0.49880981090624843	2.5484121846315064e-22
-0.49874877574999843	2.527307105570663e-22
-0.49868774059374843	2.5061247599859047e-22
-0.49862670543749843	2.484944070445299e-22
-0.49856567028124843	2.463820386562897e-22
-0.49850463512499843	2.4427744278397115e-22
-0.49844359996874843	2.421788075247188e-22
-0.49838256481249843	2.400807839813702e-22
-0.49832152965624843	2.379755404807131e-22
-0.49826049449999843	2.35854322581211e-22
-0.49819945934374843	2.337092019243558e-22
-0.49813842418749843	2.315346626816236e-22
-0.49807738903124843	2.293287074207413e-22
-0.49801635387499843	2.2709326021414705e-22
-0.49795531871874843	2.2483379851400484e-22
-0.49789428356249843	2.2255829157364024e-22
-0.49783324840624843	2.202756471174152e-22
-0.49777221324999843	2.17993978910254e-22
-0.49771117809374843	2.1571904484996755e-22
-0.49765014293749843	2.134531618974201e-22
-0.49758910778124843	2.111948114991136e-22
-0.49752807262499843	2.0893900144413054e-22
-0.49746703746874843	2.0667829927568825e-22
-0.49740600231249843	2.0440433506767396e-22
-0.49734496715624843	2.0210947511337664e-22
-0.49728393199999843	1.9978832523960842e-22
-0.49722289684374843	1.9743876077376005e-22
-0.49716186168749843	1.950622861079764e-22
-0.49710082653124843	1.9266366909689347e-22
-0.49703979137499843	1.902499409632027e-22
-0.49697875621874843	1.8782897902934912e-22
-0.49691772106249843	1.8540797131346955e-22
-0.49685668590624843	1.8299207181918074e-22
-0.49679565074999843	1.8058350308538424e-22
-0.49673461559374843	1.7818126625055177e-22
-0.49667358043749843	1.7578148570037002e-22
-0.49661254528124843	1.733782972539959e-22
-0.49655151012499843	1.7096509543610582e-22
-0.49649047496874843	1.6853586686109295e-22
-0.49642943981249843	1.6608633651028363e-22
-0.49636840465624843	1.6361472957620056e-22
-0.49630736949999843	1.6112200312678782e-22
-0.49624633434374843	1.5861150911729232e-22
-0.49618529918749843	1.5608821218780759e-22
-0.49612426403124843	1.535576518530717e-22
-0.49606322887499843	1.5102485503027276e-22
-0.49600219371874843	1.4849342185502902e-22
-0.49594115856249843	1.4596496255455933e-22
-0.49588012340624843	1.4343897354966576e-22
-0.49581908824999843	1.4091313700821986e-22
-0.49575805309374843	1.383839456297403e-22
-0.49569701793749843	1.3584751476003283e-22
-0.49563598278124843	1.333004039986619e-22
-0.49557494762499843	1.3074026536289267e-22
-0.49551391246874843	1.2816620336309327e-22
-0.49545287731249843	1.2557881048638888e-22
-0.49539184215624843	1.2297990108642218e-22
-0.49533080699999843	1.2037202772276723e-22
-0.49526977184374843	1.1775791027887677e-22
-0.49520873668749843	1.1513990251924804e-22
-0.49514770153124843	1.1251959330437161e-22
-0.49508666637499843	1.0989761795050481e-22
-0.49502563121874843	1.0727369843037578e-22
-0.49496459606249843	1.0464687204864341e-22
-0.49490356090624843	1.0201583998522797e-22
-0.49484252574999843	9.937933811426203e-23
-0.49478149059374843	9.673643481474156e-23
-0.49472045543749843	9.408670007674935e-23
-0.49465942028124843	9.143022784521508e-23
-0.49459838512499843	8.87675327940082e-23
-0.49453734996874843	8.609936188010217e-23
-0.49447631481249843	8.342647079601973e-23
-0.49441527965624843	8.074943099883048e-23
-0.49435424449999843	7.806851690896674e-23
-0.49429320934374843	7.538369515859365e-23
-0.49423217418749843	7.269470962313056e-23
-0.49417113903124843	7.000123533160702e-23
-0.49411010387499843	6.730305802423605e-23
-0.49404906871874843	6.460021160008218e-23
-0.49398803356249843	6.189303572821245e-23
-0.49392699840624843	5.918215354771995e-23
-0.49386596324999843	5.64683588084652e-23
-0.49380492809374843	5.375243534436647e-23
-0.49374389293749843	5.103498384361696e-23
-0.49368285778124843	4.8316300776240295e-23
-0.49362182262499843	4.559631126760016e-23
-0.49356078746874843	4.28745749508229e-23
-0.49349975231249843	4.0150387959927866e-23
-0.49343871715624843	3.742296229189885e-23
-0.49337768199999843	3.469162659773715e-23
-0.49331664684374843	3.1955991083238215e-23
-0.49325561168749843	2.92160527297519e-23
-0.49319457653124843	2.6472233126325565e-23
-0.49313354137499843	2.3725329106063962e-23
-0.49307250621874843	2.0976378084026172e-23
-0.49301147106249843	1.822647832049535e-23
-0.49295043590624843	1.5476605998234532e-23
-0.49288940074999843	1.2727458467058616e-23
-0.49282836559374843	9.979346472198947e-24
-0.49276733043749843	7.23215738954096e-24
-0.49270629528124843	4.485413463076445e-24
-0.49264526012499843	1.7384128373792216e-24
-0.49258422496874843	-1.0096008233216071e-24
-0.49252318981249843	-3.759276916504919e-24
-0.49246215465624843	-6.511022110462051e-24
-0.49240111949999843	-9.264917632207102e-24
-0.49234008434374843	-1.2020708934057445e-23
-0.49227904918749843	-1.4777861107530207e-23
-0.49221801403124843	-1.7535650357237954e-23
-0.49215697887499843	-2.0293266605838715e-23
-0.49209594371874843	-2.3049928803467318e-23
-0.49203490856249843	-2.5805000397013945e-23
-0.49197387340624843	-2.855806500418832e-23
-0.49191283824999843	-3.1308948503298614e-23
-0.49185180309374843	-3.4057704842617174e-23
-0.49179076793749843	-3.6804574168730095e-23
-0.49172973278124843	-3.954990634682076e-23
-0.49166869762499843	-4.2294059357631015e-23
-0.49160766246874843	-4.5037316047037293e-23
-0.49154662731249843	-4.7779850746866294e-23
-0.49148559215624843	-5.052171888230129e-23
-0.49142455699999843	-5.326283386116322e-23
-0.49136352184374843	-5.600295725547807e-23
-0.49130248668749843	-5.874172642344566e-23
-0.49124145153124843	-6.1478688394944e-23
-0.49118041637499843	-6.421333014054707e-23
-0.49111938121874843	-6.694512543907295e-23
-0.49105834606249843	-6.967359553854912e-23
-0.49099731090624843	-7.239836360881165e-23
-0.49093627574999843	-7.511919310448166e-23
-0.49087524059374843	-7.783601672179882e-23
-0.49081420543749843	-8.054894997166983e-23
-0.49075317028124843	-8.325826752671273e-23
-0.49069213512499843	-8.59643429794024e-23
-0.49063109996874843	-8.866757097468489e-23
-0.49057006481249843	-9.136827954938434e-23
-0.49050902965624843	-9.406663282015434e-23
-0.49044799449999843	-9.676254455390462e-23
-0.49038695934374843	-9.945564082157257e-23
-0.49032592418749843	-1.0214528274340926e-22
-0.49026488903124843	-1.0483063968306648e-22
-0.49020385387499843	-1.075108141472102e-22
-0.49014281871874843	-1.1018499764967144e-22
-0.49008178356249843	-1.128526177015758e-22
-0.49002074840624843	-1.1551345772715707e-22
-0.48995971324999843	-1.1816771877081067e-22
-0.48989867809374843	-1.2081598827705665e-22
-0.48983764293749843	-1.2345912278024568e-22
-0.48977660778124843	-1.2609805555599005e-22
-0.48971557262499843	-1.2873356083390921e-22
-0.48965453746874843	-1.313660476853151e-22
-0.48959350231249843	-1.3399543227558357e-22
-0.48953246715624843	-1.3662110134176703e-22
-0.48947143199999843	-1.3924197612794778e-22
-0.48941039684374843	-1.4185668177808557e-22
-0.48934936168749843	-1.4446379787378776e-22
-0.48928832653124843	-1.470621312056303e-22
-0.48922729137499843	-1.4965095090796366e-22
-0.48916625621874843	-1.522301377847198e-22
-0.48910522106249843	-1.5480020921134417e-22
-0.48904418590624843	-1.5736220790792276e-22
-0.48898315074999843	-1.5991747437901162e-22
-0.48892211559374843	-1.6246735258566039e-22
-0.48886108043749843	-1.6501289388370798e-22
-0.48880004528124843	-1.6755460782230317e-22
-0.48873901012499843	-1.70092310364245e-22
-0.48867797496874843	-1.726251201574582e-22
-0.48861693981249843	-1.751516019692201e-22
-0.48855590465624843	-1.776700188469697e-22
-0.48849486949999843	-1.8017864956727628e-22
-0.48843383434374843	-1.8267611527718728e-22
-0.48837279918749843	-1.8516164340649786e-22
-0.48831176403124843	-1.8763521328820986e-22
-0.48825072887499843	-1.9009755737480036e-22
-0.48818969371874843	-1.9255000360072244e-22
-0.48812865856249843	-1.9499418489508176e-22
-0.48806762340624843	-1.974316877392597e-22
-0.48800658824999843	-1.9986371036511509e-22
-0.48794555309374843	-2.0229078503829525e-22
-0.48788451793749843	-2.0471262385830353e-22
-0.48782348278124843	-2.0712814616217924e-22
-0.48776244762499843	-2.0953568269305818e-22
-0.48770141246874843	-2.1193329303117183e-22
-0.48764037731249843	-2.143191351732313e-22
-0.48757934215624843	-2.1669181722245045e-22
-0.48751830699999843	-2.190506549535679e-22
-0.48745727184374843	-2.213957844960303e-22
-0.48739623668749843	-2.2372809785265936e-22
-0.48733520153124843	-2.2604901699552047e-22
-0.48727416637499843	-2.2836017460524363e-22
-0.48721313121874843	-2.3066306045054123e-22
-0.48715209606249843	-2.3295869339057826e-22
-0.48709106090624843	-2.3524740136705495e-22
-0.48703002574999843	-2.3752876010327984e-22
-0.48696899059374843	-2.3980168420789075e-22
-0.48690795543749843	-2.4206464176786753e-22
-0.48684692028124843	-2.44315958664842e-22
-0.48678588512499843	-2.465541526171774e-22
-0.48672484996874843	-2.487782104238693e-22
-0.48666381481249843	-2.5098774027548834e-22
-0.48660277965624843	-2.5318298530397557e-22
-0.48654174449999843	-2.5536471781412243e-22
-0.48648070934374843	-2.5753403423795024e-22
-0.48641967418749843	-2.5969209169793384e-22
-0.48635863903124843	-2.618398530824802e-22
-0.48629760387499843	-2.6397789145069785e-22
-0.48623656871874843	-2.661062808047371e-22
-0.48617553356249843	-2.682245970070281e-22
-0.48611449840624843	-2.7033202961769134e-22
-0.48605346324999843	-2.724275611767808e-22
-0.48599242809374843	-2.745101609899719e-22
-0.48593139293749843	-2.765789598601273e-22
-0.48587035778124843	-2.786333813854793e-22
-0.48580932262499843	-2.8067320225589377e-22
-0.48574828746874843	-2.8269852458612024e-22
-0.48568725231249843	-2.847096834426639e-22
-0.48562621715624843	-2.86707133333218e-22
-0.48556518199999843	-2.8869133514093064e-22
-0.48550414684374843	-2.906626521469865e-22
-0.48544311168749843	-2.9262127968876643e-22
-0.48538207653124843	-2.9456723355273473e-22
-0.48532104137499843	-2.9650038702678275e-22
-0.48526000621874843	-2.984205260929613e-22
-0.48519897106249843	-3.0032740459859884e-22
-0.48513793590624843	-3.022207827116046e-22
-0.48507690074999843	-3.041004336177245e-22
-0.48501586559374843	-3.0596612615273444e-22
-0.48495483043749843	-3.0781760020378757e-22
-0.48489379528124843	-3.0965454707621094e-22
-0.48483276012499843	-3.1147660655422807e-22
-0.48477172496874843	-3.1328339097242406e-22
-0.48471068981249843	-3.150745448157066e-22
-0.48464965465624843	-3.168498293726546e-22
-0.48458861949999843	-3.1860920016261992e-22
-0.48452758434374843	-3.2035285325035033e-22
-0.48446654918749843	-3.220812239411252e-22
-0.48440551403124843	-3.2379492165118693e-22
-0.48434447887499843	-3.25494605018246e-22
-0.48428344371874843	-3.2718082189027955e-22
-0.48422240856249843	-3.2885384607303596e-22
-0.48416137340624843	-3.305135483938582e-22
-0.48410033824999843	-3.3215934394684566e-22
-0.48403930309374843	-3.337902456657391e-22
-0.48397826793749843	-3.3540502312075934e-22
-0.48391723278124843	-3.3700243658149133e-22
-0.48385619762499843	-3.385814993694863e-22
-0.48379516246874843	-3.401417079777336e-22
-0.48373412731249843	-3.4168317796875124e-22
-0.48367309215624843	-3.4320664633165704e-22
-0.48361205699999843	-3.4471333428489315e-22
-0.48355102184374843	-3.4620468927353223e-22
-0.48348998668749843	-3.476820499815679e-22
-0.48342895153124843	-3.491463150788358e-22
-0.48336791637499843	-3.505977083756452e-22
-0.48330688121874843	-3.520356928155299e-22
-0.48324584606249843	-3.534590440690798e-22
-0.48318481090624843	-3.5486608037145984e-22
-0.48312377574999843	-3.5625501343787337e-22
-0.48306274059374843	-3.5762433666442884e-22
-0.48300170543749843	-3.589731524102458e-22
-0.48294067028124843	-3.6030136157629663e-22
-0.48287963512499843	-3.6160967530007504e-22
-0.48281859996874843	-3.628994457035245e-22
-0.48275756481249843	-3.641723464479735e-22
-0.48269652965624843	-3.654299774098846e-22
-0.48263549449999843	-3.6667349214481065e-22
-0.48257445934374843	-3.679033309134077e-22
-0.48251342418749843	-3.6911911705303055e-22
-0.48245238903124843	-3.70319740735784e-22
-0.48239135387499843	-3.7150360769752256e-22
-0.48233031871874843	-3.7266899558773757e-22
-0.48226928356249843	-3.738144363978927e-22
-0.48220824840624843	-3.7493903096845894e-22
-0.48214721324999843	-3.7604262163803424e-22
-0.48208617809374843	-3.7712579103413767e-22
-0.48202514293749843	-3.7818969165508226e-22
-0.48196410778124843	-3.7923574577473504e-22
-0.48190307262499843	-3.8026529010578725e-22
-0.48184203746874843	-3.8127925294675843e-22
-0.48178100231249843	-3.822779385235329e-22
-0.48171996715624843	-3.8326096629637327e-22
-0.48165893199999843	-3.8422737665495985e-22
-0.48159789684374843	-3.851758728988515e-22
-0.48153686168749843	-3.861051359316587e-22
-0.48147582653124843	-3.870141338607095e-22
-0.48141479137499843	-3.87902353227043e-22
-0.48135375621874843	-3.887698972071552e-22
-0.48129272106249843	-3.8961742736258023e-22
-0.48123168590624843	-3.9044596598405167e-22
-0.48117065074999843	-3.9125661302184194e-22
-0.48110961559374843	-3.920502519048484e-22
-0.48104858043749843	-3.9282731811264673e-22
-0.48098754528124843	-3.9358768605601044e-22
-0.48092651012499843	-3.943307008681814e-22
-0.48086547496874843	-3.9505534556099105e-22
-0.48080443981249843	-3.9576049714607025e-22
-0.48074340465624843	-3.9644520386416557e-22
-0.48068236949999843	-3.971089151218005e-22
-0.48062133434374843	-3.977516087717394e-22
-0.48056029918749843	-3.983737850258014e-22
-0.48049926403124843	-3.9897633014060834e-22
-0.48043822887499843	-3.995602855358719e-22
-0.48037719371874843	-4.001265810482491e-22
-0.48031615856249843	-4.0067579934721946e-22
-0.48025512340624843	-4.0120802858990207e-22
-0.48019408824999843	-4.017228363530763e-22
-0.48013305309374843	-4.0221936822498913e-22
-0.48007201793749843	-4.026965452569758e-22
-0.48001098278124843	-4.031533113019069e-22
-0.47994994762499843	-4.0358887045758824e-22
-0.47988891246874843	-4.040028593752032e-22
-0.47982787731249843	-4.043954167953212e-22
-0.47976684215624843	-4.047671370789136e-22
-0.47970580699999843	-4.0511892074974225e-22
-0.47964477184374843	-4.054517601509773e-22
-0.47958373668749843	-4.0576651337569603e-22
-0.47952270153124843	-4.060637174402925e-22
-0.47946166637499843	-4.063434792727686e-22
-0.47940063121874843	-4.0660546532007676e-22
-0.47933959606249843	-4.068489864181495e-22
-0.47927856090624843	-4.070731546527992e-22
-0.47921752574999843	-4.0727707674548795e-22
-0.47915649059374843	-4.074600397015413e-22
-0.47909545543749843	-4.0762164794107993e-22
-0.47903442028124843	-4.0776188628253197e-22
-0.47897338512499843	-4.07881099429496e-22
-0.47891234996874843	-4.079798962798476e-22
-0.47885131481249843	-4.080590037275513e-22
-0.47879027965624843	-4.0811910304510384e-22
-0.47872924449999843	-4.0816068564517793e-22
-0.47866820934374843	-4.081839607672954e-22
-0.47860717418749843	-4.0818883016462254e-22
-0.47854613903124843	-4.0817492958703923e-22
-0.47848510387499843	-4.0814172687409216e-22
-0.47842406871874843	-4.0808865270278684e-22
-0.47836303356249843	-4.080152313856049e-22
-0.47830199840624843	-4.079211809112114e-22
-0.47824096324999843	-4.0780646084273243e-22
-0.47817992809374843	-4.07671258720911e-22
-0.47811889293749843	-4.0751591969005986e-22
-0.47805785778124843	-4.0734084247289614e-22
-0.47799682262499843	-4.0714637186089427e-22
-0.47793578746874843	-4.069327120485873e-22
-0.47787475231249843	-4.066998830241326e-22
-0.47781371715624843	-4.06447733500694e-22
-0.47775268199999843	-4.0617600393222807e-22
-0.47769164684374843	-4.0588442019444396e-22
-0.47763061168749843	-4.055727910506314e-22
-0.47756957653124843	-4.052410785357811e-22
-0.47750854137499843	-4.048894176453781e-22
-0.47744750621874843	-4.045180765840762e-22
-0.47738647106249843	-4.041273685626606e-22
-0.47732543590624843	-4.037175438533898e-22
-0.47726440074999843	-4.0328869852699225e-22
-0.47720336559374843	-4.028407304736012e-22
-0.47714233043749843	-4.023733549883424e-22
-0.47708129528124843	-4.0188617727048378e-22
-0.47702026012499843	-4.0137880703557953e-22
-0.47695922496874843	-4.008509837138865e-22
-0.47689818981249843	-4.0030267601860184e-22
-0.47683715465624843	-3.9973412762982614e-22
-0.47677611949999843	-3.9914582872109577e-22
-0.47671508434374843	-3.9853840867069573e-22
-0.47665404918749843	-3.979124732863322e-22
-0.47659301403124843	-3.9726843416651117e-22
-0.47653197887499843	-3.96606380761689e-22
-0.47647094371874843	-3.959260333716934e-22
-0.47640990856249843	-3.9522679656562795e-22
-0.47634887340624843	-3.9450790223837883e-22
-0.47628783824999843	-3.9376860749867686e-22
-0.47622680309374843	-3.9300840514033065e-22
-0.47616576793749843	-3.9222719145423216e-22
-0.47610473278124843	-3.9142533515871146e-22
-0.47604369762499843	-3.906036234010878e-22
-0.47598266246874843	-3.8976309173193207e-22
-0.47592162731249843	-3.8890477095726788e-22
-0.47586059215624843	-3.880294167998266e-22
-0.47579955699999843	-3.871372995621075e-22
-0.47573852184374843	-3.8622811210007584e-22
-0.47567748668749843	-3.8530102505882586e-22
-0.47561645153124843	-3.8435488566939287e-22
-0.47555541637499843	-3.8338851445496933e-22
-0.47549438121874843	-3.8240102255139603e-22
-0.47543334606249843	-3.8139206985485215e-22
-0.47537231090624843	-3.8036199355451185e-22
-0.47531127574999843	-3.7931176221998783e-22
-0.47525024059374843	-3.7824276250651074e-22
-0.47518920543749843	-3.7715647297535836e-22
-0.47512817028124843	-3.7605410279584945e-22
-0.47506713512499843	-3.7493628666737186e-22
-0.47500609996874843	-3.738029168907799e-22
-0.47494506481249843	-3.7265315407520955e-22
-0.47488402965624843	-3.7148562070826254e-22
-0.47482299449999843	-3.7029874000730313e-22
-0.47476195934374843	-3.6909114080569113e-22
-0.47470092418749843	-3.6786202555389214e-22
-0.47463988903124843	-3.666113996829618e-22
-0.47457885387499843	-3.653401011681733e-22
-0.47451781871874843	-3.640496252349875e-22
-0.47445678356249843	-3.6274178721420057e-22
-0.47439574840624843	-3.614182962092729e-22
-0.47433471324999843	-3.60080333011279e-22
-0.47427367809374843	-3.5872825196328104e-22
-0.47421264293749843	-3.573614958544063e-22
-0.47415160778124843	-3.559787347596078e-22
-0.47409057262499843	-3.545782000253135e-22
-0.47402953746874843	-3.531581434949535e-22
-0.47396850231249843	-3.517172947992217e-22
-0.47390746715624843	-3.50255195190902e-22
-0.47384643199999843	-3.4877233158717313e-22
-0.47378539684374843	-3.472700361982864e-22
-0.47372436168749843	-3.457501761385737e-22
-0.47366332653124843	-3.4421470702286634e-22
-0.47360229137499843	-3.426651957667071e-22
-0.47354125621874843	-3.411024400166198e-22
-0.47348022106249843	-3.3952628325543532e-22
-0.47341918590624843	-3.379356712444239e-22
-0.47335815074999843	-3.363289445922202e-22
-0.47329711559374843	-3.3470429044617693e-22
-0.47323608043749843	-3.330602238973129e-22
-0.47317504528124843	-3.313959725159999e-22
-0.47311401012499843	-3.2971167947989836e-22
-0.47305297496874843	-3.280083853410046e-22
-0.47299193981249843	-3.262877799377907e-22
-0.47293090465624843	-3.24551775473109e-22
-0.47286986949999843	-3.2280202474007892e-22
-0.47280883434374843	-3.210395191830539e-22
-0.47274779918749843	-3.1926436635587356e-22
-0.47268676403124843	-3.17475801943787e-22
-0.47262572887499843	-3.1567242406883235e-22
-0.47256469371874843	-3.138525877786915e-22
-0.47250365856249843	-3.120148659112492e-22
