Time	Frequency
-0.5000305139999988	-3.989733602600172e-22
-0.49996947884374876	-3.99199134212832e-22
-0.49990844368749876	-3.993992197108712e-22
-0.49984740853124876	-3.9957343243615453e-22
-0.49978637337499876	-3.997230130913317e-22
-0.49972533821874876	-3.9985041744169837e-22
-0.49966430306249876	-3.999588639655839e-22
-0.49960326790624876	-4.0005172313556044e-22
-0.49954223274999876	-4.0013186433789987e-22
-0.49948119759374876	-4.002010862105385e-22
-0.49942016243749876	-4.002597433544357e-22
-0.49935912728124876	-4.0030664679368387e-22
-0.49929809212499876	-4.003392624530283e-22
-0.49923705696874876	-4.003541739460139e-22
-0.49917602181249876	-4.0034772444913915e-22
-0.49911498665624876	-4.0031671626267837e-22
-0.49905395149999876	-4.0025903352815055e-22
-0.49899291634374876	-4.001740662057647e-22
-0.49893188118749876	-4.000628502041623e-22
-0.49887084603124876	-3.99927892625954e-22
-0.49880981087499876	-3.9977271188473064e-22
-0.49874877571874876	-3.9960117773940707e-22
-0.49868774056249876	-3.994167747101925e-22
-0.49862670540624876	-3.992219296316998e-22
-0.49856567024999876	-3.990175351746828e-22
-0.49850463509374876	-3.988027633602253e-22
-0.49844359993749876	-3.9857520756522223e-22
-0.49838256478124876	-3.9833132920909835e-22
-0.49832152962499876	-3.9806712527502904e-22
-0.49826049446874876	-3.977788898446658e-22
-0.49819945931249876	-3.9746392492767574e-22
-0.49813842415624876	-3.971210634705352e-22
-0.49807738899999876	-3.967509020362188e-22
-0.49801635384374876	-3.9635569737924235e-22
-0.49795531868749876	-3.959389462640051e-22
-0.49789428353124876	-3.955047274320044e-22
-0.49783324837499876	-3.9505692883620587e-22
-0.49777221321874876	-3.9459850720603174e-22
-0.49771117806249876	-3.941309243156083e-22
-0.49765014290624876	-3.93653869182387e-22
-0.49758910774999876	-3.931653180971931e-22
-0.49752807259374876	-3.9266192142686575e-22
-0.49746703743749876	-3.9213964487936416e-22
-0.49740600228124876	-3.9159454310142325e-22
-0.49734496712499876	-3.9102351643038677e-22
-0.49728393196874876	-3.9042490534026166e-22
-0.49722289681249876	-3.8979881024354675e-22
-0.49716186165624876	-3.8914707446183976e-22
-0.49710082649999876	-3.884729331516584e-22
-0.49703979134374876	-3.8778039861494877e-22
-0.49697875618749876	-3.8707349858851594e-22
-0.49691772103124876	-3.8635551202390907e-22
-0.49685668587499876	-3.856283512418249e-22
-0.49679565071874876	-3.8489220610679646e-22
-0.49673461556249876	-3.8414551599507626e-22
-0.49667358040624876	-3.8338527695711144e-22
-0.49661254524999876	-3.8260762441239277e-22
-0.49655151009374876	-3.81808579401723e-22
-0.49649047493749876	-3.8098481566821793e-22
-0.49642943978124876	-3.8013429727341456e-22
-0.49636840462499876	-3.792566648423311e-22
-0.49630736946874876	-3.7835330300063543e-22
-0.49624633431249876	-3.774270778249137e-22
-0.49618529915624876	-3.7648179211235026e-22
-0.49612426399999876	-3.755214661640213e-22
-0.49606322884374876	-3.745495841004506e-22
-0.49600219368749876	-3.7356844675497328e-22
-0.49594115853124876	-3.725787524570195e-22
-0.49588012337499876	-3.7157948242856114e-22
-0.49581908821874876	-3.705681093128546e-22
-0.49575805306249876	-3.6954108979069023e-22
-0.49569701790624876	-3.6849454799774655e-22
-0.49563598274999876	-3.674250161502232e-22
-0.49557494759374876	-3.6633008955973337e-22
-0.49551391243749876	-3.6520887541217506e-22
-0.49545287728124876	-3.640621535713449e-22
-0.49539184212499876	-3.628922204946808e-22
-0.49533080696874876	-3.6170244896090757e-22
-0.49526977181249876	-3.604966522941498e-22
-0.49520873665624876	-3.5927837893190735e-22
-0.49514770149999876	-3.580502697241173e-22
-0.49508666634374876	-3.568135925487342e-22
-0.49502563118749876	-3.555680376849758e-22
-0.49496459603124876	-3.5431181200884703e-22
-0.49490356087499876	-3.530420113447954e-22
-0.49484252571874876	-3.5175519235886886e-22
-0.49478149056249876	-3.504480303998498e-22
-0.49472045540624876	-3.4911794051832943e-22
-0.49465942024999876	-3.477635482255154e-22
-0.49459838509374876	-3.463849259359993e-22
-0.49453734993749876	-3.449835540349337e-22
-0.49447631478124876	-3.4356201713213177e-22
-0.49441527962499876	-3.4212350063971114e-22
-0.49435424446874876	-3.4067119175652144e-22
-0.49429320931249876	-3.392077013670511e-22
-0.49423217415624876	-3.377346125829804e-22
-0.49417113899999876	-3.362522350099313e-22
-0.49411010384374876	-3.347596042859879e-22
-0.49404906868749876	-3.332547196989921e-22
-0.49398803353124876	-3.317349699208081e-22
-0.49392699837499876	-3.3019766010566526e-22
-0.49386596321874876	-3.286405320364514e-22
-0.49380492806249876	-3.2706218074238664e-22
-0.49374389290624876	-3.254622983651358e-22
-0.49368285774999876	-3.238417013652128e-22
-0.49362182259374876	-3.222021383673968e-22
-0.49356078743749876	-3.205459261679579e-22
-0.49349975228124876	-3.188754948829682e-22
-0.49343871712499876	-3.1719293264472707e-22
-0.49337768196874876	-3.1549961339949827e-22
-0.49331664681249876	-3.1379597565799194e-22
-0.49325561165624876	-3.1208149210801067e-22
-0.49319457649999876	-3.1035483155882665e-22
-0.49313354134374876	-3.086141727712115e-22
-0.49307250618749876	-3.0685760003286375e-22
-0.49301147103124876	-3.0508350082215955e-22
-0.49295043587499876	-3.032908891835564e-22
-0.49288940071874876	-3.0147959393272964e-22
-0.49282836556249876	-2.9965027688769054e-22
-0.49276733040624876	-2.9780428374952053e-22
-0.49270629524999876	-2.9594336631691356e-22
-0.49264526009374876	-2.94069333118163e-22
-0.49258422493749876	-2.9218369726644445e-22
-0.49252318978124876	-2.90287393722762e-22
-0.49246215462499876	-2.8838062211675232e-22
-0.49240111946874876	-2.8646284446583086e-22
-0.49234008431249876	-2.8453293275221345e-22
-0.49227904915624876	-2.825894278202175e-22
-0.49221801399999876	-2.806308566347724e-22
-0.49215697884374876	-2.786560483576217e-22
-0.49209594368749876	-2.766643827824891e-22
-0.49203490853124876	-2.7465591940279616e-22
-0.49197387337499876	-2.726313907694345e-22
-0.49191283821874876	-2.705920689295821e-22
-0.49185180306249876	-2.6853952591669747e-22
-0.49179076790624876	-2.6647533303472585e-22
-0.49172973274999876	-2.644007647493598e-22
-0.49166869759374876	-2.623165674534634e-22
-0.49160766243749876	-2.602228381565882e-22
-0.49154662728124876	-2.5811903611337075e-22
-0.49148559212499876	-2.560041188611123e-22
-0.49142455696874876	-2.538767726653445e-22
-0.49136352181249876	-2.5173569274445966e-22
-0.49130248665624876	-2.4957985624779907e-22
-0.49124145149999876	-2.474087323761922e-22
-0.49118041634374876	-2.4522239136177433e-22
-0.49111938118749876	-2.430214980635581e-22
-0.49105834603124876	-2.4080719312084426e-22
-0.49099731087499876	-2.3858088240148426e-22
-0.49093627571874876	-2.3634397871321126e-22
-0.49087524056249876	-2.34097648138235e-22
-0.49081420540624876	-2.318426074886156e-22
-0.49075317024999876	-2.2957901401828513e-22
-0.49069213509374876	-2.273064715773429e-22
-0.49063109993749876	-2.250241459946004e-22
-0.49057006478124876	-2.2273096070994812e-22
-0.49050902962499876	-2.2042583217241304e-22
-0.49044799446874876	-2.1810789819443933e-22
-0.49038695931249876	-2.157766977306618e-22
-0.49032592415624876	-2.1343227027189394e-22
-0.49026488899999876	-2.1107515535385455e-22
-0.49020385384374876	-2.0870629255555536e-22
-0.49014281868749876	-2.063268458803407e-22
-0.49008178353124876	-2.0393799119735599e-22
-0.49002074837499876	-2.015407048783818e-22
-0.48995971321874876	-1.9913559190681649e-22
-0.48989867806249876	-1.9672279405883133e-22
-0.48983764290624876	-1.943019995373807e-22
-0.48977660774999876	-1.918725466787872e-22
-0.48971557259374876	-1.8943359637068564e-22
-0.48965453743749876	-1.869843318013091e-22
-0.48959350228124876	-1.8452414075303446e-22
-0.48953246712499876	-1.820527516344298e-22
-0.48947143196874876	-1.7957030344798912e-22
-0.48941039681249876	-1.770773314099174e-22
-0.48934936165624876	-1.7457466804248552e-22
-0.48928832649999876	-1.7206328465130959e-22
-0.48922729134374876	-1.6954411121132034e-22
-0.48916625618749876	-1.6701787077371628e-22
-0.48910522103124876	-1.6448495618885926e-22
-0.48904418587499876	-1.619453752929811e-22
-0.48898315071874876	-1.5939878171559516e-22
-0.48892211556249876	-1.568445849536668e-22
-0.48886108040624876	-1.5428210863561293e-22
-0.48880004524999876	-1.5171075673271046e-22
-0.48873901009374876	-1.4913016060738876e-22
-0.48867797493749876	-1.4654028351860995e-22
-0.48861693978124876	-1.4394145664257045e-22
-0.48855590462499876	-1.4133433850244296e-22
-0.48849486946874876	-1.387198006062605e-22
-0.48843383431249876	-1.3609875490212957e-22
-0.48837279915624876	-1.334719737805538e-22
-0.48831176399999876	-1.3083995583943745e-22
-0.48825072884374876	-1.282028541772412e-22
-0.48818969368749876	-1.2556046737196605e-22
-0.48812865853124876	-1.229122990208057e-22
-0.48806762337499876	-1.2025768328900112e-22
-0.48800658821874876	-1.175959505466472e-22
-0.48794555306249876	-1.149265951121174e-22
-0.48788451790624876	-1.1224940869350846e-22
-0.48782348274999876	-1.0956454892406888e-22
-0.48776244759374876	-1.068725288904381e-22
-0.48770141243749876	-1.0417413535436804e-22
-0.48764037728124876	-1.0147029373563292e-22
-0.48757934212499876	-9.87619055425625e-23
-0.48751830696874876	-9.604969144924273e-23
-0.48745727181249876	-9.333407055081821e-23
-0.48739623665624876	-9.061510376714371e-23
-0.48733520149999876	-8.789251636537614e-23
-0.48727416634374876	-8.516578775827132e-23
-0.48721313118749876	-8.24342864075771e-23
-0.48715209603124876	-7.969742700362512e-23
-0.48709106087499876	-7.695481910629862e-23
-0.48703002571874876	-7.420637190964077e-23
-0.48696899056249876	-7.145232825411138e-23
-0.48690795540624876	-6.869322741885273e-23
-0.48684692024999876	-6.592981569279433e-23
-0.48678588509374876	-6.316291871903652e-23
-0.48672484993749876	-6.039329307947083e-23
-0.48666381478124876	-5.762149173252e-23
-0.48660277962499876	-5.484777916313143e-23
-0.48654174446874876	-5.20721126362185e-23
-0.48648070931249876	-4.92941861175478e-23
-0.48641967415624876	-4.65135255479024e-23
-0.48635863899999876	-4.372962005047307e-23
-0.48629760384374876	-4.094206168901801e-23
-0.48623656868749876	-3.815065682923957e-23
-0.48617553353124876	-3.535548718071646e-23
-0.48611449837499876	-3.255691480915934e-23
-0.48605346321874876	-2.975552793944123e-23
-0.48599242806249876	-2.6952039177337495e-23
-0.48593139290624876	-2.4147160472727867e-23
-0.48587035774999876	-2.1341479815175643e-23
-0.48580932259374876	-1.853536513482636e-23
-0.48574828743749876	-1.5728915209676707e-23
-0.48568725228124876	-1.2921969390118667e-23
-0.48562621712499876	-1.0114174122750021e-23
-0.48556518196874876	-7.305090446503464e-24
-0.48550414681249876	-4.494321397333061e-24
-0.48544311165624876	-1.68162999328928e-24
-0.48538207649999876	1.132978997605731e-24
-0.48532104134374876	3.94922997830651e-24
-0.48526000618749876	6.766611098660853e-24
-0.48519897103124876	9.584461213084385e-24
-0.48513793587499876	1.240208226212232e-23
-0.48507690071874876	1.5218861947099315e-23
-0.48501586556249876	1.8034385181783434e-23
-0.48495483040624876	2.0848499970089692e-23
-0.48489379524999876	2.366132352249917e-23
-0.48483276009374876	2.6473191515429053e-23
-0.48477172493749876	2.9284557964631086e-23
-0.48471068978124876	3.209586862782348e-23
-0.48464965462499876	3.4907435043677104e-23
-0.48458861946874876	3.771933071416029e-23
-0.48452758431249876	4.053133517646697e-23
-0.48446654915624876	4.334294532742807e-23
-0.48440551399999876	4.615345195042984e-23
-0.48434447884374876	4.896206165921391e-23
-0.48428344368749876	5.176803583831842e-23
-0.48422240853124876	5.457081909588107e-23
-0.48416137337499876	5.737013448635548e-23
-0.48410033821874876	6.016602450762886e-23
-0.48403930306249876	6.295882444336477e-23
-0.48397826790624876	6.574907244229192e-23
-0.48391723274999876	6.853737638367859e-23
-0.48385619759374876	7.132426384048013e-23
-0.48379516243749876	7.411004269260058e-23
-0.48373412728124876	7.689470206124228e-23
-0.48367309212499876	7.967787701044136e-23
-0.48361205696874876	8.245888439811507e-23
-0.48355102181249876	8.523682489688332e-23
-0.48348998665624876	8.801073254247922e-23
-0.48342895149999876	9.077974154420968e-23
-0.48336791634374876	9.3543237602716e-23
-0.48330688118749876	9.630096151039759e-23
-0.48324584603124876	9.905304196566515e-23
-0.48318481087499876	1.0179995009816261e-22
-0.48312377571874876	1.0454238422971113e-22
-0.48306274056249876	1.072811104695063e-22
-0.48300170540624876	1.1001679093377784e-22
-0.48294067024999876	1.1274982615545527e-22
-0.48287963509374876	1.1548024096915272e-22
-0.48281859993749876	1.182076466281229e-22
-0.48275756478124876	1.2093129141088042e-22
-0.48269652962499876	1.2365018428126271e-22
-0.48263549446874876	1.2636326310916149e-22
-0.48257445931249876	1.2906957325404371e-22
-0.48251342415624876	1.3176842427040427e-22
-0.48245238899999876	1.3445949826905655e-22
-0.48239135384374876	1.371428885654687e-22
-0.48233031868749876	1.398190588150221e-22
-0.48226928353124876	1.4248872880689612e-22
-0.48220824837499876	1.451527072901476e-22
-0.48214721321874876	1.4781170467897742e-22
-0.48208617806249876	1.5046616836380692e-22
-0.48202514290624876	1.5311617592564403e-22
-0.48196410774999876	1.5576140057758832e-22
-0.48190307259374876	1.584011529132902e-22
-0.48184203743749876	1.61034493997039e-22
-0.48178100228124876	1.6366039673360387e-22
-0.48171996712499876	1.6627792363938231e-22
-0.48165893196874876	1.6888638852409815e-22
-0.48159789681249876	1.7148546620806117e-22
-0.48153686165624876	1.7407522232117678e-22
-0.48147582649999876	1.7665606211907446e-22
-0.48141479134374876	1.7922861959102872e-22
-0.48135375618749876	1.8179360952433025e-22
-0.48129272103124876	1.843516617640651e-22
-0.48123168587499876	1.869031664126304e-22
-0.48117065071874876	1.894481701091301e-22
-0.48110961556249876	1.9198634964852314e-22
-0.48104858040624876	1.9451706042162527e-22
-0.48098754524999876	1.970394466710065e-22
-0.48092651009374876	1.9955259600216663e-22
-0.48086547493749876	2.020557051374425e-22
-0.48080443978124876	2.0454821630532817e-22
-0.48074340462499876	2.070298969414783e-22
-0.48068236946874876	2.0950085534267476e-22
-0.48062133431249876	2.11961492818516e-22
-0.48056029915624876	2.144123967345595e-22
-0.48049926399999876	2.1685419243876054e-22
-0.48043822884374876	2.192873861786642e-22
-0.48037719368749876	2.217122342142531e-22
-0.48031615853124876	2.241286668458763e-22
-0.48025512337499876	2.2653628282509447e-22
-0.48019408821874876	2.289344115753659e-22
-0.48013305306249876	2.313222276608099e-22
-0.48007201790624876	2.336988964014705e-22
-0.48001098274999876	2.3606372219722407e-22
-0.47994994759374876	2.3841626843075817e-22
-0.47988891243749876	2.407564259491199e-22
-0.47982787728124876	2.430844173540978e-22
-0.47976684212499876	2.4540073131323913e-22
-0.47970580696874876	2.4770599477662183e-22
-0.47964477181249876	2.5000081529491077e-22
-0.47958373665624876	2.5228563171021373e-22
-0.47952270149999876	2.5456059880251847e-22
-0.47946166634374876	2.5682552763883506e-22
-0.47940063118749876	2.5907989755715823e-22
-0.47933959603124876	2.613229381691295e-22
-0.47927856087499876	2.63553763885521e-22
-0.47921752571874876	2.6577153420028157e-22
-0.47915649056249876	2.679756069302586e-22
-0.47909545540624876	2.7016565142421452e-22
-0.47903442024999876	2.723416991778787e-22
-0.47897338509374876	2.745041199986354e-22
-0.47891234993749876	2.7665352415143885e-22
-0.47885131478124876	2.7879061371707004e-22
-0.47879027962499876	2.8091601789416387e-22
-0.47872924446874876	2.830301433427622e-22
-0.47866820931249876	2.8513306802879646e-22
-0.47860717415624876	2.872244988979172e-22
-0.47854613899999876	2.8930380315699422e-22
-0.47848510384374876	2.9137011267814507e-22
-0.47842406868749876	2.934224824758615e-22
-0.47836303353124876	2.9546006581650903e-22
-0.47830199837499876	2.9748226516449997e-22
-0.47824096321874876	2.9948883224687506e-22
-0.47817992806249876	3.0147990205640917e-22
-0.47811889290624876	3.034559496273243e-22
-0.47805785774999876	3.054176757589202e-22
-0.47799682259374876	3.073658457533425e-22
-0.47793578743749876	3.093011114343922e-22
-0.47787475228124876	3.112238551522378e-22
-0.47781371712499876	3.131340921128877e-22
-0.47775268196874876	3.15031448600023e-22
-0.47769164681249876	3.169152179784892e-22
-0.47763061165624876	3.1878448443649503e-22
-0.47756957649999876	3.2063828907432372e-22
-0.47750854134374876	3.2247580354152016e-22
-0.47744750618749876	3.2429647914346824e-22
-0.47738647103124876	3.2610014226362255e-22
-0.47732543587499876	3.2788701216693056e-22
-0.47726440071874876	3.2965763546690286e-22
-0.47720336556249876	3.314127532658751e-22
-0.47714233040624876	3.3315313012655093e-22
-0.47708129524999876	3.3487938010722155e-22
-0.47702026009374876	3.3659182560393682e-22
-0.47695922493749876	3.382904163127448e-22
-0.47689818978124876	3.399747255531737e-22
-0.47683715462499876	3.4164402602513235e-22
-0.47677611946874876	3.432974238592916e-22
-0.47671508431249876	3.4493402215289207e-22
-0.47665404915624876	3.4655308660023203e-22
-0.47659301399999876	3.4815417874675566e-22
-0.47653197884374876	3.497372263662497e-22
-0.47647094368749876	3.5130251689288884e-22
-0.47640990853124876	3.5285061468574637e-22
-0.47634887337499876	3.543822216704163e-22
-0.47628783821874876	3.558980142450127e-22
-0.47622680306249876	3.5739848773141483e-22
-0.47616576790624876	3.588838387711346e-22
-0.47610473274999876	3.603539135431977e-22
-0.47604369759374876	3.618082321263424e-22
-0.47598266243749876	3.6324607992700747e-22
-0.47592162728124876	3.646666457430783e-22
-0.47586059212499876	3.6606917721518872e-22
-0.47579955696874876	3.674531219881931e-22
-0.47573852181249876	3.688182264849031e-22
-0.47567748665624876	3.7016457015501098e-22
-0.47561645149999876	3.7149252780005067e-22
-0.47555541634374876	3.72802670504769e-22
-0.47549438118749876	3.7409562631950113e-22
-0.47543334603124876	3.75371929441949e-22
-0.47537231087499876	3.766318919175534e-22
-0.47531127571874876	3.7787552610240174e-22
-0.47525024056249876	3.791025314703902e-22
-0.47518920540624876	3.8031234751039276e-22
-0.47512817024999876	3.815042637011834e-22
-0.47506713509374876	3.826775624074338e-22
-0.47500609993749876	3.838316614425209e-22
-0.47494506478124876	3.8496622560019446e-22
-0.47488402962499876	3.860812246994522e-22
-0.47482299446874876	3.871769268642821e-22
-0.47476195931249876	3.8825382851181724e-22
-0.47470092415624876	3.8931253476347e-22
-0.47463988899999876	3.903536150725062e-22
-0.47457885384374876	3.913774657902366e-22
-0.47451781868749876	3.9238420981944493e-22
-0.47445678353124876	3.9337365507510345e-22
-0.47439574837499876	3.9434532112560163e-22
-0.47433471321874876	3.952985284607312e-22
-0.47427367806249876	3.9623253168219943e-22
-0.47421264290624876	3.9714666869197684e-22
-0.47415160774999876	3.980404934392844e-22
-0.47409057259374876	3.989138639747798e-22
-0.47402953743749876	3.997669682587077e-22
-0.47396850228124876	4.0060028118088357e-22
-0.47390746712499876	4.0141445943787077e-22
-0.47384643196874876	4.022101959880565e-22
-0.47378539681249876	4.029880648419721e-22
-0.47372436165624876	4.0374838801891816e-22
-0.47366332649999876	4.044911522696318e-22
-0.47360229134374876	4.0521599368257872e-22
-0.47354125618749876	4.0592225499185346e-22
-0.47348022103124876	4.066091055469299e-22
-0.47341918587499876	4.0727570012106287e-22
-0.47335815071874876	4.079213445988423e-22
-0.47329711556249876	4.0854563507132056e-22
-0.47323608040624876	4.091485413275148e-22
-0.47317504524999876	4.097304168127057e-22
-0.47311401009374876	4.102919317007839e-22
-0.47305297493749876	4.1083394056455387e-22
-0.47299193978124876	4.113573094643434e-22
-0.47293090462499876	4.1186273593697795e-22
-0.47286986946874876	4.123505977183674e-22
-0.47280883431249876	4.128208612382283e-22
-0.47274779915624876	4.132730692179443e-22
-0.47268676399999876	4.1370641164296932e-22
-0.47262572884374876	4.1411986884805524e-22
-0.47256469368749876	4.145124005371594e-22
-0.47250365853124876	4.1488314424002046e-22
-0.47244262337499876	4.1523158462071946e-22
-0.47238158821874876	4.15557660237768e-22
