Time	Frequency
-0.5000610316249983	0.4399811948861848
-0.49999999646874826	0.4428224303495453
-0.49993896131249826	0.44564675223551586
-0.49987792615624826	0.4484532395498294
-0.49981689099999826	0.45124082366735524
-0.49975585584374826	0.4540085393200838
-0.49969482068749826	0.4567557512685048
-0.49963378553124826	0.45948229700100596
-0.49957275037499826	0.4621885011692352
-0.49951171521874826	0.4648750552672006
-0.49945068006249826	0.46754279718078023
-0.49938964490624826	0.47019245599342835
-0.49932860974999826	0.47282443063491775
-0.49926757459374826	0.4754386557310517
-0.49920653943749826	0.478034587681062
-0.49914550428124826	0.48061131599908047
-0.49908446912499826	0.48316777498313224
-0.49902343396874826	0.485702999272671
-0.49896239881249826	0.4882163471246747
-0.49890136365624826	0.49070763168214715
-0.49884032849999826	0.49317713402642066
-0.49877929334374826	0.4956254952225084
-0.49871825818749826	0.49805351342152904
-0.49865722303124826	0.5004619038220393
-0.49859618787499826	0.5028510875802887
-0.49853515271874826	0.5052210630256089
-0.49847411756249826	0.5075713883598229
-0.49841308240624826	0.509901276386406
-0.49835204724999826	0.5122097766098689
-0.49829101209374826	0.5144959966922266
-0.49822997693749826	0.5167593018315871
-0.49816894178124826	0.5189994410906515
-0.49810790662499826	0.5212165734993197
-0.49804687146874826	0.5234111902928261
-0.49798583631249826	0.525583955619441
-0.49792480115624826	0.5277355086108113
-0.49786376599999826	0.529866277802084
-0.49780273084374826	0.5319763557275851
-0.49774169568749826	0.5340654626561211
-0.49768066053124826	0.5361330040363081
-0.49761962537499826	0.5381782057249385
-0.49755859021874826	0.5402002904657176
-0.49749755506249826	0.5421986478322615
-0.49743651990624826	0.5441729566170355
-0.49737548474999826	0.5461232339986484
-0.49731444959374826	0.5480498000514364
-0.49725341443749826	0.5499531654147044
-0.49719237928124826	0.5518338737920522
-0.49713134412499826	0.5536923418441688
-0.49707030896874826	0.5555287359569135
-0.49700927381249826	0.5573429160084102
-0.49694823865624826	0.5591344584075295
-0.49688720349999826	0.5609027495999602
-0.49682616834374826	0.5626471252742843
-0.49676513318749826	0.5643670197062889
-0.49670409803124826	0.5660620870205715
-0.49664306287499826	0.5677322638011851
-0.49658202771874826	0.5693777573872845
-0.49652099256249826	0.5709989653919785
-0.49645995740624826	0.5725963500614336
-0.49639892224999826	0.5741702989033372
-0.49633788709374826	0.5757210063496703
-0.49627685193749826	0.5772484086224917
-0.49621581678124826	0.5787521885169677
-0.49615478162499826	0.5802318444836707
-0.49609374646874826	0.5816868041975853
-0.49603271131249826	0.5831165556931154
-0.49597167615624826	0.5845207629233287
-0.49591064099999826	0.5858993346308653
-0.49584960584374826	0.5872524282009752
-0.49578857068749826	0.5885803879448935
-0.49572753553124826	0.5898836338910038
-0.49566650037499826	0.5911625305600777
-0.49560546521874826	0.5924172726957899
-0.49554443006249826	0.5936478188048885
-0.49548339490624826	0.5948538877872935
-0.49542235974999826	0.5960350190802868
-0.49536132459374826	0.5971906816505539
-0.49530028943749826	0.5983204020585215
-0.49523925428124826	0.5994238755858248
-0.49517821912499826	0.6005010312921395
-0.49511718396874826	0.6015520347417813
-0.49505614881249826	0.6025772269695808
-0.49499511365624826	0.6035770162807385
-0.49493407849999826	0.6045517527799712
-0.49487304334374826	0.6055016191693045
-0.49481200818749826	0.6064265680435607
-0.49475097303124826	0.6073263228889311
-0.49468993787499826	0.6082004413893219
-0.49462890271874826	0.6090484241384696
-0.49456786756249826	0.6098698394668539
-0.49450683240624826	0.6106644294634604
-0.49444579724999826	0.6114321686985531
-0.49438476209374826	0.6121732612264987
-0.49432372693749826	0.6128880769844608
-0.49426269178124826	0.6135770442304632
-0.49420165662499826	0.6142405270216532
-0.49414062146874826	0.614878720541473
-0.49407958631249826	0.6154915913906165
-0.49401855115624826	0.6160788773880981
-0.49395751599999826	0.6166401455935604
-0.49389648084374826	0.6171748924728238
-0.49383544568749826	0.617682660163144
-0.49377441053124826	0.6181631396790882
-0.49371337537499826	0.6186162359870606
-0.49365234021874826	0.6190420801033706
-0.49359130506249826	0.6194409867388173
-0.49353026990624826	0.619813369263667
-0.49346923474999826	0.620159633164039
-0.49340819959374826	0.6204800725519489
-0.49334716443749826	0.6207747944631714
-0.49328612928124826	0.6210436911040531
-0.49322509412499826	0.6212864676218599
-0.49316405896874826	0.6215027180508725
-0.49310302381249826	0.6216920294575873
-0.49304198865624826	0.6218540864390412
-0.49298095349999826	0.6219887476667393
-0.49291991834374826	0.6220960729826186
-0.49285888318749826	0.6221762947351279
-0.49279784803124826	0.6222297432600022
-0.49273681287499826	0.6222567465635357
-0.49267577771874826	0.622257532340645
-0.49261474256249826	0.6222321619214515
-0.49255370740624826	0.6221805155101634
-0.49249267224999826	0.6221023321937768
-0.49243163709374826	0.6219972920785323
-0.49237060193749826	0.6218651155761957
-0.49230956678124826	0.6217056491134736
-0.49224853162499826	0.6215189101223056
-0.49218749646874826	0.621305078250902
-0.49212646131249826	0.6210644368345005
-0.49206542615624826	0.6207972823735654
-0.49200439099999826	0.6205038300142509
-0.49194335584374826	0.6201841447512217
-0.49188232068749826	0.619838119347198
-0.49182128553124826	0.6194655071356322
-0.49176025037499826	0.6190660019254136
-0.49169921521874826	0.6186393403347756
-0.49163818006249826	0.6181853927065954
-0.49157714490624826	0.6177042125674239
-0.49151610974999826	0.6171960287324028
-0.49145507459374826	0.616661181345544
-0.49139403943749826	0.6161000200266795
-0.49133300428124826	0.6155127951808664
-0.49127196912499826	0.6148995766529967
-0.49121093396874826	0.6142602280610541
-0.49114989881249826	0.6135944479405544
-0.49108886365624826	0.6129018646550254
-0.49102782849999826	0.612182156917943
-0.49096679334374826	0.6114351648193065
-0.49090575818749826	0.6106609549306734
-0.49084472303124826	0.6098598156084768
-0.49078368787499826	0.609032183363748
-0.49072265271874826	0.6081785231190373
-0.49066161756249826	0.6072991948238059
-0.49060058240624826	0.606394345144502
-0.49053954724999826	0.6054638625206806
-0.49047851209374826	0.6045074134933957
-0.49041747693749826	0.6035245490019586
-0.49035644178124826	0.6025148484140969
-0.49029540662499826	0.6014780590908884
-0.49023437146874826	0.600414190391751
-0.49017333631249826	0.5993235326340066
-0.49011230115624826	0.5982065908139844
-0.49005126599999826	0.5970639495783744
-0.48999023084374826	0.5958961100271651
-0.48992919568749826	0.5947033477825888
-0.48986816053124826	0.5934856361035811
-0.48980712537499826	0.5922426589353945
-0.48974609021874826	0.590973911170796
-0.48968505506249826	0.5896788589807519
-0.48962401990624826	0.5883571144181406
-0.48956298474999826	0.5870085684405082
-0.48950194959374826	0.5856334404130064
-0.48944091443749826	0.5842322331581019
-0.48937987928124826	0.5828056069397013
-0.48931884412499826	0.5813542030030824
-0.48925780896874826	0.5798784648085618
-0.48919677381249826	0.5783785160649716
-0.48913573865624826	0.5768541389981243
-0.48907470349999826	0.5753048544950708
-0.48901366834374826	0.5737300757102739
-0.48895263318749826	0.5721292975592903
-0.48889159803124826	0.570502269305707
-0.48883056287499826	0.5688490906078311
-0.48876952771874826	0.5671702007402113
-0.48870849256249826	0.5654662692604217
-0.48864745740624826	0.5637380179468874
-0.48858642224999826	0.5619860239854233
-0.48852538709374826	0.5602105674449961
-0.48846435193749826	0.5584115681052555
-0.48840331678124826	0.556588627350442
-0.48834228162499826	0.5547411667555711
-0.48828124646874826	0.5528686237238978
-0.48822021131249826	0.5509706437277088
-0.48815917615624826	0.5490472096184548
-0.48809814099999826	0.5470986667306367
-0.48803710584374826	0.5451256415411813
-0.48797607068749826	0.543128881072702
-0.48791503553124826	0.5411090549976624
-0.48785400037499826	0.5390665787815387
-0.48779296521874826	0.5370015109134524
-0.48773193006249826	0.5349135543114923
-0.48767089490624826	0.5328021671888746
-0.48760985974999826	0.5306667532900923
-0.48754882459374826	0.5285068702557334
-0.48748778943749826	0.5263223890398909
-0.48742675428124826	0.5241135577320942
-0.48736571912499826	0.5218809555412269
-0.48730468396874826	0.5196253479594309
-0.48724364881249826	0.5173474817122291
-0.48718261365624826	0.5150478863230595
-0.48712157849999826	0.5127267437619171
-0.48706054334374826	0.5103838595646559
-0.48699950818749826	0.508018746134262
-0.48693847303124826	0.5056307975428349
-0.48687743787499826	0.5032194998687297
-0.48681640271874826	0.500784612309753
-0.48675536756249826	0.49832626894917553
-0.48669433240624826	0.49584497280848394
-0.48663329724999826	0.49334147943765805
-0.48657226209374826	0.4908165997412358
-0.48651122693749826	0.48827098523753143
-0.48645019178124826	0.48570496573802446
-0.48638915662499826	0.48311848335990354
-0.48632812146874826	0.48051113661677314
-0.48626708631249826	0.47788232571142697
-0.48620605115624826	0.47523146305685965
-0.48614501599999826	0.47255818302863734
-0.48608398084374826	0.4698624839457236
-0.48602294568749826	0.4671447641620335
-0.48596191053124826	0.46440573887599934
-0.48590087537499826	0.4616462594081483
-0.48583984021874826	0.4588670940751094
-0.48577880506249826	0.4560687343574683
-0.48571776990624826	0.45325128228899836
-0.48565673474999826	0.45041445312596257
-0.48559569959374826	0.44755769051451155
-0.48553466443749826	0.4446803648644425
-0.48547362928124826	0.4417819997078259
-0.48541259412499826	0.4388624522145288
-0.48535155896874826	0.435921990125957
-0.48529052381249826	0.43296124781774176
-0.48522948865624826	0.42998107678000613
-0.48516845349999826	0.42698232914159784
-0.48510741834374826	0.42396563668595294
-0.48504638318749826	0.4209312550656412
-0.48498534803124826	0.4178790237196258
-0.48492431287499826	0.41480845329729776
-0.48486327771874826	0.4117189110860244
-0.48480224256249826	0.40860984922716176
-0.48474120740624826	0.4054810093498199
-0.48468017224999826	0.4023325400329716
-0.48461913709374826	0.3991649916998688
-0.48455810193749826	0.3959791930659224
-0.48449706678124826	0.3927760404527134
-0.48443603162499826	0.389556263747383
-0.48437499646874826	0.3863202490923674
-0.48431396131249826	0.38306796528260295
-0.48425292615624826	0.37979900961020346
-0.48419189099999826	0.3765127662553822
-0.48413085584374826	0.37320863215565364
-0.48406982068749826	0.3698862420393754
-0.48400878553124826	0.36654562281198794
-0.48394775037499826	0.36318723037408757
-0.48388671521874826	0.35981186087775935
-0.48382568006249826	0.3564204576492175
-0.48376464490624826	0.35301386871518725
-0.48370360974999826	0.34959263176029215
-0.48364257459374826	0.34615684929089535
-0.48358153943749826	0.34270619400564145
-0.48352050428124826	0.3392400480204456
-0.48345946912499826	0.3357577288164587
-0.48339843396874826	0.33225873478294377
-0.48333739881249826	0.3287429450344195
-0.48327636365624826	0.32521070940612185
-0.48321532849999826	0.3216627967094247
-0.48315429334374826	0.3181002177925955
-0.48309325818749826	0.31452397024729717
-0.48303222303124826	0.31093478004258157
-0.48297118787499826	0.30733292435137566
-0.48291015271874826	0.3037181873379683
-0.48284911756249826	0.30008996066780463
-0.48278808240624826	0.2964474637192001
-0.48272704724999826	0.2927900182894602
-0.48266601209374826	0.2891172957158384
-0.48260497693749826	0.2854294686185448
-0.48254394178124826	0.28172722159399
-0.48248290662499826	0.27801160673714975
-0.48242187146874826	0.27428378132593095
-0.48236083631249826	0.2705447108804562
-0.48229980115624826	0.26679492833009727
-0.48223876599999826	0.26303441588268023
-0.48217773084374826	0.25926264350260914
-0.48211669568749826	0.25547875964051797
-0.48205566053124826	0.25168188446038425
-0.48199462537499826	0.24787141806994167
-0.48193359021874826	0.24404727100430365
-0.48187255506249826	0.2402099505940367
-0.48181151990624826	0.23636047535141624
-0.48175048474999826	0.23250013443194115
-0.48168944959374826	0.2286301590921751
-0.48162841443749826	0.22475140695983548
-0.48156737928124826	0.22086415190646316
-0.48150634412499826	0.21696803928287106
-0.48144530896874826	0.21306222627713273
-0.48138427381249826	0.2091456711863062
-0.48132323865624826	0.2052174858825811
-0.48126220349999826	0.20127724993656274
-0.48120116834374826	0.1973251923996333
-0.48114013318749826	0.1933621815266894
-0.48107909803124826	0.18938952837266357
-0.48101806287499826	0.18540866327549926
-0.48095702771874826	0.18142076975678073
-0.48089599256249826	0.1774264795424875
-0.48083495740624826	0.17342572734298026
-0.48077392224999826	0.16941781351229906
-0.48071288709374826	0.16540165208025634
-0.48065185193749826	0.16137613291293254
-0.48059081678124826	0.15734049786497592
-0.48052978162499826	0.15329461829794852
-0.48046874646874826	0.1492390923685918
-0.48040771131249826	0.1451751347010164
-0.48034667615624826	0.14110428233458588
-0.48028564099999826	0.13702799810476055
-0.48022460584374826	0.13294728728542424
-0.48016357068749826	0.12886243994938001
-0.48010253553124826	0.12477298580025482
-0.48004150037499826	0.12067788201587278
-0.47998046521874826	0.11657587209211148
-0.47991943006249826	0.11246590702385688
-0.47985839490624826	0.10834750594775737
-0.47979735974999826	0.10422095373253962
-0.47973632459374826	0.10008728411780045
-0.47967528943749826	0.09594804487801949
-0.47961425428124826	0.09180489696872232
-0.47955321912499826	0.08765916755012403
-0.47949218396874826	0.0835115016315917
-0.47943114881249826	0.07936171768606409
-0.47937011365624826	0.07520890489394391
-0.47930907849999826	0.07105173469246245
-0.47924804334374826	0.06688890196185489
-0.47918700818749826	0.06271956859814684
-0.47912597303124826	0.0585436785569062
-0.47906493787499826	0.0543620447069924
-0.47900390271874826	0.05017617129300098
-0.47894286756249826	0.04598786810304102
-0.47888183240624826	0.04179877153888747
-0.47882079724999826	0.03760990789832456
-0.47875976209374826	0.03342143695300127
-0.47869872693749826	0.02923265437830474
-0.47863769178124826	0.025042242135844318
-0.47857665662499826	0.02084869753676787
-0.47851562146874826	0.016650825020437472
-0.47845458631249826	0.012448144373873489
-0.47839355115624826	0.008241089926943076
-0.47833251599999826	0.004030944874615413
-0.47827148084374826	-0.00018046610685558398
-0.47821044568749826	-0.004391242257760903
-0.47814941053124826	-0.0085999008214356
-0.47808837537499826	-0.012805757806070114
-0.47802734021874826	-0.017009083172924547
-0.47796630506249826	-0.021210974923775994
-0.47790526990624826	-0.025412987238898642
-0.47784423474999826	-0.029616632483882174
-0.47778319959374826	-0.03382290092076197
-0.47772216443749826	-0.038031930179750525
-0.47766112928124826	-0.04224291978533026
-0.47760009412499826	-0.046454315368686355
-0.47753905896874826	-0.05066420614124628
-0.47747802381249826	-0.05487080992884727
-0.47741698865624826	-0.05907290585765498
-0.47735595349999826	-0.06327011094581195
-0.47729491834374826	-0.06746292473366101
-0.47723388318749826	-0.07165251877562615
-0.47717284803124826	-0.07584034134040948
-0.47711181287499826	-0.08002766213909604
-0.47705077771874826	-0.08421518216201263
-0.47698974256249826	-0.08840281173074012
-0.47692870740624826	-0.09258967428475655
-0.47686767224999826	-0.09677432782393207
-0.47680663709374826	-0.10095512936129504
-0.47674560193749826	-0.10513063098085856
-0.47668456678124826	-0.10929990613821432
-0.47662353162499826	-0.11346272978087031
-0.47656249646874826	-0.11761956014385389
-0.47650146131249826	-0.12177132608076789
-0.47644042615624826	-0.1259190977518935
-0.47637939099999826	-0.13006374568175025
-0.47631835584374826	-0.13420567644337447
-0.47625732068749826	-0.13834470790768688
-0.47619628553124826	-0.14248010263960137
-0.47613525037499826	-0.14661074071303806
-0.47607421521874826	-0.1507353899956078
-0.47601318006249826	-0.15485299572081032
-0.47595214490624826	-0.15896290231641222
-0.47589110974999826	-0.16306495065156396
-0.47583007459374826	-0.16715943581749232
-0.47576903943749826	-0.17124695136028936
-0.47570800428124826	-0.17532816924316988
-0.47564696912499826	-0.1794036107696823
-0.47558593396874826	-0.1834734635069772
-0.47552489881249826	-0.18753749961414615
-0.47546386365624826	-0.19159512190094766
-0.47540282849999826	-0.19564550573892506
-0.47534179334374826	-0.19968778531311446
-0.47528075818749826	-0.20372124115929954
-0.47521972303124826	-0.20774543840831536
-0.47515868787499826	-0.21176027366546296
-0.47509765271874826	-0.2157659236806545
-0.47503661756249826	-0.21976272370349734
-0.47497558240624826	-0.22375101834179778
-0.47491454724999826	-0.22773102138974746
-0.47485351209374826	-0.2317027190431082
-0.47479247693749826	-0.23566584516237313
-0.47473144178124826	-0.23961992793575898
-0.47467040662499826	-0.24356438713724743
-0.47460937146874826	-0.24749865585255373
-0.47454833631249826	-0.2514222863607225
-0.47448730115624826	-0.2553350070586589
-0.47442626599999826	-0.25923672747704146
-0.47436523084374826	-0.26312749994586676
-0.47430419568749826	-0.2670074468487098
-0.47424316053124826	-0.2708766707131031
-0.47418212537499826	-0.27473517709895195
-0.47412109021874826	-0.278582836806422
-0.47406005506249826	-0.2824193918197592
-0.47399901990624826	-0.28624449613915387
-0.47393798474999826	-0.29005777686147466
-0.47387694959374826	-0.2938588947238271
-0.47381591443749826	-0.29764758555427817
-0.47375487928124826	-0.3014236741054318
-0.47369384412499826	-0.3051870608254248
-0.47363280896874826	-0.3089376867975938
-0.47357177381249826	-0.31267548826499625
-0.47351073865624826	-0.31640035834350594
-0.47344970349999826	-0.32011213332911825
-0.47338866834374826	-0.3238106090348139
-0.47332763318749826	-0.32749557212747754
-0.47326659803124826	-0.33116682531409475
-0.47320556287499826	-0.3348242003385767
-0.47314452771874826	-0.338467561588028
-0.47308349256249826	-0.3420967964069468
-0.47302245740624826	-0.3457117889890739
-0.47296142224999826	-0.3493123876053513
-0.47290038709374826	-0.35289838441643184
-0.47283935193749826	-0.3564695226569366
-0.47277831678124826	-0.3600255282435623
-0.47271728162499826	-0.3635661503379764
-0.47265624646874826	-0.36709119723498956
-0.47259521131249826	-0.3706005554016818
-0.47253417615624826	-0.3740941832271387
-0.47247314099999826	-0.3775720805092446
-0.47241210584374826	-0.3810342389522334
-0.47235107068749826	-0.38448058771019855
-0.47229003553124826	-0.3879109564268774
-0.47222900037499826	-0.3913250712043699
-0.47216796521874826	-0.39472258511187464
-0.47210693006249826	-0.39810313371726236
-0.47204589490624826	-0.40146640269787304
-0.47198485974999826	-0.40481219030218024
-0.47192382459374826	-0.408140438269434
-0.47186278943749826	-0.4114512113493096
-0.47180175428124826	-0.4147446300400338
-0.47174071912499826	-0.4180207806149042
-0.47167968396874826	-0.4212796315616383
-0.47161864881249826	-0.42452098158796525
-0.47155761365624826	-0.4277444568499043
-0.47149657849999826	-0.4309495667398973
-0.47143554334374826	-0.4341358107207522
-0.47137450818749826	-0.4373028019820065
-0.47131347303124826	-0.4404503607655562
-0.47125243787499826	-0.44357854378587425
-0.47119140271874826	-0.44668760132781576
-0.47113036756249826	-0.4497778711289939
-0.47106933240624826	-0.45284963054834326
-0.47100829724999826	-0.45590295124376734
-0.47094726209374826	-0.4589376094616405
-0.47088622693749826	-0.46195308308609584
-0.47082519178124826	-0.4649486405897764
-0.47076415662499826	-0.4679235033755916
-0.47070312146874826	-0.4708770394228317
-0.47064208631249826	-0.47380892964184274
-0.47058105115624826	-0.4767192492027328
-0.47052001599999826	-0.47960843476146076
-0.47045898084374826	-0.4824771448433099
-0.47039794568749826	-0.4853260469741102
-0.47033691053124826	-0.4881555872203922
-0.47027587537499826	-0.4909658071162968
-0.47021484021874826	-0.49375626235134656
-0.47015380506249826	-0.49652607472160915
-0.47009276990624826	-0.4992741138104943
