Time	Frequency
-0.5000250676250033	-0.6573960187545245
-0.4999640324687533	-0.6600229718557474
-0.4999029973125033	-0.6626569912020773
-0.4998419621562533	-0.665267587004949
-0.4997809270000033	-0.6678206969392483
-0.4997198918437533	-0.6702854584187861
-0.4996588566875033	-0.6726401999641414
-0.4995978215312533	-0.6748764639995364
-0.4995367863750033	-0.6770002973359656
-0.4994757512187533	-0.6790306195918389
-0.4994147160625033	-0.6809950768455423
-0.4993536809062533	-0.6829242826183758
-0.4992926457500033	-0.6848456474003884
-0.4992316105937533	-0.6867780455414724
-0.4991705754375033	-0.6887283609156324
-0.4991095402812533	-0.6906905401680031
-0.4990485051250033	-0.6926472547654247
-0.4989874699687533	-0.6945737443973429
-0.4989264348125033	-0.6964429925051634
-0.4988653996562533	-0.6982311481931552
-0.4988043645000033	-0.6999220982388147
-0.4987433293437533	-0.7015103053482562
-0.4986822941875033	-0.7030014141564198
-0.4986212590312533	-0.7044105978828128
-0.4985602238750033	-0.7057590741459853
-0.4984991887187533	-0.7070695673934998
-0.4984381535625033	-0.7083616752823961
-0.4983771184062533	-0.7096480765347811
-0.4983160832500033	-0.7109323068188932
-0.4982550480937533	-0.7122084788468049
-0.4981940129375033	-0.7134629126906221
-0.4981329777812533	-0.7146772583854423
-0.4980719426250033	-0.7158324104519157
-0.4980109074687533	-0.7169123849589001
-0.4979498723125033	-0.717907374977443
-0.4978888371562533	-0.7188154039360639
-0.4978278020000033	-0.7196423092466702
-0.4977667668437533	-0.7204001408692808
-0.4977057316875033	-0.7211043773940164
-0.4976446965312533	-0.7217705836067349
-0.4975836613750033	-0.7224112181305465
-0.4975226262187533	-0.7230332359895126
-0.4974615910625033	-0.7236369379574016
-0.4974005559062533	-0.7242162412924095
-0.4973395207500033	-0.7247602462790088
-0.4972784855937533	-0.7252557134070649
-0.4972174504375033	-0.7256898981816859
-0.4971564152812533	-0.7260531437399904
-0.4970953801250033	-0.7263407091417523
-0.4970343449687533	-0.7265534929225433
-0.4969733098125033	-0.7266975560437373
-0.4969122746562533	-0.7267826010546407
-0.4968512395000033	-0.7268197725178219
-0.4967902043437533	-0.7268192673022909
-0.4967291691875033	-0.7267882591490098
-0.4966681340312533	-0.7267295524362899
-0.4966070988750033	-0.7266412102612608
-0.4965460637187533	-0.7265171885023983
-0.4964850285625033	-0.7263487965814954
-0.4964239934062533	-0.7261266421941464
-0.4963629582500033	-0.7258426314927292
-0.4963019230937533	-0.725491604110882
-0.4962408879375033	-0.7250722787113423
-0.4961798527812533	-0.7245873426342654
-0.4961188176250033	-0.7240427058373381
-0.4960577824687533	-0.7234461140112866
-0.4959967473125033	-0.7228054398904002
-0.4959357121562533	-0.7221270252633625
-0.4958746770000033	-0.7214144199541683
-0.4958136418437533	-0.7206677654627595
-0.4957526066875033	-0.7198839250369764
-0.4956915715312533	-0.7190572995465986
-0.4956305363750033	-0.7181811278490376
-0.4955695012187533	-0.7172489778999289
-0.4955084660625033	-0.7162561046510337
-0.4954474309062533	-0.7152003945164352
-0.4953863957500033	-0.7140827159973764
-0.4953253605937533	-0.7129066246925653
-0.4952643254375033	-0.7116775106759937
-0.4952032902812533	-0.7104013930010431
-0.4951422551250033	-0.709083631205894
-0.4950812199687533	-0.7077278297358729
-0.4950201848125033	-0.7063351588808786
-0.4949591496562533	-0.7049042198068994
-0.4948981145000033	-0.7034314628646483
-0.4948370793437533	-0.7019120478610169
-0.4947760441875033	-0.7003409435084856
-0.4947150090312533	-0.6987140248094587
-0.4946539738750033	-0.6970289381094713
-0.4945929387187533	-0.6952855580392677
-0.4945319035625033	-0.6934859537810603
-0.4944708684062533	-0.6916338899653386
-0.4944098332500033	-0.6897339841030126
-0.4943487980937533	-0.6877907130469371
-0.4942877629375033	-0.6858074882867542
-0.4942267277812533	-0.6837859941424121
-0.4941656926250033	-0.6817259181120169
-0.4941046574687533	-0.6796251178915725
-0.4940436223125033	-0.67748017464302
-0.4939825871562533	-0.6752871978439663
-0.4939215520000033	-0.6730427016407777
-0.4938605168437533	-0.670744366656719
-0.4937994816875033	-0.6683915267173122
-0.4937384465312533	-0.6659852835990696
-0.4936774113750033	-0.6635282408969659
-0.4936163762187533	-0.6610239279641011
-0.4935553410625033	-0.6584760454785442
-0.4934943059062533	-0.6558877016379578
-0.4934332707500033	-0.6532608043032738
-0.4933722355937533	-0.6505957301200482
-0.4933112004375033	-0.647891331227641
-0.4932501652812533	-0.6451452711167642
-0.4931891301250033	-0.642354606464002
-0.4931280949687533	-0.6395164788612521
-0.4930670598125033	-0.6366287643664615
-0.4930060246562533	-0.6336905437583813
-0.4929449895000033	-0.6307023004038693
-0.4928839543437533	-0.6276658114308028
-0.4928229191875033	-0.6245837630907615
-0.4927618840312533	-0.6214591860516183
-0.4927008488750033	-0.6182948385088599
-0.4926398137187533	-0.6150926660449505
-0.4925787785625033	-0.6118534523322751
-0.4925177434062533	-0.6085767316779808
-0.4924567082500033	-0.6052609740984537
-0.4923956730937533	-0.6019039949084438
-0.4923346379375033	-0.5985034931980712
-0.4922736027812533	-0.5950576002528666
-0.4922125676250033	-0.5915653206706908
-0.4921515324687533	-0.5880267734613811
-0.4920904973125033	-0.5844431860510688
-0.4920294621562533	-0.5808166478832867
-0.4919684270000033	-0.5771496822917471
-0.4919073918437533	-0.5734447387317013
-0.4918463566875033	-0.5697037211895433
-0.4917853215312533	-0.5659276465843248
-0.4917242863750033	-0.5621164997382199
-0.4916632512187533	-0.5582693178307258
-0.4916022160625033	-0.5543844784646074
-0.4915411809062533	-0.5504601207210909
-0.4914801457500033	-0.5464946095420916
-0.4914191105937533	-0.5424869399751409
-0.4913580754375033	-0.5384369942733574
-0.4912970402812533	-0.5343456046428522
-0.4912360051250033	-0.5302144119794469
-0.4911749699687533	-0.5260455542571143
-0.4911139348125033	-0.5218412549308719
-0.4910528996562533	-0.5176034024219468
-0.4909918645000033	-0.5133332142199993
-0.4909308293437533	-0.5090310544562285
-0.4908697941875033	-0.5046964374365286
-0.4908087590312533	-0.5003282113810587
-0.4907477238750033	-0.49592487973467486
-0.4906866887187533	-0.49148499035342924
-0.4906256535625033	-0.48700750733448983
-0.4905646184062533	-0.48249208371737434
-0.4905035832500033	-0.47793918013516584
-0.4904425480937533	-0.4733500135391511
-0.4903815129375033	-0.4687263516547047
-0.4903204777812533	-0.4640701930262536
-0.4902594426250033	-0.4593834028359993
-0.4901984074687533	-0.4546673902799668
-0.4901373723125033	-0.44992289479120273
-0.4900763371562533	-0.4451499179483377
-0.4900153020000033	-0.440347809398656
-0.4899542668437533	-0.43551548589211414
-0.4898932316875033	-0.4306517358896798
-0.4898321965312533	-0.4257555426508295
-0.4897711613750033	-0.4208263575385567
-0.4897101262187533	-0.4158642689811804
-0.4896490910625033	-0.41087003318619986
-0.4895880559062533	-0.40584496564173367
-0.4895270207500033	-0.4007907217328546
-0.4894659855937533	-0.39570901560173116
-0.4894049504375033	-0.39060133800467794
-0.4893439152812533	-0.3854687285957458
-0.4892828801250033	-0.3803116496771165
-0.4892218449687533	-0.3751299863204496
-0.4891608098125033	-0.3699231645418469
-0.4890997746562533	-0.3646903567598719
-0.4890387395000033	-0.3594307295418677
-0.4889777043437533	-0.3541436854835883
-0.4889166691875033	-0.34882905067285025
-0.4888556340312533	-0.34348716568859344
-0.4887945988750033	-0.3381188663378958
-0.4887335637187533	-0.3327253679856476
-0.4886725285625033	-0.32730808055483795
-0.4886114934062533	-0.32186839076666357
-0.4885504582500033	-0.31640745527188224
-0.4884894230937533	-0.31092604904405563
-0.4884283879375033	-0.305424503372425
-0.4883673527812533	-0.299902741867732
-0.4883063176250033	-0.2943603942038024
-0.4882452824687533	-0.2887969562549822
-0.4881842473125033	-0.283211968612669
-0.4881232121562533	-0.27760518475645224
-0.4880621770000033	-0.2719766919792247
-0.4880011418437533	-0.26632695429213066
-0.4879401066875033	-0.2606567728913359
-0.4878790715312533	-0.25496718198333124
-0.4878180363750033	-0.24925930667951363
-0.4877570012187533	-0.24353421357710822
-0.4876959660625033	-0.23779278238985843
-0.4876349309062533	-0.23203561951713436
-0.4875738957500033	-0.22626303062862788
-0.4875128605937533	-0.22047505697896924
-0.4874518254375033	-0.21467156190960907
-0.4873907902812533	-0.20885235091812213
-0.4873297551250033	-0.20301729844901775
-0.4872687199687533	-0.19716644548479798
-0.4872076848125033	-0.1913000537478667
-0.4871466496562533	-0.1854186179710113
-0.4870856145000033	-0.17952283513134593
-0.4870245793437533	-0.17361353379885308
-0.4869635441875033	-0.16769157874354806
-0.4869025090312533	-0.1617577783727972
-0.4868414738750033	-0.1558128152878928
-0.4867804387187533	-0.1498572036433875
-0.4867194035625033	-0.1438912810706791
-0.4866583684062533	-0.13791524045169454
-0.4865973332500033	-0.13192918470254147
-0.4865362980937533	-0.12593318834085124
-0.4864752629375033	-0.11992736197316571
-0.4864142277812533	-0.11391190695272109
-0.4863531926250033	-0.10788714782795965
-0.4862921574687533	-0.10185354176450945
-0.4862311223125033	-0.0958116627294227
-0.4861700871562533	-0.08976216187934367
-0.4861090520000033	-0.08370571647344234
-0.4860480168437533	-0.07764297961553092
-0.4859869816875033	-0.07157453898831047
-0.4859259465312533	-0.06550089336600216
-0.4858649113750033	-0.05942245126097548
-0.4858038762187533	-0.05333954599405324
-0.4857428410625033	-0.04725245510636759
-0.4856818059062533	-0.041161419098602936
-0.4856207707500033	-0.035066671110748474
-0.4855597355937533	-0.0289684776577766
-0.4854987004375033	-0.022867164808437805
-0.4854376652812533	-0.016763123169838145
-0.4853766301250033	-0.010656808842352266
-0.4853155949687533	-0.004548738523026698
-0.4852545598125033	0.0015605291907471056
-0.4851935246562533	0.007670415662517412
-0.4851324895000033	0.013780340102165391
-0.4850714543437533	0.019889738193146426
-0.4850104191875033	0.02599808179570586
-0.4849493840312533	0.03210489562247187
-0.4848883488750033	0.038209771587754786
-0.4848273137187533	0.04431237664462431
-0.4847662785625033	0.05041244232605347
-0.4847052434062533	0.05650973823357328
-0.4846442082500033	0.0626040410611034
-0.4845831730937533	0.0686951027888506
-0.4845221379375033	0.07478261880706946
-0.4844611027812533	0.0808662009892965
-0.4844000676250033	0.08694536275185816
-0.4843390324687533	0.09301951978001069
-0.4842779973125033	0.09908800959566634
-0.4842169621562533	0.10515012966240954
-0.4841559270000033	0.11120518479717312
-0.4840948918437533	0.11725253581269666
-0.4840338566875033	0.12329164509430877
-0.4839728215312533	0.12932210951057196
-0.4839117863750033	0.13534366833290784
-0.4838507512187533	0.141356182527808
-0.4837897160625033	0.1473595906321808
-0.4837286809062533	0.15335384788644665
-0.4836676457500033	0.15933885730214759
-0.4836066105937533	0.1653144043746599
-0.4835455754375033	0.17128010842563735
-0.4834845402812533	0.17723540328107937
-0.4834235051250033	0.183179553139136
-0.4833624699687533	0.18911170104379688
-0.4833014348125033	0.1950309427214231
-0.4832403996562533	0.20093641427017983
-0.4831793645000033	0.20682737884666524
-0.4831183293437533	0.21270329404139618
-0.4830572941875033	0.21856384348219765
-0.4829962590312533	0.22440892781305274
-0.4829352238750033	0.23023861913059634
-0.4828741887187533	0.23605308406702877
-0.4828131535625033	0.24185248349837477
-0.4827521184062533	0.2476368650674748
-0.4826910832500033	0.25340607123689907
-0.4826300480937533	0.25915968425390234
-0.4825690129375033	0.2648970227285102
-0.4825079777812533	0.27061719165280007
-0.4824469426250033	0.2763191704709481
-0.4823859074687533	0.28200191986190204
-0.4823248723125033	0.2876644941694091
-0.4822638371562533	0.2933061421780701
-0.4822028020000033	0.2989263735413137
-0.4821417668437533	0.3045249759085983
-0.4820807316875033	0.3101019806600822
-0.4820196965312533	0.3156575849293081
-0.4819586613750033	0.3211920420523217
-0.4818976262187533	0.32670553792262214
-0.4818365910625033	0.33219808043898447
-0.4817755559062533	0.33766942677537365
-0.4817145207500033	0.3431190581857985
-0.4816534855937533	0.3485462061495599
-0.4815924504375033	0.35394993019978177
-0.4815314152812533	0.35932923099542674
-0.4814703801250033	0.3646831703431022
-0.4814093449687533	0.370010976337945
-0.4813483098125033	0.3753121170080915
-0.4812872746562533	0.3805863263270564
-0.4812262395000033	0.3858335775157542
-0.4811652043437533	0.3910540099416428
-0.4811041691875033	0.3962478234675714
-0.4810431340312533	0.40141516463696375
-0.4809820988750033	0.4065560271630581
-0.4809210637187533	0.4116701818143949
-0.4808600285625033	0.4167571516802632
-0.4807989934062533	0.42181624062626905
-0.4807379582500033	0.4268466055785164
-0.4806769230937533	0.4318473547027209
-0.4806158879375033	0.4368176544018093
-0.4805548527812533	0.4417568257451026
-0.4804938176250033	0.44666440810186764
-0.4804327824687533	0.4515401769595461
-0.4803717473125033	0.45638411392785083
-0.4803107121562533	0.4611963341736279
-0.4802496770000033	0.46597698763870604
-0.4801886418437533	0.47072615648502864
-0.4801276066875033	0.475443768987566
-0.4800665715312533	0.48012954773328786
-0.4800055363750033	0.4847830021999577
-0.4799445012187533	0.4894034633211353
-0.4798834660625033	0.4939901528531312
-0.4798224309062533	0.4985422764800853
-0.4797613957500033	0.5030591198857245
-0.4797003605937533	0.5075401269287569
-0.4796393254375033	0.5119849469318174
-0.4795782902812533	0.5163934400149394
-0.4795172551250033	0.5207656356042593
-0.4794562199687533	0.5251016560854297
-0.4793951848125033	0.5294016265512697
-0.4793341496562533	0.5336655867931953
-0.4792731145000033	0.5378934200283186
-0.4792120793437533	0.5420848131086867
-0.4791510441875033	0.5462392579200039
-0.4790900090312533	0.5503560960910843
-0.4790289738750033	0.5544345960812664
-0.4789679387187533	0.5584740435263773
-0.4789069035625033	0.5624738272556185
-0.4788458684062533	0.5664335040880124
-0.4787848332500033	0.5703528286749024
-0.4787237980937533	0.5742317423256765
-0.4786627629375033	0.5780703229005608
-0.4786017277812533	0.58186870763727
-0.4785406926250033	0.5856270069176616
-0.4784796574687533	0.5893452253316815
-0.4784186223125033	0.5930232042194962
-0.4783575871562533	0.5966605986127683
-0.4782965520000033	0.6002568951452574
-0.4782355168437533	0.6038114666655445
-0.4781744816875033	0.6073236506013598
-0.4781134465312533	0.610792834027627
-0.4780524113750033	0.6142185277711877
-0.4779913762187533	0.6176004149158432
-0.4779303410625033	0.6209383630780643
-0.4778693059062533	0.6242323967558139
-0.4778082707500033	0.6274826367768331
-0.4777472355937533	0.6306892206054414
-0.4776862004375033	0.6338522205177725
-0.4776251652812533	0.6369715788565127
-0.4775641301250033	0.6400470744181894
-0.4775030949687533	0.643078323724055
-0.4774420598125033	0.6460648150897242
-0.4773810246562533	0.6490059699331819
-0.4773199895000033	0.6519012203388416
-0.4772589543437533	0.6547500859441807
-0.4771979191875033	0.6575522305393101
-0.4771368840312533	0.6603074860042704
-0.4770758488750033	0.6630158419054456
-0.4770148137187533	0.6656774034426213
-0.4769537785625033	0.6682923248401605
-0.4768927434062533	0.6708607325930269
-0.4768317082500033	0.6733826559631354
-0.4767706730937533	0.6758579794540855
-0.4767096379375033	0.6782864270028756
-0.4766486027812533	0.6806675812438365
-0.4765875676250033	0.6830009339999239
-0.4765265324687533	0.6852859575667595
-0.4764654973125033	0.6875221814640878
-0.4764044621562533	0.6897092571163733
-0.4763434270000033	0.6918469961404085
-0.4762823918437533	0.6939353750308794
-0.4762213566875033	0.6959745052186503
-0.4761603215312533	0.6979645742539244
-0.4760992863750033	0.6999057707547922
-0.4760382512187533	0.701798209365658
-0.4759772160625033	0.7036418724679008
-0.4759161809062533	0.7054365819795899
-0.4758551457500033	0.7071820073480536
-0.4757941105937533	0.7088777075264472
-0.4757330754375033	0.7105231973005076
-0.4756720402812533	0.7121180232687624
-0.4756110051250033	0.7136618335613182
-0.4755499699687533	0.7151544267784449
-0.4754889348125033	0.7165957691014347
-0.4754278996562533	0.7179859756246725
-0.4753668645000033	0.7193252602936684
-0.4753058293437533	0.7206138652563352
-0.4752447941875033	0.7218519846914899
-0.4751837590312533	0.7230397000182007
-0.4751227238750033	0.7241769409638841
-0.4750616887187533	0.7252634803048444
-0.4750006535625033	0.7262989629411161
-0.4749396184062533	0.7272829632088907
-0.4748785832500033	0.7282150578097316
-0.4748175480937533	0.7290948986015037
-0.4747565129375033	0.7299222702437774
-0.4746954777812533	0.7306971205071269
-0.4746344426250033	0.7314195561630189
-0.4745734074687533	0.7320898048928526
-0.4745123723125033	0.7327081519010474
-0.4744513371562533	0.7332748657274633
-0.4743903020000033	0.7337901293012647
-0.4743292668437533	0.7342539906640141
-0.4742682316875033	0.7346663434010768
-0.4742071965312533	0.7350269403633733
-0.4741461613750033	0.7353354377952808
-0.4740851262187533	0.7355914607370293
-0.4740240910625033	0.7357946753534432
-0.4739630559062533	0.7359448523583387
-0.4739020207500033	0.7360419081776671
-0.4738409855937533	0.7360859154885283
-0.4737799504375033	0.7360770816802895
-0.4737189152812533	0.7360157001024077
-0.4736578801250033	0.7359020837011352
-0.4735968449687533	0.7357364953995481
-0.4735358098125033	0.7355190911744826
-0.4734747746562533	0.7352498881672702
-0.4734137395000033	0.7349287643931439
-0.4733527043437533	0.7345554894134685
-0.4732916691875033	0.734129777905145
-0.4732306340312533	0.7336513534613002
-0.4731695988750033	0.7331200097025256
-0.4731085637187533	0.7325356571518893
-0.4730475285625033	0.7318983449122514
-0.4729864934062533	0.7312082517735065
-0.4729254582500033	0.7304656504759898
-0.4728644230937533	0.7296708539429038
-0.4728033879375033	0.7288241554231647
-0.4727423527812533	0.7279257757224085
-0.4726813176250033	0.726975828532046
-0.4726202824687533	0.7259743108678187
-0.4725592473125033	0.7249211198810573
-0.4724982121562533	0.7238160913169259
-0.4724371770000033	0.7226590501742165
-0.4723761418437533	0.7214498622514071
-0.4723151066875033	0.7201884761377972
-0.4722540715312533	0.7188749470047616
-0.4721930363750033	0.7175094365358557
-0.4721320012187533	0.7160921887679819
-0.4720709660625033	0.7146234895435214
-0.4720099309062533	0.7131036212518606
-0.4719488957500033	0.7115328223597631
-0.4718878605937533	0.7099112585140469
-0.4718268254375033	0.7082390104073166
-0.4717657902812533	0.7065160828660728
-0.4717047551250033	0.704742433514551
-0.4716437199687533	0.7029180102330368
-0.4715826848125033	0.7010427873355863
-0.4715216496562533	0.699116795557318
-0.4714606145000033	0.6971401414398937
-0.4713995793437533	0.6951130092520373
-0.4713385441875033	0.6930356414669707
-0.4712775090312533	0.6909083050332945
-0.4712164738750033	0.6887312574395945
-0.4711554387187533	0.6865047211080243
-0.4710944035625033	0.6842288661215472
-0.4710333684062533	0.6819038037669866
-0.4709723332500033	0.6795295977013043
-0.4709112980937533	0.6771062905214632
-0.4708502629375033	0.67463393525251
-0.4707892277812533	0.6721126234737912
-0.4707281926250033	0.6695425032704762
-0.4706671574687533	0.6669237812935433
-0.4706061223125033	0.6642567103093524
-0.4705450871562533	0.6615415673559909
-0.4704840520000033	0.6587786278210751
-0.4704230168437533	0.6559681406685293
-0.4703619816875033	0.6531103080318538
-0.4703009465312533	0.6502052766962271
-0.4702399113750033	0.6472531485932481
-0.4701788762187533	0.6442540067062953
-0.4701178410625033	0.6412079459858119
-0.4700568059062533	0.6381150996093284
-0.4699957707500033	0.6349756565535017
-0.4699347355937533	0.6317898685831604
-0.4698737004375033	0.6285580438594183
-0.4698126652812533	0.6252805266631803
-0.4697516301250033	0.621957667624947
-0.4696905949687533	0.6185897913223469
-0.4696295598125033	0.6151771670574055
-0.4695685246562533	0.6117199923443195
-0.4695074895000033	0.6082183972386185
-0.4694464543437533	0.6046724662974144
-0.4693854191875033	0.6010822724697206
-0.4693243840312533	0.5974479169791844
