Time	Frequency
-0.500039022843751	0.48074213683139466
-0.499977987687501	0.47710311972640645
-0.499916952531251	0.47338723147418554
-0.499855917375001	0.4695914851839924
-0.499794882218751	0.4657234257963311
-0.499733847062501	0.461799126092545
-0.499672811906251	0.45783958099396144
-0.499611776750001	0.4538663045885021
-0.499550741593751	0.4498970525407316
-0.499489706437501	0.4459425122464124
-0.499428671281251	0.4420045725394447
-0.499367636125001	0.43807644655121597
-0.499306600968751	0.4341445335762094
-0.499245565812501	0.4301915566817043
-0.499184530656251	0.4262002799704166
-0.499123495500001	0.4221570307703711
-0.499062460343751	0.4180543253097171
-0.499001425187501	0.4138921057005618
-0.498940390031251	0.4096774072826728
-0.498879354875001	0.40542261017426723
-0.498818319718751	0.40114269943322195
-0.498757284562501	0.3968521298099838
-0.498696249406251	0.3925619535753401
-0.498635214250001	0.38827778950048814
-0.498574179093751	0.3839990052977423
-0.498513143937501	0.3797192192909801
-0.498452108781251	0.37542794900321236
-0.498391073625001	0.3711130147113741
-0.498330038468751	0.36676317513203555
-0.498269003312501	0.3623704361498283
-0.498207968156251	0.3579315749060016
-0.498146933000001	0.35344861603086825
-0.498085897843751	0.34892820616114084
-0.498024862687501	0.34438005929841725
-0.497963827531251	0.33981484766817405
-0.497902792375001	0.33524200508565505
-0.497841757218751	0.33066789322992596
-0.497780722062501	0.3260946901708626
-0.497719686906251	0.3215201993114077
-0.497658651750001	0.3169385729126257
-0.497597616593751	0.31234175486073673
-0.497536581437501	0.30772131291516075
-0.497475546281251	0.30307026410509363
-0.497414511125001	0.29838451401111205
-0.497353475968751	0.29366362805066615
-0.497292440812501	0.288910802353992
-0.497231405656251	0.2841320790356665
-0.497170370500001	0.2793350070489817
-0.497109335343751	0.2745270479171852
-0.497048300187501	0.26971406862199004
-0.496987265031251	0.2648992394863176
-0.496926229875001	0.26008255240761763
-0.496865194718751	0.25526102741445644
-0.496804159562501	0.2504295306213481
-0.496743124406251	0.24558200939521255
-0.496682089250001	0.24071286899462807
-0.496621054093751	0.23581819405247773
-0.496560018937501	0.23089656665164454
-0.496498983781251	0.2259493206212807
-0.496437948625001	0.22098019562875867
-0.496376913468751	0.21599449591216616
-0.496315878312501	0.21099795518081962
-0.496254843156251	0.2059955556569109
-0.496193808000001	0.200990555695126
-0.496132772843751	0.19598392386755267
-0.496071737687501	0.19097428240765474
-0.496010702531251	0.18595835662835833
-0.495949667375001	0.18093181247721027
-0.495888632218751	0.17589028683020394
-0.495827597062501	0.17083039077468373
-0.495766561906251	0.16575047124824407
-0.495705526750001	0.16065096705952364
-0.495644491593751	0.15553429716931108
-0.495583456437501	0.15040433064088374
-0.495522421281251	0.1452655673292969
-0.495461386125001	0.14012220576804102
-0.495400350968751	0.13497730603169478
-0.495339315812501	0.12983223215865317
-0.495278280656251	0.12468647299265637
-0.495217245500001	0.11953786366109276
-0.495156210343751	0.1143831636587503
-0.495095175187501	0.10921885850611639
-0.495034140031251	0.10404199242020593
-0.494973104875001	0.0988508525709258
-0.494912069718751	0.09364537446416432
-0.494851034562501	0.08842718580528999
-0.494789999406251	0.08319927718498828
-0.494728964250001	0.07796538500008654
-0.494667929093751	0.07272923314489446
-0.494606893937501	0.06749379519819505
-0.494545858781251	0.06226073277219417
-0.494484823625001	0.057030126052950866
-0.494423788468751	0.05180055091766354
-0.494362753312501	0.04656948421226559
-0.494301718156251	0.041333936417204516
-0.494240683000001	0.03609116322633983
-0.494179647843751	0.030839308472125702
-0.494118612687501	0.025577849931547495
-0.494057577531251	0.020307753661254813
-0.493996542375001	0.015031303560194172
-0.493935507218751	0.009751652541684067
-0.493874472062501	0.004472204141926057
-0.493813436906251	-0.0008040453046418236
-0.493752401750001	-0.0060750730491168576
-0.493691366593751	-0.011340182053391618
-0.493630331437501	-0.016600057044316406
-0.493569296281251	-0.021856523097599754
-0.493508261125001	-0.027112077925634078
-0.493447225968751	-0.03236929893481498
-0.493386190812501	-0.03763023862040498
-0.493325155656251	-0.0428959320648269
-0.493264120500001	-0.048166131490896213
-0.493203085343751	-0.05343932835165063
-0.493142050187501	-0.05871303961443511
-0.493081015031251	-0.06398428449748773
-0.493019979875001	-0.0692501535466731
-0.492958944718751	-0.0745083478190595
-0.492897909562501	-0.07975757442170535
-0.492836874406251	-0.08499772387643824
-0.492775839250001	-0.09022979676702579
-0.492714804093751	-0.0954555992436041
-0.492653768937501	-0.10067728238197227
-0.492592733781251	-0.10589682857728597
-0.492531698625001	-0.11111558651844777
-0.492470663468751	-0.11633394848599964
-0.492409628312501	-0.1215512426219684
-0.492348593156251	-0.12676585277600286
-0.492287558000001	-0.13197552207130778
-0.492226522843751	-0.13717777638992393
-0.492165487687501	-0.1423703806111951
-0.492104452531251	-0.14755172613753378
-0.492043417375001	-0.15272107386364445
-0.491982382218751	-0.157878610176852
-0.491921347062501	-0.16302530672228904
-0.491860311906251	-0.1681626200377696
-0.491799276750001	-0.17329210655550417
-0.491738241593751	-0.17841503581203075
-0.491677206437501	-0.18353207364749294
-0.491616171281251	-0.18864310586020777
-0.491555136125001	-0.19374724319216374
-0.491494100968751	-0.19884298778976967
-0.491433065812501	-0.20392851276398302
-0.491372030656251	-0.20900200011738337
-0.491310995500001	-0.21406196632736957
-0.491249960343751	-0.2191075002552039
-0.491188925187501	-0.2241383613612264
-0.491127890031251	-0.22915492964087666
-0.491066854875001	-0.23415803269903745
-0.491005819718751	-0.23914868638984038
-0.490944784562501	-0.24412779969854773
-0.490883749406251	-0.24909591176082632
-0.490822714250001	-0.2540530252457924
-0.490761679093751	-0.2589985701612569
-0.490700643937501	-0.26393149068298327
-0.490639608781251	-0.26885042968181655
-0.490578573625001	-0.2737539790692365
-0.490517538468751	-0.278640938666424
-0.490456503312501	-0.28351051817590983
-0.490395468156251	-0.28836243769636377
-0.490334433000001	-0.2931969102238333
-0.490273397843751	-0.29801451934382883
-0.490212362687501	-0.3028160176056983
-0.490151327531251	-0.3076020856156867
-0.490090292375001	-0.312373113176116
-0.490029257218751	-0.31712905167887423
-0.489968222062501	-0.32186936351055756
-0.489907186906251	-0.3265930802186088
-0.489846151750001	-0.33129895828788275
-0.489785116593751	-0.335985696044737
-0.489724081437501	-0.3406521611123097
-0.489663046281251	-0.34529757804062755
-0.489602011125001	-0.34992163929128967
-0.489540975968751	-0.3545245182987993
-0.489479940812501	-0.3591067792161184
-0.489418905656251	-0.3636692010644882
-0.489357870500001	-0.3682125537085915
-0.489296835343751	-0.3727373754389653
-0.489235800187501	-0.3772438012690591
-0.489174765031251	-0.3817314745120497
-0.489113729875001	-0.3861995609040108
-0.489052694718751	-0.39064686437044743
-0.488991659562501	-0.39507201382874363
-0.488930624406251	-0.39947368341781325
-0.488869589250001	-0.4038508117410194
-0.488808554093751	-0.4082027728490018
-0.488747518937501	-0.41252945136067765
-0.488686483781251	-0.41683120704894117
-0.488625448625001	-0.42110874770233087
-0.488564413468751	-0.4253629396773396
-0.488503378312501	-0.4295945897885761
-0.488442343156251	-0.4338042397378955
-0.488381308000001	-0.43799201324186576
-0.488320272843751	-0.4421575465652494
-0.488259237687501	-0.446300017693631
-0.488198202531251	-0.45041826511247784
-0.488137167375001	-0.4545109699921301
-0.488076132218751	-0.45857686661005975
-0.488015097062501	-0.4626149343677946
-0.487954061906251	-0.46662453206282234
-0.487893026750001	-0.4706054596499224
-0.487831991593751	-0.4745579399130544
-0.487770956437501	-0.4784825167609351
-0.487709921281251	-0.48237989478923854
-0.487648886125001	-0.4862507608337284
-0.487587850968751	-0.49009561575725474
-0.487526815812501	-0.49391464593132284
-0.487465780656251	-0.49770766642133085
-0.487404745500001	-0.5014741398940785
-0.487343710343751	-0.5052132550338828
-0.487282675187501	-0.5089240482533868
-0.487221640031251	-0.5126055468346382
-0.487160604875001	-0.5162569052458005
-0.487099569718751	-0.5198775082064413
-0.487038534562501	-0.5234670218199147
-0.486977499406251	-0.5270253869645543
-0.486916464250001	-0.5305527618415339
-0.486855429093751	-0.5340494290894048
-0.486794393937501	-0.5375156908784982
-0.486733358781251	-0.5409517754601721
-0.486672323625001	-0.5443577687099699
-0.486611288468751	-0.5477335810632278
-0.486550253312501	-0.5510789574646653
-0.486489218156251	-0.5543935223120934
-0.486428183000001	-0.5576768393965827
-0.486367147843751	-0.5609284706633028
-0.486306112687501	-0.5641480244055236
-0.486245077531251	-0.5673351837476205
-0.486184042375001	-0.5704897087116039
-0.486123007218751	-0.5736114136781152
-0.486061972062501	-0.5767001310637759
-0.486000936906251	-0.5797556764748246
-0.485939901750001	-0.5827778268934451
-0.485878866593751	-0.5857663184724047
-0.485817831437501	-0.5887208658720292
-0.485756796281251	-0.5916411969515196
-0.485695761125001	-0.5945270931469491
-0.485634725968751	-0.5973784260647858
-0.485573690812501	-0.6001951787173715
-0.485512655656251	-0.6029774407880779
-0.485451620500001	-0.6057253732888479
-0.485390585343751	-0.6084391478063818
-0.485329550187501	-0.6111188735709355
-0.485268515031251	-0.6137645271736841
-0.485207479875001	-0.6163759011905692
-0.485146444718751	-0.6189525869814957
-0.485085409562501	-0.6214939990659656
-0.485024374406251	-0.6239994397822033
-0.484963339250001	-0.626468194723751
-0.484902304093751	-0.62889964117062
-0.484841268937501	-0.6312933483577539
-0.484780233781251	-0.6336491496888705
-0.484719198625001	-0.6359671686054682
-0.484658163468751	-0.6382477875553387
-0.484597128312501	-0.6404915644162736
-0.484536093156251	-0.642699109812115
-0.484475058000001	-0.6448709440046188
-0.484414022843751	-0.6470073607946433
-0.484352987687501	-0.6491083285689939
-0.484291952531251	-0.6511734512133697
-0.484230917375001	-0.6532019990380218
-0.484169882218751	-0.6551930066754006
-0.484108847062501	-0.6571454238992774
-0.484047811906251	-0.6590582925931282
-0.483986776750001	-0.6609309133094122
-0.483925741593751	-0.6627629668313695
-0.483864706437501	-0.6645545653597664
-0.483803671281251	-0.6663062209641818
-0.483742636125001	-0.6680187348820612
-0.483681600968751	-0.6696930266451709
-0.483620565812501	-0.6713299356110335
-0.483559530656251	-0.672930035137041
-0.483498495500001	-0.6744934973709444
-0.483437460343751	-0.6760200359348261
-0.483376425187501	-0.6775089382386694
-0.483315390031251	-0.6789591823024687
-0.483254354875001	-0.680369616675053
-0.483193319718751	-0.6817391683542019
-0.483132284562501	-0.6830670367770424
-0.483071249406251	-0.6843528343410306
-0.483010214250001	-0.6855966448297122
-0.482949179093751	-0.6867989876663297
-0.482888143937501	-0.6879606948241483
-0.482827108781251	-0.6890827252665953
-0.482766073625001	-0.6901659543886286
-0.482705038468751	-0.6912109809223139
-0.482644003312501	-0.6922179907105911
-0.482582968156251	-0.6931867053551832
-0.482521933000001	-0.6941164262890479
-0.482460897843751	-0.6950061652445533
-0.482399862687501	-0.6958548343416437
-0.482338827531251	-0.6966614566912488
-0.482277792375001	-0.6974253543375938
-0.482216757218751	-0.6981462752227615
-0.482155722062501	-0.6988244329523834
-0.482094686906251	-0.6994604506970994
-0.482033651750001	-0.7000552210614569
-0.481972616593751	-0.7006097114721289
-0.481911581437501	-0.7011247551683367
-0.481850546281251	-0.701600870789745
-0.481789511125001	-0.70203814786979
-0.481728475968751	-0.7024362215877062
-0.481667440812501	-0.7027943421123235
-0.481606405656251	-0.7031115243291416
-0.481545370500001	-0.7033867458453038
-0.481484335343751	-0.7036191517061047
-0.481423300187501	-0.7038082243843986
-0.481362265031251	-0.7039538840036053
-0.481301229875001	-0.704056497405018
-0.481240194718751	-0.7041167949865427
-0.481179159562501	-0.704135713231603
-0.481118124406251	-0.7041141949168628
-0.481057089250001	-0.7040529893684816
-0.480996054093751	-0.7039524961452444
-0.480935018937501	-0.7038126841241525
-0.480873983781251	-0.7036331009331208
-0.480812948625001	-0.7034129707454937
-0.480751913468751	-0.7031513601523655
-0.480690878312501	-0.7028473753358907
-0.480629843156251	-0.7025003483216715
-0.480568808000001	-0.7021099745542444
-0.480507772843751	-0.7016763736622675
-0.480446737687501	-0.7012000610618271
-0.480385702531251	-0.7006818374920785
-0.480324667375001	-0.7001226208338948
-0.480263632218751	-0.6995232561627236
-0.480202597062501	-0.6988843432696109
-0.480141561906251	-0.698206117500182
-0.480080526750001	-0.6974884110647349
-0.480019491593751	-0.6967307026517189
-0.479958456437501	-0.6959322400887896
-0.479897421281251	-0.6950922077267506
-0.479836386125001	-0.6942099047471597
-0.479775350968751	-0.6932848987333166
-0.479714315812501	-0.6923171223754551
-0.479653280656251	-0.6913068911396923
-0.479592245500001	-0.6902548388339497
-0.479531210343751	-0.6891617887947016
-0.479470175187501	-0.6880285894760176
-0.479409140031251	-0.6868559469526658
-0.479348104875001	-0.6856442886806517
-0.479287069718751	-0.68439368846934
-0.479226034562501	-0.683103868086051
-0.479164999406251	-0.6817742738966066
-0.479103964250001	-0.6804042121970703
-0.479042929093751	-0.6789930145434878
-0.478981893937501	-0.6775401967461999
-0.478920858781251	-0.6760455735087524
-0.478859823625001	-0.674509304126279
-0.478798788468751	-0.6729318668909496
-0.478737753312501	-0.6713139701730463
-0.478676718156251	-0.6696564162449533
-0.478615683000001	-0.6679599475686617
-0.478554647843751	-0.6662251083389711
-0.478493612687501	-0.6644521493030724
-0.478432577531251	-0.6626409980455517
-0.478371542375001	-0.6607913006578279
-0.478310507218751	-0.6589025217173267
-0.478249472062501	-0.6569740817129478
-0.478188436906251	-0.6550055034550262
-0.478127401750001	-0.6529965336665773
-0.478066366593751	-0.6509472155743948
-0.478005331437501	-0.6488578981617944
-0.477944296281251	-0.6467291790561119
-0.477883261125001	-0.6445617971651637
-0.477822225968751	-0.6423564993723837
-0.477761190812501	-0.6401139054629125
-0.477700155656251	-0.6378344008984539
-0.477639120500001	-0.6355180832578724
-0.477578085343751	-0.633164769567173
-0.477517050187501	-0.6307740647340839
-0.477456015031251	-0.6283454809533364
-0.477394979875001	-0.6258785723285711
-0.477333944718751	-0.6233730517597671
-0.477272909562501	-0.6208288770173529
-0.477211874406251	-0.6182462913740524
-0.477150839250001	-0.615625800479807
-0.477089804093751	-0.6129680890061571
-0.477028768937501	-0.6102739034089715
-0.476967733781251	-0.6075439243099714
-0.476906698625001	-0.6047786533166898
-0.476845663468751	-0.6019783416914446
-0.476784628312501	-0.5991429713861399
-0.476723593156251	-0.5962722902715808
-0.476662558000001	-0.5933658985901595
-0.476601522843751	-0.590423368374472
-0.476540487687501	-0.5874443701973024
-0.476479452531251	-0.5844287788327569
-0.476418417375001	-0.5813767314164617
-0.476357382218751	-0.578288628734608
-0.476296347062501	-0.5751650865229954
-0.476235311906251	-0.5720068453598869
-0.476174276750001	-0.5688146496667282
-0.476113241593751	-0.5655891233284494
-0.476052206437501	-0.5623306754063179
-0.475991171281251	-0.5590394554797918
-0.475930136125001	-0.5557153656496493
-0.475869100968751	-0.5523581214767834
-0.475808065812501	-0.5489673472409113
-0.475747030656251	-0.5455426925113328
-0.475685995500001	-0.5420839481330023
-0.475624960343751	-0.5385911314493638
-0.475563925187501	-0.5350645177281647
-0.475502890031251	-0.5315046166949581
-0.475441854875001	-0.5279121059535602
-0.475380819718751	-0.5242877323136795
-0.475319784562501	-0.5206321986231144
-0.475258749406251	-0.5169460592254708
-0.475197714250001	-0.5132296487667636
-0.475136679093751	-0.5094830630525178
-0.475075643937501	-0.5057061903735182
-0.475014608781251	-0.5018987810076406
-0.474953573625001	-0.49806054232026536
-0.474892538468751	-0.49419124235537293
-0.474831503312501	-0.4902908023703535
-0.474770468156251	-0.4863593563400674
-0.474709433000001	-0.48239726041346254
-0.474648397843751	-0.4784050572030975
-0.474587362687501	-0.4743834101231682
-0.474526327531251	-0.47033301439186
-0.474465292375001	-0.46625449707048466
-0.474404257218751	-0.462148333864048
-0.474343222062501	-0.45801480383271503
-0.474282186906251	-0.4538539867815438
-0.474221151750001	-0.44966580110758314
-0.474160116593751	-0.4454500759943908
-0.474099081437501	-0.44120664414325306
-0.474038046281251	-0.43693542974720195
-0.473977011125001	-0.4326365103659399
-0.473915975968751	-0.4283101451829478
-0.473854940812501	-0.4239567650611751
-0.473793905656251	-0.4195769260304357
-0.473732870500001	-0.415171238082057
-0.473671835343751	-0.4107402854716845
-0.473610800187501	-0.4062845554613101
-0.473549765031251	-0.4018043898019454
-0.473488729875001	-0.3972999698082879
-0.473427694718751	-0.39277133920003904
-0.473366659562501	-0.3882184602126009
-0.473305624406251	-0.38364128865243724
-0.473244589250001	-0.37903984451955725
-0.473183554093751	-0.37441426209453754
-0.473122518937501	-0.3697648146182776
-0.473061483781251	-0.365091908926115
-0.473000448625001	-0.36039604883610693
-0.472939413468751	-0.3556777746576373
-0.472878378312501	-0.3509375958628486
-0.472817343156251	-0.34617593259875584
-0.472756308000001	-0.34139307751214887
-0.472695272843751	-0.3365891930204118
-0.472634237687501	-0.3317643430103808
-0.472573202531251	-0.3269185453281998
-0.472512167375001	-0.32205183466914694
-0.472451132218751	-0.3171643224771699
-0.472390097062501	-0.31225624432917065
-0.472329061906251	-0.3073279810021655
-0.472268026750001	-0.30238003823612875
-0.472206991593751	-0.29741299030948937
-0.472145956437501	-0.29242740622878877
-0.472084921281251	-0.28742378107861843
-0.472023886125001	-0.2824024869163193
-0.471962850968751	-0.2773637488936552
-0.471901815812501	-0.272307653056086
-0.471840780656251	-0.2672341889448071
-0.471779745500001	-0.2621433231383929
-0.471718710343751	-0.25703508407374126
-0.471657675187501	-0.2519096285746685
-0.471596640031251	-0.24676727391865308
-0.471535604875001	-0.24160849329905298
-0.471474569718751	-0.23643387990950435
-0.471413534562501	-0.23124409041231253
-0.471352499406251	-0.22603977260661778
-0.471291464250001	-0.22082148460349516
-0.471230429093751	-0.21558962719288774
-0.471169393937501	-0.21034440976354687
-0.471108358781251	-0.20508586266944692
-0.471047323625001	-0.19981389736808522
-0.470986288468751	-0.19452839660377
-0.470925253312501	-0.1892293109286504
-0.470864218156251	-0.18391674073829056
-0.470803183000001	-0.17859098374187624
-0.470742147843751	-0.17325253943585128
-0.470681112687501	-0.1679020740842792
-0.470620077531251	-0.1625403479760858
-0.470559042375001	-0.1571681178099074
-0.470498007218751	-0.1517860405740455
-0.470436972062501	-0.1463945979035722
-0.470375936906251	-0.14099405431311607
-0.470314901750001	-0.13558446136971603
-0.470253866593751	-0.13016571105145536
-0.470192831437501	-0.12473762879861901
-0.470131796281251	-0.1193000818148569
-0.470070761125001	-0.11385307488864771
-0.470009725968751	-0.10839681996681229
-0.469948690812501	-0.1029317670000938
-0.469887655656251	-0.09745857881833701
-0.469826620500001	-0.09197805485697594
-0.469765585343751	-0.0864910288514526
-0.469704550187501	-0.08099826216786428
-0.469643515031251	-0.07550034849180425
-0.469582479875001	-0.06999764833060952
-0.469521444718751	-0.0644902769182441
-0.469460409562501	-0.05897815464713502
-0.469399374406251	-0.053461099644237134
-0.469338339250001	-0.04793893238137957
-0.469277304093751	-0.04241157709092041
-0.469216268937501	-0.03687915177708042
-0.469155233781251	-0.03134202150226664
-0.469094198625001	-0.0258007900363232
-0.469033163468751	-0.020256236740203208
-0.468972128312501	-0.01470921842414495
