Time	Frequency
-0.5000480297500012	0.5621531288483633
-0.4999869945937512	0.5643600217543076
-0.4999259594375012	0.5665487085244602
-0.4998649242812512	0.5687126250040706
-0.4998038891250012	0.5708452976727646
-0.4997428539687512	0.5729412094479025
-0.4996818188125012	0.5749964925539522
-0.4996207836562512	0.5770093595141298
-0.4995597485000012	0.5789802260891219
-0.4994987133437512	0.5809115252093189
-0.4994376781875012	0.5828072513412355
-0.4993766430312512	0.5846723123866346
-0.4993156078750012	0.5865117910304465
-0.4992545727187512	0.5883302227439746
-0.4991935375625012	0.5901309892801554
-0.4991325024062512	0.5919159072698816
-0.4990714672500012	0.5936850589693504
-0.4990104320937512	0.5954368748699923
-0.4989493969375012	0.5971684429583505
-0.4988883617812512	0.5988759875803302
-0.4988273266250012	0.6005554401909791
-0.4987662914687512	0.6022030156386308
-0.4987052563125012	0.6038157110716993
-0.4986442211562512	0.6053916615413747
-0.4985831860000012	0.606930309967202
-0.4985221508437512	0.6084323779122389
-0.4984611156875012	0.609899654762797
-0.4984000805312512	0.6113346475246532
-0.4983390453750012	0.6127401506022526
-0.4982780102187512	0.6141188047980223
-0.4982169750625012	0.6154727127796593
-0.4981559399062512	0.6168031645203597
-0.4980949047500012	0.6181105052094028
-0.4980338695937512	0.619394155408822
-0.4979728344375012	0.6206527707829359
-0.4979117992812512	0.6218845075048454
-0.4978507641250012	0.6230873450117033
-0.4977897289687512	0.6242594115491358
-0.4977286938125012	0.6253992604224508
-0.4976676586562512	0.6265060565391554
-0.4976066235000012	0.6275796490741531
-0.4975455883437512	0.6286205249721032
-0.4974845531875012	0.6296296577801839
-0.4974235180312512	0.6306082831054735
-0.4973624828750012	0.6315576434569051
-0.4973014477187512	0.6324787480580495
-0.4972404125625012	0.6333721871331849
-0.4971793774062512	0.634238030089841
-0.4971183422500012	0.6350758236807461
-0.4970573070937512	0.6358846880118201
-0.4969962719375012	0.6366634903772993
-0.4969352367812512	0.6374110644766475
-0.4968742016250012	0.6381264355989047
-0.4968131664687512	0.6388090114813733
-0.4967521313125012	0.6394587045653433
-0.4966910961562512	0.6400759630218931
-0.4966300610000012	0.640661703521237
-0.4965690258437512	0.6412171558972115
-0.4965079906875012	0.64174364508982
-0.4964469555312512	0.6422423466963592
-0.4963859203750012	0.64271405773442
-0.4963248852187512	0.6431590225613111
-0.4962638500625012	0.6435768456682425
-0.4962028149062512	0.6439665094851934
-0.4961417797500012	0.6443264983635374
-0.4960807445937512	0.644655012486521
-0.4960197094375012	0.6449502407410127
-0.4959586742812512	0.6452106514088112
-0.4958976391250012	0.6454352542399615
-0.4958366039687512	0.6456237899403307
-0.4957755688125012	0.6457768140439248
-0.4957145336562512	0.6458956569652591
-0.4956534985000012	0.6459822600010034
-0.4955924633437512	0.6460389080110057
-0.4955314281875012	0.6460678968664982
-0.4954703930312512	0.6460711834549355
-0.4954093578750012	0.6460500702724868
-0.4953483227187512	0.6460049739686792
-0.4952872875625012	0.6459353158772729
-0.4952262524062512	0.6458395565415642
-0.4951652172500012	0.6457153761192471
-0.4951041820937512	0.6455599785648296
-0.4950431469375012	0.6453704774552159
-0.4949821117812512	0.6451443107201024
-0.4949210766250012	0.6448796271476702
-0.4948600414687512	0.6445755869172112
-0.4947990063125012	0.6442325265339486
-0.4947379711562512	0.6438519599380262
-0.4946769360000012	0.6434364124859094
-0.4946159008437512	0.6429891043069167
-0.4945548656875012	0.642513521400066
-0.4944938305312512	0.6420129337679589
-0.4944327953750012	0.6414899287813585
-0.4943717602187512	0.6409460256484878
-0.4943107250625012	0.6403814265020928
-0.4942496899062512	0.6397949422053294
-0.4941886547500012	0.6391841099252349
-0.4941276195937512	0.6385454944585682
-0.4940665844375012	0.6378751346406196
-0.4940055492812512	0.6371690737475615
-0.4939445141250012	0.6364239055466616
-0.4938834789687512	0.6356372616904714
-0.4938224438125012	0.6348081681609847
-0.4937614086562512	0.6339372214296484
-0.4937003735000012	0.6330265590442699
-0.4936393383437512	0.6320796191946882
-0.4935783031875012	0.6311007156487685
-0.4935172680312512	0.6300944843996865
-0.4934562328750012	0.6290652737786219
-0.4933951977187512	0.6280165586690716
-0.4933341625625012	0.6269504613078871
-0.4932731274062512	0.625867446952915
-0.4932120922500012	0.6247662325081988
-0.4931510570937512	0.6236439210222493
-0.4930900219375012	0.6224963549953219
-0.4930289867812512	0.6213186481840299
-0.4929679516250012	0.6201058236133871
-0.4929069164687512	0.6188534710691913
-0.4928458813125012	0.617558339091557
-0.4927848461562512	0.6162187855681811
-0.4927238110000012	0.6148350229395605
-0.4926627758437512	0.6134091228192255
-0.4926017406875012	0.6119447795401043
-0.4925407055312512	0.6104468582697248
-0.4924796703750012	0.6089207848744973
-0.4924186352187512	0.6073718591648493
-0.4923576000625012	0.6058045784823637
-0.4922965649062512	0.6042220600650168
-0.4922355297500012	0.6026256403236755
-0.4921744945937512	0.6010147019789641
-0.4921134594375012	0.5993867528351661
-0.4920524242812512	0.5977377475127638
-0.4919913891250012	0.596062607406601
-0.4919303539687512	0.5943558717241777
-0.4918693188125012	0.5926123986242631
-0.4918082836562512	0.5908280292099093
-0.4917472485000012	0.589000127719771
-0.4916862133437512	0.5871279219214303
-0.4916251781875012	0.5852126015810657
-0.4915641430312512	0.5832571689946967
-0.4915031078750012	0.5812660599019946
-0.4914420727187512	0.579244583499074
-0.4913810375625012	0.5771982579098086
-0.4913200024062512	0.5751321263912114
-0.4912589672500012	0.5730501400755079
-0.4911979320937512	0.5709546848454663
-0.4911368969375012	0.5688463115779233
-0.4910758617812512	0.5667237039859179
-0.4910148266250012	0.5645838829797553
-0.4909537914687512	0.5624226145425779
-0.4908927563125012	0.5602349706154152
-0.4908317211562512	0.5580159750307573
-0.4907706860000012	0.5557612436124595
-0.4907096508437512	0.5534675299961205
-0.4906486156875012	0.5511331164596832
-0.4905875805312512	0.5487580078600498
-0.4905265453750012	0.5463439050870464
-0.4904655102187512	0.5438939632840305
-0.4904044750625012	0.5414123708586681
-0.4903434399062512	0.5389038103285879
-0.4902824047500012	0.5363728717405698
-0.4902213695937512	0.5338234925580096
-0.4901603344375012	0.5312584979806028
-0.4900992992812512	0.5286792980746065
-0.4900382641250012	0.5260857729921425
-0.4899772289687512	0.5234763565747235
-0.4899161938125012	0.520848301143605
-0.4898551586562512	0.5181980802746727
-0.4897941235000012	0.5155218744645356
-0.4897330883437512	0.512816078955177
-0.4896720531875012	0.5100777704157943
-0.4896110180312512	0.5073050698232147
-0.4895499828750012	0.504497352848126
-0.4894889477187512	0.5016552898066747
-0.4894279125625012	0.49878071801140184
-0.4893668774062512	0.49587636623701464
-0.4893058422500012	0.4929454763703543
-0.4892448070937512	0.4899913785614346
-0.4891837719375012	0.48701707556470686
-0.4891227367812512	0.4840248895014542
-0.4890617016250012	0.4810162122298495
-0.4890006664687512	0.47799138567732297
-0.4889396313125012	0.47494972655665935
-0.4888785961562512	0.47188969105317385
-0.4888175610000012	0.46880914975599597
-0.4887565258437512	0.4657057225247638
-0.4886954906875012	0.46257712364627435
-0.4886344555312512	0.45942148000226307
-0.4885734203750012	0.4562375834970813
-0.4885123852187512	0.4530250401804862
-0.4884513500625012	0.44978429914316653
-0.4883903149062512	0.44651656505716003
-0.4883292797500012	0.44322361071901023
-0.4882682445937512	0.43990752125053595
-0.4882072094375012	0.43657041128946383
-0.4881461742812512	0.43321415362716176
-0.4880851391250012	0.42984015333569575
-0.4880241039687512	0.4264491948594706
-0.4879630688125012	0.4230413818100014
-0.4879020336562512	0.4196161750030899
-0.4878409985000012	0.41617251583534043
-0.4877799633437512	0.4127090173954525
-0.4877189281875012	0.40922419739376015
-0.4876578930312512	0.4057167148641126
-0.4875968578750012	0.40218557817506945
-0.4875358227187512	0.3986302993836176
-0.4874747875625012	0.39505097389857646
-0.4874137524062512	0.3914482729050637
-0.4873527172500012	0.387823351088533
-0.4872916820937512	0.3841776900015167
-0.4872306469375012	0.3805129011929423
-0.4871696117812512	0.37683051521955424
-0.4871085766250012	0.3731317916633253
-0.4870475414687512	0.3694175739956157
-0.4869865063125012	0.365688199749255
-0.4869254711562512	0.3619434836029284
-0.4868644360000012	0.35818278195779707
-0.4868034008437512	0.3544051219088573
-0.4867423656875012	0.3506093713654938
-0.4866813305312512	0.3467944309918624
-0.4866202953750012	0.34295942197994445
-0.4865592602187512	0.3391038387218567
-0.4864982250625012	0.335227640250775
-0.4864371899062512	0.33133126768135424
-0.4863761547500012	0.32741559512924484
-0.4863151195937512	0.32348182633734657
-0.4862540844375012	0.319531344617857
-0.4861930492812512	0.31556553630996753
-0.4861320141250012	0.3115856174189215
-0.4860709789687512	0.3075924867624997
-0.4860099438125012	0.3035866274536855
-0.4859489086562512	0.2995680732112849
-0.4858878735000012	0.2955364379325034
-0.4858268383437512	0.2914910011221949
-0.4857658031875012	0.287430840320984
-0.4857047680312512	0.2833549900134443
-0.4856437328750012	0.27926260580255485
-0.4855826977187512	0.27515311359896943
-0.4855216625625012	0.2710263174156855
-0.4854606274062512	0.26688244810126216
-0.4853995922500012	0.2627221497710782
-0.4853385570937512	0.2585464077080963
-0.4852775219375012	0.25435642888014115
-0.4852164867812512	0.2501534939331527
-0.4851554516250012	0.24593880489184664
-0.4850944164687512	0.24171334958970614
-0.4850333813125012	0.23747779722660856
-0.4849723461562512	0.23323243812523606
-0.4849113110000012	0.2289771763781019
-0.4848502758437512	0.2247115775492099
-0.4847892406875012	0.22043496787387862
-0.4847282055312512	0.21614656966008322
-0.4846671703750012	0.21184564662906571
-0.4846061352187512	0.2075316375804913
-0.4845451000625012	0.20320426315518605
-0.4844840649062512	0.1988635891126041
-0.4844230297500012	0.19451003701235792
-0.4843619945937512	0.19014434346127512
-0.4843009594375012	0.1857674743524481
-0.4842399242812512	0.18138050473750328
-0.4841788891250012	0.17698448364960012
-0.4841178539687512	0.1725803091507102
-0.4840568188125012	0.16816862854621006
-0.4839957836562512	0.16374977393321571
-0.4839347485000012	0.15932374565039087
-0.4838737133437512	0.1548902485312571
-0.4838126781875012	0.15044877551913416
-0.4837516430312512	0.1459987247629377
-0.4836906078750012	0.1415395309691987
-0.4836295727187512	0.13707078764171823
-0.4835685375625012	0.13259234087046687
-0.4835075024062512	0.12810434717670488
-0.4834464672500012	0.12360728737076628
-0.4833854320937512	0.1191019246450527
-0.4833243969375012	0.11458921252768632
-0.4832633617812512	0.11007017696041933
-0.4832023266250012	0.10554579307873067
-0.4831412914687512	0.10101687232858507
-0.4830802563125012	0.09648397234077985
-0.4830192211562512	0.09194733673520583
-0.4829581860000012	0.08740687836372961
-0.4828971508437512	0.08286221767561466
-0.4828361156875012	0.07831277225436098
-0.4827750805312512	0.07375788040874587
-0.4827140453750012	0.06919693472310622
-0.4826530102187512	0.0646295071174512
-0.4825919750625012	0.06005545254101633
-0.4825309399062512	0.05547497474997508
-0.4824699047500012	0.05088863804618005
-0.4824088695937512	0.046297318561754876
-0.4823478344375012	0.041702106665085045
-0.4822867992812512	0.037104181968803024
-0.4822257641250012	0.03250467613632142
-0.4821647289687512	0.02790453741394286
-0.4821036938125012	0.02330441684800835
-0.4820426586562512	0.018704597393877278
-0.4819816235000012	0.014104978983406862
-0.4819205883437512	0.009505119844391122
-0.4818595531875012	0.0049043283709192
-0.4817985180312512	0.00030179432752203735
-0.4817374828750012	-0.004303261729907285
-0.4816764477187512	-0.008911444795390269
-0.4816154125625012	-0.013523066010028758
-0.4815543774062512	-0.018138060378373903
-0.4814933422500012	-0.02275595407398674
-0.4814323070937512	-0.027375893942859848
-0.4813712719375012	-0.031996737059237654
-0.4813102367812512	-0.03661718099208419
-0.4812492016250012	-0.04123591699708584
-0.4811881664687512	-0.045851786448453544
-0.4811271313125012	-0.05046391360577512
-0.4810660961562512	-0.05507179871804562
-0.4810050610000012	-0.059675362440762034
-0.4809440258437512	-0.06427493006860491
-0.4808829906875012	-0.06887115749143233
-0.4808219555312512	-0.07346491135554285
-0.4807609203750012	-0.07805711553967197
-0.4806998852187512	-0.08264858743329363
-0.4806388500625012	-0.0872398904196777
-0.4805778149062512	-0.09183121780417024
-0.4805167797500012	-0.09642232691358715
-0.4804557445937512	-0.10101254144344578
-0.4803947094375012	-0.10560082010464107
-0.4803336742812512	-0.11018587209618254
-0.4802726391250012	-0.11476630110569269
-0.4802116039687512	-0.11934076829984597
-0.4801505688125012	-0.1239081521273129
-0.4800895336562512	-0.1284676750632015
-0.4800284985000012	-0.13301898269962115
-0.4799674633437512	-0.13756216246711975
-0.4799064281875012	-0.14209769666459546
-0.4798453930312512	-0.14662636544321678
-0.4797843578750012	-0.15114911186741328
-0.4797233227187512	-0.15566687735943238
-0.4796622875625012	-0.16018043429914658
-0.4796012524062512	-0.1646902462152998
-0.4795402172500012	-0.16919637282689576
-0.4794791820937512	-0.17369843366611612
-0.4794181469375012	-0.17819563372814717
-0.4793571117812512	-0.18268684210017722
-0.4792960766250012	-0.1871707200010927
-0.4792350414687512	-0.19164588457779766
-0.4791740063125012	-0.1961110736581825
-0.4791129711562512	-0.20056528442226398
-0.4790519360000012	-0.20500787647729993
-0.4789909008437512	-0.2094386305517334
-0.4789298656875012	-0.21385775180356378
-0.4788688305312512	-0.21826581294019853
-0.4788077953750012	-0.22266364058715685
-0.4787467602187512	-0.22705216250477026
-0.4786857250625012	-0.23143224538301466
-0.4786246899062512	-0.23580454544184065
-0.4785636547500012	-0.24016938588600142
-0.4785026195937512	-0.2445266820133813
-0.4784415844375012	-0.24887592898616168
-0.4783805492812512	-0.2532162474447109
-0.4783195141250012	-0.25754647929951363
-0.4782584789687512	-0.26186532208362173
-0.4781974438125012	-0.26617147849198575
-0.4781364086562512	-0.2704638055327009
-0.4780753735000012	-0.27474144732840344
-0.4780143383437512	-0.2790039240579033
-0.4779533031875012	-0.28325116431941516
-0.4778922680312512	-0.28748348315886046
-0.4778312328750012	-0.2917015080312934
-0.4777701977187512	-0.2959060616779778
-0.4777091625625012	-0.3000980161877459
-0.4776481274062512	-0.30427813957451016
-0.4775870922500012	-0.30844696188582427
-0.4775260570937512	-0.3126046760425077
-0.4774650219375012	-0.3167510804010661
-0.4774039867812512	-0.32088557481827584
-0.4773429516250012	-0.3250072187695043
-0.4772819164687512	-0.32911483956715704
-0.4772208813125012	-0.3332071664455346
-0.4771598461562512	-0.3372829771434617
-0.4770988110000012	-0.34134124338547533
-0.4770377758437512	-0.34538124796685804
-0.4769767406875012	-0.349402652454104
-0.4769157055312512	-0.35340551208835935
-0.4768546703750012	-0.35739023938821063
-0.4767936352187512	-0.3613575181521922
-0.4767326000625012	-0.3653081799632009
-0.4766715649062512	-0.3692430642560989
-0.4766105297500012	-0.37316287781101865
-0.4765494945937512	-0.37706806665690024
-0.4764884594375012	-0.3809587215583205
-0.4764274242812512	-0.38483453755574276
-0.4763663891250012	-0.3886948325535847
-0.4763053539687512	-0.3925386162181335
-0.4762443188125012	-0.39636469805258806
-0.4761832836562512	-0.40017182484542907
-0.4761222485000012	-0.4039588298015648
-0.4760612133437512	-0.40772476881376685
-0.4760001781875012	-0.4114690267290083
-0.4759391430312512	-0.4151913804298679
-0.4758781078750012	-0.41889200443290353
-0.4758170727187512	-0.4225714193451238
-0.4757560375625012	-0.4262303954470051
-0.4756950024062512	-0.42986982145272984
-0.4756339672500012	-0.43349055516101076
-0.4755729320937512	-0.4370932782419036
-0.4755118969375012	-0.44067837423510986
-0.4754508617812512	-0.4442458479724425
-0.4753898266250012	-0.44779529712591126
-0.4753287914687512	-0.4513259382388913
-0.4752677563125012	-0.4548366875940756
-0.4752067211562512	-0.4583262873233257
-0.4751456860000012	-0.4617934559918263
-0.4750846508437512	-0.46523704238385416
-0.4750236156875012	-0.4686561620200612
-0.4749625805312512	-0.4720502990184262
-0.4749015453750012	-0.47541936060238243
-0.4748405102187512	-0.47876367089765204
-0.4747794750625012	-0.48208390151017255
-0.4747184399062512	-0.485380954943567
-0.4746574047500012	-0.4886558168651451
-0.4745963695937512	-0.4919093920286836
-0.4745353344375012	-0.4951423502474325
-0.4744742992812512	-0.4983550078816463
-0.4744132641250012	-0.5015472576827891
-0.4743522289687512	-0.5047185549816325
-0.4742911938125012	-0.5078679674367285
-0.4742301586562512	-0.5109942845811297
-0.4741691235000012	-0.5140961667977031
-0.4741080883437512	-0.5171723102700743
-0.4740470531875012	-0.5202216085102669
-0.4739860180312512	-0.5232432883701003
-0.4739249828750012	-0.5262369998049071
-0.4738639477187512	-0.5292028479268646
-0.4738029125625012	-0.5321413620810548
-0.4737418774062512	-0.5350534032358581
-0.4736808422500012	-0.5379400221960843
-0.4736198070937512	-0.5408022886561438
-0.4735587719375012	-0.5436411155264482
-0.4734977367812512	-0.5464571046380408
-0.4734367016250012	-0.5492504359605259
-0.4733756664687512	-0.5520208170064402
-0.4733146313125012	-0.5547674997337363
-0.4732535961562512	-0.5574893624909864
-0.4731925610000012	-0.5601850481714713
-0.4731315258437512	-0.5628531393026069
-0.4730704906875012	-0.5654923423459862
-0.4730094555312512	-0.5681016537346875
-0.4729484203750012	-0.5706804848485908
-0.4728873852187512	-0.5732287298076945
-0.4728263500625012	-0.5757467663480083
-0.4727653149062512	-0.5782353872806759
-0.4727042797500012	-0.5806956713713128
-0.4726432445937512	-0.5831288131274512
-0.4725822094375012	-0.5855359351245983
-0.4725211742812512	-0.5879179075570637
-0.4724601391250012	-0.5902752008355879
-0.4723991039687512	-0.5926077959539551
-0.4723380688125012	-0.5949151677781017
-0.4722770336562512	-0.5971963398763873
-0.4722159985000012	-0.5994500010261901
-0.4721549633437512	-0.6016746710170195
-0.4720939281875012	-0.6038688936587259
-0.4720328930312512	-0.6060314266714154
-0.4719718578750012	-0.6081614014799152
-0.4719108227187512	-0.6102584322333565
-0.4718497875625012	-0.6123226575850078
-0.4717887524062512	-0.614354708016307
-0.4717277172500012	-0.6163556041949215
-0.4716666820937512	-0.6183266013629785
-0.4716056469375012	-0.6202690025322068
-0.4715446117812512	-0.6221839659199248
-0.4714835766250012	-0.6240723297194971
-0.4714225414687512	-0.6259344790038264
-0.4713615063125012	-0.6277702768707953
-0.4713004711562512	-0.6295790675949426
-0.4712394360000012	-0.6313597487055035
-0.4711784008437512	-0.633110904479833
-0.4711173656875012	-0.6348309840372272
-0.4710563305312512	-0.6365184974344048
-0.4709952953750012	-0.6381722024583868
-0.4709342602187512	-0.6397912593377134
-0.4708732250625012	-0.6413753334445762
-0.4708121899062512	-0.6429246303269113
-0.4707511547500012	-0.6444398578994642
-0.4706901195937512	-0.6459221225581032
-0.4706290844375012	-0.6473727738770668
-0.4705680492812512	-0.6487932178074742
-0.4705070141250012	-0.6501847225795644
-0.4704459789687512	-0.6515482427457095
-0.4703849438125012	-0.6528842835727056
-0.4703239086562512	-0.6541928233236096
-0.4702628735000012	-0.6554733047018455
-0.4702018383437512	-0.6567246963424513
-0.4701408031875012	-0.6579456155602161
-0.4700797680312512	-0.659134496904896
-0.4700187328750012	-0.6602897848972319
-0.4699576977187512	-0.6614101259843704
-0.4698966625625012	-0.6624945350110921
-0.4698356274062512	-0.6635425142324607
-0.4697745922500012	-0.664554109284745
-0.4697135570937512	-0.6655298949489917
-0.4696525219375012	-0.6664708922779076
-0.4695914867812512	-0.6673784277444794
-0.4695304516250012	-0.6682539528923928
-0.4694694164687512	-0.6690988481578236
-0.4694083813125012	-0.6699142367475612
