Time	Frequency
-0.5000534017812512	0.4637338144777102
-0.49999236662500124	0.4670212900065934
-0.49993133146875124	0.4702861369684298
-0.49987029631250124	0.47352816336269327
-0.49980926115625124	0.4767471969487337
-0.49974822600000124	0.47994304670724575
-0.49968719084375124	0.4831154882141787
-0.49962615568750124	0.4862643740353529
-0.49956512053125124	0.4893896437317115
-0.49950408537500124	0.49249115633741514
-0.49944305021875124	0.49556867431073526
-0.49938201506250124	0.49862200790921196
-0.49932097990625124	0.5016510336940966
-0.49925994475000124	0.5046556180745309
-0.49919890959375124	0.5076356083767678
-0.49913787443750124	0.510590844060886
-0.49907683928125124	0.5135211537909505
-0.49901580412500124	0.5164263760885469
-0.49895476896875124	0.5193063521745606
-0.49889373381250124	0.5221609293125914
-0.49883269865625124	0.5249899853414253
-0.49877166350000124	0.5277933787168336
-0.49871062834375124	0.5305709388084585
-0.49864959318750124	0.5333225232201118
-0.49858855803125124	0.5360479980558813
-0.49852752287500124	0.5387472144501375
-0.49846648771875124	0.5414200214584751
-0.49840545256250124	0.544066258696427
-0.49834441740625124	0.5466857792305209
-0.49828338225000124	0.549278476844101
-0.49822234709375124	0.5518442561896181
-0.49816131193750124	0.5543829745038023
-0.49810027678125124	0.5568944356305948
-0.49803924162500124	0.559378483233286
-0.49797820646875124	0.5618350531621523
-0.49791717131250124	0.5642640798707425
-0.49785613615625124	0.566665419269461
-0.49779510100000124	0.5690388913175701
-0.49773406584375124	0.5713843281702953
-0.49767303068750124	0.5737015783358286
-0.49761199553125124	0.5759905206334446
-0.49755096037500124	0.5782510822859295
-0.49748992521875124	0.5804831953528145
-0.49742889006250124	0.5826867099258296
-0.49736785490625124	0.5848614203733435
-0.49730681975000124	0.5870072100944043
-0.49724578459375124	0.5891240669929374
-0.49718474943750124	0.5912119296354328
-0.49712371428125124	0.5932706425417359
-0.49706267912500124	0.5953000533989731
-0.49700164396875124	0.5973000339599709
-0.49694060881250124	0.5992704480636873
-0.49687957365625124	0.6012111698656584
-0.49681853850000124	0.6031221074678326
-0.49675750334375124	0.6050032089166856
-0.49669646818750124	0.6068544399643471
-0.49663543303125124	0.6086757048941959
-0.49657439787500124	0.610466802226496
-0.49651336271875124	0.6122275312054754
-0.49645232756250124	0.6139578329638309
-0.49639129240625124	0.615657746947082
-0.49633025725000124	0.6173272321131668
-0.49626922209375124	0.61896612889712
-0.49620818693750124	0.6205742834231419
-0.49614715178125124	0.6221515988183229
-0.49608611662500124	0.6236980010308621
-0.49602508146875124	0.625213423496465
-0.49596404631250124	0.6266977995616848
-0.49590301115625124	0.6281510734554225
-0.49584197600000124	0.6295731978482945
-0.49578094084375124	0.63096406851533
-0.49571990568750124	0.6323235010823228
-0.49565887053125124	0.633651351284425
-0.49559783537500124	0.6349476284498156
-0.49553680021875124	0.6362123907322095
-0.49547576506250124	0.6374455747369964
-0.49541472990625124	0.6386470310249966
-0.49535369475000124	0.639816646275991
-0.49529265959375124	0.6409543415238206
-0.49523162443750124	0.6420600366123097
-0.49517058928125124	0.6431336774203671
-0.49510955412500124	0.6441752426591937
-0.49504851896875124	0.6451847115488831
-0.49498748381250124	0.6461620359052315
-0.49492644865625124	0.6471071017003686
-0.49486541350000124	0.6480197474073863
-0.49480437834375124	0.6488998976160298
-0.49474334318750124	0.6497476187242663
-0.49468230803125124	0.6505629623929299
-0.49462127287500124	0.651345847976748
-0.49456023771875124	0.6520961499467384
-0.49449920256250124	0.652813778918587
-0.49443816740625124	0.653498673833533
-0.49437713225000124	0.6541508159964112
-0.49431609709375124	0.6547702193569066
-0.49425506193750124	0.655356862089562
-0.49419402678125124	0.6559106667430887
-0.49413299162500124	0.6564315602773099
-0.49407195646875124	0.6569195266538046
-0.49401092131250124	0.6573745799608083
-0.49394988615625124	0.6577966860214278
-0.49388885100000124	0.6581857520315927
-0.49382781584375124	0.6585417203830113
-0.49376678068750124	0.6588646190319956
-0.49370574553125124	0.6591544784342435
-0.49364471037500124	0.6594112593504089
-0.49358367521875124	0.6596348979720547
-0.49352264006250124	0.6598253582837408
-0.49346160490625124	0.6599826263154422
-0.49340056975000124	0.660106696770357
-0.49333953459375124	0.6601975668219222
-0.49327849943750124	0.6602552307889399
-0.49321746428125124	0.6602796682539778
-0.49315642912500124	0.6602708367976271
-0.49309539396875124	0.66022870987623
-0.49303435881250124	0.6601533141105288
-0.49297332365625124	0.6600446744772017
-0.49291228850000124	0.6599027599906432
-0.49285125334375124	0.659727543447874
-0.49279021818750124	0.6595190482050705
-0.49272918303125124	0.6592773036456245
-0.49266814787500124	0.6590023118362603
-0.49260711271875124	0.6586940492680631
-0.49254607756250124	0.6583524798667248
-0.49248504240625124	0.6579776052834763
-0.49242400725000124	0.6575694893720045
-0.49236297209375124	0.6571281820196724
-0.49230193693750124	0.6566536606327966
-0.49224090178125124	0.6561458902937843
-0.49217986662500124	0.6556048839715067
-0.49211883146875124	0.6550306854401836
-0.49205779631250124	0.6544233423729265
-0.49199676115625124	0.6537828814853649
-0.49193572600000124	0.6531092959699435
-0.49187469084375124	0.6524025861338938
-0.49181365568750124	0.6516627920723488
-0.49175262053125124	0.6508899656360162
-0.49169158537500124	0.6500841462582823
-0.49163055021875124	0.6492453701444256
-0.49156951506250124	0.6483736562242219
-0.49150847990625124	0.6474690078583349
-0.49144744475000124	0.6465314572266742
-0.49138640959375124	0.6455610588458855
-0.49132537443750124	0.6445578604508938
-0.49126433928125124	0.6435219054827538
-0.49120330412500124	0.6424532327635619
-0.49114226896875124	0.6413518814820044
-0.49108123381250124	0.6402178967801967
-0.49102019865625124	0.6390513298856029
-0.49095916350000124	0.6378522340534204
-0.49089812834375124	0.6366206482884699
-0.49083709318750124	0.6353566109806689
-0.49077605803125124	0.6340601853305383
-0.49071502287500124	0.632731441228087
-0.49065398771875124	0.6313704405229954
-0.49059295256250124	0.6299772436712259
-0.49053191740625124	0.628551890799138
-0.49047088225000124	0.6270944188103346
-0.49040984709375124	0.6256049213569811
-0.49034881193750124	0.6240835121281598
-0.49028777678125124	0.6225302584101935
-0.49022674162500124	0.6209451972544182
-0.49016570646875124	0.6193283589866343
-0.49010467131250124	0.617679784841099
-0.49004363615625124	0.6159995637580717
-0.48998260100000124	0.6142878366400865
-0.48992156584375124	0.6125447079256374
-0.48986053068750124	0.6107702047699167
-0.48979949553125124	0.6089643932014025
-0.48973846037500124	0.6071273955320925
-0.48967742521875124	0.6052592842590447
-0.48961639006250124	0.6033601255536168
-0.48955535490625124	0.6014300390797959
-0.48949431975000124	0.5994691145055447
-0.48943328459375124	0.597477405886914
-0.48937224943750124	0.5954550085665895
-0.48931121428125124	0.593402036958369
-0.48925017912500124	0.5913185650569391
-0.48918914396875124	0.589204652884988
-0.48912810881250124	0.5870604128247887
-0.48906707365625124	0.5848859739222309
-0.48900603850000124	0.5826814177380866
-0.48894500334375124	0.5804468346447169
-0.48888396818750124	0.578182360919038
-0.48882293303125124	0.5758881096848922
-0.48876189787500124	0.5735641642526506
-0.48870086271875124	0.5712106394773029
-0.48863982756250124	0.5688276504385466
-0.48857879240625124	0.5664152608007477
-0.48851775725000124	0.563973558089157
-0.48845672209375124	0.5615027327394341
-0.48839568693750124	0.5590029866058728
-0.48833465178125124	0.5564744120973951
-0.48827361662500124	0.5539170479350002
-0.48821258146875124	0.5513309726831389
-0.48815154631250124	0.548716304714761
-0.48809051115625124	0.5460732061091714
-0.48802947600000124	0.5434018627829338
-0.48796844084375124	0.5407024094816422
-0.48790740568750124	0.5379749353534385
-0.48784637053125124	0.5352195454982058
-0.48778533537500124	0.5324363693243114
-0.48772430021875124	0.5296255507548168
-0.48766326506250124	0.5267872168108725
-0.48760222990625124	0.5239214690083106
-0.48754119475000124	0.5210284622766528
-0.48748015959375124	0.5181083951461173
-0.48741912443750124	0.5151614094042728
-0.48735808928125124	0.5121876172013674
-0.48729705412500124	0.5091871503550022
-0.48723601896875124	0.506160136821433
-0.48717498381250124	0.5031067110006023
-0.48711394865625124	0.5000270316144123
-0.48705291350000124	0.4969212842306728
-0.48699187834375124	0.493789631662239
-0.48693084318750124	0.4906321760892925
-0.48686980803125124	0.48744906679557515
-0.48680877287500124	0.4842405138694381
-0.48674773771875124	0.4810066459515813
-0.48668670256250124	0.47774751263523213
-0.48662566740625124	0.4744632166706803
-0.48656463225000124	0.4711539977029961
-0.48650359709375124	0.46782015660976783
-0.48644256193750124	0.4644618924665226
-0.48638152678125124	0.4610793028401509
-0.48632049162500124	0.4576725003665451
-0.48625945646875124	0.4542416709123896
-0.48619842131250124	0.4507870296135236
-0.48613738615625124	0.44730871808770656
-0.48607635100000124	0.44380683696191875
-0.48601531584375124	0.4402815608385868
-0.48595428068750124	0.4367331049760712
-0.48589324553125124	0.43316162779812706
-0.48583221037500124	0.4295672283716755
-0.48577117521875124	0.425950042968144
-0.48571014006250124	0.422310316259809
-0.48564910490625124	0.41864831403876157
-0.48558806975000124	0.414964199079679
-0.48552703459375124	0.41125805730245496
-0.48546599943750124	0.40753000400478634
-0.48540496428125124	0.4037802466180811
-0.48534392912500124	0.40000907699050325
-0.48528289396875124	0.39621677158820084
-0.48522185881250124	0.3924035002634937
-0.48516082365625124	0.3885693667995567
-0.48509978850000124	0.3847145183338431
-0.48503875334375124	0.38083918450784116
-0.48497771818750124	0.3769436062786263
-0.48491668303125124	0.37302797602556076
-0.48485564787500124	0.36909245602137797
-0.48479461271875124	0.3651372155362719
-0.48473357756250124	0.36116245801223745
-0.48467254240625124	0.35716840642654973
-0.48461150725000124	0.3531552482048318
-0.48455047209375124	0.34912312362980236
-0.48448943693750124	0.345072202947514
-0.48442840178125124	0.34100272110962415
-0.48436736662500124	0.336914901295266
-0.48430633146875124	0.33280894264575134
-0.48424529631250124	0.32868505799745035
-0.48418426115625124	0.3245434553597355
-0.48412322600000124	0.32038431504264264
-0.48406219084375124	0.3162077926478319
-0.48400115568750124	0.3120140948319027
-0.48394012053125124	0.30780350636912107
-0.48387908537500124	0.3035762878507117
-0.48381805021875124	0.29933263211249034
-0.48375701506250124	0.29507271229753257
-0.48369597990625124	0.2907967305352067
-0.48363494475000124	0.2865048888890175
-0.48357390959375124	0.28219735464438617
-0.48351287443750124	0.2778743483976322
-0.48345183928125124	0.2735361649140237
-0.48339080412500124	0.2691830507833746
-0.48332976896875124	0.26481515904232844
-0.48326873381250124	0.260432652166317
-0.48320769865625124	0.2560357789499289
-0.48314666350000124	0.2516248031660996
-0.48308562834375124	0.24719996830160845
-0.48302459318750124	0.24276152538827153
-0.48296355803125124	0.2383096725604223
-0.48290252287500124	0.23384456380392593
-0.48284148771875124	0.22936640963082122
-0.48278045256250124	0.22487543514950994
-0.48271941740625124	0.22037180875467782
-0.48265838225000124	0.21585573955851645
-0.48259734709375124	0.21132754334575646
-0.48253631193750124	0.20678754268713187
-0.48247527678125124	0.20223595614781786
-0.48241424162500124	0.19767293808659786
-0.48235320646875124	0.19309871013972907
-0.48229217131250124	0.1885135387904992
-0.48223113615625124	0.18391763140759898
-0.48217010100000124	0.1793111675372076
-0.48210906584375124	0.174694368912782
-0.48204803068750124	0.17006747904272282
-0.48198699553125124	0.16543073064717942
-0.48192596037500124	0.16078437721156633
-0.48186492521875124	0.15612868575224093
-0.48180389006250124	0.15146388006851505
-0.48174285490625124	0.14679017080894483
-0.48168181975000124	0.1421078228531665
-0.48162078459375124	0.13741711847661559
-0.48155974943750124	0.13271828895440038
-0.48149871428125124	0.12801153436505078
-0.48143767912500124	0.12329707194255292
-0.48137664396875124	0.11857515431480636
-0.48131560881250124	0.11384604868206588
-0.48125457365625124	0.10910998005969806
-0.48119353850000124	0.1043671154812608
-0.48113250334375124	0.09961762670281206
-0.48107146818750124	0.09486176281214177
-0.48101043303125124	0.09009983979679335
-0.48094939787500124	0.08533215665171959
-0.48088836271875124	0.08055895684313202
-0.48082732756250124	0.07578047234557021
-0.48076629240625124	0.0709969537361501
-0.48070525725000124	0.06620864939601723
-0.48064422209375124	0.06141579224151163
-0.48058318693750124	0.05661860180314421
-0.48052215178125124	0.05181729052287292
-0.48046111662500124	0.04701209418536372
-0.48040008146875124	0.04220328825133478
-0.48033904631250124	0.037391148995070116
-0.48027801115625124	0.03257592481699532
-0.48021697600000124	0.02775783491891254
-0.48015594084375124	0.02293708251183498
-0.48009490568750124	0.018113914173385072
-0.48003387053125124	0.013288594404561021
-0.47997283537500124	0.008461334049881858
-0.47991180021875124	0.0036323778192702315
-0.47985076506250124	-0.001197946115380026
-0.47978972990625124	-0.006029346029725979
-0.47972869475000124	-0.010861637472537093
-0.47966765959375124	-0.015694656339731796
-0.47960662443750124	-0.0205281459656133
-0.47954558928125124	-0.025361809981688528
-0.47948455412500124	-0.03019540906868421
-0.47942351896875124	-0.03502871644053249
-0.47936248381250124	-0.039861468882143446
-0.47930144865625124	-0.044693384358156854
-0.47924041350000124	-0.04952418557961464
-0.47917937834375124	-0.05435363870588636
-0.47911834318750124	-0.05918156304428394
-0.47905730803125124	-0.06400774577138055
-0.47899627287500124	-0.06883186535059328
-0.47893523771875124	-0.07365360131674517
-0.47887420256250124	-0.07847277150311324
-0.47881316740625124	-0.08328921565636654
-0.47875213225000124	-0.08810264787153745
-0.47869109709375124	-0.0929127493285985
-0.47863006193750124	-0.0977192854560516
-0.47856902678125124	-0.10252206433392576
-0.47850799162500124	-0.10732084762922563
-0.47844695646875124	-0.11211536983885624
-0.47838592131250124	-0.11690540606840923
-0.47832488615625124	-0.1216907058527433
-0.47826385100000124	-0.1264709626612704
-0.47820281584375124	-0.13124593256841363
-0.47814178068750124	-0.13601541466519607
-0.47808074553125124	-0.14077914239253914
-0.47801971037500124	-0.14553684222068108
-0.47795867521875124	-0.15028828668053942
-0.47789764006250124	-0.15503324566154733
-0.47783660490625124	-0.15977148712390407
-0.47777556975000124	-0.16450276597476454
-0.47771453459375124	-0.1692268123377224
-0.47765349943750124	-0.1739433914995525
-0.47759246428125124	-0.17865229852490033
-0.47753142912500124	-0.18335330587447005
-0.47747039396875124	-0.18804617532773882
-0.47740935881250124	-0.19273066454631377
-0.47734832365625124	-0.19740650664041015
-0.47728728850000124	-0.20207342272876788
-0.47722625334375124	-0.20673114080231297
-0.47716521818750124	-0.21137942711643035
-0.47710418303125124	-0.21601809476596162
-0.47704314787500124	-0.22064690842818094
-0.47698211271875124	-0.2252655667283255
-0.47692107756250124	-0.22987380495243906
-0.47686004240625124	-0.23447139852161378
-0.47679900725000124	-0.23905813249052799
-0.47673797209375124	-0.24363381621801689
-0.47667693693750124	-0.24819825236488266
-0.47661590178125124	-0.2527511831433626
-0.47655486662500124	-0.25729230350666293
-0.47649383146875124	-0.2618213493691553
-0.47643279631250124	-0.26633811308684907
-0.47637176115625124	-0.2708423801930679
-0.47631072600000124	-0.27533391679339153
-0.47624969084375124	-0.2798124907091268
-0.47618865568750124	-0.2842778903310983
-0.47612762053125124	-0.28872990273896176
-0.47606658537500124	-0.29316829123934574
-0.47600555021875124	-0.2975927965139458
-0.47594451506250124	-0.30200313667125295
-0.47588347990625124	-0.3063990857420195
-0.47582244475000124	-0.3107804685961445
-0.47576140959375124	-0.315147035201436
-0.47570037443750124	-0.3194985116664522
-0.47563933928125124	-0.32383469712001534
-0.47557830412500124	-0.3281553906830248
-0.47551726896875124	-0.3324603485850498
-0.47545623381250124	-0.33674934387741867
-0.47539519865625124	-0.3410221797552732
-0.47533416350000124	-0.3452786589700576
-0.47527312834375124	-0.3495185655454134
-0.47521209318750124	-0.3537416521384879
-0.47515105803125124	-0.3579476658135144
-0.47509002287500124	-0.3621363922003851
-0.47502898771875124	-0.3663076174461093
-0.47496795256250124	-0.37046107207875884
-0.47490691740625124	-0.37459650889552654
-0.47484588225000124	-0.3787137723787859
-0.47478484709375124	-0.3828127101519447
-0.47472381193750124	-0.3868930910613491
-0.47466277678125124	-0.3909546537732991
-0.47460174162500124	-0.3949971820083316
-0.47454070646875124	-0.3990204782318568
-0.47447967131250124	-0.4030243097803994
-0.47441863615625124	-0.4070084271153729
-0.47435760100000124	-0.41097259740512765
-0.47429656584375124	-0.4149166389420906
-0.47423553068750124	-0.418840420644577
-0.47417449553125124	-0.42274377013495257
-0.47411346037500124	-0.42662643318173027
-0.47405242521875124	-0.43048815259285766
-0.47399139006250124	-0.43432872372260534
-0.47393035490625124	-0.4381479730722131
-0.47386931975000124	-0.4419457189395899
-0.47380828459375124	-0.44572175584974183
-0.47374724943750124	-0.4494758666025318
-0.47368621428125124	-0.45320784020346133
-0.47362517912500124	-0.4569174819663437
-0.47356414396875124	-0.460604615481308
-0.47350310881250124	-0.4642690541197674
-0.47344207365625124	-0.46791057575881484
-0.47338103850000124	-0.4715289545564183
-0.47332000334375124	-0.475123996355975
-0.47325896818750124	-0.4786955319830291
-0.47319793303125124	-0.4822433846675705
-0.47313689787500124	-0.48576735790392594
-0.47307586271875124	-0.48926725821410527
-0.47301482756250124	-0.4927429032121059
-0.47295379240625124	-0.496194099252317
-0.47289275725000124	-0.4996206295456478
-0.47283172209375124	-0.5030222971252097
-0.47277068693750124	-0.5063989575321829
-0.47270965178125124	-0.5097504654797121
-0.47264861662500124	-0.5130766248477292
-0.47258758146875124	-0.5163772224340285
-0.47252654631250124	-0.5196520772341803
-0.47246551115625124	-0.5229010229740716
-0.47240447600000124	-0.5261238806612499
-0.47234344084375124	-0.5293204938834131
-0.47228240568750124	-0.5324907343911789
-0.47222137053125124	-0.5356344356141325
-0.47216033537500124	-0.5387513847205484
-0.47209930021875124	-0.5418413953817787
-0.47203826506250124	-0.5449043269936311
-0.47197722990625124	-0.5479400289009284
-0.47191619475000124	-0.5509483146261513
-0.47185515959375124	-0.5539289960061679
-0.47179412443750124	-0.5568819146294691
-0.47173308928125124	-0.5598069328912638
-0.47167205412500124	-0.5627039161256225
-0.47161101896875124	-0.5655727091212656
-0.47154998381250124	-0.568413115455177
-0.47148894865625124	-0.5712249368315164
-0.47142791350000124	-0.5740080155305977
-0.47136687834375124	-0.5767622143098509
-0.47130584318750124	-0.579487396509278
-0.47124480803125124	-0.5821834302814851
-0.47118377287500124	-0.5848501748520618
-0.47112273771875124	-0.5874874670798084
-0.47106170256250124	-0.590095137913026
-0.47100066740625124	-0.5926730419067568
-0.47093963225000124	-0.5952210701838319
-0.47087859709375124	-0.5977391100715248
-0.47081756193750124	-0.6002270067747129
-0.47075652678125124	-0.6026846023157149
-0.47069549162500124	-0.6051117677325638
-0.47063445646875124	-0.6075083677299433
-0.47057342131250124	-0.6098742582326419
-0.47051238615625124	-0.6122093203981285
-0.47045135100000124	-0.6145134363150174
-0.47039031584375124	-0.616786468003958
-0.47032928068750124	-0.6190282819181956
-0.47026824553125124	-0.6212387545441638
-0.47020721037500124	-0.6234177607473463
-0.47014617521875124	-0.6255651738633563
-0.47008514006250124	-0.6276808764474869
