Time	Frequency
-0.5000076257187516	4.016576511871953e-22
-0.49994659056250157	4.003222722125585e-22
-0.49988555540625157	3.9896637551257936e-22
-0.49982452025000157	3.975905528358042e-22
-0.49976348509375157	3.9619625315908626e-22
-0.49970244993750157	3.9478531729019115e-22
-0.49964141478125157	3.933593952903263e-22
-0.49958037962500157	3.9191943489493e-22
-0.49951934446875157	3.904653998025855e-22
-0.49945830931250157	3.889963079969853e-22
-0.49939727415625157	3.8751057795978765e-22
-0.49933623900000157	3.8600657020244183e-22
-0.49927520384375157	3.8448314375556995e-22
-0.49921416868750157	3.8294004026812033e-22
-0.49915313353125157	3.8137797536940206e-22
-0.49909209837500157	3.797984166859336e-22
-0.49903106321875157	3.78203121117829e-22
-0.49897002806250157	3.765935806268324e-22
-0.49890899290625157	3.7497055900792035e-22
-0.49884795775000157	3.733338725918394e-22
-0.49878692259375157	3.716824841346335e-22
-0.49872588743750157	3.7001486988927214e-22
-0.49866485228125157	3.6832953503019895e-22
-0.49860381712500157	3.6662551381993143e-22
-0.49854278196875157	3.6490269640208156e-22
-0.49848174681250157	3.63161878035447e-22
-0.49842071165625157	3.6140451605904776e-22
-0.49835967650000157	3.5963227632161064e-22
-0.49829864134375157	3.578465197093498e-22
-0.49823760618750157	3.5604789640846117e-22
-0.49817657103125157	3.542361732695198e-22
-0.49811553587500157	3.524103409718352e-22
-0.49805450071875157	3.5056896826605143e-22
-0.49799346556250157	3.487106904431271e-22
-0.49793243040625157	3.4683466595357544e-22
-0.49787139525000157	3.44940852511578e-22
-0.49781036009375157	3.43030022945095e-22
-0.49774932493750157	3.4110352558137185e-22
-0.49768828978125157	3.3916287011446585e-22
-0.49762725462500157	3.3720927417094746e-22
-0.49756621946875157	3.3524331838060596e-22
-0.49750518431250157	3.3326481240912246e-22
-0.49744414915625157	3.3127290390677937e-22
-0.49738311400000157	3.29266392713762e-22
-0.49732207884375157	3.2724414301494267e-22
-0.49726104368750157	3.252054558868146e-22
-0.49720000853125157	3.2315029307062204e-22
-0.49713897337500157	3.210792900686237e-22
-0.49707793821875157	3.189935563292163e-22
-0.49701690306250157	3.168943318218221e-22
-0.49695586790625157	3.1478261961328054e-22
-0.49689483275000157	3.1265891632520536e-22
-0.49683379759375157	3.105231167770979e-22
-0.49677276243750157	3.083746093666454e-22
-0.49671172728125157	3.062125227392138e-22
-0.49665069212500157	3.040360389485304e-22
-0.49658965696875157	3.01844670588564e-22
-0.49652862181250157	2.9963841470999497e-22
-0.49646758665625157	2.974177437972671e-22
-0.49640655150000157	2.951834517474762e-22
-0.49634551634375157	2.929364107356811e-22
-0.49628448118750157	2.9067731616380253e-22
-0.49622344603125157	2.88406507213432e-22
-0.49616241087500157	2.861239227165498e-22
-0.49610137571875157	2.838291898978136e-22
-0.49604034056250157	2.8152180164638493e-22
-0.49597930540625157	2.792013237853539e-22
-0.49591827025000157	2.7686756306893673e-22
-0.49585723509375157	2.7452064041172844e-22
-0.49579619993750157	2.72160951273716e-22
-0.49573516478125157	2.697890316178609e-22
-0.49567412962500157	2.6740538499500495e-22
-0.49561309446875157	2.6501034370280796e-22
-0.49555205931250157	2.626040117044432e-22
-0.49549102415625157	2.6018629231321483e-22
-0.49542998900000157	2.5775697868114667e-22
-0.49536895384375157	2.5531587655740604e-22
-0.49530791868750157	2.528629169085498e-22
-0.49524688353125157	2.5039821632159422e-22
-0.49518584837500157	2.479220609246234e-22
-0.49512481321875157	2.4543482005349997e-22
-0.49506377806250157	2.4293683283394346e-22
-0.49500274290625157	2.404283197220492e-22
-0.49494170775000157	2.379093429490417e-22
-0.49488067259375157	2.353798179449541e-22
-0.49481963743750157	2.328395794290025e-22
-0.49475860228125157	2.3028848967524715e-22
-0.49469756712500157	2.2772654292055043e-22
-0.49463653196875157	2.2515391490035034e-22
-0.49457549681250157	2.225709375778219e-22
-0.49451446165625157	2.199780182877828e-22
-0.49445342650000157	2.1737553442645974e-22
-0.49439239134375157	2.1476373185519805e-22
-0.49433135618750157	2.121426633210079e-22
-0.49427032103125157	2.0951219733746055e-22
-0.49420928587500157	2.0687209493050297e-22
-0.49414825071875157	2.0422212526751769e-22
-0.49408721556250157	2.0156218875701038e-22
-0.49402618040625157	1.988924070948658e-22
-0.49396514525000157	1.9621313513120325e-22
-0.49390411009375157	1.9352488330231312e-22
-0.49384307493750157	1.908281835706516e-22
-0.49378203978125157	1.8812345466902541e-22
-0.49372100462500157	1.8541090809923578e-22
-0.49365996946875157	1.826905094841634e-22
-0.49359893431250157	1.7996201042685043e-22
-0.49353789915625157	1.7722505517408008e-22
-0.49347686400000157	1.7447932543301168e-22
-0.49341582884375157	1.717246714769705e-22
-0.49335479368750157	1.6896118937450982e-22
-0.49329375853125157	1.6618921975109044e-22
-0.49323272337500157	1.6340927704486174e-22
-0.49317168821875157	1.6062193766699701e-22
-0.49311065306250157	1.5782771303656716e-22
-0.49304961790625157	1.5502693716798942e-22
-0.49298858275000157	1.522196987590454e-22
-0.49292754759375157	1.4940584521404465e-22
-0.49286651243750157	1.4658506667169119e-22
-0.49280547728125157	1.4375703505282725e-22
-0.49274444212500157	1.4092155119842747e-22
-0.49268340696875157	1.3807864676455183e-22
-0.49262237181250157	1.352286078071557e-22
-0.49256133665625157	1.3237191536449055e-22
-0.49250030150000157	1.295091228785085e-22
-0.49243926634375157	1.266407165947108e-22
-0.49237823118750157	1.2376700156836502e-22
-0.49231719603125157	1.208880386906424e-22
-0.49225616087500157	1.1800366208602862e-22
-0.49219512571875157	1.151135794569161e-22
-0.49213409056250157	1.1221751075856837e-22
-0.49207305540625157	1.0931532182758032e-22
-0.49201202025000157	1.0640711829149108e-22
-0.49195098509375157	1.0349325622775403e-22
-0.49188994993750157	1.0057425552859099e-22
-0.49182891478125157	9.765065982198202e-23
-0.49176787962500157	9.472290197906547e-23
-0.49170684446875157	9.179120894869057e-23
-0.49164580931250157	8.885556746848057e-23
-0.49158477415625157	8.591576577280041e-23
-0.49152373900000157	8.297150234024183e-23
-0.49146270384375157	8.002252620536805e-23
-0.49140166868750157	7.70687624294319e-23
-0.49134063353125157	7.411037865399479e-23
-0.49127959837500157	7.114776750130611e-23
-0.49121856321875157	6.818145668510688e-23
-0.49115752806250157	6.521197788443667e-23
-0.49109649290625157	6.223973078978459e-23
-0.49103545775000157	5.926489242747341e-23
-0.49097442259375157	5.628740312784922e-23
-0.49091338743750157	5.330702613448824e-23
-0.49085235228125157	5.032346744799153e-23
-0.49079131712500157	4.733651937997337e-23
-0.49073028196875157	4.4346171388470054e-23
-0.49066924681250157	4.1352653886336727e-23
-0.49060821165625157	3.8356406219050294e-23
-0.49054717650000157	3.5357973120279934e-23
-0.49048614134375157	3.235786241671483e-23
-0.49042510618750157	2.9356420699248926e-23
-0.49036407103125157	2.635376796091807e-23
-0.49030303587500157	2.334980353577177e-23
-0.49024200071875157	2.0344282229869672e-23
-0.49018096556250157	1.7336938461252055e-23
-0.49011993040625157	1.4327611642397442e-23
-0.49005889525000157	1.1316335361021119e-23
-0.48999786009375157	8.303372927165935e-24
-0.48993682493750157	5.2891792191894846e-24
-0.48987578978125157	2.2742875319781488e-24
-0.48981475462500157	-7.408298265741094e-25
-0.48975371946875157	-3.755868082511867e-24
-0.48969268431250157	-6.770740749722282e-24
-0.48963164915625157	-9.785566325627325e-24
-0.48957061400000157	-1.2800583570720033e-23
-0.48950957884375157	-1.5816023602819726e-23
-0.48944854368750157	-1.883199119489594e-23
-0.48938750853125157	-2.1848390549595734e-23
-0.48932647337500157	-2.486491784344861e-23
-0.48926543821875157	-2.788112614117962e-23
-0.48920440306250157	-3.0896537213725916e-23
-0.48914336790625157	-3.391075818809029e-23
-0.48908233275000157	-3.6923562258455066e-23
-0.48902129759375157	-3.99349126760504e-23
-0.48896026243750157	-4.294492899029348e-23
-0.48889922728125157	-4.5953801792466955e-23
-0.48883819212500157	-4.896168218329576e-23
-0.48877715696875157	-5.196858596333792e-23
-0.48871612181250157	-5.497434341421115e-23
-0.48865508665625157	-5.797861678545658e-23
-0.48859405150000157	-6.098098161430595e-23
-0.48853301634375157	-6.398103170148607e-23
-0.48847198118750157	-6.697846941261597e-23
-0.48841094603125157	-6.997315932443337e-23
-0.48834991087500157	-7.296512799856678e-23
-0.48828887571875157	-7.59545085900866e-23
-0.48822784056250157	-7.894145169938071e-23
-0.48816680540625157	-8.192603240570112e-23
-0.48810577025000157	-8.490817797823952e-23
-0.48804473509375157	-8.788764155722835e-23
-0.48798369993750157	-9.086404186196472e-23
-0.48792266478125157	-9.3836953691356e-23
-0.48786162962500157	-9.680601089522748e-23
-0.48780059446875157	-9.977098852882478e-23
-0.48773955931250157	-1.0273183645239449e-22
-0.48767852415625157	-1.0568865400582885e-22
-0.48761748900000157	-1.0864161508222937e-22
-0.48755645384375157	-1.1159086460245167e-22
-0.48749541868750157	-1.1453642150602612e-22
-0.48743438353125157	-1.1747812554129577e-22
-0.48737334837500157	-1.2041564861203878e-22
-0.48731231321875157	-1.2334856100772845e-22
-0.48725127806250157	-1.2627642583091119e-22
-0.48719024290625157	-1.2919890061128246e-22
-0.48712920775000157	-1.3211581710075223e-22
-0.48706817259375157	-1.3502720318431238e-22
-0.48700713743750157	-1.3793323291358536e-22
-0.48694610228125157	-1.4083412103038891e-22
-0.48688506712500157	-1.4373000287804046e-22
-0.48682403196875157	-1.4662084707943277e-22
-0.48676299681250157	-1.4950642700349842e-22
-0.48670196165625157	-1.5238635170538962e-22
-0.48664092650000157	-1.5526014615170327e-22
-0.48657989134375157	-1.5812736151190593e-22
-0.48651885618750157	-1.6098768448657722e-22
-0.48645782103125157	-1.6384100823808929e-22
-0.48639678587500157	-1.666874330832056e-22
-0.48633575071875157	-1.6952719308622287e-22
-0.48627471556250157	-1.723605374131121e-22
-0.48621368040625157	-1.7518760552447334e-22
-0.48615264525000157	-1.780083340814592e-22
-0.48609161009375157	-1.8082243028626271e-22
-0.48603057493750157	-1.8362942544741866e-22
-0.48596953978125157	-1.864287869981126e-22
-0.48590850462500157	-1.8922005005731491e-22
-0.48584746946875157	-1.9200293326625298e-22
-0.48578643431250157	-1.9477740099671798e-22
-0.48572539915625157	-1.9754364257939315e-22
-0.48566436400000157	-2.003019714372676e-22
-0.48560332884375157	-2.0305267908401825e-22
-0.48554229368750157	-2.0579589857966252e-22
-0.48548125853125157	-2.0853151957879592e-22
-0.48542022337500157	-2.1125917327171253e-22
-0.48535918821875157	-2.139783019609389e-22
-0.48529815306250157	-2.1668830143102776e-22
-0.48523711790625157	-2.193886820457956e-22
-0.48517608275000157	-2.2207919523746165e-22
-0.48511504759375157	-2.2475988686998056e-22
-0.48505401243750157	-2.274310518783911e-22
-0.48499297728125157	-2.3009310125811065e-22
-0.48493194212500157	-2.327463865611579e-22
-0.48487090696875157	-2.3539104299494494e-22
-0.48480987181250157	-2.3802690213053887e-22
-0.48474883665625157	-2.4065349844307245e-22
-0.48468780150000157	-2.432701757731414e-22
-0.48462676634375157	-2.4587626417284305e-22
-0.48456573118750157	-2.484712630870785e-22
-0.48450469603125157	-2.510549723299923e-22
-0.48444366087500157	-2.5362752910573247e-22
-0.48438262571875157	-2.56189331185609e-22
-0.48432159056250157	-2.5874086813120983e-22
-0.48426055540625157	-2.6128251963380647e-22
-0.48419952025000157	-2.6381438830661775e-22
-0.48413848509375157	-2.6633621867246933e-22
-0.48407744993750157	-2.6884743451848633e-22
-0.48401641478125157	-2.7134729571218293e-22
-0.48395537962500157	-2.7383511924008306e-22
-0.48389434446875157	-2.7631047450028815e-22
-0.48383330931250157	-2.787732868436104e-22
-0.48377227415625157	-2.812238255692478e-22
-0.48371123900000157	-2.8366257884388975e-22
-0.48365020384375157	-2.8609004961938246e-22
-0.48358916868750157	-2.8850654337789367e-22
-0.48352813353125157	-2.9091202541949606e-22
-0.48346709837500157	-2.9330609538705854e-22
-0.48340606321875157	-2.9568808512775463e-22
-0.48334502806250157	-2.9805725147167417e-22
-0.48328399290625157	-3.004129984001125e-22
-0.48322295775000157	-3.027550453870404e-22
-0.48316192259375157	-3.05083488838167e-22
-0.48310088743750157	-3.0739873844723364e-22
-0.48303985228125157	-3.097013405130556e-22
-0.48297881712500157	-3.11991747944466e-22
-0.48291778196875157	-3.142701212702194e-22
-0.48285674681250157	-3.1653623220651487e-22
-0.48279571165625157	-3.18789507647796e-22
-0.48273467650000157	-3.2102919638261373e-22
-0.48267364134375157	-3.2325459538236593e-22
-0.48261260618750157	-3.2546525920372084e-22
-0.48255157103125157	-3.276611205158388e-22
-0.48249053587500157	-3.298424795233119e-22
-0.48242950071875157	-3.3200986680096635e-22
-0.48236846556250157	-3.3416382321608276e-22
-0.48230743040625157	-3.363046746302958e-22
-0.48224639525000157	-3.384323839045766e-22
-0.48218536009375157	-3.405465299120203e-22
-0.48212432493750157	-3.4264642204985172e-22
-0.48206328978125157	-3.447313098938015e-22
-0.48200225462500157	-3.468006108619779e-22
-0.48194121946875157	-3.4885407881998685e-22
-0.48188018431250157	-3.508918558240176e-22
-0.48181914915625157	-3.529143859999333e-22
-0.48175811400000157	-3.549222254134499e-22
-0.48169707884375157	-3.5691581676380774e-22
-0.48163604368750157	-3.588953021953548e-22
-0.48157500853125157	-3.608604405494533e-22
-0.48151397337500157	-3.628106620486036e-22
-0.48145293821875157	-3.647452381062586e-22
-0.48139190306250157	-3.6666350743140997e-22
-0.48133086790625157	-3.6856508260844186e-22
-0.48126983275000157	-3.7044995739020976e-22
-0.48120879759375157	-3.723184705387549e-22
-0.48114776243750157	-3.7417114772158477e-22
-0.48108672728125157	-3.760084851860745e-22
-0.48102569212500157	-3.778307450537472e-22
-0.48096465696875157	-3.7963782827226034e-22
-0.48090362181250157	-3.8142927537515327e-22
-0.48084258665625157	-3.8320440135665216e-22
-0.48078155150000157	-3.849625161165857e-22
-0.48072051634375157	-3.8670314843314375e-22
-0.48065948118750157	-3.88426190887235e-22
-0.48059844603125157	-3.9013191368824373e-22
-0.48053741087500157	-3.918208427049213e-22
-0.48047637571875157	-3.9349354289213373e-22
-0.48041534056250157	-3.9515038238227103e-22
-0.48035430540625157	-3.9679136085321995e-22
-0.48029327025000157	-3.984160671759056e-22
-0.48023223509375157	-4.000237893496254e-22
-0.48017119993750157	-4.016137408720608e-22
-0.48011016478125157	-4.0318532148485356e-22
-0.48004912962500157	-4.047383171447372e-22
-0.47998809446875157	-4.0627296605577287e-22
-0.47992705931250157	-4.0778986391361115e-22
-0.47986602415625157	-4.092897341429341e-22
-0.47980498900000157	-4.107731405620723e-22
-0.47974395384375157	-4.1224024939197133e-22
-0.47968291868750157	-4.1369072970627996e-22
-0.47962188353125157	-4.1512382788004643e-22
-0.47956084837500157	-4.165385945219193e-22
-0.47949981321875157	-4.179341929973751e-22
-0.47943877806250157	-4.193101802065674e-22
-0.47937774290625157	-4.2066665402746366e-22
-0.47931670775000157	-4.2200421299159626e-22
-0.47925567259375157	-4.233237390034803e-22
-0.47919463743750157	-4.246260750919255e-22
-0.47913360228125157	-4.259117074954428e-22
-0.47907256712500157	-4.27180561760004e-22
-0.47901153196875157	-4.284319890747304e-22
-0.47895049681250157	-4.296649536042771e-22
-0.47888946165625157	-4.308783590842458e-22
-0.47882842650000157	-4.320714045677083e-22
-0.47876739134375157	-4.332438464636573e-22
-0.47870635618750157	-4.343960740244577e-22
-0.47864532103125157	-4.355289700368477e-22
-0.47858428587500157	-4.366436019857414e-22
-0.47852325071875157	-4.377408467778322e-22
-0.47846221556250157	-4.388210746586316e-22
-0.47840118040625157	-4.398839990207375e-22
-0.47834014525000157	-4.409287450204203e-22
-0.47827911009375157	-4.419541166715561e-22
-0.47821807493750157	-4.429589742953866e-22
-0.47815703978125157	-4.439425956944217e-22
-0.47809600462500157	-4.44904899418274e-22
-0.47803496946875157	-4.458464558268206e-22
-0.47797393431250157	-4.467682839291967e-22
-0.47791289915625157	-4.476715029858038e-22
-0.47785186400000157	-4.485569539809731e-22
-0.47779082884375157	-4.49424915393759e-22
-0.47772979368750157	-4.502750061678976e-22
-0.47766875853125157	-4.511063045615969e-22
-0.47760772337500157	-4.519176393818793e-22
-0.47754668821875157	-4.527079550948288e-22
-0.47748565306250157	-4.534766309103868e-22
-0.47742461790625157	-4.542236517963636e-22
-0.47736358275000157	-4.549495800767387e-22
-0.47730254759375157	-4.556553438785621e-22
-0.47724151243750157	-4.5634191821049865e-22
-0.47718047728125157	-4.5701000537993e-22
-0.47711944212500157	-4.576598174096975e-22
-0.47705840696875157	-4.582910257724701e-22
-0.47699737181250157	-4.589028857264888e-22
-0.47693633665625157	-4.594944853874067e-22
-0.47687530150000157	-4.600650319115038e-22
-0.47681426634375157	-4.606140802090916e-22
-0.47675323118750157	-4.611416345206527e-22
-0.47669219603125157	-4.616480995038834e-22
-0.47663116087500157	-4.621341079866551e-22
-0.47657012571875157	-4.626002905854781e-22
-0.47650909056250157	-4.630470669328921e-22
-0.47644805540625157	-4.634745250240882e-22
-0.47638702025000157	-4.638824205702837e-22
-0.47632598509375157	-4.642702859823155e-22
-0.47626494993750157	-4.646376026144706e-22
-0.47620391478125157	-4.649839722490807e-22
-0.47614287962500157	-4.653092292673608e-22
-0.47608184446875157	-4.656134598989793e-22
-0.47602080931250157	-4.6589693058215455e-22
-0.47595977415625157	-4.661599605105093e-22
-0.47589873900000157	-4.664027902155615e-22
-0.47583770384375157	-4.666254939998347e-22
-0.47577666868750157	-4.668279653208543e-22
-0.47571563353125157	-4.670099758937512e-22
-0.47565459837500157	-4.671712791574028e-22
-0.47559356321875157	-4.673117126692553e-22
-0.47553252806250157	-4.674312583657951e-22
-0.47547149290625157	-4.675300384809389e-22
-0.47541045775000157	-4.676082509505689e-22
-0.47534942259375157	-4.67666072572113e-22
-0.47528838743750157	-4.677035716972254e-22
-0.47522735228125157	-4.67720668179008e-22
-0.47516631712500157	-4.677171569460738e-22
-0.47510528196875157	-4.676927854562107e-22
-0.47504424681250157	-4.67647355265645e-22
-0.47498321165625157	-4.675808071582764e-22
-0.47492217650000157	-4.674932541759837e-22
-0.47486114134375157	-4.673849470203953e-22
-0.47480010618750157	-4.672561831366278e-22
-0.47473907103125157	-4.6710719414259555e-22
-0.47467803587500157	-4.66938055302685e-22
-0.47461700071875157	-4.667486524708068e-22
-0.47455596556250157	-4.665387180783421e-22
-0.47449493040625157	-4.663079211006739e-22
-0.47443389525000157	-4.660559803337154e-22
-0.47437286009375157	-4.657827624883678e-22
-0.47431182493750157	-4.654883297026731e-22
-0.47425078978125157	-4.651729211254959e-22
-0.47418975462500157	-4.648368775939464e-22
-0.47412871946875157	-4.64480536309438e-22
-0.47406768431250157	-4.641041298203843e-22
-0.47400664915625157	-4.637077194645242e-22
-0.47394561400000157	-4.632911830652948e-22
-0.47388457884375157	-4.62854257521446e-22
-0.47382354368750157	-4.623966167108735e-22
-0.47376250853125157	-4.619179610383886e-22
-0.47370147337500157	-4.614181003491782e-22
-0.47364043821875157	-4.608970130271202e-22
-0.47357940306250157	-4.603548643733155e-22
-0.47351836790625157	-4.597919766155241e-22
-0.47345733275000157	-4.592087574079184e-22
-0.47339629759375157	-4.586056024375155e-22
-0.47333526243750157	-4.579827906486305e-22
-0.47327422728125157	-4.573403968654643e-22
-0.47321319212500157	-4.566782510914654e-22
-0.47315215696875157	-4.559959632284128e-22
-0.47309112181250157	-4.552930159055538e-22
-0.47303008665625157	-4.545689124192214e-22
-0.47296905150000157	-4.538233449448922e-22
-0.47290801634375157	-4.530563298008022e-22
-0.47284698118750157	-4.522682563797528e-22
-0.47278594603125157	-4.514598177367231e-22
-0.47272491087500157	-4.506318282341422e-22
-0.47266387571875157	-4.497849769055326e-22
-0.47260284056250157	-4.489195926303575e-22
-0.47254180540625157	-4.480354995257633e-22
-0.47248077025000157	-4.471320266862051e-22
-0.47241973509375157	-4.462081946053752e-22
-0.47235869993750157	-4.452630314815741e-22
