Time	Frequency
-0.5000305662500004	-0.49540349782116966
-0.4999695310937504	-0.49824267046982806
-0.4999084959375004	-0.50105816854053
-0.4998474607812504	-0.5038561847609202
-0.4997864256250004	-0.5066418437373076
-0.4997253904687504	-0.5094184000781182
-0.4996643553125004	-0.5121867561047909
-0.4996033201562504	-0.5149453634094465
-0.4995422850000004	-0.5176905076932934
-0.4994812498437504	-0.5204169221367703
-0.4994202146875004	-0.5231186284063253
-0.4993591795312504	-0.5257898690822274
-0.4992981443750004	-0.5284259805794177
-0.4992371092187504	-0.5310240696392309
-0.4991760740625004	-0.5335833950935045
-0.4991150389062504	-0.5361054064102058
-0.4990540037500004	-0.5385934409338963
-0.4989929685937504	-0.5410521326734332
-0.4989319334375004	-0.5434866349558455
-0.4988708982812504	-0.5459017880804079
-0.4988098631250004	-0.5483013601982049
-0.4987488279687504	-0.5506874732943454
-0.4986877928125004	-0.5530603027016601
-0.4986267576562504	-0.5554180893676425
-0.4985657225000004	-0.557757447345389
-0.4985046873437504	-0.5600739113407108
-0.4984436521875004	-0.5623626381521463
-0.4983826170312504	-0.5646191486891946
-0.4983215818750004	-0.5668399914799416
-0.4982605467187504	-0.5690232290622843
-0.4981995115625004	-0.5711686793004741
-0.4981384764062504	-0.5732778779460829
-0.4980774412500004	-0.5753537753740766
-0.4980164060937504	-0.5774002244317461
-0.4979553709375004	-0.5794213427594042
-0.4978943357812504	-0.5814208504079628
-0.4978333006250004	-0.5834014879607196
-0.4977722654687504	-0.5853646033522854
-0.4977112303125004	-0.5873099660148025
-0.4976501951562504	-0.5892358303529466
-0.4975891600000004	-0.5911392306185682
-0.4975281248437504	-0.5930164560427834
-0.4974670896875004	-0.5948636300450143
-0.4974060545312504	-0.596677300294316
-0.4973450193750004	-0.5984549472091356
-0.4972839842187504	-0.600195336252695
-0.4972229490625004	-0.6018986634897561
-0.4971619139062504	-0.6035664762754122
-0.4971008787500004	-0.6052013880960642
-0.4970398435937504	-0.6068066355239099
-0.4969788084375004	-0.6083855481368563
-0.4969177732812504	-0.6099410175779783
-0.4968567381250004	-0.6114750480523911
-0.4967957029687504	-0.6129884540745169
-0.4967346678125004	-0.614480749020525
-0.4966736326562504	-0.6159502365857028
-0.4966125975000004	-0.6173942855095451
-0.4965515623437504	-0.618809742426979
-0.4964905271875004	-0.6201934162452539
-0.4964294920312504	-0.6215425568981585
-0.4963684568750004	-0.622855255520784
-0.4963074217187504	-0.6241307071047032
-0.4962463865625004	-0.6253692984942384
-0.4961853514062504	-0.6265725119951525
-0.4961243162500004	-0.6277426638624662
-0.4960632810937504	-0.6288825222391107
-0.4960022459375004	-0.6299948660725503
-0.4959412107812504	-0.6310820541377966
-0.4958801756250004	-0.6321456702241229
-0.4958191404687504	-0.6331862963035694
-0.4957581053125004	-0.6342034435107979
-0.4956970701562504	-0.6351956463240912
-0.4956360350000004	-0.6361607017105422
-0.4955749998437504	-0.6370960128328401
-0.4955139646875004	-0.6379989809542241
-0.4954529295312504	-0.6388673845157116
-0.4953918943750004	-0.6396996887587113
-0.4953308592187504	-0.6404952411236688
-0.4952698240625004	-0.641254327203326
-0.4952087889062504	-0.6419780847591078
-0.4951477537500004	-0.6426682944825991
-0.4950867185937504	-0.6433270838401681
-0.4950256834375004	-0.6439565925155888
-0.4949646482812504	-0.644558652207307
-0.4949036131250004	-0.6451345285268033
-0.4948425779687504	-0.6456847606082001
-0.4947815428125004	-0.6462091177054771
-0.4947205076562504	-0.6467066732311518
-0.4946594725000004	-0.6471759784774337
-0.4945984373437504	-0.64761530378525
-0.4945374021875004	-0.6480229061617964
-0.4944763670312504	-0.6483972805182048
-0.4944153318750004	-0.6487373566442158
-0.4943542967187504	-0.6490426150443452
-0.4942932615625004	-0.649313109983511
-0.4942322264062504	-0.6495494035699276
-0.4941711912500004	-0.6497524277027293
-0.4941101560937504	-0.6499233015771755
-0.4940491209375004	-0.6500631386337014
-0.4939880857812504	-0.6501728754887801
-0.4939270506250004	-0.650253148839789
-0.4938660154687504	-0.6503042368509006
-0.4938049803125004	-0.6503260700887775
-0.4937439451562504	-0.6503183031658529
-0.4936829100000004	-0.6502804260663508
-0.4936218748437504	-0.6502118900263625
-0.4935608396875004	-0.6501122233108929
-0.4934998045312504	-0.6499811145910742
-0.4934387693750004	-0.6498184485206705
-0.4933777342187504	-0.6496242898304937
-0.4933166990625004	-0.6493988223209409
-0.4932556639062504	-0.6491422566835006
-0.4931946287500004	-0.648854731145927
-0.4931335935937504	-0.6485362302364507
-0.4930725584375004	-0.6481865391751717
-0.4930115232812504	-0.6478052480609697
-0.4929504881250004	-0.6473918116008599
-0.4928894529687504	-0.6469456536207427
-0.4928284178125004	-0.6464662969166747
-0.4927673826562504	-0.6459534957314864
-0.4927063475000004	-0.645407342729332
-0.4926453123437504	-0.644828324405889
-0.4925842771875004	-0.6442173087649391
-0.4925232420312504	-0.6435754588446847
-0.4924622068750004	-0.6429040802373177
-0.4924011717187504	-0.642204424877388
-0.4923401365625004	-0.6414774790771871
-0.4922791014062504	-0.6407237707341311
-0.4922180662500004	-0.639943235156344
-0.4921570310937504	-0.6391351675651461
-0.4920959959375004	-0.6382982723426938
-0.4920349607812504	-0.6374308086135974
-0.4919739256250004	-0.6365308208507853
-0.4919128904687504	-0.63559642470603
-0.4918518553125004	-0.634626104384569
-0.4917908201562504	-0.6336189756750124
-0.4917297850000004	-0.6325749712233902
-0.4916687498437504	-0.6314949124683517
-0.4916077146875004	-0.6303804491344859
-0.4915466795312504	-0.6292338676566911
-0.4914856443750004	-0.6280577926011761
-0.4914246092187504	-0.6268548241963614
-0.4913635740625004	-0.6256271641079345
-0.4913025389062504	-0.6243762831740076
-0.4912415037500004	-0.6231026820227535
-0.4911804685937504	-0.6218057859121693
-0.4911194334375004	-0.6204839947140882
-0.4910583982812504	-0.6191348862045363
-0.4909973631250004	-0.6177555492980342
-0.4909363279687504	-0.6163429991058607
-0.4908752928125004	-0.6148946121141592
-0.4908142576562504	-0.6134085208209086
-0.4907532225000004	-0.6118839109581058
-0.4906921873437504	-0.6103211739381712
-0.4906311521875004	-0.6087218847275412
-0.4905701170312504	-0.6070886029731383
-0.4905090818750004	-0.6054245276481961
-0.4904480467187504	-0.6037330563298473
-0.4903870115625004	-0.6020173111424555
-0.4903259764062504	-0.6002796977536199
-0.4902649412500004	-0.5985215609476106
-0.4902039060937504	-0.596742992928548
-0.4901428709375004	-0.5949428255715987
-0.4900818357812504	-0.5931188043912585
-0.4900208006250004	-0.5912679226908671
-0.4899597654687504	-0.5893868698155851
-0.4898987303125004	-0.5874725214162632
-0.4898376951562504	-0.5855224017214322
-0.4897766600000004	-0.5835350550207599
-0.4897156248437504	-0.5815102654259966
-0.4896545896875004	-0.5794490881186573
-0.4895935545312504	-0.5773536936365503
-0.4895325193750004	-0.575227054565979
-0.4894714842187504	-0.5730725201872107
-0.4894104490625004	-0.5708933387603291
-0.4893494139062504	-0.5686921958784665
-0.4892883787500004	-0.5664708371068674
-0.4892273435937504	-0.5642298360874219
-0.4891663084375004	-0.5619685446763202
-0.4891052732812504	-0.5596852277303558
-0.4890442381250004	-0.5573773598707874
-0.4889832029687504	-0.5550420371951276
-0.4889221678125004	-0.5526764365446782
-0.4888611326562504	-0.5502782520026822
-0.4888000975000004	-0.5478460439988694
-0.4887390623437504	-0.5453794484208889
-0.4886780271875004	-0.5428792191969228
-0.4886169920312504	-0.5403471046180699
-0.4885559568750004	-0.537785573865373
-0.4884949217187504	-0.5351974336751013
-0.4884338865625004	-0.5325854011073519
-0.4883728514062504	-0.5299517012282887
-0.4883118162500004	-0.5272977539057623
-0.4882507810937504	-0.5246239998833752
-0.4881897459375004	-0.5219298844182867
-0.4881287107812504	-0.519213996016259
-0.4880676756250004	-0.5164743388114635
-0.4880066404687504	-0.5137086898188151
-0.4879456053125004	-0.5109149802636267
-0.4878845701562504	-0.5080916407046953
-0.4878235350000004	-0.5052378558093847
-0.4877624998437504	-0.502353690119256
-0.4877014646875004	-0.49944006649736344
-0.4876404295312504	-0.4964986066587639
-0.4875793943750004	-0.4935313665455367
-0.4875183592187504	-0.49054050693605217
-0.4874573240625004	-0.4875279525310894
-0.4873962889062504	-0.4844951031368398
-0.4873352537500004	-0.48144264308017337
-0.4872742185937504	-0.4783704699434111
-0.4872131834375004	-0.47527775241176184
-0.4871521482812504	-0.47216311103632186
-0.4870911131250004	-0.46902488556400623
-0.4870300779687504	-0.46586143880418845
-0.4869690428125004	-0.46267145376957747
-0.4869080076562504	-0.45945417904927427
-0.4868469725000004	-0.4562095760400218
-0.4867859373437504	-0.45293834051094733
-0.4867249021875004	-0.449641802252267
-0.4866638670312504	-0.4463217286275613
-0.4866028318750004	-0.44298005996627265
-0.4865417967187504	-0.4396186109364489
-0.4864807615625004	-0.4362387902427112
-0.4864197264062504	-0.43284139171951597
-0.4863586912500004	-0.42942649304440744
-0.4862976560937504	-0.42599347709928165
-0.4862366209375004	-0.42254116311855294
-0.4861755857812504	-0.4190680185234418
-0.4861145506250004	-0.4155724267935937
-0.4860535154687504	-0.4120529807053893
-0.4859924803125004	-0.40850874500311635
-0.4859314451562504	-0.40493943054470316
-0.4858704100000004	-0.401345454760889
-0.4858093748437504	-0.39772789234981437
-0.4857483396875004	-0.3940883314261976
-0.4856873045312504	-0.3904286509102909
-0.4856262693750004	-0.3867507420629767
-0.4855652342187504	-0.38305622418717317
-0.4855041990625004	-0.37934621304202015
-0.4854431639062504	-0.37562117539745793
-0.4853821287500004	-0.3718808863782638
-0.4853210935937504	-0.3681244984247864
-0.4852600584375004	-0.3643507130116889
-0.4851990232812504	-0.360558026458463
-0.4851379881250004	-0.3567450041471417
-0.4850769529687504	-0.3529105378161045
-0.4850159178125004	-0.34905405205135237
-0.4849548826562504	-0.3451756262653224
-0.4848938475000004	-0.3412760081355597
-0.4848328123437504	-0.3373565174812793
-0.4847717771875004	-0.33341885673844407
-0.4847107420312504	-0.3294648591614141
-0.4846497068750004	-0.3254962176938932
-0.4845886717187504	-0.3215142419966755
-0.4845276365625004	-0.317519680855701
-0.4844666014062504	-0.31351263024574333
-0.4844055662500004	-0.3094925462011028
-0.4843445310937504	-0.30545836892527944
-0.4842834959375004	-0.3014087305364291
-0.4842224607812504	-0.2973422105452736
-0.4841614256250004	-0.29325760160722325
-0.4841003904687504	-0.28915413535383083
-0.4840393553125004	-0.2850316329378312
-0.4839783201562504	-0.2808905662937611
-0.4839172850000004	-0.2767320206189943
-0.4838562498437504	-0.2725575525237996
-0.4837952146875004	-0.268368959695543
-0.4837341795312504	-0.26416801299823084
-0.4836731443750004	-0.2599562037639401
-0.4836121092187504	-0.255734536027228
-0.4835510740625004	-0.2515033946442845
-0.4834900389062504	-0.24726251802331842
-0.4834290037500004	-0.2430110742855799
-0.4833679685937504	-0.2387478253110511
-0.4833069334375004	-0.2344713614526026
-0.4832458982812504	-0.23018036680699575
-0.4831848631250004	-0.22587386174002347
-0.4831238279687504	-0.22155138772609553
-0.4830627928125004	-0.21721311502588472
-0.4830017576562504	-0.21285985462959847
-0.4829407225000004	-0.20849296612383258
-0.4828796873437504	-0.2041141720580244
-0.4828186521875004	-0.19972530858234008
-0.4827576170312504	-0.1953280616753713
-0.4826965818750004	-0.19092373547781377
-0.4826355467187504	-0.18651308007958442
-0.4825745115625004	-0.182096204284735
-0.4825134764062504	-0.1776725941839952
-0.4824524412500004	-0.1732412294031611
-0.4823914060937504	-0.1688007721708604
-0.4823303709375004	-0.16434981074942356
-0.4822693357812504	-0.15988712583669384
-0.4822083006250004	-0.15541192249875296
-0.4821472654687504	-0.1509239838460546
-0.4820862303125004	-0.14642373478606616
-0.4820251951562504	-0.1419122098825694
-0.4819641600000004	-0.13739092624821905
-0.4819031248437504	-0.1328616807195176
-0.4818420896875004	-0.12832630052946456
-0.4817810545312504	-0.12378638545285903
-0.4817200193750004	-0.1192430866553075
-0.4816589842187504	-0.114696963170929
-0.4815979490625004	-0.1101479353426291
-0.4815369139062504	-0.10559533352183428
-0.4814758787500004	-0.10103803696914453
-0.4814148435937504	-0.0964746859894055
-0.4813538084375004	-0.0919039302942413
-0.4812927732812504	-0.08732467287151859
-0.4812317381250004	-0.08273627024041748
-0.4811707029687504	-0.07813866102997996
-0.4811096678125004	-0.07353240841329538
-0.4810486326562504	-0.06891864354108718
-0.4809875975000004	-0.0642989202008134
-0.4809265623437504	-0.059675011110978615
-0.4808655271875004	-0.055048669511439746
-0.4808044920312504	-0.05042138986409984
-0.4807434568750004	-0.04579421292677053
-0.4806824217187504	-0.04116760906040188
-0.4806213865625004	-0.03654145506570521
-0.4805603514062504	-0.03191509882806675
-0.4804993162500004	-0.027287493665525294
-0.4804382810937504	-0.022657385886000234
-0.4803772459375004	-0.018023537020160532
-0.4803162107812504	-0.013384951054857068
-0.4802551756250004	-0.008741063099683045
-0.4801941404687504	-0.004091848041959508
-0.4801331053125004	0.0005621574805254294
-0.4800720701562504	0.005219907784237
-0.4800110350000004	0.009879976069334582
-0.4799499998437504	0.01454074438269856
-0.4798889646875004	0.0192006172527167
-0.4798279295312504	0.023858224858163777
-0.4797668943750004	0.028512588630592844
-0.4797058592187504	0.03316322273836013
-0.4796448240625004	0.037810159713998696
-0.4795837889062504	0.042453899699882496
-0.4795227537500004	0.04709529190021812
-0.4794617185937504	0.0517353708659166
-0.4794006834375004	0.056375167280504714
-0.4793396482812504	0.06101551898503568
-0.4792786131250004	0.06565691882474585
-0.4792175779687504	0.07029941980461973
-0.4791565428125004	0.07494260374285772
-0.4790955076562504	0.07958561606646365
-0.4790344725000004	0.0842272652761474
-0.4789734373437504	0.08886617702724968
-0.4789124021875004	0.09350097351915983
-0.4788513670312504	0.09813044278718393
-0.4787903318750004	0.10275367827093268
-0.4787292967187504	0.10737017182778723
-0.4786682615625004	0.11197984247490755
-0.4786072264062504	0.11658300542412103
-0.4785461912500004	0.12118029047610185
-0.4784851560937504	0.12577250741108317
-0.4784241209375004	0.13036047777871757
-0.4783630857812504	0.13494487326941154
-0.4783020506250004	0.13952608636381741
-0.4782410154687504	0.14410414733631222
-0.4781799803125004	0.14867870117665752
-0.4781189451562504	0.15324904043462673
-0.4780579100000004	0.15781418050998913
-0.4779968748437504	0.16237297594101685
-0.4779358396875004	0.166924266145779
-0.4778748045312504	0.17146702284695994
-0.4778137693750004	0.17600047545656858
-0.4777527342187504	0.18052418989878846
-0.4776916990625004	0.18503808627300944
-0.4776306639062504	0.18954240157234944
-0.4775696287500004	0.19403760794876526
-0.4775085935937504	0.19852429935409574
-0.4774475584375004	0.20300306299004117
-0.4773865232812504	0.20747435161098007
-0.4773254881250004	0.21193837698606804
-0.4772644529687504	0.2163950489577248
-0.4772034178125004	0.22084397118885957
-0.4771423826562504	0.2252844816770555
-0.4770813475000004	0.2297157272219229
-0.4770203123437504	0.2341367709363331
-0.4769592771875004	0.2385467169288217
-0.4768982420312504	0.24294482223674285
-0.4768372068750004	0.24733057304391717
-0.4767761717187504	0.25170371694130317
-0.4767151365625004	0.25606425578446457
-0.4766541014062504	0.26041240340215877
-0.4765930662500004	0.26474850889057794
-0.4765320310937504	0.26907295554747696
-0.4764709959375004	0.2733860574922277
-0.4764099607812504	0.2776879751084062
-0.4763489256250004	0.28197866058349386
-0.4762878904687504	0.2862578392409405
-0.4762268553125004	0.29052502774172295
-0.4761658201562504	0.29477958657237857
-0.4761047850000004	0.2990208011374658
-0.4760437498437504	0.30324797272331283
-0.4759827146875004	0.30746049617060944
-0.4759216795312504	0.31165791699864703
-0.4758606443750004	0.31583996747139814
-0.4757996092187504	0.32000657543868277
-0.4757385740625004	0.3241578379756694
-0.4756775389062504	0.32829396038163444
-0.4756165037500004	0.3324151801335637
-0.4755554685937504	0.3365216951676462
-0.4754944334375004	0.340613598054237
-0.4754333982812504	0.34469082243623794
-0.4753723631250004	0.34875312238226835
-0.4753113279687504	0.3528000920325309
-0.4752502928125004	0.3568312095885401
-0.4751892576562504	0.3608458894927902
-0.4751282225000004	0.3648435411390043
-0.4750671873437504	0.3688236320347472
-0.4750061521875004	0.372785740811189
-0.4749451170312504	0.37672959009084084
-0.4748840818750004	0.3806550563957809
-0.4748230467187504	0.3845621512835303
-0.4747620115625004	0.38845097943741486
-0.4747009764062504	0.3923216889690571
-0.4746399412500004	0.39617441958050875
-0.4745789060937504	0.4000092530802355
-0.4745178709375004	0.403826177040157
-0.4744568357812504	0.40762506594586956
-0.4743958006250004	0.4114056772118011
-0.4743347654687504	0.4151676617769108
-0.4742737303125004	0.418910590333118
-0.4742126951562504	0.4226339902313379
-0.4741516600000004	0.4263373827449331
-0.4740906248437504	0.43002031611548563
-0.4740295896875004	0.43368239434412964
-0.4739685545312504	0.4373232980787934
-0.4739075193750004	0.4409427988379397
-0.4738464842187504	0.4445407673293565
-0.4737854490625004	0.4481171668589399
-0.4737244139062504	0.45167203250443133
-0.4736633787500004	0.45520544658007095
-0.4736023435937504	0.4587175144124702
-0.4735413084375004	0.4622083393502525
-0.4734802732812504	0.46567799372012225
-0.4734192381250004	0.4691264871440337
-0.4733582029687504	0.4725537388602034
-0.4732971678125004	0.4759595573984142
-0.4732361326562504	0.4793436311722036
-0.4731750975000004	0.4827055331128218
-0.4731140623437504	0.48604473887134636
-0.4730530271875004	0.48936066080514734
-0.4729919920312504	0.4926526976653203
-0.4729309568750004	0.4959202921174151
-0.4728699217187504	0.49916298969786294
-0.4728088865625004	0.502380493671897
-0.4727478514062504	0.5055727042741818
-0.4726868162500004	0.5087397307332968
-0.4726257810937504	0.511881871368044
-0.4725647459375004	0.5149995634398525
-0.4725037107812504	0.5180933076605508
-0.4724426756250004	0.5211635737993063
-0.4723816404687504	0.5242106992171863
-0.4723206053125004	0.5272347991513805
-0.4722595701562504	0.5302357045249345
-0.4721985350000004	0.5332129375040033
-0.4721374998437504	0.5361657343758126
-0.4720764646875004	0.5390931175185775
-0.4720154295312504	0.5419940081451542
-0.4719543943750004	0.5448673650811843
-0.4718933592187504	0.5477123278273259
-0.4718323240625004	0.550528340874515
-0.4717712889062504	0.5533152392351908
-0.4717102537500004	0.5560732787886026
-0.4716492185937504	0.5588031016778395
-0.4715881834375004	0.5615056357321968
-0.4715271482812504	0.5641819402191945
-0.4714661131250004	0.5668330219246155
-0.4714050779687504	0.5694596503501936
-0.4713440428125004	0.5720622023255219
-0.4712830076562504	0.5746405613170921
-0.4712219725000004	0.5771940888666003
-0.4711609373437504	0.5797216772123965
-0.4710999021875004	0.5822218801534595
-0.4710388670312504	0.5846931055121866
-0.4709778318750004	0.587133838839657
-0.4709167967187504	0.5895428631843863
-0.4708557615625004	0.5919194424858316
-0.4707947264062504	0.5942634371446494
-0.4707336912500004	0.596575327711401
-0.4706726560937504	0.5988561400300889
-0.4706116209375004	0.6011072828854226
-0.4705505857812504	0.6033303220029032
-0.4704895506250004	0.6055267223418244
-0.4704285154687504	0.6076975975513536
-0.4703674803125004	0.6098435083104919
-0.4703064451562504	0.6119643430465947
-0.4702454100000004	0.6140593001210244
-0.4701843748437504	0.6161269767665828
-0.4701233396875004	0.618165555357941
-0.4700623045312504	0.6201730596745857
-0.4700012693750004	0.6221476406990238
-0.4699402342187504	0.6240878489014847
-0.4698791990625004	0.6259928511870541
-0.4698181639062504	0.6278625563998244
-0.4697571287500004	0.6296976275190689
-0.4696960935937504	0.6314993766812622
-0.4696350584375004	0.6332695569352
-0.4695740232812504	0.6350100819111854
-0.4695129881250004	0.6367227162692277
