Time	Frequency
-0.5000305141562507	-0.6129311141761845
-0.49996947900000066	-0.6146525567866629
-0.49990844384375066	-0.6163418239029794
-0.49984740868750066	-0.6179842671973116
-0.49978637353125066	-0.6195675758133775
-0.49972533837500066	-0.6210830033694962
-0.49966430321875066	-0.6225261741824332
-0.49960326806250066	-0.6238973975418948
-0.49954223290625066	-0.62520147239383
-0.49948119775000066	-0.6264470200830562
-0.49942016259375066	-0.6276454312730553
-0.49935912743750066	-0.6288095513321056
-0.49929809228125066	-0.6299522529586887
-0.49923705712500066	-0.6310850513103249
-0.49917602196875066	-0.6322169066371227
-0.49911498681250066	-0.6333533365801226
-0.49905395165625066	-0.6344959234150589
-0.49899291650000066	-0.6356422551475112
-0.49893188134375066	-0.6367862935592814
-0.49887084618750066	-0.6379191180855633
-0.49880981103125066	-0.6390299547571293
-0.49874877587500066	-0.6401073720061515
-0.49868774071875066	-0.641140511627534
-0.49862670556250066	-0.6421202232001645
-0.49856567040625066	-0.6430399838632342
-0.49850463525000066	-0.6438965114519934
-0.49844360009375066	-0.6446900147857124
-0.49838256493750066	-0.6454240653258206
-0.49832152978125066	-0.6461051148480812
-0.49826049462500066	-0.6467417206484406
-0.49819945946875066	-0.6473435689415126
-0.49813842431250066	-0.6479204059149695
-0.49807738915625066	-0.6484809931888341
-0.49801635400000066	-0.6490321984256657
-0.49795531884375066	-0.6495783136595282
-0.49789428368750066	-0.6501206673591053
-0.49783324853125066	-0.6506575638922992
-0.49777221337500066	-0.6511845482002325
-0.49771117821875066	-0.651694957845371
-0.49765014306250066	-0.6521806948022794
-0.49758910790625066	-0.6526331294422284
-0.49752807275000066	-0.6530440370417866
-0.49746703759375066	-0.6534064645844427
-0.49740600243750066	-0.653715437308118
-0.49734496728125066	-0.6539684344311122
-0.49728393212500066	-0.6541655886256414
-0.49722289696875066	-0.6543095957828959
-0.49716186181250066	-0.6544053528626939
-0.49710082665625066	-0.654459368215773
-0.49703979150000066	-0.6544790132609161
-0.49697875634375066	-0.6544717013545385
-0.49691772118750066	-0.6544440837079918
-0.49685668603125066	-0.6544013482322311
-0.49679565087500066	-0.6543466950242163
-0.49673461571875066	-0.6542810394831635
-0.49667358056250066	-0.654202969151098
-0.49661254540625066	-0.6541089541696267
-0.49655151025000066	-0.6539937820855146
-0.49649047509375066	-0.6538511643302877
-0.49642943993750066	-0.6536744462069463
-0.49636840478125066	-0.6534573418167406
-0.49630736962500066	-0.6531946131351756
-0.49624633446875066	-0.6528826200580321
-0.49618529931250066	-0.6525196844433482
-0.49612426415625066	-0.6521062337142516
-0.49606322900000066	-0.6516447132428004
-0.49600219384375066	-0.6511392811032922
-0.49594115868750066	-0.6505953222865215
-0.49588012353125066	-0.6500188372215538
-0.49581908837500066	-0.6494157740341324
-0.49575805321875066	-0.6487913798486423
-0.49569701806250066	-0.6481496394367509
-0.49563598290625066	-0.6474928595999179
-0.49557494775000066	-0.6468214427129179
-0.49551391259375066	-0.6461338719288462
-0.49545287743750066	-0.6454269073565825
-0.49539184228125066	-0.6446959659505126
-0.49533080712500066	-0.6439356410179473
-0.49526977196875066	-0.6431403074062586
-0.49520873681250066	-0.6423047437317332
-0.49514770165625066	-0.6414247001200877
-0.49508666650000066	-0.6404973532962182
-0.49502563134375066	-0.639521605355409
-0.49496459618750066	-0.6384981952207358
-0.49490356103125066	-0.6374296082205444
-0.49484252587500066	-0.6363197957782323
-0.49478149071875066	-0.6351737412974032
-0.49472045556250066	-0.6339969199624617
-0.49465942040625066	-0.6327947113501216
-0.49459838525000066	-0.6315718267739325
-0.49453735009375066	-0.6303318087212861
-0.49447631493750066	-0.629076658756091
-0.49441527978125066	-0.6278066369995157
-0.49435424462500066	-0.6265202497646605
-0.49429320946875066	-0.6252144210248792
-0.49423217431250066	-0.6238848300469919
-0.49417113915625066	-0.622526379527506
-0.49411010400000066	-0.6211337425274595
-0.49404906884375066	-0.6197019312824787
-0.49398803368750066	-0.6182268279384774
-0.49392699853125066	-0.6167056212729504
-0.49386596337500066	-0.6151371048705235
-0.49380492821875066	-0.6135218052401986
-0.49374389306250066	-0.6118619295771918
-0.49368285790625066	-0.6101611433594979
-0.49362182275000066	-0.6084241984375992
-0.49356078759375066	-0.6066564471371971
-0.49349975243750066	-0.6048632960562133
-0.49343871728125066	-0.6030496575985407
-0.49337768212500066	-0.6012194560258541
-0.49331664696875066	-0.5993752404087687
-0.49325561181250066	-0.5975179367687969
-0.49319457665625066	-0.5956467579503303
-0.49313354150000066	-0.593759291334986
-0.49307250634375066	-0.5918517625580333
-0.49301147118750066	-0.5899194352104272
-0.49295043603125066	-0.5879570957100326
-0.49288940087500066	-0.5859595786605343
-0.49282836571875066	-0.5839222887780544
-0.49276733056250066	-0.5818416701134047
-0.49270629540625066	-0.5797155692398891
-0.49264526025000066	-0.5775434539295102
-0.49258422509375066	-0.5753264692504143
-0.49252318993750066	-0.5730673243543366
-0.49246215478125066	-0.5707700223179698
-0.49240111962500066	-0.5684394681890625
-0.49234008446875066	-0.5660809981253552
-0.49227904931250066	-0.5636998702136938
-0.49221801415625066	-0.5613007637988583
-0.49215697900000066	-0.5588873391948509
-0.49209594384375066	-0.5564619007329585
-0.49203490868750066	-0.554025194414207
-0.49197387353125066	-0.5515763579229487
-0.49191283837500066	-0.5491130282309175
-0.49185180321875066	-0.546631595434784
-0.49179076806250066	-0.5441275685058286
-0.49172973290625066	-0.5415960149584945
-0.49166869775000066	-0.5390320423188936
-0.49160766259375066	-0.5364312772054315
-0.49154662743750066	-0.5337902860764533
-0.49148559228125066	-0.5311068965824842
-0.49142455712500066	-0.5283804019101305
-0.49136352196875066	-0.5256116300777939
-0.49130248681250066	-0.5228028603317953
-0.49124145165625066	-0.519957598842497
-0.49118041650000066	-0.517080249505674
-0.49111938134375066	-0.5141757113331374
-0.49105834618750066	-0.5112489317785047
-0.49099731103125066	-0.5083044565705572
-0.49093627587500066	-0.5053460237168755
-0.49087524071875066	-0.5023762447373507
-0.49081420556250066	-0.4993963992725076
-0.49075317040625066	-0.4964063536240487
-0.49069213525000066	-0.4934046077158254
-0.49063110009375066	-0.49038846017984
-0.49057006493750066	-0.4873542749756484
-0.49050902978125066	-0.4842978365804428
-0.49044799462500066	-0.4812147598025874
-0.49038695946875066	-0.47810090280378537
-0.49032592431250066	-0.4749527419518228
-0.49026488915625066	-0.4717676829057973
-0.49020385400000066	-0.4685442913397376
-0.49014281884375066	-0.4652824227719863
-0.49008178368750066	-0.461983231384365
-0.49002074853125066	-0.4586490605385607
-0.48995971337500066	-0.45528323419354366
-0.48989867821875066	-0.45188976527708463
-0.48983764306250066	-0.4484730050310844
-0.48977660790625066	-0.4450372698319435
-0.48971557275000066	-0.4415864785376842
-0.48965453759375066	-0.4381238284797837
-0.48959350243750066	-0.4346515391998381
-0.48953246728125066	-0.43117068958484983
-0.48947143212500066	-0.42768115898353354
-0.48941039696875066	-0.42418167126942247
-0.48934936181250066	-0.42066993493393806
-0.48928832665625066	-0.41714286608386725
-0.48922729150000066	-0.41359687884340907
-0.48916625634375066	-0.41002821515692234
-0.48910522118750066	-0.4064332782341373
-0.48904418603125066	-0.4028089466627413
-0.48898315087500066	-0.3991528508868899
-0.48892211571875066	-0.39546358555203076
-0.48886108056250066	-0.39174083363105183
-0.48880004540625066	-0.3879853942439119
-0.48873901025000066	-0.38419911850923916
-0.48867797509375066	-0.38038476038480273
-0.48861693993750066	-0.37654575204016805
-0.48855590478125066	-0.3726859207014334
-0.48849486962500066	-0.36880917392360374
-0.48843383446875066	-0.36491918581708244
-0.48837279931250066	-0.36101911113338075
-0.48831176415625066	-0.3571113452638931
-0.48825072900000066	-0.35319734568221806
-0.48818969384375066	-0.34927753045475224
-0.48812865868750066	-0.3453512641002769
-0.48806762353125066	-0.3414169286815751
-0.48800658837500066	-0.3374720728815346
-0.48794555321875066	-0.333513636122882
-0.48788451806250066	-0.32953823008333155
-0.48782348290625066	-0.3255424385043065
-0.48776244775000066	-0.3215231095548328
-0.48770141259375066	-0.31747763441035454
-0.48764037743750066	-0.3134041914820508
-0.48757934228125066	-0.309301920709252
-0.48751830712500066	-0.30517100712698203
-0.48745727196875066	-0.30101267542963384
-0.48739623681250066	-0.29682910460291256
-0.48733520165625066	-0.2926232665476052
-0.48727416650000066	-0.2883986961848063
-0.48721313134375066	-0.284159215569377
-0.48715209618750066	-0.27990863309404035
-0.48709106103125066	-0.2756504337239922
-0.48703002587500066	-0.2713874912481776
-0.48696899071875066	-0.2671218388407514
-0.48690795556250066	-0.26285451408156596
-0.48684692040625066	-0.25858548540596316
-0.48678588525000066	-0.25431367284582496
-0.48672485009375066	-0.25003705836702966
-0.48666381493750066	-0.24575286719708758
-0.48660277978125066	-0.24145781495471313
-0.48654174462500066	-0.2371484064771718
-0.48648070946875066	-0.23282125546777221
-0.48641967431250066	-0.22847339942859546
-0.48635863915625066	-0.22410257897521335
-0.48629760400000066	-0.21970745170132283
-0.48623656884375066	-0.21528772894474213
-0.48617553368750066	-0.2108442226732164
-0.48611449853125066	-0.20637879365319164
-0.48605346337500066	-0.20189421020781842
-0.48599242821875066	-0.19739392830971997
-0.48593139306250066	-0.19288180879012085
-0.48587035790625066	-0.18836179926975657
-0.48580932275000066	-0.1838376099295263
-0.48574828759375066	-0.1793124122157388
-0.48568725243750066	-0.17478858551260598
-0.48562621728125066	-0.17026753294892935
-0.48556518212500066	-0.1657495822028856
-0.48550414696875066	-0.16123397728680552
-0.48544311181250066	-0.1567189643207943
-0.48538207665625066	-0.1522019623972355
-0.48532104150000066	-0.14767980005516063
-0.48526000634375066	-0.1431490047964182
-0.48519897118750066	-0.13860612727767113
-0.48513793603125066	-0.1340480682591748
-0.48507690087500066	-0.12947237313705134
-0.48501586571875066	-0.12487745947857462
-0.48495483056250066	-0.12026275924241007
-0.48489379540625066	-0.11562877638738434
-0.48483276025000066	-0.11097705925590165
-0.48477172509375066	-0.10631008958792644
-0.48471068993750066	-0.10163109371703345
-0.48464965478125066	-0.09694378240951046
-0.48458861962500066	-0.09225204612689733
-0.48452758446875066	-0.08755963974072886
-0.48446654931250066	-0.08286987917731341
-0.48440551415625066	-0.07818537676352919
-0.48434447900000066	-0.073507844355034
-0.48428344384375066	-0.06883797622097489
-0.48422240868750066	-0.06417541322141412
-0.48416137353125066	-0.05951879547688435
-0.48410033837500066	-0.05486590302922748
-0.48403930321875066	-0.05021386774879017
-0.48397826806250066	-0.04555943795974847
-0.48391723290625066	-0.04089927826453506
-0.48385619775000066	-0.03623028129611293
-0.48379516259375066	-0.031549857304268125
-0.48373412743750066	-0.0268561687467872
-0.48367309228125066	-0.022148297574978007
-0.48361205712500066	-0.01742634023756379
-0.48355102196875066	-0.012691418149993765
-0.48348998681250066	-0.007945596634652108
-0.48342895165625066	-0.0031917168627225317
-0.48336791650000066	0.0015668374853972308
-0.48330688134375066	0.006326408097858143
-0.48324584618750066	0.01108335089434275
-0.48318481103125066	0.01583433372013176
-0.48312377587500066	0.020576611599575023
-0.48306274071875066	0.0253082470608298
-0.48300170556250066	0.030028251292666903
-0.48294067040625066	0.03473663544372074
-0.48287963525000066	0.03943437786220361
-0.48281860009375066	0.04412331208623092
-0.48275756493750066	0.048805939218996716
-0.48269652978125066	0.05348518083704512
-0.48263549462500066	0.05816409680368671
-0.48257445946875066	0.06284559098834831
-0.48251342431250066	0.0675321301708998
-0.48245238915625066	0.07222550628637853
-0.48239135400000066	0.07692666401457425
-0.48233031884375066	0.08163560454531714
-0.48226928368750066	0.08635137602751558
-0.48220824853125066	0.09107215562981046
-0.48214721337500066	0.09579540893340269
-0.48208617821875066	0.10051810652263442
-0.48202514306250066	0.1052369828691782
-0.48196410790625066	0.1099488149727667
-0.48190307275000066	0.11465069528991961
-0.48184203759375066	0.11934027710733991
-0.48178100243750066	0.12401596397345829
-0.48171996728125066	0.12867701771013132
-0.48165893212500066	0.1333235825226666
-0.48159789696875066	0.13795663217098247
-0.48153686181250066	0.142577841407722
-0.48147582665625066	0.14718939131258704
-0.48141479150000066	0.15179372898220145
-0.48135375634375066	0.15639330778237748
-0.48129272118750066	0.16099033342430386
-0.48123168603125066	0.16558653495744308
-0.48117065087500066	0.17018298741245144
-0.48110961571875066	0.1747800059441391
-0.48104858056250066	0.179377111298415
-0.48098754540625066	0.18397307409797517
-0.48092651025000066	0.18856604266660948
-0.48086547509375066	0.19315372715271464
-0.48080443993750066	0.19773360889159722
-0.48074340478125066	0.2023031691030806
-0.48068236962500066	0.2068601231493733
-0.48062133446875066	0.2114026198836642
-0.48056029931250066	0.2159293833837283
-0.48049926415625066	0.220439798408142
-0.48043822900000066	0.224933926481088
-0.48037719384375066	0.22941244667792665
-0.48031615868750066	0.23387654298670602
-0.48025512353125066	0.23832774657110312
-0.48019408837500066	0.2427677339019901
-0.48013305321875066	0.24719811231173702
-0.48007201806250066	0.251620230973781
-0.48001098290625066	0.2560350328051282
-0.47994994775000066	0.2604429510868556
-0.47988891259375066	0.2648438583148452
-0.47982787743750066	0.2692370771752322
-0.47976684228125066	0.2736214511969875
-0.47970580712500066	0.27799546258301605
-0.47964477196875066	0.28235738841732005
-0.47958373681250066	0.2867054796782253
-0.47952270165625066	0.2910381357679616
-0.47946166650000066	0.2953540526496211
-0.47940063134375066	0.29965233243822376
-0.47933959618750066	0.3039325415812884
-0.47927856103125066	0.3081947120503669
-0.47921752587500066	0.31243929733459547
-0.47915649071875066	0.31666708625271034
-0.47909545556250066	0.32087907065804205
-0.47903442040625066	0.3250762897396561
-0.47897338525000066	0.3292596824238523
-0.47891235009375066	0.33342995995660357
-0.47885131493750066	0.33758750557844147
-0.47879027978125066	0.34173231379641356
-0.47872924462500066	0.34586397586745204
-0.47866820946875066	0.34998171406831513
-0.47860717431250066	0.3540844638543873
-0.47854613915625066	0.3581709883809992
-0.47848510400000066	0.3622400058804467
-0.47842406884375066	0.3662903165779474
-0.47836303368750066	0.37032091673591505
-0.47830199853125066	0.37433108925400316
-0.47824096337500066	0.37832045945129816
-0.47817992821875066	0.38228900446849845
-0.47811889306250066	0.38623701854776815
-0.47805785790625066	0.3901650454750303
-0.47799682275000066	0.39407378264111204
-0.47793578759375066	0.3979639666806153
-0.47787475243750066	0.4018362616300393
-0.47781371728125066	0.405691160797998
-0.47775268212500066	0.40952890931165165
-0.47769164696875066	0.4133494603541793
-0.47763061181250066	0.41715246821805085
-0.47756957665625066	0.4209373135287452
-0.47750854150000066	0.4247031584936563
-0.47744750634375066	0.42844902791095435
-0.47738647118750066	0.43217390804518063
-0.47732543603125066	0.43587684965226486
-0.47726440087500066	0.4395570575659425
-0.47720336571875066	0.44321395581056305
-0.47714233056250066	0.4468472229248149
-0.47708129540625066	0.4504567936276532
-0.47702026025000066	0.4540428318413338
-0.47695922509375066	0.45760568335224006
-0.47689818993750066	0.4611458073527214
-0.47683715478125066	0.4646636908634049
-0.47677611962500066	0.4681597620383075
-0.47671508446875066	0.4716343160182506
-0.47665404931250066	0.4750874617100529
-0.47659301415625066	0.4785190950921973
-0.47653197900000066	0.4819289011117526
-0.47647094384375066	0.4853163818814445
-0.47640990868750066	0.4886809049100123
-0.47634887353125066	0.4920217669323216
-0.47628783837500066	0.49533826756658156
-0.47622680321875066	0.4986297804835997
-0.47616576806250066	0.5018958105224699
-0.47610473290625066	0.5051360302355403
-0.47604369775000066	0.5083502940417179
-0.47598266259375066	0.5115386304580667
-0.47592162743750066	0.514701211438121
-0.47586059228125066	0.5178383017482296
-0.47579955712500066	0.5209501976377023
-0.47573852196875066	0.5240371625695932
-0.47567748681250066	0.5270993648136
-0.47561645165625066	0.5301368260621047
-0.47555541650000066	0.5331493934164767
-0.47549438134375066	0.5361367385247995
-0.47543334618750066	0.5390983796264336
-0.47537231103125066	0.5420337232861906
-0.47531127587500066	0.5449421227778144
-0.47525024071875066	0.5478229456038974
-0.47518920556250066	0.550675639104976
-0.47512817040625066	0.5534997877993261
-0.47506713525000066	0.5562951585928823
-0.47500610009375066	0.5590617232762265
-0.47494506493750066	0.5617996509469751
-0.47488402978125066	0.5645092733245505
-0.47482299462500066	0.5671910285770284
-0.47476195946875066	0.5698453902331819
-0.47470092431250066	0.5724727884651928
-0.47463988915625066	0.5750735305604137
-0.47457885400000066	0.5776477313431971
-0.47451781884375066	0.5801952685157945
-0.47445678368750066	0.5827157704924621
-0.47439574853125066	0.5852086339931017
-0.47433471337500066	0.5876730693981229
-0.47427367821875066	0.5901081724327013
-0.47421264306250066	0.592513015076171
-0.47415160790625066	0.5948867447032267
-0.47409057275000066	0.5972286793813334
-0.47402953759375066	0.5995383870620186
-0.47396850243750066	0.6018157376521429
-0.47390746728125066	0.604060919942968
-0.47384643212500066	0.6062744193115266
-0.47378539696875066	0.60845695761181
-0.47372436181250066	0.6106094023965027
-0.47366332665625066	0.6127326552772399
-0.47360229150000066	0.6148275305265476
-0.47354125634375066	0.6168946378626524
-0.47348022118750066	0.6189342845536362
-0.47341918603125066	0.6209464088631285
-0.47335815087500066	0.6229305539017223
-0.47329711571875066	0.6248858885767262
-0.47323608056250066	0.6268112756222693
-0.47317504540625066	0.628705378905462
-0.47311401025000066	0.6305667981240788
-0.47305297509375066	0.632394217233089
-0.47299193993750066	0.6341865518846659
-0.47293090478125066	0.6359430782173969
-0.47286986962500066	0.6376635235511106
-0.47280883446875066	0.6393481058262603
-0.47274779931250066	0.6409975179875391
-0.47268676415625066	0.6426128582913189
-0.47262572900000066	0.6441955116041042
-0.47256469384375066	0.64574699283388
-0.47250365868750066	0.6472687685448886
-0.47244262353125066	0.6487620767436276
-0.47238158837500066	0.650227765593049
-0.47232055321875066	0.6516661696462782
-0.47225951806250066	0.6530770397828766
-0.47219848290625066	0.6544595371237968
-0.47213744775000066	0.6558122934689776
-0.47207641259375066	0.657133534128112
-0.47201537743750066	0.6584212513249326
-0.47195434228125066	0.6596734100130319
-0.47189330712500066	0.6608881649426934
-0.47183227196875066	0.6620640656624546
-0.47177123681250066	0.6632002254756721
-0.47171020165625066	0.6642964337439853
-0.47164916650000066	0.665353197509124
-0.47158813134375066	0.6663717059790892
-0.47152709618750066	0.6673537193101029
-0.47146606103125066	0.668301391018474
-0.47140502587500066	0.6692170409779264
-0.47134399071875066	0.6701029025452395
-0.47128295556250066	0.6709608706204276
-0.47122192040625066	0.6717922774588512
-0.47116088525000066	0.6725977214726716
-0.47109985009375066	0.6733769697977037
-0.47103881493750066	0.6741289477840114
-0.47097777978125066	0.6748518192743871
-0.47091674462500066	0.6755431517038315
-0.47085570946875066	0.6762001511706973
-0.47079467431250066	0.6768199447309868
-0.47073363915625066	0.6773998809526219
-0.47067260400000066	0.6779378168657971
-0.47061156884375066	0.6784323604481142
-0.47055053368750066	0.6788830417447024
-0.47048949853125066	0.6792903911474697
-0.47042846337500066	0.6796559125457364
-0.47036742821875066	0.6799819513293802
-0.47030639306250066	0.680271468455536
-0.47024535790625066	0.6805277419893128
-0.47018432275000066	0.680754025462413
