Time	Frequency
-0.5000305139999988	-0.6367570358592746
-0.49996947884374876	-0.6371173685714027
-0.49990844368749876	-0.6374367027960425
-0.49984740853124876	-0.6377147443637521
-0.49978637337499876	-0.6379534734221312
-0.49972533821874876	-0.6381568093452185
-0.49966430306249876	-0.6383298887885532
-0.49960326790624876	-0.6384780909887923
-0.49954223274999876	-0.638605995454442
-0.49948119759374876	-0.6387164727916004
-0.49942016243749876	-0.6388100889394461
-0.49935912728124876	-0.6388849463056834
-0.49929809212499876	-0.6389370005344517
-0.49923705696874876	-0.6389607991110489
-0.49917602181249876	-0.6389505057859269
-0.49911498665624876	-0.6389010170659665
-0.49905395149999876	-0.6388089560646162
-0.49899291634374876	-0.6386733491651692
-0.49893188118749876	-0.6384958496662709
-0.49887084603124876	-0.6382804588757428
-0.49880981087499876	-0.6380327921424579
-0.49874877571874876	-0.6377590255585104
-0.49868774056249876	-0.6374647203793145
-0.49862670540624876	-0.637153749805862
-0.49856567024999876	-0.636827538530726
-0.49850463509374876	-0.636484765108785
-0.49844359993749876	-0.6361215885963885
-0.49838256478124876	-0.6357323614583807
-0.49832152962499876	-0.6353106949245294
-0.49826049446874876	-0.6348506743904575
-0.49819945931249876	-0.6343479938936667
-0.49813842415624876	-0.6338007908297416
-0.49807738899999876	-0.6332100173065401
-0.49801635384374876	-0.6325792750791152
-0.49795531868749876	-0.6319141449444713
-0.49789428353124876	-0.6312211365285748
-0.49783324837499876	-0.6305064549610225
-0.49777221321874876	-0.6297748191490153
-0.49771117806249876	-0.6290285620677656
-0.49765014290624876	-0.6282671873925919
-0.49758910774999876	-0.6274874653062086
-0.49752807259374876	-0.6266840498314271
-0.49746703743749876	-0.6258505022831179
-0.49740600228124876	-0.6249805259214467
-0.49734496712499876	-0.6240691737193641
-0.49728393196874876	-0.6231137970918829
-0.49722289681249876	-0.6221145562962321
-0.49716186165624876	-0.6210743932531352
-0.49710082649999876	-0.6199984712363337
-0.49703979134374876	-0.6188931938350115
-0.49697875618749876	-0.6177649892722147
-0.49691772103124876	-0.6166190907180673
-0.49685668587499876	-0.6154585502150853
-0.49679565071874876	-0.6142836707849475
-0.49673461556249876	-0.6130919616895483
-0.49667358040624876	-0.6118786286588841
-0.49661254524999876	-0.6106375038655389
-0.49655151009374876	-0.6093622369349848
-0.49649047493749876	-0.6080475191983101
-0.49642943978124876	-0.6066901013204217
-0.49636840462499876	-0.605289409742854
-0.49630736946874876	-0.6038476543127392
-0.49624633431249876	-0.6023694092563627
-0.49618529915624876	-0.6008607437956434
-0.49612426399999876	-0.5993280742862864
-0.49606322884374876	-0.5977769613458128
-0.49600219368749876	-0.5962110770785792
-0.49594115853124876	-0.5946315360105723
-0.49588012337499876	-0.593036712183415
-0.49581908821874876	-0.5914225719639157
-0.49575805306249876	-0.5897834602541109
-0.49569701790624876	-0.5881131912177453
-0.49563598274999876	-0.5864062303105269
-0.49557494759374876	-0.5846587396765939
-0.49551391243749876	-0.5828692943945913
-0.49545287728124876	-0.5810391391184455
-0.49539184212499876	-0.5791719389686306
-0.49533080696874876	-0.5772730768623967
-0.49526977181249876	-0.5753486388225422
-0.49520873665624876	-0.5734042881157644
-0.49514770149999876	-0.5714442395091269
-0.49508666634374876	-0.5694705165217128
-0.49502563118749876	-0.5674826248426059
-0.49496459603124876	-0.565477702665897
-0.49490356087499876	-0.5634511149597754
-0.49484252571874876	-0.5613973662016342
-0.49478149056249876	-0.5593111502851882
-0.49472045540624876	-0.5571883416599936
-0.49465942024999876	-0.5550267466572589
-0.49459838509374876	-0.5528264808498651
-0.49453734993749876	-0.5505899069160143
-0.49447631478124876	-0.5483211498641594
-0.49441527962499876	-0.5460252935765341
-0.49435424446874876	-0.5437074247869765
-0.49429320931249876	-0.5413717104380287
-0.49423217415624876	-0.539020677158286
-0.49417113899999876	-0.5366548190748704
-0.49411010384374876	-0.5342725970769132
-0.49404906868749876	-0.5318708180501107
-0.49398803353124876	-0.5294453143438653
-0.49392699837499876	-0.5269917850143645
-0.49386596321874876	-0.5245066259722685
-0.49380492806249876	-0.5219875948998727
-0.49374389290624876	-0.519434200458706
-0.49368285774999876	-0.516847745710648
-0.49362182259374876	-0.5142310214413552
-0.49356078743749876	-0.511587725231851
-0.49349975228124876	-0.5089217355202994
-0.49343871712499876	-0.5062363849425747
-0.49337768196874876	-0.5035338663015996
-0.49331664681249876	-0.5008148794555796
-0.49325561165624876	-0.49807858282012496
-0.49319457649999876	-0.4953228518296724
-0.49313354134374876	-0.4925447798067136
-0.49307250618749876	-0.48974130929576876
-0.49301147103124876	-0.48690986673030034
-0.49295043587499876	-0.48404887853625206
-0.49288940071874876	-0.48115807150535017
-0.49282836556249876	-0.4782385018917635
-0.49276733040624876	-0.47529231741941835
-0.49270629524999876	-0.47232231393950375
-0.49264526009374876	-0.46933137784301737
-0.49258422493749876	-0.46632192404172185
-0.49252318978124876	-0.4632954447229579
-0.49246215462499876	-0.46025225849340096
-0.49240111946874876	-0.45719150673884257
-0.49234008431249876	-0.45411138915547267
-0.49227904915624876	-0.45100957694708593
-0.49221801399999876	-0.447883719166129
-0.49215697884374876	-0.4447319471677952
-0.49209594368749876	-0.4415532711097806
-0.49203490853124876	-0.4383477859429226
-0.49197387337499876	-0.43511666081027917
-0.49191283821874876	-0.4318619258849673
-0.49185180306249876	-0.4285860901148641
-0.49179076790624876	-0.4252916612835519
-0.49172973274999876	-0.42198067342407064
-0.49166869759374876	-0.4186543177711117
-0.49160766243749876	-0.4153127491508379
-0.49154662728124876	-0.4119551045396766
-0.49148559212499876	-0.40857972017878014
-0.49142455696874876	-0.40518449936258094
-0.49136352181249876	-0.4017673596741763
-0.49130248665624876	-0.3983266686553163
-0.49124145149999876	-0.394861579156441
-0.49118041634374876	-0.39137220326725575
-0.49111938118749876	-0.38785960209533393
-0.49105834603124876	-0.38432559608828587
-0.49099731087499876	-0.3807724289955314
-0.49093627571874876	-0.37720235564246535
-0.49087524056249876	-0.3736172370832968
-0.49081420540624876	-0.370018217342084
-0.49075317024999876	-0.36640554739434983
-0.49069213509374876	-0.36277859498926796
-0.49063109993749876	-0.35913602879891965
-0.49057006478124876	-0.3554761306453697
-0.49050902962499876	-0.35179717119334286
-0.49044799446874876	-0.3480977744011104
-0.49038695931249876	-0.3443772044454087
-0.49032592415624876	-0.34063552435313577
-0.49026488899999876	-0.336873595217285
-0.49020385384374876	-0.33309291659548623
-0.49014281868749876	-0.32929534622410267
-0.49008178353124876	-0.3254827607771839
-0.49002074837499876	-0.32165671853320815
-0.48995971321874876	-0.3178181850389358
-0.48989867806249876	-0.313967386567556
-0.48983764290624876	-0.3101038254944597
-0.48977660774999876	-0.30622644581179276
-0.48971557259374876	-0.3023339083055733
-0.48965453743749876	-0.29842490935332566
-0.48959350228124876	-0.2944984718625474
-0.48953246712499876	-0.2905541623763406
-0.48947143196874876	-0.28659220274113617
-0.48941039681249876	-0.2826134471560318
-0.48934936165624876	-0.2786192243172922
-0.48928832649999876	-0.2746110844178539
-0.48922729134374876	-0.2705905116873405
-0.48916625618749876	-0.2665586601074051
-0.48910522103124876	-0.26251615666284656
-0.48904418587499876	-0.25846301386020365
-0.48898315071874876	-0.25439867889604045
-0.48892211556249876	-0.2503222093340958
-0.48886108040624876	-0.24623252569286216
-0.48880004524999876	-0.2421286767171409
-0.48873901009374876	-0.23801007406547847
-0.48867797493749876	-0.23387665909958763
-0.48861693978124876	-0.2297289603729865
-0.48855590462499876	-0.22556802888131872
-0.48849486946874876	-0.2213952555416908
-0.48843383431249876	-0.21721209581311576
-0.48837279915624876	-0.213019782422228
-0.48831176399999876	-0.20881911112572507
-0.48825072884374876	-0.2046103262670437
-0.48818969368749876	-0.2003931063789187
-0.48812865853124876	-0.19616665920800436
-0.48806762337499876	-0.191929922089447
-0.48800658821874876	-0.18768182630138194
-0.48794555306249876	-0.18342156478156965
-0.48788451790624876	-0.17914880509845416
-0.48782348274999876	-0.1748637988329433
-0.48776244759374876	-0.1705673648655943
-0.48770141243749876	-0.16626075885939345
-0.48764037728124876	-0.16194545777398553
-0.48757934212499876	-0.15762290040661617
-0.48751830696874876	-0.1532942369450937
-0.48745727181249876	-0.1489601362605976
-0.48739623665624876	-0.14462069558053692
-0.48733520149999876	-0.1402754764343566
-0.48727416634374876	-0.13592364797061748
-0.48721313118749876	-0.13156420226130877
-0.48715209603124876	-0.12719620515872376
-0.48709106087499876	-0.12281903352478839
-0.48703002571874876	-0.11843254243420741
-0.48696899056249876	-0.11403711945764794
-0.48690795540624876	-0.10963362527861005
-0.48684692024999876	-0.10522325096590693
-0.48678588509374876	-0.10080731423672357
-0.48672484993749876	-0.09638702258732587
-0.48666381478124876	-0.0919632585331928
-0.48660277962499876	-0.0875364441893527
-0.48654174446874876	-0.08310651135108346
-0.48648070931249876	-0.07867297159115952
-0.48641967415624876	-0.07423506831635454
-0.48635863899999876	-0.06979198617297572
-0.48629760384374876	-0.06534307409932803
-0.48623656868749876	-0.06088802305723072
-0.48617553353124876	-0.05642696345426054
-0.48611449837499876	-0.051960473143256095
-0.48605346321874876	-0.047489490924558134
-0.48599242806249876	-0.04301515410904126
-0.48593139290624876	-0.03853859896077786
-0.48587035774999876	-0.03406076390455683
-0.48580932259374876	-0.029582236152789456
-0.48574828743749876	-0.0251031733540574
-0.48568725228124876	-0.020623319113376736
-0.48562621712499876	-0.016142109163458318
-0.48556518196874876	-0.011658842927331554
-0.48550414681249876	-0.007172886854803923
-0.48544311165624876	-0.002683862725325844
-0.48538207649999876	0.001808221851392548
-0.48532104134374876	0.006302927025538696
-0.48526000618749876	0.010799435889974965
-0.48519897103124876	0.015296693263718141
-0.48513793587499876	0.01979358505165898
-0.48507690071874876	0.024289134031936468
-0.48501586556249876	0.02878267773155105
-0.48495483040624876	0.0332739735664456
-0.48489379524999876	0.03776320860324111
-0.48483276009374876	0.04225091857775812
-0.48477172493749876	0.046737828094075694
-0.48471068978124876	0.05122464857654366
-0.48464965462499876	0.055711877237408426
-0.48458861946874876	0.0601996313849921
-0.48452758431249876	0.06468755916311392
-0.48446654915624876	0.0691748576247235
-0.48440551399999876	0.07366039486801046
-0.48434447884374876	0.07814290465734959
-0.48428344368749876	0.08262120817069686
-0.48422240853124876	0.08709441900883057
-0.48416137337499876	0.0915620951697457
-0.48410033821874876	0.09602430447959623
-0.48403930306249876	0.1004815820473726
-0.48397826790624876	0.10493478675244683
-0.48391723274999876	0.10938488876335574
-0.48385619759374876	0.11383273008065542
-0.48379516243749876	0.1182788020772407
-0.48373412728124876	0.12272308739067166
-0.48367309212499876	0.12716500358721836
-0.48361205696874876	0.1316034603797313
-0.48355102181249876	0.13603702245173596
-0.48348998665624876	0.14046414813502955
-0.48342895149999876	0.14488345563731614
-0.48336791634374876	0.14929396454366659
-0.48330688118749876	0.15369526116163937
-0.48324584603124876	0.1580875508924636
-0.48318481087499876	0.16247158565379946
-0.48312377571874876	0.1668484799594896
-0.48306274056249876	0.171219456511271
-0.48300170540624876	0.17558557203926634
-0.48294067024999876	0.17994746578956633
-0.48287963509374876	0.1843051773979386
-0.48281859993749876	0.18865808642890747
-0.48275756478124876	0.19300499314336106
-0.48269652962499876	0.1973443158586303
-0.48263549446874876	0.20167435942690132
-0.48257445931249876	0.2059936002525244
-0.48251342415624876	0.21030093639216912
-0.48245238899999876	0.2145958604982371
-0.48239135384374876	0.21887852150117568
-0.48233031868749876	0.22314965938980522
-0.48226928353124876	0.22741042293963282
-0.48220824837499876	0.23166210290513883
-0.48214721321874876	0.23590583309946922
-0.48208617806249876	0.2401423275527496
-0.48202514290624876	0.24437171008340394
-0.48196410774999876	0.24859345914318137
-0.48190307259374876	0.25280647444723253
-0.48184203743749876	0.2570092574646288
-0.48178100228124876	0.26120016896282994
-0.48171996712499876	0.2653777127284561
-0.48165893196874876	0.26954079360947525
-0.48159789681249876	0.27368889262272666
-0.48153686165624876	0.2778221145128075
-0.48147582649999876	0.2819411060631854
-0.48141479134374876	0.28604687911367593
-0.48135375618749876	0.2901405744568275
-0.48129272103124876	0.2942231973183768
-0.48123168587499876	0.29829537029740144
-0.48117065071874876	0.30235716782939137
-0.48110961556249876	0.30640807408270354
-0.48104858040624876	0.31044706026826496
-0.48098754524999876	0.3144727606067564
-0.48092651009374876	0.3184837189267251
-0.48086547493749876	0.3224786532059745
-0.48080443978124876	0.3264566732473982
-0.48074340462499876	0.3304174078808931
-0.48068236946874876	0.33436102994691613
-0.48062133431249876	0.3382881799311136
-0.48056029915624876	0.3421997952623679
-0.48049926399999876	0.3460968739890457
-0.48043822884374876	0.3499802240765861
-0.48037719368749876	0.35385025451306473
-0.48031615853124876	0.3577068540586154
-0.48025512337499876	0.36154938232520145
-0.48019408821874876	0.3653767690801369
-0.48013305306249876	0.36918769693695663
-0.48007201790624876	0.37298083375575514
-0.48001098274999876	0.376755069366488
-0.47994994759374876	0.3805097069327916
-0.47988891243749876	0.3842445722477697
-0.47982787728124876	0.3879600205813955
-0.47976684212499876	0.3916568318416277
-0.47970580696874876	0.3953360066338022
-0.47964477181249876	0.39899851460200847
-0.47958373665624876	0.40264505613335894
-0.47952270149999876	0.40627587825498884
-0.47946166634374876	0.4098906794319522
-0.47940063118749876	0.4134886286934922
-0.47933959603124876	0.41706849650837546
-0.47927856087499876	0.42062886948606554
-0.47921752571874876	0.42416840618827356
-0.47915649056249876	0.4276860816978458
-0.47909545540624876	0.4311813682990928
-0.47903442024999876	0.43465431625884715
-0.47897338509374876	0.4381055157855725
-0.47891234993749876	0.4415359408553331
-0.47885131478124876	0.44494671198123004
-0.47879027962499876	0.44833883335727104
-0.47872924446874876	0.45171295400835026
-0.47866820931249876	0.45506919836722515
-0.47860717415624876	0.45840709872242086
-0.47854613899999876	0.4617256451431549
-0.47848510384374876	0.46502345210700347
-0.47842406868749876	0.46829901142762853
-0.47836303353124876	0.4715509717275875
-0.47830199837499876	0.47477837934674283
-0.47824096321874876	0.4779808380442186
-0.47817992806249876	0.481158563266979
-0.47811889290624876	0.48431231316434736
-0.47805785774999876	0.4874432062041949
-0.47799682259374876	0.49055246380021555
-0.47793578743749876	0.49364112625593026
-0.47787475228124876	0.49670980379794627
-0.47781371712499876	0.4997585206948834
-0.47775268196874876	0.5027866804996617
-0.47769164681249876	0.5057931554304516
-0.47763061165624876	0.5087764838618422
-0.47756957649999876	0.5117351354005736
-0.47750854134374876	0.5146677880085528
-0.47744750618749876	0.5175735659752883
-0.47738647103124876	0.5204521922107088
-0.47732543587499876	0.5233040166592269
-0.47726440071874876	0.526129911709912
-0.47720336556249876	0.5289310601538317
-0.47714233040624876	0.5317086822245388
-0.47708129524999876	0.5344637579522215
-0.47702026009374876	0.5371968018773816
-0.47695922493749876	0.5399077337154726
-0.47689818978124876	0.5425958724892174
-0.47683715462499876	0.5452600574357772
-0.47677611946874876	0.5478988619496663
-0.47671508431249876	0.5505108545840781
-0.47665404915624876	0.5530948633952973
-0.47659301399999876	0.55565018861474
-0.47653197884374876	0.5581767149701748
-0.47647094368749876	0.5606749012033411
-0.47640990853124876	0.5631456480250286
-0.47634887337499876	0.565590075700662
-0.47628783821874876	0.5680092637540918
-0.47622680306249876	0.5704040027135164
-0.47616576790624876	0.5727746064165965
-0.47610473274999876	0.5751208293667719
-0.47604369759374876	0.5774419056150583
-0.47598266243749876	0.579736694678097
-0.47592162728124876	0.5820039018863552
-0.47586059212499876	0.5842423264826707
-0.47579955696874876	0.586451086914388
-0.47573852181249876	0.5886297784751406
-0.47567748665624876	0.5907785279657519
-0.47561645149999876	0.5928979335652923
-0.47555541634374876	0.5949889067186517
-0.47549438118749876	0.5970524497871653
-0.47543334603124876	0.5990894153444107
-0.47537231087499876	0.6011003014114331
-0.47531127571874876	0.6030851277084107
-0.47525024056249876	0.6050434145990312
-0.47518920540624876	0.6069742675137851
-0.47512817024999876	0.6088765524687157
-0.47506713509374876	0.6107491241258377
-0.47500609993749876	0.6125910533217904
-0.47494506478124876	0.6144018050711344
-0.47488402962499876	0.6161813312053265
-0.47482299446874876	0.6179300596472631
-0.47476195931249876	0.6196487826731557
-0.47470092415624876	0.6213384660500334
-0.47463988899999876	0.6230000186189607
-0.47457885384374876	0.6246340729522124
-0.47451781868749876	0.6262408252012606
-0.47445678353124876	0.6278199688005425
-0.47439574837499876	0.6293707369865629
-0.47433471321874876	0.6308920452686034
-0.47427367806249876	0.6323827039992972
-0.47421264290624876	0.6338416564775688
-0.47415160774999876	0.6352681908113469
-0.47409057259374876	0.6366620804510634
-0.47402953743749876	0.6380236253791739
-0.47396850228124876	0.6393535835145304
-0.47390746712499876	0.6406530029375284
-0.47384643196874876	0.6419229896020296
-0.47378539681249876	0.6431644596224446
-0.47372436165624876	0.644377926937987
-0.47366332649999876	0.6455633704029816
-0.47360229134374876	0.6467202092186756
-0.47354125618749876	0.6478473943960099
-0.47348022103124876	0.6489436002260036
-0.47341918587499876	0.6500074777361928
-0.47335815071874876	0.6510379191261197
-0.47329711556249876	0.6520342797616061
-0.47323608040624876	0.6529965114262606
-0.47317504524999876	0.6539251782148113
-0.47311401009374876	0.6548213497173172
-0.47305297493749876	0.6556863898224492
-0.47299193978124876	0.6565216807528367
-0.47293090462499876	0.6573283357694781
-0.47286986946874876	0.6581069577346759
-0.47280883431249876	0.6588574930706314
-0.47274779915624876	0.6595792119657699
-0.47268676399999876	0.6602708216459047
-0.47262572884374876	0.6609306947366652
-0.47256469368749876	0.6615571709371628
-0.47250365853124876	0.6621488737544738
-0.47244262337499876	0.6627049807182157
-0.47238158821874876	0.6632253937684582
-0.47232055306249876	0.6637107743271478
-0.47225951790624876	0.6641624324027758
-0.47219848274999876	0.6645820867286318
-0.47213744759374876	0.6649715386669905
-0.47207641243749876	0.6653323210379146
-0.47201537728124876	0.6656653901685418
-0.47195434212499876	0.6659709211978134
-0.47189330696874876	0.6662482470286254
-0.47183227181249876	0.6664959570106922
-0.47177123665624876	0.6667121402939652
-0.47171020149999876	0.666894729315659
-0.47164916634374876	0.6670418821492448
-0.47158813118749876	0.6671523334920106
-0.47152709603124876	0.6672256453504939
-0.47146606087499876	0.6672623071546522
-0.47140502571874876	0.6672636634207811
-0.47134399056249876	0.6672316782269188
-0.47128295540624876	0.667168578270327
-0.47122192024999876	0.6670764410999636
-0.47116088509374876	0.6669568038898913
-0.47109984993749876	0.6668103639252132
-0.47103881478124876	0.6666368292119079
-0.47097777962499876	0.6664349530132899
-0.47091674446874876	0.6662027486152209
-0.47085570931249876	0.6659378455867856
-0.47079467415624876	0.6656379260473204
-0.47073363899999876	0.6653011620484891
-0.47067260384374876	0.6649265697605147
-0.47061156868749876	0.6645142112824899
-0.47055053353124876	0.6640652025897033
-0.47048949837499876	0.663581520551538
-0.47042846321874876	0.6630656403577978
-0.47036742806249876	0.662520069297733
-0.47030639290624876	0.6619468663689783
-0.47024535774999876	0.6613472426318773
-0.47018432259374876	0.6607213203575205
