Time	Frequency
-0.5000335609999986	3.446396859989928e-22
-0.4999725258437486	3.445131983835411e-22
-0.4999114906874986	3.4435887863329632e-22
-0.4998504555312486	3.4417897010513847e-22
-0.4997894203749986	3.439778543791249e-22
-0.4997283852187486	3.437607812614723e-22
-0.4996673500624986	3.435323907547015e-22
-0.4996063149062486	3.4329543902960795e-22
-0.4995452797499986	3.4305007396453034e-22
-0.4994842445937486	3.427938482900646e-22
-0.4994232094374986	3.4252245085570897e-22
-0.4993621742812486	3.4223093647873484e-22
-0.4993011391249986	3.419151041368452e-22
-0.4992401039687486	3.4157264475445724e-22
-0.4991790688124986	3.412037499521073e-22
-0.4991180336562486	3.408110237200427e-22
-0.4990569984999986	3.403987361458524e-22
-0.4989959633437486	3.399716379821687e-22
-0.4989349281874986	3.3953366349770667e-22
-0.4988738930312486	3.390868729566964e-22
-0.4988128578749986	3.3863091941490004e-22
-0.4987518227187486	3.381631772878605e-22
-0.4986907875624986	3.37679483840758e-22
-0.4986297524062486	3.3717528056724254e-22
-0.4985687172499986	3.3664684613039667e-22
-0.4985076820937486	3.3609229232985188e-22
-0.4984466469374986	3.3551205668400153e-22
-0.4983856117812486	3.349087677675829e-22
-0.4983245766249986	3.3428653201447474e-22
-0.4982635414687486	3.336498408931476e-22
-0.4982025063124986	3.3300239198338667e-22
-0.4981414711562486	3.3234613175860784e-22
-0.4980804359999986	3.316807673280368e-22
-0.4980194008437486	3.3100387248810695e-22
-0.4979583656874986	3.3031154904197993e-22
-0.4978973305312486	3.295994591458355e-22
-0.4978362953749986	3.2886395989308734e-22
-0.4977752602187486	3.2810304510637274e-22
-0.4977142250624986	3.273168498399655e-22
-0.4976531899062486	3.265075988369095e-22
-0.4975921547499986	3.256790255667892e-22
-0.4975311195937486	3.2483541612411136e-22
-0.4974700844374986	3.2398052598832996e-22
-0.4974090492812486	3.231166470322727e-22
-0.4973480141249986	3.222440581761964e-22
-0.4972869789687486	3.21360991838753e-22
-0.4972259438124986	3.2046411408038633e-22
-0.4971649086562486	3.195493883484056e-22
-0.4971038734999986	3.186131021923694e-22
-0.4970428383437486	3.1765279600460315e-22
-0.4969818031874986	3.166678612310911e-22
-0.4969207680312486	3.156596719804981e-22
-0.4968597328749986	3.1463123004375593e-22
-0.4967986977187486	3.13586414133241e-22
-0.4967376625624986	3.125290268978055e-22
-0.4966766274062486	3.114618800600369e-22
-0.4966155922499986	3.103861341499116e-22
-0.4965545570937486	3.0930105012573723e-22
-0.4964935219374986	3.0820421207419123e-22
-0.4964324867812486	3.070921545977197e-22
-0.4963714516249986	3.059612335704126e-22
-0.4963104164687486	3.048085292724964e-22
-0.4962493813124986	3.036325593393806e-22
-0.4961883461562486	3.024336268124949e-22
-0.4961273109999986	3.0121372929963038e-22
-0.4960662758437486	2.9997606269730647e-22
-0.4960052406874986	2.9872424142703673e-22
-0.4959442055312486	2.974614282417961e-22
-0.4958831703749986	2.9618959242927054e-22
-0.4958221352187486	2.949090704739755e-22
-0.4957611000624986	2.936185246721789e-22
-0.4957000649062486	2.923153070855151e-22
-0.4956390297499986	2.9099613658114843e-22
-0.4955779945937486	2.8965791807134305e-22
-0.4955169594374986	2.882985041696433e-22
-0.4954559242812486	2.8691721804302217e-22
-0.4953948891249986	2.8551501313706794e-22
-0.4953338539687486	2.840942327287519e-22
-0.4952728188124986	2.8265803273933014e-22
-0.4952117836562486	2.812096157849885e-22
-0.4951507484999986	2.7975146952372494e-22
-0.4950897133437486	2.7828479245322774e-22
-0.4950286781874986	2.7680923813868523e-22
-0.4949676430312486	2.753230384480953e-22
-0.4949066078749986	2.738234745118417e-22
-0.4948455727187486	2.723075744671172e-22
-0.4947845375624986	2.7077286396651305e-22
-0.4947235024062486	2.692179842188442e-22
-0.4946624672499986	2.676430302105641e-22
-0.4946014320937486	2.660495281974419e-22
-0.4945403969374986	2.644400535519699e-22
-0.4944793617812486	2.6281759101932264e-22
-0.4944183266249986	2.6118480874039504e-22
-0.4943572914687486	2.5954342615670003e-22
-0.4942962563124986	2.578938271260014e-22
-0.4942352211562486	2.5623500821499716e-22
-0.4941741859999986	2.5456486756407466e-22
-0.4941131508437486	2.528807621271956e-22
-0.4940521156874986	2.511801983444363e-22
-0.4939910805312486	2.4946147904260123e-22
-0.4939300453749986	2.47724138205951e-22
-0.4938690102187486	2.459690559671981e-22
-0.4938079750624986	2.4419822980479785e-22
-0.4937469399062486	2.4241426906140635e-22
-0.4936859047499986	2.406197505022233e-22
-0.4936248695937486	2.3881659603383654e-22
-0.4935638344374986	2.3700562432275056e-22
-0.4935027992812486	2.3518638900833424e-22
-0.4934417641249986	2.3335733982455367e-22
-0.4933807289687486	2.3151625825667615e-22
-0.4933196938124986	2.2966085519666586e-22
-0.4932586586562486	2.2778937885548657e-22
-0.4931976234999986	2.2590107398242027e-22
-0.4931365883437486	2.2399637542735525e-22
-0.4930755531874986	2.2207679336532187e-22
-0.4930145180312486	2.201445239893583e-22
-0.4929534828749986	2.182018933034485e-22
-0.4928924477187486	2.1625078443406676e-22
-0.4928314125624986	2.1429219323177053e-22
-0.4927703774062486	2.123260236792084e-22
-0.4927093422499986	2.103511732851579e-22
-0.4926483070937486	2.083658741639305e-22
-0.4925872719374986	2.0636818987857016e-22
-0.4925262367812486	2.0435654108772673e-22
-0.4924652016249986	2.0233012507341087e-22
-0.4924041664687486	2.00289118189541e-22
-0.4923431313124986	1.9823462090111105e-22
-0.4922820961562486	1.9616837201220276e-22
-0.4922210609999986	1.9409230327418512e-22
-0.4921600258437486	1.920080536836233e-22
-0.4920989906874986	1.8991658338374928e-22
-0.4920379555312486	1.87817986059754e-22
-0.4919769203749986	1.8571153222003786e-22
-0.4919158852187486	1.835959228980915e-22
-0.4918548500624986	1.8146968431710837e-22
-0.4917938149062486	1.7933159261697168e-22
-0.4917327797499986	1.771810125690751e-22
-0.4916717445937486	1.7501806158591628e-22
-0.4916107094374986	1.728435625176571e-22
-0.4915496742812486	1.7065881341585328e-22
-0.4914886391249986	1.6846524415769982e-22
-0.4914276039687486	1.6626405151411397e-22
-0.4913665688124986	1.640559142613544e-22
-0.4913055336562486	1.6184086711539548e-22
-0.4912444984999986	1.5961836157125462e-22
-0.4911834633437486	1.573874853837701e-22
-0.4911224281874986	1.551472714787287e-22
-0.4910613930312486	1.5289701009561474e-22
-0.4910003578749986	1.5063647708127578e-22
-0.4909393227187486	1.483660121375118e-22
-0.4908782875624986	1.4608642792585917e-22
-0.4908172524062486	1.4379878433126555e-22
-0.4907562172499986	1.4150409736299993e-22
-0.4906951820937486	1.3920306671057778e-22
-0.4906341469374986	1.3689590205325132e-22
-0.4905731117812486	1.3458229992641034e-22
-0.4905120766249986	1.3226157679066158e-22
-0.4904510414687486	1.2993291412972009e-22
-0.4903900063124986	1.2759563867596566e-22
-0.4903289711562486	1.2524946024003205e-22
-0.4902679359999986	1.2289460389364045e-22
-0.4902069008437486	1.2053179356138332e-22
-0.4901458656874986	1.1816208635483732e-22
-0.4900848305312486	1.1578660547212727e-22
-0.4900237953749986	1.13406247772785e-22
-0.4899627602187486	1.110214505539826e-22
-0.4899017250624986	1.086320886692068e-22
-0.4898406899062486	1.062375323445433e-22
-0.4897796547499986	1.038368451638393e-22
-0.4897186195937486	1.0142906953318355e-22
-0.4896575844374986	9.901352605508996e-23
-0.4895965492812486	9.659004216897878e-23
-0.4895355141249986	9.415904630778036e-23
-0.4894744789687486	9.172149862346879e-23
-0.4894134438124986	8.92786714492324e-23
-0.4893524086562486	8.683184055916833e-23
-0.4892913734999986	8.43819727062311e-23
-0.4892303383437486	8.192949619257136e-23
-0.4891693031874986	7.947421841409985e-23
-0.4891082680312486	7.701540965790363e-23
-0.4890472328749986	7.455203087555319e-23
-0.4889861977187486	7.208304503924626e-23
-0.4889251625624986	6.960772574576164e-23
-0.4888641274062486	6.712588197154938e-23
-0.4888030922499986	6.463794199888793e-23
-0.4887420570937486	6.214487306523666e-23
-0.4886810219374986	5.964795438291683e-23
-0.4886199867812486	5.714846283577217e-23
-0.4885589516249986	5.464736421773302e-23
-0.4884979164687486	5.214509826894452e-23
-0.4884368813124986	4.964150429162878e-23
-0.4883758461562486	4.713590201716106e-23
-0.4883148109999986	4.4627312389373875e-23
-0.4882537758437486	4.2114759204683767e-23
-0.4881927406874986	3.959756599034326e-23
-0.4881317055312486	3.707556422416426e-23
-0.4880706703749986	3.4549161732293087e-23
-0.4880096352187486	3.20192645515236e-23
-0.4879486000624986	2.948707025154133e-23
-0.4878875649062486	2.695377920325385e-23
-0.4878265297499986	2.4420305471947933e-23
-0.4877654945937486	2.1887069896362e-23
-0.4877044594374986	1.9353928522728568e-23
-0.4876434242812486	1.6820255469603164e-23
-0.4875823891249986	1.428515622069795e-23
-0.4875213539687486	1.1747746228723525e-23
-0.4874603188124986	9.207416940867784e-24
-0.4873992836562486	6.664023851187354e-24
-0.4873382484999986	4.117954245869994e-24
-0.4872772133437486	1.5700550824086878e-24
-0.4872161781874986	-9.785655544146875e-25
-0.4871551430312486	-3.526803380228039e-24
-0.4870941078749986	-6.073811485702845e-24
-0.4870330727187486	-8.619181996636243e-24
-0.4869720375624986	-1.1163012656311921e-23
-0.4869110024062486	-1.3705837462226365e-23
-0.4868499672499986	-1.6248440108347917e-23
-0.4867889320937486	-1.8791606989358874e-23
-0.4867278969374986	-2.133588941467193e-23
-0.4866668617812486	-2.3881432566727543e-23
-0.4866058266249986	-2.6427912091520056e-23
-0.4865447914687486	-2.897459556683945e-23
-0.4864837563124986	-3.1520507103454014e-23
-0.4864227211562486	-3.406464915074008e-23
-0.4863616859999986	-3.660622950530594e-23
-0.4863006508437486	-3.914483231157443e-23
-0.4862396156874986	-4.1680480699057177e-23
-0.4861785805312486	-4.421357700572388e-23
-0.4861175453749986	-4.6744746452353505e-23
-0.4860565102187486	-4.9274631859655826e-23
-0.4859954750624986	-5.18036932428719e-23
-0.4859344399062486	-5.433206472223858e-23
-0.4858734047499986	-5.685950598298745e-23
-0.4858123695937486	-5.938545207531267e-23
-0.4857513344374986	-6.190914084313246e-23
-0.4856902992812486	-6.442978599703898e-23
-0.4856292641249986	-6.694674598912418e-23
-0.4855682289687486	-6.945964110987878e-23
-0.4855071938124986	-7.196839681072716e-23
-0.4854461586562486	-7.447320770052894e-23
-0.4853851234999986	-7.697443347398868e-23
-0.4853240883437486	-7.947246125328809e-23
-0.4852630531874986	-8.196757503944344e-23
-0.4852020180312486	-8.445985909636234e-23
-0.4851409828749986	-8.69491525488104e-23
-0.4850799477187486	-8.943507042713513e-23
-0.4850189125624986	-9.191708702262412e-23
-0.4849578774062486	-9.439465063189586e-23
-0.4848968422499986	-9.686729460878302e-23
-0.4848358070937486	-9.933471864765967e-23
-0.4847747719374986	-1.0179682328801221e-22
-0.4847137367812486	-1.0425369055267953e-22
-0.4846527016249986	-1.0670551336704736e-22
-0.4845916664687486	-1.0915249711859066e-22
-0.4845306313124986	-1.115947730825468e-22
-0.4844695961562486	-1.1403234522670992e-22
-0.4844085609999986	-1.1646506760476445e-22
-0.4843475258437486	-1.1889265522848148e-22
-0.4842864906874986	-1.2131473680457574e-22
-0.4842254555312486	-1.2373093213896483e-22
-0.4841644203749986	-1.2614091930992613e-22
-0.4841033852187486	-1.285444747385018e-22
-0.4840423500624986	-1.3094148384647498e-22
-0.4839813149062486	-1.333319205777009e-22
-0.4839202797499986	-1.3571580517018048e-22
-0.4838592445937486	-1.3809315948499178e-22
-0.4837982094374986	-1.4046397117777108e-22
-0.4837371742812486	-1.428281695069053e-22
-0.4836761391249986	-1.451856199344855e-22
-0.4836151039687486	-1.475361429299518e-22
-0.4835540688124986	-1.498795452111045e-22
-0.4834930336562486	-1.5221564396233372e-22
-0.4834319984999986	-1.5454427950153643e-22
-0.4833709633437486	-1.5686531962166375e-22
-0.4833099281874986	-1.5917865107079843e-22
-0.4832488930312486	-1.6148415977580472e-22
-0.4831878578749986	-1.6378171482339685e-22
-0.4831268227187486	-1.6607116474245313e-22
-0.4830657875624986	-1.6835234200961738e-22
-0.4830047524062486	-1.7062507731721053e-22
-0.4829437172499986	-1.7288922609441317e-22
-0.4828826820937486	-1.7514469220312581e-22
-0.4828216469374986	-1.773914333940367e-22
-0.4827606117812486	-1.7962944930264025e-22
-0.4826995766249986	-1.8185875443099668e-22
-0.4826385414687486	-1.8407933801352876e-22
-0.4825775063124986	-1.8629112307320714e-22
-0.4825164711562486	-1.8849394091454126e-22
-0.4824554359999986	-1.9068753131184397e-22
-0.4823944008437486	-1.9287157202253796e-22
-0.4823333656874986	-1.9504573121704338e-22
-0.4822723305312486	-1.9720972628431277e-22
-0.4822112953749986	-1.9936337316132742e-22
-0.4821502602187486	-2.015066143320006e-22
-0.4820892250624986	-2.0363951594072476e-22
-0.4820281899062486	-2.057622305007796e-22
-0.4819671547499986	-2.0787493099056354e-22
-0.4819061195937486	-2.0997773440814883e-22
-0.4818450844374986	-2.1207063667647124e-22
-0.4817840492812486	-2.1415347509875148e-22
-0.4817230141249986	-2.1622593020611846e-22
-0.4816619789687486	-2.1828757104644776e-22
-0.4816009438124986	-2.2033793562768304e-22
-0.4815399086562486	-2.2237662291781267e-22
-0.4814788734999986	-2.244033678298097e-22
-0.4814178383437486	-2.264180838360703e-22
-0.4813568031874986	-2.2842086429871275e-22
-0.4812957680312486	-2.304119368753323e-22
-0.4812347328749986	-2.323915822467851e-22
-0.4811736977187486	-2.3436003839685293e-22
-0.4811126625624986	-2.3631741146543954e-22
-0.4810516274062486	-2.3826361662423616e-22
-0.4809905922499986	-2.401983665534977e-22
-0.4809295570937486	-2.421212125609903e-22
-0.4808685219374986	-2.440316316103198e-22
-0.4808074867812486	-2.459291334661647e-22
-0.4807464516249986	-2.478133551619835e-22
-0.4806854164687486	-2.4968412640535265e-22
-0.4806243813124986	-2.5154149256700877e-22
-0.4805633461562486	-2.5338567784171617e-22
-0.4805023109999986	-2.552169987177283e-22
-0.4804412758437486	-2.570357603460991e-22
-0.4803802406874986	-2.5884215963055843e-22
-0.4803192055312486	-2.606362130731661e-22
-0.4802581703749986	-2.624177259813136e-22
-0.4801971352187486	-2.6418631448969814e-22
-0.4801361000624986	-2.6594147934207315e-22
-0.4800750649062486	-2.676827090826493e-22
-0.4800140297499986	-2.6940958341202967e-22
-0.4799529945937486	-2.7112185217199183e-22
-0.4798919594374986	-2.7281947090334156e-22
-0.4798309242812486	-2.7450258549707217e-22
-0.4797698891249986	-2.761714689631322e-22
-0.4797088539687486	-2.778264259061077e-22
-0.4796478188124986	-2.7946769364058665e-22
-0.4795867836562486	-2.810953649894508e-22
-0.4795257484999986	-2.8270934688541967e-22
-0.4794647133437486	-2.843093660218059e-22
-0.4794036781874986	-2.8589502241879578e-22
-0.4793426430312486	-2.8746587247050226e-22
-0.4792816078749986	-2.8902151655389887e-22
-0.4792205727187486	-2.905616722225143e-22
-0.4791595375624986	-2.920862181364432e-22
-0.4790985024062486	-2.935951960938908e-22
-0.4790374672499986	-2.9508876940007075e-22
-0.4789764320937486	-2.9656715369507352e-22
-0.4789153969374986	-2.9803054170315316e-22
-0.4788543617812486	-2.9947903785626833e-22
-0.4787933266249986	-3.0091261772520563e-22
-0.4787322914687486	-3.023311218837705e-22
-0.4786712563124986	-3.037342832973606e-22
-0.4786102211562486	-3.0512178211098e-22
-0.4785491859999986	-3.064933130710077e-22
-0.4784881508437486	-3.078486429982924e-22
-0.4784271156874986	-3.0918764319516177e-22
-0.4783660805312486	-3.1051029267003183e-22
-0.4783050453749986	-3.1181665395747785e-22
-0.4782440102187486	-3.1310682930215255e-22
-0.4781829750624986	-3.143809096952321e-22
-0.4781219399062486	-3.1563893188467834e-22
-0.4780609047499986	-3.1688085683175716e-22
-0.4779998695937486	-3.1810657235834077e-22
-0.4779388344374986	-3.193159127290022e-22
-0.4778777992812486	-3.2050868978777044e-22
-0.4778167641249986	-3.216847300611238e-22
-0.4777557289687486	-3.228439044327196e-22
-0.4776946938124986	-3.239861402395293e-22
-0.4776336586562486	-3.251114150366918e-22
-0.4775726234999986	-3.262197357187964e-22
-0.4775115883437486	-3.273111121297101e-22
-0.4774505531874986	-3.2838553437108205e-22
-0.4773895180312486	-3.2944295815741297e-22
-0.4773284828749986	-3.3048330177377356e-22
-0.4772674477187486	-3.31506455977471e-22
-0.4772064125624986	-3.3251230289469e-22
-0.4771453774062486	-3.335007372440644e-22
-0.4770843422499986	-3.344716832247433e-22
-0.4770233070937486	-3.3542510122101773e-22
-0.4769622719374986	-3.3636098207926816e-22
-0.4769012367812486	-3.3727933137770237e-22
-0.4768402016249986	-3.3818014881046933e-22
-0.4767791664687486	-3.390634096654541e-22
-0.4767181313124986	-3.3992905494149104e-22
-0.4766570961562486	-3.4077699304673724e-22
-0.4765960609999986	-3.416071115259843e-22
-0.4765350258437486	-3.424192953663367e-22
-0.4764739906874986	-3.4321344717572977e-22
-0.4764129555312486	-3.4398950197877824e-22
-0.4763519203749986	-3.4474743139842868e-22
-0.4762908852187486	-3.4548723736856094e-22
-0.4762298500624986	-3.462089380668354e-22
-0.4761688149062486	-3.469125499374661e-22
-0.4761077797499986	-3.475980710215753e-22
-0.4760467445937486	-3.4826547038958563e-22
-0.4759857094374986	-3.4891468678396065e-22
-0.4759246742812486	-3.495456366955857e-22
-0.4758636391249986	-3.5015822839095523e-22
-0.4758026039687486	-3.507523768127962e-22
-0.4757415688124986	-3.5132801495656493e-22
-0.4756805336562486	-3.5188509925619686e-22
-0.4756194984999986	-3.524236086080648e-22
-0.4755584633437486	-3.529435378800703e-22
-0.4754974281874986	-3.5344488807473784e-22
-0.4754363930312486	-3.5392765638880616e-22
-0.4753753578749986	-3.5439182925348186e-22
-0.4753143227187486	-3.5483738032372797e-22
-0.4752532875624986	-3.552642733008728e-22
-0.4751922524062486	-3.556724672471791e-22
-0.4751312172499986	-3.560619214583789e-22
-0.4750701820937486	-3.564325983791877e-22
-0.4750091469374986	-3.5678446446599086e-22
-0.4749481117812486	-3.5711748915372006e-22
-0.4748870766249986	-3.574316427249746e-22
-0.4748260414687486	-3.5772689483994687e-22
-0.4747650063124986	-3.5800321507209583e-22
-0.4747039711562486	-3.5826057581301343e-22
-0.4746429359999986	-3.5849895704704776e-22
-0.4745819008437486	-3.587183509270109e-22
-0.4745208656874986	-3.589187629992243e-22
-0.4744598305312486	-3.5910020840763466e-22
-0.4743987953749986	-3.592627039757325e-22
-0.4743377602187486	-3.594062578293397e-22
-0.4742767250624986	-3.5953085933723617e-22
-0.4742156899062486	-3.5963647432438547e-22
-0.4741546547499986	-3.597230480912015e-22
-0.4740936195937486	-3.597905141020729e-22
-0.4740325844374986	-3.598388069561068e-22
-0.4739715492812486	-3.598678783813623e-22
-0.4739105141249986	-3.598777106765164e-22
-0.4738494789687486	-3.598683227273557e-22
-0.4737884438124986	-3.5983976812967905e-22
-0.4737274086562486	-3.597921249922058e-22
-0.4736663734999986	-3.5972547687877204e-22
-0.4736053383437486	-3.59639888901094e-22
-0.4735443031874986	-3.595353862012639e-22
-0.4734832680312486	-3.5941194134286044e-22
-0.4734222328749986	-3.592694755658018e-22
-0.4733611977187486	-3.591078750407394e-22
-0.4733001625624986	-3.5892701838441107e-22
-0.4732391274062486	-3.587268083671216e-22
-0.4731780922499986	-3.5850719907466435e-22
-0.4731170570937486	-3.5826821211411165e-22
-0.4730560219374986	-3.580099389214103e-22
-0.4729949867812486	-3.5773252681769527e-22
-0.4729339516249986	-3.574361487991733e-22
-0.4728729164687486	-3.5712096306171996e-22
-0.4728118813124986	-3.567870728343895e-22
-0.4727508461562486	-3.5643449732629876e-22
-0.4726898109999986	-3.560631622407281e-22
-0.4726287758437486	-3.556729143573315e-22
-0.4725677406874986	-3.5526355883405267e-22
-0.4725067055312486	-3.5483491064894844e-22
-0.4724456703749986	-3.5438684697012787e-22
-0.4723846352187486	-3.539193478526202e-22
-0.4723236000624986	-3.5343251391584854e-22
-0.4722625649062486	-3.5292655396205057e-22
-0.4722015297499986	-3.524017431089386e-22
-0.4721404945937486	-3.518583590475698e-22
-0.4720794594374986	-3.5129661410758653e-22
-0.4720184242812486	-3.5071660289253973e-22
-0.4719573891249986	-3.5011827709766843e-22
-0.4718963539687486	-3.495014559298301e-22
-0.4718353188124986	-3.488658732685113e-22
-0.4717742836562486	-3.4821124897810573e-22
