Time	Frequency
-0.5000152546562475	-0.6771228439433596
-0.4999542194999975	-0.6750169008416514
-0.4998931843437475	-0.6729476806278794
-0.4998321491874975	-0.6709229377126674
-0.4997711140312475	-0.6689355122306224
-0.4997100788749975	-0.666964816196268
-0.4996490437187475	-0.6649805620565423
-0.4995880085624975	-0.6629480532527109
-0.4995269734062475	-0.6608341066073224
-0.4994659382499975	-0.6586125892173501
-0.4994049030937475	-0.656268636236583
-0.4993438679374975	-0.6538008609016697
-0.4992828327812475	-0.6512212312929722
-0.4992217976249975	-0.6485527000266472
-0.4991607624687475	-0.6458250532342725
-0.4990997273124975	-0.6430697319892589
-0.4990386921562475	-0.6403145354747782
-0.4989776569999975	-0.6375791119011511
-0.4989166218437475	-0.6348719797656296
-0.4988555866874975	-0.6321895344297315
-0.4987945515312475	-0.6295171365397728
-0.4987335163749975	-0.6268320207050744
-0.4986724812187475	-0.6241074685764525
-0.4986114460624975	-0.6213174949037823
-0.4985504109062475	-0.6184412286905627
-0.4984893757499975	-0.6154662528792201
-0.4984283405937475	-0.6123903756293833
-0.4983673054374975	-0.6092215952712084
-0.4983062702812475	-0.6059763366035353
-0.4982452351249975	-0.6026763298677557
-0.4981841999687475	-0.5993447221291659
-0.4981231648124975	-0.596002114981372
-0.4980621296562475	-0.5926632066843811
-0.4980010944999975	-0.5893345896633849
-0.4979400593437475	-0.5860140349112766
-0.4978790241874975	-0.5826913223838652
-0.4978179890312475	-0.5793504042581058
-0.4977569538749975	-0.5759724665826921
-0.4976959187187475	-0.5725393221231037
-0.4976348835624975	-0.569036540604509
-0.4975738484062475	-0.5654557932071853
-0.4975128132499975	-0.5617960394379006
-0.4974517780937475	-0.558063399240237
-0.4973907429374975	-0.5542697925764268
-0.4973297077812475	-0.5504306392254784
-0.4972686726249975	-0.5465620590295734
-0.4972076374687475	-0.5426780809248081
-0.4971466023124975	-0.5387883472929248
-0.4970855671562475	-0.5348966911217109
-0.4970245319999975	-0.531000790721476
-0.4969634968437475	-0.5270929106065673
-0.4969024616874975	-0.5231615524525631
-0.4968414265312475	-0.5191936909889835
-0.4967803913749975	-0.5151771747637448
-0.4967193562187475	-0.511102857627512
-0.4966583210624975	-0.5069661058293691
-0.4965972859062475	-0.5027674522337139
-0.4965362507499975	-0.4985123118696233
-0.4964752155937475	-0.49420984284184777
-0.4964141804374975	-0.489871200439122
-0.4963531452812475	-0.4855075267637263
-0.4962921101249975	-0.4811280336810726
-0.4962310749687475	-0.4767385078998255
-0.4961700398124975	-0.47234049189548244
-0.4961090046562475	-0.46793125835350863
-0.4960479694999975	-0.46350454014837716
-0.4959869343437475	-0.4590518504293943
-0.4959258991874975	-0.45456413909532
-0.4958648640312475	-0.4500334820021421
-0.4958038288749975	-0.4454544971343157
-0.4957427937187475	-0.44082524232254927
-0.4956817585624975	-0.4361474602841502
-0.4956207234062475	-0.43142616084936675
-0.4955596882499975	-0.4266686405303895
-0.4954986530937475	-0.4218831316807787
-0.4954376179374975	-0.4170773396681901
-0.4953765827812475	-0.4122571402383929
-0.4953155476249975	-0.40742566151023724
-0.4952545124687475	-0.40258289687700616
-0.4951934773124975	-0.3977258983384923
-0.4951324421562475	-0.39284948803229913
-0.4950714069999975	-0.3879473376873215
-0.4950103718437475	-0.38301321231941426
-0.4949493366874975	-0.37804214842564915
-0.4948883015312475	-0.3730313551838946
-0.4948272663749975	-0.3679806871779282
-0.4947662312187475	-0.3628926189025047
-0.4947051960624975	-0.3577717461231376
-0.4946441609062475	-0.35262392955914557
-0.4945831257499975	-0.347455249940583
-0.4945220905937475	-0.34227096060270057
-0.4944610554374975	-0.3370746264757069
-0.4944000202812475	-0.33186760531729376
-0.4943389851249975	-0.32664895033588565
-0.4942779499687475	-0.3214157337071647
-0.4942169148124975	-0.31616371971993473
-0.4941558796562475	-0.31088825140477727
-0.4940948444999975	-0.3055851785769699
-0.4940338093437475	-0.30025165749426547
-0.4939727741874975	-0.2948866814689637
-0.4939117390312475	-0.2894912570578448
-0.4938507038749975	-0.2840682096950901
-0.4937896687187475	-0.2786216642567473
-0.4937286335624975	-0.27315630407429103
-0.4936675984062475	-0.26767655622366854
-0.4936065632499975	-0.2621858568402549
-0.4935455280937475	-0.25668612545436703
-0.4934844929374975	-0.2511775350154486
-0.4934234577812475	-0.245658608518689
-0.4933624226249975	-0.24012661579088104
-0.4933013874687475	-0.2345781880184805
-0.4932403523124975	-0.22901002557733155
-0.4931793171562475	-0.2234195703638321
-0.4931182819999975	-0.21780552525108188
-0.4930572468437475	-0.2121681216296266
-0.4929962116874975	-0.2065090907677536
-0.4929351765312475	-0.20083136066946372
-0.4928741413749975	-0.19513854260742924
-0.4928131062187475	-0.18943430589271057
-0.4927520710624975	-0.18372176494638828
-0.4926910359062475	-0.17800299255369362
-0.4926300007499975	-0.172278740634459
-0.4925689655937475	-0.1665484132132873
-0.4925079304374975	-0.16081028698484862
-0.4924468952812475	-0.1550619334194618
-0.4923858601249975	-0.14930076330680653
-0.4923248249687475	-0.14352458425207085
-0.4922637898124975	-0.13773206716373487
-0.4922027546562475	-0.13192304226847898
-0.4921417194999975	-0.12609857013396125
-0.4920806843437475	-0.12026078000809791
-0.4920196491874975	-0.11441251591847608
-0.4919586140312475	-0.1085568606298198
-0.4918975788749975	-0.10269662746235164
-0.4918365437187475	-0.09683391570104198
-0.4917755085624975	-0.09096981196717521
-0.4917144734062475	-0.08510428720095192
-0.4916534382499975	-0.07923630041008761
-0.4915924030937475	-0.07336408792487041
-0.4915313679374975	-0.06748558221691245
-0.4914703327812475	-0.06159887894180082
-0.4914092976249975	-0.05570266199021139
-0.4913482624687475	-0.049796505244920776
-0.4912872273124975	-0.04388100313882893
-0.4912261921562475	-0.03795771211936882
-0.4911651569999975	-0.032028911135932765
-0.4911041218437475	-0.026097231454272778
-0.4910430866874975	-0.0201652335292712
-0.4909820515312475	-0.0142350067888245
-0.4909210163749975	-0.008307863982962299
-0.4908599812187475	-0.0023841898965903403
-0.4907989460624975	0.0035365320253601244
-0.4907379109062475	0.00945552878329846
-0.4906768757499975	0.015374420297796338
-0.4906158405937475	0.021294836497118712
-0.4905548054374975	0.027218044843638194
-0.4904937702812475	0.033144652787343916
-0.4904327351249975	0.0390744327544878
-0.4903716999687475	0.045006306603845206
-0.4903106648124975	0.05093849371483383
-0.4902496296562475	0.05686878538309589
-0.4901885944999975	0.06279488987860486
-0.4901275593437475	0.06871478522356314
-0.4900665241874975	0.0746270173589613
-0.4900054890312475	0.08053088806751432
-0.4899444538749975	0.08642649229060584
-0.4898834187187475	0.09231460598589038
-0.4898223835624975	0.0981964572855526
-0.4897613484062475	0.10407341648884294
-0.4897003132499975	0.10994665634461227
-0.4896392780937475	0.11581685566864006
-0.4895782429374975	0.12168400942578744
-0.4895172077812475	0.1275473750434864
-0.4894561726249975	0.13340555577595853
-0.4893951374687475	0.13925670298601828
-0.4893341023124975	0.14509879766627665
-0.4892730671562475	0.15092995717110227
-0.4892120319999975	0.156748713232295
-0.4891509968437475	0.16255420921000907
-0.4890899616874975	0.16834627816626527
-0.4890289265312475	0.17412538901089564
-0.4889678913749975	0.17989247152250828
-0.4889068562187475	0.1856486566020181
-0.4888458210624975	0.19139498673907537
-0.4887847859062475	0.1971321487911206
-0.4887237507499975	0.20286027444089402
-0.4886627155937475	0.2085788489107181
-0.4886016804374975	0.2142867442462115
-0.4885406452812475	0.2199823657254415
-0.4884796101249975	0.2256638849967829
-0.4884185749687475	0.2313295163388621
-0.4883575398124975	0.23697778192869962
-0.4882965046562475	0.24260771675709603
-0.4882354694999975	0.24821897353685363
-0.4881744343437475	0.2538118092384226
-0.4881133991874975	0.25938696077378764
-0.4880523640312475	0.2649454317177421
-0.4879913288749975	0.2704882301239747
-0.4879302937187475	0.2760161097369483
-0.4878692585624975	0.2815293596725139
-0.4878082234062475	0.2870276826929756
-0.4877471882499975	0.2925101867323959
-0.4876861530937475	0.2979754855063582
-0.4876251179374975	0.30342188892963873
-0.4875640827812475	0.30884765087092914
-0.4875030476249975	0.3142512257394748
-0.4874420124687475	0.3196314845190776
-0.4873809773124975	0.3249878507479531
-0.4873199421562475	0.3303203326986124
-0.4872589069999975	0.33562944999606187
-0.4871978718437475	0.3409160695050107
-0.4871368366874975	0.34618117799937037
-0.4870758015312475	0.3514256330730574
-0.4870147663749975	0.3566499402836014
-0.4869537312187475	0.36185409884878295
-0.4868926960624975	0.36703754264043453
-0.4868316609062475	0.37219918645821853
-0.4867706257499975	0.3773375691912881
-0.4867095905937475	0.3824510635347155
-0.4866485554374975	0.38753810901477675
-0.4865875202812475	0.39259742685006965
-0.4865264851249975	0.3976281842165663
-0.4864654499687475	0.4026300778687662
-0.4864044148124975	0.4076033144459901
-0.4863433796562475	0.4125484956007525
-0.4862823444999975	0.4174664390237742
-0.4862213093437475	0.42235796605113146
-0.4861602741874975	0.42722368991131904
-0.4860992390312475	0.4320638469935348
-0.4860382038749975	0.43687820551759793
-0.4859771687187475	0.4416660633356261
-0.4859161335624975	0.44642632985496117
-0.4858550984062475	0.45115767611248353
-0.4857940632499975	0.45585872462374366
-0.4857330280937475	0.46052824359997385
-0.4856719929374975	0.4651653102980835
-0.4856109577812475	0.46976941220455193
-0.4855499226249975	0.4743404666718927
-0.4854888874687475	0.4788787604810222
-0.4854278523124975	0.4833848243429717
-0.4853668171562475	0.4878592638695922
-0.4853057819999975	0.4923025820792362
-0.4852447468437475	0.4967150311918662
-0.4851837116874975	0.5010965172778847
-0.4851226765312475	0.5054465723784954
-0.4850616413749975	0.509764400579847
-0.4850006062187475	0.5140489877225778
-0.4849395710624975	0.518299250156425
-0.4848785359062475	0.5225141933416612
-0.4848175007499975	0.5266930495998198
-0.4847564655937475	0.5308353660871991
-0.4846954304374975	0.534941027514021
-0.4846343952812475	0.5390102121539037
-0.4845733601249975	0.5430432894744701
-0.4845123249687475	0.5470406816837887
-0.4844512898124975	0.5510027178261844
-0.4843902546562475	0.554929507979213
-0.4843292194999975	0.5588208641053535
-0.4842681843437475	0.5626762820117154
-0.4842071491874975	0.5664949858978565
-0.4841461140312475	0.570276030471229
-0.4840850788749975	0.5740184421517119
-0.4840240437187475	0.5777213688818535
-0.4839630085624975	0.581384205903531
-0.4839019734062475	0.585006671477082
-0.4838409382499975	0.5885888199711548
-0.4837799030937475	0.5921309908252879
-0.4837188679374975	0.5956337018568035
-0.4836578327812475	0.5990975045658162
-0.4835967976249975	0.6025228261725474
-0.4835357624687475	0.6059098308561225
-0.4834747273124975	0.6092583300816946
-0.4834136921562475	0.6125677592466758
-0.4833526569999975	0.6158372255843272
-0.4832916218437475	0.6190656180510155
-0.4832305866874975	0.6222517600373405
-0.4831695515312475	0.6253945820112116
-0.4831085163749975	0.6284932826164483
-0.4830474812187475	0.6315474436891545
-0.4829864460624975	0.6345570780031958
-0.4829254109062475	0.6375226021698683
-0.4828643757499975	0.6404447358134816
-0.4828033405937475	0.6433243437822835
-0.4827423054374975	0.6461622523441872
-0.4826812702812475	0.6489590709965342
-0.4826202351249975	0.6517150483812891
-0.4825591999687475	0.6544299880020559
-0.4824981648124975	0.6571032396974676
-0.4824371296562475	0.659733770133282
-0.4823760944999975	0.6623203021320673
-0.4823150593437475	0.6648614974943802
-0.4822540241874975	0.6673561511571862
-0.4821929890312475	0.6698033652132572
-0.4821319538749975	0.6722026724838356
-0.4820709187187475	0.6745540873884311
-0.4820098835624975	0.6768580760057856
-0.4819488484062475	0.679115450124631
-0.4818878132499975	0.6813272028415326
-0.4818267780937475	0.6834943134504532
-0.4817657429374975	0.6856175537555507
-0.4817047077812475	0.6876973292825297
-0.4816436726249975	0.6897335840111571
-0.4815826374687475	0.691725784874972
-0.4815216023124975	0.6936729881025804
-0.4814605671562475	0.6955739760869475
-0.4813995319999975	0.6974274415685836
-0.4813384968437475	0.6992321866406085
-0.4812774616874975	0.7009873015018269
-0.4812164265312475	0.7026922935060833
-0.4811553913749975	0.7043471459834981
-0.4810943562187475	0.7059522965026357
-0.4810333210624975	0.707508537507188
-0.4809722859062475	0.7090168575397598
-0.4809112507499975	0.7104782517178038
-0.4808502155937475	0.7118935334749074
-0.4807891804374975	0.713263179669845
-0.4807281452812475	0.7145872359556654
-0.4806671101249975	0.7158652978148997
-0.4806060749687475	0.7170965693213937
-0.4805450398124975	0.7182799885125573
-0.4804840046562475	0.7194143970056955
-0.4804229694999975	0.7204987240974693
-0.4803619343437475	0.721532153080722
-0.4803008991874975	0.722514241321678
-0.4802398640312475	0.7234449744914444
-0.4801788288749975	0.7243247464266761
-0.4801177937187475	0.7251542687862783
-0.4800567585624975	0.725934427808233
-0.4799957234062475	0.7266661145902529
-0.4799346882499975	0.7273500585943198
-0.4798736530937475	0.7279866932410043
-0.4798126179374975	0.7285760765236972
-0.4797515827812475	0.7291178794630335
-0.4796905476249975	0.7296114437551133
-0.4796295124687475	0.7300558974040935
-0.4795684773124975	0.7304503064585983
-0.4795074421562475	0.7307938348425898
-0.4794464069999975	0.731085883201284
-0.4793853718437475	0.7313261832556947
-0.4793243366874975	0.7315148331795019
-0.4792633015312475	0.7316522683567747
-0.4792022663749975	0.7317391724860546
-0.4791412312187475	0.7317763453570606
-0.4790801960624975	0.7317645520907202
-0.4790191609062475	0.731704382195487
-0.4789581257499975	0.7315961433418088
-0.4788970905937475	0.7314398076384819
-0.4788360554374975	0.7312350206852445
-0.4787750202812475	0.730981171520369
-0.4787139851249975	0.7306775086507195
-0.4786529499687475	0.7303232804681566
-0.4785919148124975	0.7299178743869833
-0.4785308796562475	0.7294609290768098
-0.4784698444999975	0.7289524001645991
-0.4784088093437475	0.7283925683989408
-0.4783477741874975	0.7277819893544986
-0.4782867390312475	0.7271213936217636
-0.4782257038749975	0.7264115561415184
-0.4781646687187475	0.7256531597216178
-0.4781036335624975	0.7248466766003162
-0.4780425984062475	0.7239922895621519
-0.4779815632499975	0.7230898689385082
-0.4779205280937475	0.7221390086298636
-0.4778594929374975	0.7211391116194846
-0.4777984577812475	0.7200895085994377
-0.4777374226249975	0.7189895899351365
-0.4776763874687475	0.7178389278233811
-0.4776153523124975	0.7166373649882605
-0.4775543171562475	0.7153850539752995
-0.4774932819999975	0.7140824405148679
-0.4774322468437475	0.7127301927520491
-0.4773712116874975	0.711329090438878
-0.4773101765312475	0.709879896830979
-0.4772491413749975	0.7083832348383746
-0.4771881062187475	0.7068394890639661
-0.4771270710624975	0.705248754249429
-0.4770660359062475	0.703610838039279
-0.4770050007499975	0.7019253145374617
-0.4769439655937475	0.700191620149704
-0.4768829304374975	0.6984091765517242
-0.4768218952812475	0.6965775180962253
-0.4767608601249975	0.6946963979545422
-0.4766998249687475	0.6927658524264086
-0.4766387898124975	0.6907862123790081
-0.4765777546562475	0.6887580616051598
-0.4765167194999975	0.6866821515407454
-0.4764556843437475	0.6845592859162866
-0.4763946491874975	0.6823901943728253
-0.4763336140312475	0.6801754212355453
-0.4762725788749975	0.6779152509277431
-0.4762115437187475	0.6756096811349616
-0.4761505085624975	0.6732584498369046
-0.4760894734062475	0.6708611132781201
-0.4760284382499975	0.668417158999978
-0.4759674030937475	0.665926130394135
-0.4759063679374975	0.663387738092586
-0.4758453327812475	0.6608019396345753
-0.4757842976249975	0.6581689755875809
-0.4757232624687475	0.6554893552141092
-0.4756622273124975	0.6527637936825772
-0.4756011921562475	0.649993110649412
-0.4755401569999975	0.6471781085662535
-0.4754791218437475	0.6443194559936035
-0.4754180866874975	0.6414175963546829
-0.4753570515312475	0.6384726978503046
-0.4752960163749975	0.6354846570628814
-0.4752349812187475	0.6324531552306207
-0.4751739460624975	0.6293777534388695
-0.4751129109062475	0.6262580106129074
-0.4750518757499975	0.6230936046645423
-0.4749908405937475	0.6198844322181482
-0.4749298054374975	0.6166306663407982
-0.4748687702812475	0.6133327615639805
-0.4748077351249975	0.6099914077054301
-0.4747466999687475	0.6066074427360038
-0.4746856648124975	0.6031817375007024
-0.4746246296562475	0.5997150722751879
-0.4745635944999975	0.5962080315268345
-0.4745025593437475	0.5926609367945276
-0.4744415241874975	0.589073828996679
-0.4743804890312475	0.5854465033326613
-0.4743194538749975	0.5817785892412396
-0.4742584187187475	0.5780696635872669
-0.4741973835624975	0.5743193762315997
-0.4741363484062475	0.5705275597093648
-0.4740753132499975	0.5666943058246605
-0.4740142780937475	0.5628199972999843
-0.4739532429374975	0.5589052846972751
-0.4738922077812475	0.554951014392732
-0.4738311726249975	0.5509581210302941
-0.4737701374687475	0.5469275005725363
-0.4737091023124975	0.5428598904790193
-0.4736480671562475	0.5387557807468006
-0.4735870319999975	0.5346153684967471
-0.4735259968437475	0.5304385685051808
-0.4734649616874975	0.5262250811319192
-0.4734039265312475	0.5219744983264488
-0.4733428913749975	0.5176864284953884
-0.4732818562187475	0.5133606235829836
-0.4732208210624975	0.5089970809539157
-0.4731597859062475	0.504596096692107
-0.4730987507499975	0.5001582629338872
-0.4730377155937475	0.49568441455152423
-0.4729766804374975	0.49117553732824804
-0.4729156452812475	0.4866326453127078
-0.4728546101249975	0.4820566424731128
-0.4727935749687475	0.4774482024519392
-0.4727325398124975	0.472807696730045
-0.4726715046562475	0.46813518374227814
-0.4726104694999975	0.46343045588180637
-0.4725494343437475	0.4586931318145218
-0.4724883991874975	0.45392278149632365
-0.4724273640312475	0.44911906482837144
-0.4723663288749975	0.44428185452053115
-0.4723052937187475	0.43941131987765963
-0.4722442585624975	0.43450795884729976
-0.4721832234062475	0.4295725706440301
-0.4721221882499975	0.4246061708110789
-0.4720611530937475	0.41960986463089933
-0.4720001179374975	0.41458470477706855
-0.4719390827812475	0.4095315593365364
-0.4718780476249975	0.4044510120036063
-0.4718170124687475	0.3993433119400477
-0.4717559773124975	0.3942083849737772
-0.4716949421562475	0.3890459082597786
-0.4716339069999975	0.3838554330352494
-0.4715728718437475	0.3786365287846689
-0.4715118366874975	0.37338892717847855
-0.4714508015312475	0.36811264167166197
-0.4713897663749975	0.3628080333939846
-0.4713287312187475	0.3574758109667906
-0.4712676960624975	0.3521169684568006
-0.4712066609062475	0.3467326712453683
-0.4711456257499975	0.3413241100044412
-0.4710845905937475	0.3358923489361075
-0.4710235554374975	0.33043819386615747
-0.4709625202812475	0.3249621049912965
-0.4709014851249975	0.3194641731701327
-0.4708404499687475	0.31394416741863046
-0.4707794148124975	0.30840164637563044
-0.4707183796562475	0.30283610888378587
-0.4706573444999975	0.2972471516394987
-0.4705963093437475	0.2916346116402016
-0.4705352741874975	0.28599867169167503
-0.4704742390312475	0.28033990196348013
-0.4704132038749975	0.27465922762925443
-0.4703521687187475	0.268957832041585
-0.4702911335624975	0.26323701221106655
-0.4702300984062475	0.25749801219570634
-0.4701690632499975	0.25174186538611526
-0.4701080280937475	0.24596927142811342
-0.4700469929374975	0.24018053199652
-0.4699859577812475	0.23437556435406307
-0.4699249226249975	0.22855398766472984
-0.4698638874687475	0.22271526307527562
-0.4698028523124975	0.21685886479456284
-0.4697418171562475	0.21098444919802817
-0.4696807819999975	0.20509199105311351
-0.4696197468437475	0.19918186443869226
-0.4695587116874975	0.19325485133018547
-0.4694976765312475	0.18731207446206766
-0.4694366413749975	0.18135486778842008
-0.4693756062187475	0.1753846083966661
-0.4693145710624975	0.169402538937802
-0.4692535359062475	0.16340961059165818
