Time	Frequency
-0.5000256785625012	2.427517735666658e-22
-0.49996464340625124	2.4294313930292754e-22
-0.49990360825000124	2.4313320733802345e-22
-0.49984257309375124	2.433089206802645e-22
-0.49978153793750124	2.4345715826055667e-22
-0.49972050278125124	2.4356668119671074e-22
-0.49965946762500124	2.43629777224129e-22
-0.49959843246875124	2.4364335852152904e-22
-0.49953739731250124	2.43609354259577e-22
-0.49947636215625124	2.4353434832876937e-22
-0.49941532700000124	2.434285286713255e-22
-0.49935429184375124	2.433041184943427e-22
-0.49929325668750124	2.43173534110131e-22
-0.49923222153125124	2.430475504942556e-22
-0.49917118637500124	2.429337501345712e-22
-0.49911015121875124	2.428354818138417e-22
-0.49904911606250124	2.427514727566542e-22
-0.49898808090625124	2.426761359907098e-22
-0.49892704575000124	2.426005091830431e-22
-0.49886601059375124	2.4251366851267316e-22
-0.49880497543750124	2.424043945892669e-22
-0.49874394028125124	2.4226283422261844e-22
-0.49868290512500124	2.420819091298385e-22
-0.49862186996875124	2.418582688538284e-22
-0.49856083481250124	2.4159265966131126e-22
-0.49849979965625124	2.412896731352019e-22
-0.49843876450000124	2.409569331329632e-22
-0.49837772934375124	2.406038618174811e-22
-0.49831669418750124	2.402402231856611e-22
-0.49825565903125124	2.3987466867698194e-22
-0.49819462387500124	2.39513502149512e-22
-0.49813358871875124	2.391598421034864e-22
-0.49807255356250124	2.388132919500569e-22
-0.49801151840625124	2.384701474495573e-22
-0.49795048325000124	2.381240895550587e-22
-0.49788944809375124	2.377672399512814e-22
-0.49782841293750124	2.3739140594078875e-22
-0.49776737778125124	2.369893206987348e-22
-0.49770634262500124	2.3655569294960535e-22
-0.49764530746875124	2.3608791457735885e-22
-0.49758427231250124	2.355863336539738e-22
-0.49752323715625124	2.350540711604621e-22
-0.49746220200000124	2.3449642806191417e-22
-0.49740116684375124	2.3391998909293815e-22
-0.49734013168750124	2.3333157363207993e-22
-0.49727909653125124	2.3273719972179223e-22
-0.49721806137500124	2.321412154372294e-22
-0.49715702621875124	2.315457226100856e-22
-0.49709599106250124	2.309503691384698e-22
-0.49703495590625124	2.3035252439256035e-22
-0.49697392075000124	2.297477941034478e-22
-0.49691288559375124	2.2913078092444356e-22
-0.49685185043750124	2.284959617245521e-22
-0.49679081528125124	2.27838542994772e-22
-0.49672978012500124	2.2715516728414116e-22
-0.49666874496875124	2.2644436862545567e-22
-0.49660770981250124	2.2570671519623917e-22
-0.49654667465625124	2.2494463082421393e-22
-0.49648563950000124	2.2416193857909854e-22
-0.49642460434375124	2.2336321003298383e-22
-0.49636356918750124	2.2255303052688247e-22
-0.49630253403125124	2.2173529778686383e-22
-0.49624149887500124	2.2091265867244065e-22
-0.49618046371875124	2.2008616404593574e-22
-0.49611942856250124	2.192551871829151e-22
-0.49605839340625124	2.1841760756832596e-22
-0.49599735825000124	2.175702180951683e-22
-0.49593632309375124	2.1670928123971563e-22
-0.49587528793750124	2.158311429020953e-22
-0.49581425278125124	2.1493280847347595e-22
-0.49575321762500124	2.1401239192989445e-22
-0.49569218246875124	2.1306937007169143e-22
-0.49563114731250124	2.1210461076513564e-22
-0.49557011215625124	2.111201815705888e-22
-0.49550907700000124	2.1011897829240004e-22
-0.49544804184375124	2.0910424235982914e-22
-0.49538700668750124	2.0807904826996719e-22
-0.49532597153125124	2.0704583932911628e-22
-0.49526493637500124	2.0600608064535716e-22
-0.49520390121875124	2.0496007903696258e-22
-0.49514286606250124	2.0390699307347291e-22
-0.49508183090625124	2.0284502580941266e-22
-0.49502079575000124	2.0177176043234255e-22
-0.49495976059375124	2.006845785484715e-22
-0.49489872543750124	1.9958109405138705e-22
-0.49483769028125124	1.9845953249785533e-22
-0.49477665512500124	1.9731899590395493e-22
-0.49471561996875124	1.9615957834122948e-22
-0.49465458481250124	1.949823205082313e-22
-0.49459354965625124	1.9378901542717622e-22
-0.49453251450000124	1.9258190511578226e-22
-0.49447147934375124	1.9136332044011808e-22
-0.49441044418750124	1.9013531943916054e-22
-0.49434940903125124	1.8889938298248573e-22
-0.49428837387500124	1.8765621485275004e-22
-0.49422733871875124	1.8640567188927931e-22
-0.49416630356250124	1.8514683235934155e-22
-0.49410526840625124	1.8387818814825568e-22
-0.49404423325000124	1.8259792172647604e-22
-0.49398319809375124	1.8130421841684856e-22
-0.49392216293750124	1.7999556792333425e-22
-0.49386112778125124	1.7867100869478192e-22
-0.49380009262500124	1.7733027087883764e-22
-0.49373905746875124	1.7597380058498154e-22
-0.49367802231250124	1.7460267361021013e-22
-0.49361698715625124	1.7321841338315264e-22
-0.49355595200000124	1.7182274352883617e-22
-0.49349491684375124	1.7041732009109978e-22
-0.49343388168750124	1.6900348412790533e-22
-0.49337284653125124	1.6758207235033326e-22
-0.49331181137500124	1.6615331883992713e-22
-0.49325077621875124	1.6471685848370065e-22
-0.49318974106250124	1.6327182263396667e-22
-0.49312870590625124	1.6181701109510732e-22
-0.49306767075000124	1.6035111359206175e-22
-0.49300663559375124	1.5887293905324133e-22
-0.49294560043750124	1.573816134625942e-22
-0.49288456528125124	1.5587672064864365e-22
-0.49282353012500124	1.5435836622285612e-22
-0.49276249496875124	1.5282715571434388e-22
-0.49270145981250124	1.5128409341142255e-22
-0.49264042465625124	1.4973041793810916e-22
-0.49257938950000124	1.4816740591701608e-22
-0.49251835434375124	1.4659618207784838e-22
-0.49245731918750124	1.4501756347498492e-22
-0.49239628403125124	1.434319567186644e-22
-0.49233524887500124	1.4183932212061667e-22
-0.49227421371875124	1.4023921293131383e-22
-0.49221317856250124	1.3863088440487514e-22
-0.49215214340625124	1.3701344530233384e-22
-0.49209110825000124	1.3538602180498655e-22
-0.49203007309375124	1.337479153062791e-22
-0.49196903793750124	1.32098728265213e-22
-0.49190800278125124	1.304384324816043e-22
-0.49184696762500124	1.2876737536142279e-22
-0.49178593246875124	1.2708622571578917e-22
-0.49172489731250124	1.2539586535904003e-22
-0.49166386215625124	1.236972512552822e-22
-0.49160282700000124	1.2199127403223865e-22
-0.49154179184375124	1.2027863088634466e-22
-0.49148075668750124	1.1855973505905047e-22
-0.49141972153125124	1.1683467814794135e-22
-0.49135868637500124	1.1510324563801518e-22
-0.49129765121875124	1.1336498125613232e-22
-0.49123661606250124	1.1161929099801201e-22
-0.49117558090625124	1.0986556819535356e-22
-0.49111454575000124	1.0810331560731154e-22
-0.49105351059375124	1.063322423004544e-22
-0.49099247543750124	1.0455232285636907e-22
-0.49093144028125124	1.0276381184275423e-22
-0.49087040512500124	1.0096721038943607e-22
-0.49080936996875124	9.916319184959041e-23
-0.49074833481250124	9.735250023262766e-23
-0.49068729965625124	9.553584038841677e-23
-0.49062626450000124	9.371378055781258e-23
-0.49056522934375124	9.188668088580105e-23
-0.49050419418750124	9.005465692676731e-23
-0.49044315903125124	8.821758471638179e-23
-0.49038212387500124	8.637514726051093e-23
-0.49032108871875124	8.452691363125489e-23
-0.49026005356250124	8.267243504199259e-23
-0.49019901840625124	8.08113420466972e-23
-0.49013798325000124	7.894342687277773e-23
-0.49007694809375124	7.706869499577038e-23
-0.49001591293750124	7.518738008831387e-23
-0.48995487778125124	7.329992306057886e-23
-0.48989384262500124	7.140691663706476e-23
-0.48983280746875124	6.950902369745229e-23
-0.48977177231250124	6.760688319251359e-23
-0.48971073715625124	6.570102135090966e-23
-0.48964970200000124	6.379178574363744e-23
-0.48958866684375124	6.18793095020567e-23
-0.48952763168750124	5.996350798792017e-23
-0.48946659653125124	5.804411091004271e-23
-0.48940556137500124	5.612072760393937e-23
-0.48934452621875124	5.419293602056304e-23
-0.48928349106250124	5.2260377499628736e-23
-0.48922245590625124	5.0322835895447426e-23
-0.48916142075000124	4.8380290031765895e-23
-0.48910038559375124	4.643293853206896e-23
-0.48903935043750124	4.448119175264852e-23
-0.48897831528125124	4.252562607261828e-23
-0.48891728012500124	4.0566910742432347e-23
-0.48885624496875124	3.8605719059440384e-23
-0.48879520981250124	3.6642634746485495e-23
-0.48873417465625124	3.4678076490327593e-23
-0.48867313950000124	3.271225471016758e-23
-0.48861210434375124	3.0745158428746146e-23
-0.48855106918750124	2.8776573564181867e-23
-0.48849003403125124	2.68061333063622e-23
-0.48842899887500124	2.4833394709052333e-23
-0.48836796371875124	2.2857930374863976e-23
-0.48830692856250124	2.087941734472794e-23
-0.48824589340625124	1.8897707735593234e-23
-0.48818485825000124	1.6912873288445568e-23
-0.48812382309375124	1.492521693612786e-23
-0.48806278793750124	1.2935246146501004e-23
-0.48800175278125124	1.0943614538859254e-23
-0.48794071762500124	8.951044198207402e-24
-0.48787968246875124	6.958235795891065e-24
-0.48781864731250124	4.965778201114497e-24
-0.48775761215625124	2.974075565408551e-24
-0.48769657700000124	9.833045167477588e-25
-0.48763554184375124	-1.0065924043588091e-24
-0.48757450668750124	-2.9958787297676767e-24
-0.48751347153125124	-4.9849682416445215e-24
-0.48745243637500124	-6.974346527052621e-24
-0.48739140121875124	-8.964479174427116e-24
-0.48733036606250124	-1.0955722100920804e-23
-0.48726933090625124	-1.2948248395912283e-23
-0.48720829575000124	-1.494200325203599e-23
-0.48714726059375124	-1.6936693055202384e-23
-0.48708622543750124	-1.89318073642844e-23
-0.48702519028125124	-2.0926671053847556e-23
-0.48696415512500124	-2.2920521733560087e-23
-0.48690311996875124	-2.4912602776814814e-23
-0.48684208481250124	-2.690225757626796e-23
-0.48678104965625124	-2.888900682224175e-23
-0.48672001450000124	-3.087259810312601e-23
-0.48665897934375124	-3.2853026062259655e-23
-0.48659794418750124	-3.483051823032702e-23
-0.48653690903125124	-3.680548402986509e-23
-0.48647587387500124	-3.877843693162412e-23
-0.48641483871875124	-4.0749905052723593e-23
-0.48635380356250124	-4.272033962768721e-23
-0.48629276840625124	-4.4690028720292787e-23
-0.48623173325000124	-4.665903348731407e-23
-0.48617069809375124	-4.8627161496478835e-23
-0.48610966293750124	-5.059397498888785e-23
-0.48604862778125124	-5.2558831475154374e-23
-0.48598759262500124	-5.452095600304898e-23
-0.48592655746875124	-5.647953366733454e-23
-0.48586552231250124	-5.843380720874789e-23
-0.48580448715625124	-6.038316680662151e-23
-0.48574345200000124	-6.232721935017682e-23
-0.48568241684375124	-6.426582894710741e-23
-0.48562138168750124	-6.619912141220366e-23
-0.48556034653125124	-6.812744782126228e-23
-0.48549931137500124	-7.005131626807746e-23
-0.48543827621875124	-7.197130617635207e-23
-0.48537724106250124	-7.388797168032114e-23
-0.48531620590625124	-7.580174302589593e-23
-0.48525517075000124	-7.771284439260123e-23
-0.48519413559375124	-7.962124309193964e-23
-0.48513310043750124	-8.152663419576198e-23
-0.48507206528125124	-8.342846074814352e-23
-0.48501103012500124	-8.532597220049764e-23
-0.48494999496875124	-8.721831635039335e-23
-0.48488895981250124	-8.910464433476468e-23
-0.48482792465625124	-9.098421058815362e-23
-0.48476688950000124	-9.285646123196086e-23
-0.48470585434375124	-9.472110072912162e-23
-0.48464481918750124	-9.657812165178825e-23
-0.48458378403125124	-9.842778988336243e-23
-0.48452274887500124	-1.0027058810325877e-22
-0.48446171371875124	-1.0210712802365968e-22
-0.48440067856250124	-1.0393804582365781e-22
-0.48433964340625124	-1.0576389552184881e-22
-0.48427860825000124	-1.075850538038947e-22
-0.48421757309375124	-1.0940164727278639e-22
-0.48415653793750124	-1.1121351279362596e-22
-0.48409550278125124	-1.1302020056190405e-22
-0.48403446762500124	-1.1482102085631379e-22
-0.48397343246875124	-1.1661512670673826e-22
-0.48391239731250124	-1.1840161939134664e-22
-0.48385136215625124	-1.2017966145410382e-22
-0.48379032700000124	-1.2194858171418859e-22
-0.48372929184375124	-1.2370795478318637e-22
-0.48366825668750124	-1.2545764402997536e-22
-0.48360722153125124	-1.271978062921942e-22
-0.48354618637500124	-1.2892885528118013e-22
-0.48348515121875124	-1.3065138356773613e-22
-0.48342411606250124	-1.3236605710376658e-22
-0.48336308090625124	-1.3407350208872452e-22
-0.48330204575000124	-1.3577419871325262e-22
-0.48324101059375124	-1.3746839604284807e-22
-0.48317997543750124	-1.3915606159638915e-22
-0.48311894028125124	-1.4083687116049592e-22
-0.48305790512500124	-1.4251024005326712e-22
-0.48299686996875124	-1.4417539275435702e-22
-0.48293583481250124	-1.458314597029354e-22
-0.48287479965625124	-1.4747758715072915e-22
-0.48281376450000124	-1.4911304609378818e-22
-0.48275272934375124	-1.5073732439268804e-22
-0.48269169418750124	-1.523501851938356e-22
-0.48263065903125124	-1.5395168132517056e-22
-0.48256962387500124	-1.5554212780619871e-22
-0.48250858871875124	-1.571220382513555e-22
-0.48244755356250124	-1.5869203153031911e-22
-0.48238651840625124	-1.6025272332084906e-22
-0.48232548325000124	-1.618046203713824e-22
-0.48226444809375124	-1.633480330140164e-22
-0.48220341293750124	-1.6488301776115566e-22
-0.48214237778125124	-1.664093552684254e-22
-0.48208134262500124	-1.6792656762887613e-22
-0.48202030746875124	-1.6943397611216872e-22
-0.48195927231250124	-1.7093079026478643e-22
-0.48189823715625124	-1.7241621347854018e-22
-0.48183720200000124	-1.7388954801747514e-22
-0.48177616684375124	-1.753502823343829e-22
-0.48171513168750124	-1.767981499859562e-22
-0.48165409653125124	-1.7823315386164243e-22
-0.48159306137500124	-1.7965554912565619e-22
-0.48153202621875124	-1.8106578582565746e-22
-0.48147099106250124	-1.8246442448847994e-22
-0.48140995590625124	-1.838520387196555e-22
-0.48134892075000124	-1.8522911494026993e-22
-0.48128788559375124	-1.8659596497755382e-22
-0.48122685043750124	-1.8795266806634295e-22
-0.48116581528125124	-1.892990483429603e-22
-0.48110478012500124	-1.906346888264673e-22
-0.48104374496875124	-1.9195898206191024e-22
-0.48098270981250124	-1.9327121089558987e-22
-0.48092167465625124	-1.9457064504170864e-22
-0.48086063950000124	-1.9585663647232335e-22
-0.48079960434375124	-1.971287005757024e-22
-0.48073856918750124	-1.9838657377200568e-22
-0.48067753403125124	-1.9963023831229882e-22
-0.48061649887500124	-2.0085990899068903e-22
-0.48055546371875124	-2.0207598359206706e-22
-0.48049442856250124	-2.032789662022805e-22
-0.48043339340625124	-2.0446937808730284e-22
-0.48037235825000124	-2.056476687248407e-22
-0.48031132309375124	-2.0681413741776497e-22
-0.48025028793750124	-2.079688783612637e-22
-0.48018925278125124	-2.0911175887618643e-22
-0.48012821762500124	-2.1024243288823833e-22
-0.48006718246875124	-2.1136038627756952e-22
-0.48000614731250124	-2.1246500604089376e-22
-0.47994511215625124	-2.135556625065888e-22
-0.47988407700000124	-2.146317931373245e-22
-0.47982304184375124	-2.156929746420503e-22
-0.47976200668750124	-2.1673897149499747e-22
-0.47970097153125124	-2.177697549295783e-22
-0.47963993637500124	-2.187854908872366e-22
-0.47957890121875124	-2.197864988803371e-22
-0.47951786606250124	-2.2077318870683143e-22
-0.47945683090625124	-2.217459850514378e-22
-0.47939579575000124	-2.2270525104762576e-22
-0.47933476059375124	-2.236512236484485e-22
-0.47927372543750124	-2.2458397230348666e-22
-0.47921269028125124	-2.255033856798155e-22
-0.47915165512500124	-2.264091858018607e-22
-0.47909061996875124	-2.2730096661325324e-22
-0.47902958481250124	-2.2817825128635303e-22
-0.47896854965625124	-2.290405596080993e-22
-0.47890751450000124	-2.2988747407983185e-22
-0.47884647934375124	-2.307186933299206e-22
-0.47878544418750124	-2.315340645761932e-22
-0.47872440903125124	-2.3233359113849755e-22
-0.47866337387500124	-2.33117415198581e-22
-0.47860233871875124	-2.3388577917628676e-22
-0.47854130356250124	-2.3463897251061985e-22
-0.47848026840625124	-2.353772739448146e-22
-0.47841923325000124	-2.3610089926901595e-22
-0.47835819809375124	-2.3680996173584764e-22
-0.47829716293750124	-2.375044503360853e-22
-0.47823612778125124	-2.3818422946325875e-22
-0.47817509262500124	-2.3884905980249213e-22
-0.47811405746875124	-2.394986357138188e-22
-0.47805302231250124	-2.4013263205455666e-22
-0.47799198715625124	-2.4075075255667006e-22
-0.47793095200000124	-2.4135277124394206e-22
-0.47786991684375124	-2.4193855993340496e-22
-0.47780888168750124	-2.425080983646885e-22
-0.47774784653125124	-2.4306146588757894e-22
-0.47768681137500124	-2.435988160082855e-22
-0.47762577621875124	-2.4412033884298307e-22
-0.47756474106250124	-2.4462621879989868e-22
-0.47750370590625124	-2.451165946688662e-22
-0.47744267075000124	-2.4559152876926876e-22
-0.47738163559375124	-2.4605099082189497e-22
-0.47732060043750124	-2.4649485925352164e-22
-0.47725956528125124	-2.469229389627069e-22
-0.47719853012500124	-2.4733499205157645e-22
-0.47713749496875124	-2.4773077603391607e-22
-0.47707645981250124	-2.4811008236302674e-22
-0.47701542465625124	-2.4847276826719405e-22
-0.47695438950000124	-2.4881877680965903e-22
-0.47689335434375124	-2.491481420711292e-22
-0.47683231918750124	-2.49460978300536e-22
-0.47677128403125124	-2.497574547090962e-22
-0.47671024887500124	-2.500377605761154e-22
-0.47664921371875124	-2.503020671279347e-22
-0.47658817856250124	-2.505504929136143e-22
-0.47652714340625124	-2.5078307868154614e-22
-0.47646610825000124	-2.509997761591571e-22
-0.47640507309375124	-2.512004525045471e-22
-0.47634403793750124	-2.513849094209197e-22
-0.47628300278125124	-2.5155291383386584e-22
-0.47622196762500124	-2.5170423523209564e-22
-0.47616093246875124	-2.5183868291769286e-22
-0.47609989731250124	-2.519561364222482e-22
-0.47603886215625124	-2.5205656442862704e-22
-0.47597782700000124	-2.521400286049331e-22
-0.47591679184375124	-2.522066708447747e-22
-0.47585575668750124	-2.5225668711872035e-22
-0.47579472153125124	-2.522902932624303e-22
-0.47573368637500124	-2.5230768737967983e-22
-0.47567265121875124	-2.5230901456252946e-22
-0.47561161606250124	-2.5229434099218856e-22
-0.47555058090625124	-2.522636423741345e-22
-0.47548954575000124	-2.522168075961701e-22
-0.47542851059375124	-2.5215365627788987e-22
-0.47536747543750124	-2.520739681907178e-22
-0.47530644028125124	-2.5197752075657243e-22
-0.47524540512500124	-2.518641275575959e-22
-0.47518436996875124	-2.5173367000314838e-22
-0.47512333481250124	-2.5158611759770603e-22
-0.47506229965625124	-2.514215342797324e-22
-0.47500126450000124	-2.512400689609995e-22
-0.47494022934375124	-2.5104193146056338e-22
-0.47487919418750124	-2.508273579671959e-22
-0.47481815903125124	-2.50596571729596e-22
-0.47475712387500124	-2.5034974611960697e-22
-0.47469608871875124	-2.5008697678750327e-22
-0.47463505356250124	-2.498082669174806e-22
-0.47457401840625124	-2.4951352807241126e-22
-0.47451298325000124	-2.492025971069985e-22
-0.47445194809375124	-2.4887526522854736e-22
-0.47439091293750124	-2.485313147362576e-22
-0.47432987778125124	-2.4817055870479423e-22
-0.47426884262500124	-2.477928758009631e-22
-0.47420780746875124	-2.4739823448828573e-22
-0.47414677231250124	-2.469867035055757e-22
-0.47408573715625124	-2.46558445125114e-22
-0.47402470200000124	-2.4611369168355474e-22
-0.47396366684375124	-2.4565271100422376e-22
-0.47390263168750124	-2.4517576675051608e-22
-0.47384159653125124	-2.446830795789944e-22
-0.47378056137500124	-2.4417479480137676e-22
-0.47371952621875124	-2.4365096129386704e-22
-0.47365849106250124	-2.4311152688067597e-22
-0.47359745590625124	-2.4255635129751126e-22
-0.47353642075000124	-2.4198523253877598e-22
-0.47347538559375124	-2.413979436209803e-22
-0.47341435043750124	-2.407942751784116e-22
-0.47335331528125124	-2.401740763950904e-22
-0.47329228012500124	-2.395372875199637e-22
-0.47323124496875124	-2.3888395639109555e-22
-0.47317020981250124	-2.382142362171062e-22
-0.47310917465625124	-2.375283681134314e-22
-0.47304813950000124	-2.3682664937531795e-22
-0.47298710434375124	-2.3610939101076885e-22
-0.47292606918750124	-2.353768743973134e-22
-0.47286503403125124	-2.3462931401112256e-22
-0.47280399887500124	-2.3386682901878636e-22
-0.47274296371875124	-2.330894279096805e-22
-0.47268192856250124	-2.322970117419581e-22
-0.47262089340625124	-2.3148939667789506e-22
-0.47255985825000124	-2.3066635101600615e-22
-0.47249882309375124	-2.298276411525369e-22
-0.47243778793750124	-2.2897307874156934e-22
