Time	Frequency
-0.5000228849375006	0.3459069718790836
-0.4999618497812506	0.3509246287648725
-0.4999008146250006	0.3559565575908279
-0.4998397794687506	0.3610236819919168
-0.4997787443125006	0.3661290127807953
-0.4997177091562506	0.37125704463690473
-0.4996566740000006	0.3763788618474648
-0.4995956388437506	0.38146119388256594
-0.4995346036875006	0.38647650375973874
-0.4994735685312506	0.39141097514514384
-0.4994125333750006	0.3962679957624443
-0.4993514982187506	0.4010662393449907
-0.4992904630625006	0.4058331956096327
-0.4992294279062506	0.4105963586932277
-0.4991683927500006	0.41537489651314596
-0.4991073575937506	0.42017432291070406
-0.4990463224375006	0.42498558198495023
-0.4989852872812506	0.42978853655621846
-0.4989242521250006	0.43455859506386624
-0.4988632169687506	0.43927431215798995
-0.4988021818125006	0.4439235355803235
-0.4987411466562506	0.44850629311395807
-0.4986801115000006	0.45303379942197275
-0.4986190763437506	0.45752415804101704
-0.4985580411875006	0.4619962818742438
-0.4984970060312506	0.4664640226646699
-0.4984359708750006	0.4709322948470629
-0.4983749357187506	0.47539621823127715
-0.4983139005625006	0.4798432939107077
-0.4982528654062506	0.4842577102216561
-0.4981918302500006	0.48862531737739323
-0.4981307950937506	0.49293770503410256
-0.4980697599375006	0.4971941886142258
-0.4980087247812506	0.5014012765509374
-0.4979476896250006	0.5055700019427671
-0.4978866544687506	0.509712095915813
-0.4978256193125006	0.5138362580398311
-0.4977645841562506	0.5179456511852627
-0.4977035490000006	0.5220373071187019
-0.4976425138437506	0.5261034835712498
-0.4975814786875006	0.5301343667810454
-0.4975204435312506	0.5341211642195504
-0.4974594083750006	0.5380586161078404
-0.4973983732187506	0.5419462186821552
-0.4973373380625006	0.5457878935428542
-0.4972763029062506	0.5495903180896777
-0.4972152677500006	0.5533605653125143
-0.4971542325937506	0.5571038542750548
-0.4970931974375006	0.5608220451624472
-0.4970321622812506	0.5645132600584609
-0.4969711271250006	0.5681726765868808
-0.4969100919687506	0.5717941512501071
-0.4968490568125006	0.5753721104657706
-0.4967880216562506	0.5789031245643258
-0.4967269865000006	0.5823867046980985
-0.4966659513437506	0.5858251417923148
-0.4966049161875006	0.5892225220939259
-0.4965438810312506	0.5925832852490164
-0.4964828458750006	0.5959108012007425
-0.4964218107187506	0.5992063888111273
-0.4963607755625006	0.6024690103976035
-0.4962997404062506	0.6056956713909645
-0.4962387052500006	0.6088823684912553
-0.4961776700937506	0.6120252702411165
-0.4961166349375006	0.6151217583271643
-0.4960555997812506	0.6181710386145113
-0.4959945646250006	0.6211741918069431
-0.4959335294687506	0.6241336956220549
-0.4958724943125006	0.62705258255951
-0.4958114591562506	0.6299334856316061
-0.4957504240000006	0.6327778466864693
-0.4956893888437506	0.6355855078041609
-0.4956283536875006	0.6383547733135605
-0.4955673185312506	0.641082885943374
-0.4955062833750006	0.6437667744025285
-0.4954452482187506	0.646403869745599
-0.4953842130625006	0.6489927566971084
-0.4953231779062506	0.6515334832005288
-0.4952621427500006	0.6540274677568693
-0.4952011075937506	0.6564770419280304
-0.4951400724375006	0.6588847448393607
-0.4950790372812506	0.6612525658104982
-0.4950180021250006	0.6635813456470662
-0.4949569669687506	0.6658704921170996
-0.4948959318125006	0.6681180934357552
-0.4948348966562506	0.670321399809032
-0.4947738615000006	0.6724775333144217
-0.4947128263437506	0.674584241866887
-0.4946517911875006	0.6766404995183763
-0.4945907560312506	0.6786467797337842
-0.4945297208750006	0.6806049103687274
-0.4944686857187506	0.682517539946214
-0.4944076505625006	0.6843873614020658
-0.4943466154062506	0.6862163083343192
-0.4942855802500006	0.688004949311794
-0.4942245450937506	0.6897522537610783
-0.4941635099375006	0.6914558040368641
-0.4941024747812506	0.6931124114374051
-0.4940414396250006	0.6947189768948172
-0.4939804044687506	0.6962733535326058
-0.4939193693125006	0.6977749570288616
-0.4938583341562506	0.699224937488631
-0.4937972990000006	0.7006258528983748
-0.4937362638437506	0.7019809320427377
-0.4936752286875006	0.7032931307818686
-0.4936141935312506	0.7045642439659107
-0.4935531583750006	0.7057943310167476
-0.4934921232187506	0.7069816289901594
-0.4934310880625006	0.7081229885252981
-0.4933700529062506	0.7092147261322285
-0.4933090177500006	0.7102536608848722
-0.4932479825937506	0.7112380317198722
-0.4931869474375006	0.7121680190096495
-0.4931259122812506	0.7130457088930663
-0.4930648771250006	0.7138744972261287
-0.4930038419687506	0.7146580953617939
-0.4929428068125006	0.7153994236459051
-0.4928817716562506	0.7160997187805728
-0.4928207365000006	0.7167581248488909
-0.4927597013437506	0.7173718962961944
-0.4926986661875006	0.7179371604822307
-0.4926376310312506	0.7184500226688927
-0.4925765958750006	0.7189076954699937
-0.4925155607187506	0.7193093274966852
-0.4924545255625006	0.7196562809079209
-0.4923934904062506	0.7199517542953929
-0.4923324552500006	0.7201998484927603
-0.4922714200937506	0.7204043497912607
-0.4922103849375006	0.7205675866097231
-0.4921493497812506	0.7206896982353536
-0.4920883146250006	0.7207685453717952
-0.4920272794687506	0.7208003062251795
-0.4919662443125006	0.7207805922571477
-0.4919052091562506	0.720705756311235
-0.4918441740000006	0.7205740045686979
-0.4917831388437506	0.7203859721270471
-0.4917221036875006	0.7201445710440421
-0.4916610685312506	0.7198541403928626
-0.4916000333750006	0.7195191474736046
-0.4915389982187506	0.7191428322670603
-0.4914779630625006	0.7187262088786532
-0.4914169279062506	0.7182677300813523
-0.4913558927500006	0.7177637239342598
-0.4912948575937506	0.7172094863561238
-0.4912338224375006	0.7166007133079038
-0.4911727872812506	0.7159348340728702
-0.4911117521250006	0.7152118232427661
-0.4910507169687506	0.7144342409022394
-0.4909896818125006	0.7136064930281069
-0.4909286466562506	0.7127335192121045
-0.4908676115000006	0.7118192928317706
-0.4908065763437506	0.7108656082352799
-0.4907455411875006	0.7098715366459274
-0.4906845060312506	0.7088337098194939
-0.4906234708750006	0.7077473448272265
-0.4905624357187506	0.7066077111386712
-0.4905014005625006	0.7054116038609738
-0.4904403654062506	0.7041583607663597
-0.4903793302500006	0.7028500908366105
-0.4903182950937506	0.7014910442878768
-0.4902572599375006	0.7000863333854448
-0.4901962247812506	0.6986403965134582
-0.4901351896250006	0.6971556625599129
-0.4900741544687506	0.6956318262414717
-0.4900131193125006	0.6940659706784023
-0.4899520841562506	0.6924535102436836
-0.4898910490000006	0.6907896479689124
-0.4898300138437506	0.6890708782587486
-0.4897689786875006	0.6872960811641758
-0.4897079435312506	0.6854668791818835
-0.4896469083750006	0.6835871510064501
-0.4895858732187506	0.6816618589197034
-0.4895248380625006	0.6796955454740246
-0.4894638029062506	0.6776909651519374
-0.4894027677500006	0.6756482852963279
-0.4893417325937506	0.6735651024603271
-0.4892806974375006	0.6714372576630065
-0.4892196622812506	0.6692601836152577
-0.4891586271250006	0.6670303548715093
-0.4890975919687506	0.6647464013069464
-0.4890365568125006	0.6624095540691824
-0.4889755216562506	0.6600232824616443
-0.4889144865000006	0.6575922382180116
-0.4888534513437506	0.6551208436843103
-0.4887924161875006	0.6526119664418985
-0.4887313810312506	0.650066101239402
-0.4886703458750006	0.647481305913954
-0.4886093107187506	0.6448538902616905
-0.4885482755625006	0.6421796322757589
-0.4884872404062506	0.6394551305503218
-0.4884262052500006	0.6366788813118448
-0.4883651700937506	0.6338517728330451
-0.4883041349375006	0.6309768332191931
-0.4882430997812506	0.6280583022335675
-0.4881820646250006	0.625100353037863
-0.4881210294687506	0.622105881923041
-0.4880599943125006	0.6190757207415922
-0.4879989591562506	0.616008495899712
-0.4879379240000006	0.6129011634912815
-0.4878768888437506	0.6097500345759542
-0.4878158536875006	0.6065519682040927
-0.4877548185312506	0.603305364100931
-0.4876937833750006	0.6000106557274146
-0.4876327482187506	0.5966701749994804
-0.4875717130625006	0.5932874389245384
-0.4875106779062506	0.5898660984885935
-0.4874496427500006	0.5864089092104816
-0.4873886075937506	0.5829170272866555
-0.4873275724375006	0.5793898014959694
-0.4872665372812506	0.5758251041765889
-0.4872055021250006	0.5722201006274416
-0.4871444669687506	0.5685722123370036
-0.4870834318125006	0.5648799637254797
-0.4870223966562506	0.5611434478251495
-0.4869613615000006	0.5573642813246706
-0.4869003263437506	0.5535450805235282
-0.4868392911875006	0.5496886569495495
-0.4867782560312506	0.5457972339835252
-0.4867172208750006	0.5418719010045893
-0.4866561857187506	0.5379124227887795
-0.4865951505625006	0.5339174831591338
-0.4865341154062506	0.529885269120217
-0.4864730802500006	0.525814147007629
-0.4864120450937506	0.5217032264224382
-0.4863510099375006	0.517552681200304
-0.4862899747812506	0.5133637188853079
-0.4862289396250006	0.5091382001796267
-0.4861679044687506	0.5048780788104975
-0.4861068693125006	0.5005848538041748
-0.4860458341562506	0.496259188371398
-0.4859847990000006	0.49190083307631294
-0.4859237638437506	0.48750885901045865
-0.4858627286875006	0.4830820914235396
-0.4858016935312506	0.47861961343964105
-0.4857406583750006	0.4741211715983882
-0.4856796232187506	0.4695873281293258
-0.4856185880625006	0.4650193272802167
-0.4855575529062506	0.46041875247041314
-0.4854965177500006	0.45578708939914403
-0.4854354825937506	0.451125347558539
-0.4853744474375006	0.446433866446149
-0.4853134122812506	0.4417123355396798
-0.4852523771250006	0.43696000160221704
-0.4851913419687506	0.4321760051143555
-0.4851303068125006	0.42735975173506824
-0.4850692716562506	0.42251119175392843
-0.4850082365000006	0.4176308989138409
-0.4849472013437506	0.41271995294814207
-0.4848861661875006	0.4077797061443713
-0.4848251310312506	0.4028114839336597
-0.4847640958750006	0.39781628154075627
-0.4847030607187506	0.3927945759775561
-0.4846420255625006	0.38774632315997387
-0.4845809904062506	0.3826711015523814
-0.4845199552500006	0.3775683437712767
-0.4844589200937506	0.37243761644546536
-0.4843978849375006	0.3672788517816799
-0.4843368497812506	0.36209242711334416
-0.4842758146250006	0.35687910382924076
-0.4842147794687506	0.3516398766575169
-0.4841537443125006	0.3463757643463543
-0.4840927091562506	0.34108761673852517
-0.4840316740000006	0.33577599382960677
-0.4839706388437506	0.33044112610194726
-0.4839096036875006	0.32508298241001116
-0.4838485685312506	0.3197014180518331
-0.4837875333750006	0.31429632848918426
-0.4837264982187506	0.3088677740354902
-0.4836654630625006	0.30341605457818743
-0.4836044279062506	0.2979417155349274
-0.4835433927500006	0.2924454792480819
-0.4834823575937506	0.28692812173644633
-0.4834213224375006	0.28139034538740243
-0.4833602872812506	0.27583267767818365
-0.4832992521250006	0.2702554158867418
-0.4832382169687506	0.26465866035079727
-0.4831771818125006	0.2590424192137447
-0.4831161466562506	0.25340672027732253
-0.4830551115000006	0.24775172013764593
-0.4829940763437506	0.24207778313929637
-0.4829330411875006	0.2363854818491517
-0.4828720060312506	0.23067553169509541
-0.4828109708750006	0.22494868861087114
-0.4827499357187506	0.2192056520755619
-0.4826889005625006	0.2134469891349617
-0.4826278654062506	0.20767305932423466
-0.4825668302500006	0.2018839965559897
-0.4825057950937506	0.19607979350887642
-0.4824447599375006	0.1902604212656624
-0.4823837247812506	0.18442592932476246
-0.4823226896250006	0.17857654493167083
-0.4822616544687506	0.17271275597059949
-0.4822006193125006	0.16683528960329808
-0.4821395841562506	0.1609449769793245
-0.4820785490000006	0.1550426104504573
-0.4820175138437506	0.14912884102882448
-0.4819564786875006	0.14320411576967404
-0.4818954435312506	0.1372686923355714
-0.4818344083750006	0.13132270503859939
-0.4817733732187506	0.12536621581626775
-0.4817123380625006	0.11939927976436872
-0.4816513029062506	0.11342206376793502
-0.4815902677500006	0.10743494223053827
-0.4815292325937506	0.10143850454917062
-0.4814681974375006	0.09543348983696893
-0.4814071622812506	0.08942066802855571
-0.4813461271250006	0.08340071525220927
-0.4812850919687506	0.07737414831041368
-0.4812240568125006	0.07134131170260297
-0.4811630216562506	0.06530238961318384
-0.4811019865000006	0.05925746947347338
-0.4810409513437506	0.05320664959163372
-0.4809799161875006	0.04715013459821979
-0.4809188810312506	0.041088302247080176
-0.4808578458750006	0.03502171783875196
-0.4807968107187506	0.02895107767256694
-0.4807357755625006	0.022877115532780216
-0.4806747404062506	0.01680050491220366
-0.4806137052500006	0.01072178251068893
-0.4805526700937506	0.004641301711082635
-0.4804916349375006	-0.00144076688197205
-0.4804305997812506	-0.007524353463114463
-0.4803695646250006	-0.013609358108715944
-0.4803085294687506	-0.019695555397348366
-0.4802474943125006	-0.025782562728960203
-0.4801864591562506	-0.03186982755328183
-0.4801254240000006	-0.037956640448956434
-0.4800643888437506	-0.044042227392507655
-0.4800033536875006	-0.05012587285276866
-0.4799423185312506	-0.0562069963967616
-0.4798812833750006	-0.06228520494250194
-0.4798202482187506	-0.06836031421532411
-0.4797592130625006	-0.07443227571318022
-0.4796981779062506	-0.0805010447536795
-0.4796371427500006	-0.08656645650770581
-0.4795761075937506	-0.09262814263981393
-0.4795150724375006	-0.09868553344828356
-0.4794540372812506	-0.10473793150920194
-0.4793930021250006	-0.11078460103652406
-0.4793319669687506	-0.11682485233250128
-0.4792709318125006	-0.12285810913600438
-0.4792098966562506	-0.1288839452827896
-0.4791488615000006	-0.13490209535369002
-0.4790878263437506	-0.14091243188067618
-0.4790267911875006	-0.14691489056952942
-0.4789657560312506	-0.1529093625956636
-0.4789047208750006	-0.15889559057357516
-0.4788436857187506	-0.1648731092365852
-0.4787826505625006	-0.17084126624510654
-0.4787216154062506	-0.17679930482735737
-0.4786605802500006	-0.18274646651476778
-0.4785995450937506	-0.18868208681718462
-0.4785385099375006	-0.19460566876862603
-0.4784774747812506	-0.2005169155572154
-0.4784164396250006	-0.20641568926576764
-0.4783554044687506	-0.21230191689144007
-0.4782943693125006	-0.21817551367769436
-0.4782333341562506	-0.22403631804766547
-0.4781722990000006	-0.2298839981686943
-0.4781112638437506	-0.23571799286182607
-0.4780502286875006	-0.2415375627208238
-0.4779891935312506	-0.2473419141834085
-0.4779281583750006	-0.25313032234071364
-0.4778671232187506	-0.2589022259933453
-0.4778060880625006	-0.26465728328300775
-0.4777450529062506	-0.2703953587796619
-0.4776840177500006	-0.27611644117922723
-0.4776229825937506	-0.2818205213797949
-0.4775619474375006	-0.28750746216023326
-0.4775009122812506	-0.29317691626935505
-0.4774398771250006	-0.29882831875735205
-0.4773788419687506	-0.30446092557384774
-0.4773178068125006	-0.31007390562046233
-0.4772567716562506	-0.3156664865916486
-0.4771957365000006	-0.32123809358917177
-0.4771347013437506	-0.3267884182679251
-0.4770736661875006	-0.33231739413798494
-0.4770126310312506	-0.3378251026031243
-0.4769515958750006	-0.34331164697023153
-0.4768905607187506	-0.3487770040754515
-0.4768295255625006	-0.35422088032741494
-0.4767684904062506	-0.35964265707682314
-0.4767074552500006	-0.36504148008169546
-0.4766464200937506	-0.37041642478255393
-0.4765853849375006	-0.37576665075797316
-0.4765243497812506	-0.38109153326328954
-0.4764633146250006	-0.38639075064290895
-0.4764022794687506	-0.391664282367253
-0.4763412443125006	-0.396912311493797
-0.4762802091562506	-0.4021350580332189
-0.4762191740000006	-0.40733259249026893
-0.4761581388437506	-0.4125046932563742
-0.4760971036875006	-0.41765079556913454
-0.4760360685312506	-0.4227700531445524
-0.4759750333750006	-0.42786149588607786
-0.4759139982187506	-0.4329242228231183
-0.4758529630625006	-0.437957565597668
-0.4757919279062506	-0.4429611777428056
-0.4757308927500006	-0.4479350233606049
-0.4756698575937506	-0.45287928201891614
-0.4756088224375006	-0.45779419921720343
-0.4755477872812506	-0.46267990824010785
-0.4754867521250006	-0.46753628312093465
-0.4754257169687506	-0.47236287666112314
-0.4753646818125006	-0.4771589583890697
-0.4753036466562506	-0.4819236359015701
-0.4752426115000006	-0.486656021206129
-0.4751815763437506	-0.49135539458152033
-0.4751205411875006	-0.4960213145367452
-0.4750595060312506	-0.5006536470842473
-0.4749984708750006	-0.5052525014112834
-0.4749374357187506	-0.5098180790611169
-0.4748764005625006	-0.5143505062175067
-0.4748153654062506	-0.5188497167001315
-0.4747543302500006	-0.5233153966913848
-0.4746932950937506	-0.5277470003046382
-0.4746322599375006	-0.5321438394300565
-0.4745712247812506	-0.5365051942823633
-0.4745101896250006	-0.5408304121008072
-0.4744491544687506	-0.5451190092454771
-0.4743881193125006	-0.5493707271406638
-0.4743270841562506	-0.5535854842775834
-0.4742660490000006	-0.5577632790256202
-0.4742050138437506	-0.5619041143951057
-0.4741439786875006	-0.566007931187123
-0.4740829435312506	-0.5700745422510903
-0.4740219083750006	-0.5741036121740082
-0.4739608732187506	-0.5780946926423325
-0.4738998380625006	-0.5820472829481217
-0.4738388029062506	-0.5859608871425754
-0.4737777677500006	-0.5898350547533528
-0.4737167325937506	-0.593669413322619
-0.4736556974375006	-0.5974636952500779
-0.4735946622812506	-0.6012177374651598
-0.4735336271250006	-0.6049314397382904
-0.4734725919687506	-0.6086047090922687
-0.4734115568125006	-0.6122374249887416
-0.4733505216562506	-0.6158294137892081
-0.4732894865000006	-0.6193804246662221
-0.4732284513437506	-0.6228901320709593
-0.4731674161875006	-0.6263581593356758
-0.4731063810312506	-0.629784108967008
-0.4730453458750006	-0.6331676025131985
-0.4729843107187506	-0.6365083093541891
-0.4729232755625006	-0.6398059579069513
-0.4728622404062506	-0.64306034879045
-0.4728012052500006	-0.6462713537938726
-0.4727401700937506	-0.6494388843351552
-0.4726791349375006	-0.6525628532772741
-0.4726180997812506	-0.6556431398027289
-0.4725570646250006	-0.6586795559466273
-0.4724960294687506	-0.6616718336335691
-0.4724349943125006	-0.6646196381177517
-0.4723739591562506	-0.6675225944036489
-0.4723129240000006	-0.6703803248341391
-0.4722518888437506	-0.673192503889413
-0.4721908536875006	-0.6759589095321195
-0.4721298185312506	-0.6786794342976424
-0.4720687833750006	-0.6813540489908478
-0.4720077482187506	-0.6839827410506529
-0.4719467130625006	-0.6865654573883448
-0.4718856779062506	-0.6891020665450172
-0.4718246427500006	-0.69159233921892
-0.4717636075937506	-0.6940359557835143
-0.4717025724375006	-0.6964325468050188
-0.4716415372812506	-0.6987817549707456
-0.4715805021250006	-0.7010832946712351
-0.4715194669687506	-0.7033369878218633
-0.4714584318125006	-0.7055427730664852
-0.4713973966562506	-0.7077006826684488
-0.4713363615000006	-0.7098107797450565
-0.4712753263437506	-0.7118730779129566
-0.4712142911875006	-0.7138874745870791
-0.4711532560312506	-0.715853719907241
-0.4710922208750006	-0.7177714384391259
-0.4710311857187506	-0.719640202236377
-0.4709701505625006	-0.7214596331969532
-0.4709091154062506	-0.7232294971238377
-0.4708480802500006	-0.7249497488562378
-0.4707870450937506	-0.7266205088790605
-0.4707260099375006	-0.7282419780031357
-0.4706649747812506	-0.7298143220511167
-0.4706039396250006	-0.73133756996337
-0.4705429044687506	-0.7328115548334005
-0.4704818693125006	-0.7342359161963821
-0.4704208341562506	-0.7356101719895198
-0.4703597990000006	-0.7369338403227806
-0.4702987638437506	-0.7382065661053013
-0.4702377286875006	-0.7394282084595423
-0.4701766935312506	-0.7405988625188126
-0.4701156583750006	-0.7417188094631461
-0.4700546232187506	-0.7427884077110162
-0.4699935880625006	-0.7438079532172652
-0.4699325529062506	-0.7447775490128792
-0.4698715177500006	-0.7456970294231814
-0.4698104825937506	-0.746565971713157
-0.4697494474375006	-0.7473837977238409
-0.4696884122812506	-0.7481499334551001
-0.4696273771250006	-0.7488639720759204
-0.4695663419687506	-0.7495257869189528
-0.4695053068125006	-0.7501355602980686
-0.4694442716562506	-0.7506937168832591
-0.4693832365000006	-0.751200778118598
-0.4693222013437506	-0.7516571826401909
-0.4692611661875006	-0.7520631313104652
