Time	Frequency
-0.5000305141562507	-0.18849742322769145
-0.49996947900000066	-0.18341275461309137
-0.49990844384375066	-0.17837715852438032
-0.49984740868750066	-0.17340768373915214
-0.49978637353125066	-0.1685128572631295
-0.49972533837500066	-0.1636920993803574
-0.49966430321875066	-0.15893610289063798
-0.49960326806250066	-0.15422811468977943
-0.49954223290625066	-0.1495459573699587
-0.49948119775000066	-0.14486455051134772
-0.49942016259375066	-0.14015864976551662
-0.49935912743750066	-0.1354055134163756
-0.49929809228125066	-0.13058722285923774
-0.49923705712500066	-0.12569242450959633
-0.49917602196875066	-0.12071732330775377
-0.49911498681250066	-0.11566584724824855
-0.49905395165625066	-0.11054900401004872
-0.49899291650000066	-0.1053835205194147
-0.49893188134375066	-0.10018991509215462
-0.49887084618750066	-0.09499022893934776
-0.49880981103125066	-0.08980568201951293
-0.49874877587500066	-0.08465449917495677
-0.49868774071875066	-0.07955012327075162
-0.49862670556250066	-0.0744999915390992
-0.49856567040625066	-0.0695049845760634
-0.49850463525000066	-0.06455958587476736
-0.49844360009375066	-0.059652718486343716
-0.49838256493750066	-0.054769146219089494
-0.49832152978125066	-0.04989126228081422
-0.49826049462500066	-0.04500106295413196
-0.49819945946875066	-0.04008209910131591
-0.49813842431250066	-0.0351211996229301
-0.49807738915625066	-0.03010978992058955
-0.49801635400000066	-0.025044678595692423
-0.49795531884375066	-0.019928240066993334
-0.49789428368750066	-0.014767993264254592
-0.49783324853125066	-0.009575649413339963
-0.49777221337500066	-0.004365749306091893
-0.49771117821875066	0.0008459541054315946
-0.49765014306250066	0.006044189278520939
-0.49758910790625066	0.011215753061506942
-0.49752807275000066	0.01635082185394216
-0.49746703759375066	0.021443856908766806
-0.49740600243750066	0.02649402397334945
-0.49734496728125066	0.031505093636148146
-0.49728393212500066	0.03648484497714799
-0.49722289696875066	0.04144405917686111
-0.49716186181250066	0.046395231300101
-0.49710082665625066	0.051351143779918895
-0.49703979150000066	0.056323453699327834
-0.49697875634375066	0.06132144571878774
-0.49691772118750066	0.06635108071719667
-0.49685668603125066	0.07141443300756277
-0.49679565087500066	0.07650956628125119
-0.49673461571875066	0.08163084855640863
-0.49667358056250066	0.08676965610917543
-0.49661254540625066	0.0919153754493271
-0.49655151025000066	0.09705658372820765
-0.49649047509375066	0.10218228012149501
-0.49642943993750066	0.10728303807675942
-0.49636840478125066	0.11235194439135876
-0.49630736962500066	0.11738522621539191
-0.49624633446875066	0.12238252266170026
-0.49618529931250066	0.1273467853780263
-0.49612426415625066	0.1322838223261985
-0.49606322900000066	0.13720154391468303
-0.49600219384375066	0.14210900055057332
-0.49594115868750066	0.14701532546043852
-0.49588012353125066	0.15192870971115616
-0.49581908837500066	0.1568555165397936
-0.49575805321875066	0.1617996165966178
-0.49569701806250066	0.16676201197652132
-0.49563598290625066	0.17174078999256667
-0.49557494775000066	0.17673139933438928
-0.49551391259375066	0.18172720255779148
-0.49545287743750066	0.18672023628168663
-0.49539184228125066	0.19170209181201292
-0.49533080712500066	0.1966648193916069
-0.49526977196875066	0.20160175496209243
-0.49520873681250066	0.2065081781986284
-0.49514770165625066	0.2113817386247064
-0.49508666650000066	0.21622261012248833
-0.49502563134375066	0.22103336108385585
-0.49496459618750066	0.22581856716360604
-0.49490356103125066	0.23058421991528122
-0.49484252587500066	0.23533699771606043
-0.49478149071875066	0.2400834801614827
-0.49472045556250066	0.24482939483636965
-0.49465942040625066	0.2495789815324211
-0.49459838525000066	0.25433454209017825
-0.49453735009375066	0.25909621824573525
-0.49447631493750066	0.26386201257792824
-0.49441527978125066	0.26862804035065707
-0.49435424462500066	0.27338897914142984
-0.49429320946875066	0.2781386679846542
-0.49423217431250066	0.2828707872061404
-0.49417113915625066	0.2875795333853635
-0.49411010400000066	0.2922602146865635
-0.49404906884375066	0.2969097105461602
-0.49398803368750066	0.30152674592949946
-0.49392699853125066	0.3061119506514949
-0.49386596337500066	0.310667706378456
-0.49380492821875066	0.3151978053303706
-0.49374389306250066	0.31970696209557076
-0.49368285790625066	0.3242002361287131
-0.49362182275000066	0.32868243219647464
-0.49356078759375066	0.3331575463556518
-0.49349975243750066	0.3376283158047321
-0.49343871728125066	0.3420959196958465
-0.49337768212500066	0.34655986179276393
-0.49331664696875066	0.3510180417870874
-0.49325561181250066	0.35546700220460536
-0.49319457665625066	0.3599023208813215
-0.49313354150000066	0.36431909930240297
-0.49307250634375066	0.3687124883389018
-0.49301147118750066	0.3730781966342457
-0.49295043603125066	0.37741292739516813
-0.49288940087500066	0.3817146929295304
-0.49282836571875066	0.3859829750737954
-0.49276733056250066	0.3902187206006467
-0.49270629540625066	0.39442417574828115
-0.49264526025000066	0.3986025784475235
-0.49258422509375066	0.40275774476548554
-0.49252318993750066	0.4068936035623718
-0.49246215478125066	0.41101373369806393
-0.49240111962500066	0.4151209497211286
-0.49234008446875066	0.4192169794896656
-0.49227904931250066	0.4233022697053242
-0.49221801415625066	0.4273759406526016
-0.49215697900000066	0.4314358911456445
-0.49209594384375066	0.43547903301055835
-0.49203490868750066	0.4395016251329342
-0.49197387353125066	0.44349967520097144
-0.49191283837500066	0.4474693668138373
-0.49185180321875066	0.45140745749583766
-0.49179076806250066	0.4553115998088546
-0.49172973290625066	0.4591805559461876
-0.49166869775000066	0.46301428603013695
-0.49160766259375066	0.4668139017920405
-0.49154662743750066	0.47058149373403096
-0.49148559228125066	0.47431985165888096
-0.49142455712500066	0.47803211392801015
-0.49136352196875066	0.48172139030249195
-0.49130248681250066	0.485390397858782
-0.49124145165625066	0.489041146408439
-0.49118041650000066	0.4926747072038174
-0.49111938134375066	0.49629108900017727
-0.49105834618750066	0.49988923537469115
-0.49099731103125066	0.5034671425417899
-0.49093627587500066	0.5070220788275916
-0.49087524071875066	0.5105508780159249
-0.49081420556250066	0.5140502754696459
-0.49075317040625066	0.5175172493152932
-0.49069213525000066	0.520949326193696
-0.49063110009375066	0.5243448196339152
-0.49057006493750066	0.5277029790924981
-0.49050902978125066	0.5310240326444015
-0.49044799462500066	0.5343091181682734
-0.49038695946875066	0.5375601167495468
-0.49032592431250066	0.5407794097974505
-0.49026488915625066	0.5439695842115713
-0.49020385400000066	0.5471331199632397
-0.49014281884375066	0.5502720980747632
-0.49008178368750066	0.5533879608290165
-0.49002074853125066	0.5564813479424765
-0.48995971337500066	0.559552023520517
-0.48989867821875066	0.5625988994251164
-0.48983764306250066	0.5656201518564968
-0.48977660790625066	0.5686134174351993
-0.48971557275000066	0.5715760444231174
-0.48965453759375066	0.5745053703476376
-0.48959350243750066	0.5773989956205374
-0.48953246728125066	0.5802550220270069
-0.48947143212500066	0.5830722305516356
-0.48941039696875066	0.585850182442951
-0.48934936181250066	0.5885892351035504
-0.48928832665625066	0.5912904705121613
-0.48922729150000066	0.5939555445462632
-0.48916625634375066	0.596586477148713
-0.48910522118750066	0.5991854081659849
-0.48904418603125066	0.6017543455061182
-0.48898315087500066	0.6042949318340527
-0.48892211571875066	0.6068082544373228
-0.48886108056250066	0.6092947204205985
-0.48880004540625066	0.6117540094644476
-0.48873901025000066	0.6141851056663067
-0.48867797509375066	0.6165864042714755
-0.48861693993750066	0.6189558806419316
-0.48855590478125066	0.6212913012904205
-0.48849486962500066	0.6235904537525558
-0.48843383446875066	0.6258513697761668
-0.48837279931250066	0.6280725178376902
-0.48831176415625066	0.6302529454018879
-0.48825072900000066	0.6323923573102322
-0.48818969384375066	0.6344911234353396
-0.48812865868750066	0.6365502147437143
-0.48806762353125066	0.638571075428831
-0.48800658837500066	0.640555446995727
-0.48794555321875066	0.6425051641519474
-0.48788451806250066	0.644421944584087
-0.48782348290625066	0.6463071955360067
-0.48776244775000066	0.6481618571651611
-0.48770141259375066	0.6499862975410133
-0.48764037743750066	0.651780269757924
-0.48757934228125066	0.6535429357518993
-0.48751830712500066	0.6552729528193931
-0.48745727196875066	0.6569686114912924
-0.48739623681250066	0.6586280093023251
-0.48733520165625066	0.660249242589152
-0.48727416650000066	0.6618305961391117
-0.48721313134375066	0.6633707095588548
-0.48715209618750066	0.6648687030424779
-0.48709106103125066	0.6663242512704377
-0.48703002587500066	0.6677375989274587
-0.48696899071875066	0.6691095167112328
-0.48690795556250066	0.6704412031855611
-0.48684692040625066	0.671734144241329
-0.48678588525000066	0.6729899461443993
-0.48672485009375066	0.6742101594155697
-0.48666381493750066	0.6753961113921663
-0.48660277978125066	0.6765487647882036
-0.48654174462500066	0.677668616745026
-0.48648070946875066	0.678755648027213
-0.48641967431250066	0.6798093261542304
-0.48635863915625066	0.6808286611761022
-0.48629760400000066	0.6818123077937293
-0.48623656884375066	0.6827587022675657
-0.48617553368750066	0.6836662192160644
-0.48611449853125066	0.6845333320125093
-0.48605346337500066	0.6853587601549875
-0.48599242821875066	0.6861415888124833
-0.48593139306250066	0.686881349391462
-0.48587035790625066	0.6875780533957485
-0.48580932275000066	0.6882321764038163
-0.48574828759375066	0.6888445952449302
-0.48568725243750066	0.6894164861498209
-0.48562621728125066	0.6899491946167972
-0.48556518212500066	0.6904440906098591
-0.48550414696875066	0.6909024247121083
-0.48544311181250066	0.6913252003712305
-0.48538207665625066	0.6917130741737223
-0.48532104150000066	0.6920662930370806
-0.48526000634375066	0.6923846748888625
-0.48519897118750066	0.6926676343527011
-0.48513793603125066	0.692914248834011
-0.48507690087500066	0.6931233574351305
-0.48501586571875066	0.6932936828791412
-0.48495483056250066	0.6934239631592329
-0.48489379540625066	0.6935130784728422
-0.48483276025000066	0.6935601609984186
-0.48477172509375066	0.6935646770034232
-0.48471068993750066	0.6935264719969689
-0.48464965478125066	0.6934457745784044
-0.48458861962500066	0.6933231614284439
-0.48452758446875066	0.6931594879772085
-0.48446654931250066	0.6929557909417967
-0.48440551415625066	0.6927131735882432
-0.48434447900000066	0.6924326877513518
-0.48428344384375066	0.692115225625562
-0.48422240868750066	0.6917614309517429
-0.48416137353125066	0.6913716381551277
-0.48410033837500066	0.6909458460650921
-0.48403930321875066	0.6904837275149862
-0.48397826806250066	0.6899846729193979
-0.48391723290625066	0.6894478632744456
-0.48385619775000066	0.6888723638862665
-0.48379516259375066	0.6882572280449415
-0.48373412743750066	0.6876015994589201
-0.48367309228125066	0.6869048032156294
-0.48361205712500066	0.6861664175300297
-0.48355102196875066	0.6853863196225661
-0.48348998681250066	0.684564698921345
-0.48342895165625066	0.6837020348065327
-0.48336791650000066	0.6827990442213063
-0.48330688134375066	0.6818566073880964
-0.48324584618750066	0.6808756781881459
-0.48318481103125066	0.6798571879418607
-0.48312377587500066	0.6788019523242161
-0.48306274071875066	0.6777105896326724
-0.48300170556250066	0.6765834607672443
-0.48294067040625066	0.675420637650709
-0.48287963525000066	0.6742218999376158
-0.48281860009375066	0.6729867635221942
-0.48275756493750066	0.6717145413487722
-0.48269652978125066	0.6704044234899954
-0.48263549462500066	0.6690555649454638
-0.48257445946875066	0.6676671776446013
-0.48251342431250066	0.6662386193047802
-0.48245238915625066	0.6647694673890902
-0.48239135400000066	0.6632595700472048
-0.48233031884375066	0.6617090702978602
-0.48226928368750066	0.660118400414018
-0.48220824853125066	0.6584882464236607
-0.48214721337500066	0.656819487129869
-0.48208617821875066	0.6551131134635726
-0.48202514306250066	0.6533701365157947
-0.48196410790625066	0.6515914939872092
-0.48190307275000066	0.6497779624390578
-0.48184203759375066	0.6479300841004514
-0.48178100243750066	0.6460481182430834
-0.48171996728125066	0.6441320217420449
-0.48165893212500066	0.6421814608780845
-0.48159789696875066	0.6401958549655057
-0.48153686181250066	0.6381744454274533
-0.48147582665625066	0.6361163814682773
-0.48141479150000066	0.6340208153926322
-0.48135375634375066	0.6318869983500949
-0.48129272118750066	0.629714366161311
-0.48123168603125066	0.6275026087872259
-0.48117065087500066	0.6252517167048193
-0.48110961571875066	0.6229619957537273
-0.48104858056250066	0.620634049290407
-0.48098754540625066	0.6182687319000434
-0.48092651025000066	0.6158670770860678
-0.48086547509375066	0.6134302047048058
-0.48080443993750066	0.6109592198046591
-0.48074340478125066	0.6084551141978569
-0.48068236962500066	0.6059186802387814
-0.48062133446875066	0.603350444702158
-0.48056029931250066	0.6007506277535755
-0.48049926415625066	0.5981191320304733
-0.48043822900000066	0.5954555663221178
-0.48037719384375066	0.5927593002939779
-0.48031615868750066	0.5900295407399239
-0.48025512353125066	0.5872654235909504
-0.48019408837500066	0.5844661164610243
-0.48013305321875066	0.5816309190580173
-0.48007201806250066	0.5787593472576492
-0.48001098290625066	0.5758511945072606
-0.47994994775000066	0.5729065676249895
-0.47988891259375066	0.5699258909974385
-0.47982787743750066	0.5669098757554721
-0.47976684228125066	0.5638594598185638
-0.47970580712500066	0.5607757291087396
-0.47964477196875066	0.5576598258666354
-0.47958373681250066	0.5545128493551962
-0.47952270165625066	0.5513357604700244
-0.47946166650000066	0.5481293040635717
-0.47940063134375066	0.5448939547830696
-0.47933959618750066	0.5416298872280499
-0.47927856103125066	0.5383369783785897
-0.47921752587500066	0.5350148456356539
-0.47915649071875066	0.5316629106003377
-0.47909545556250066	0.5282804798502104
-0.47903442040625066	0.5248668353822157
-0.47897338525000066	0.5214213262750852
-0.47891235009375066	0.5179434551113761
-0.47885131493750066	0.5144329465621543
-0.47879027978125066	0.5108897860015599
-0.47872924462500066	0.5073142291462315
-0.47866820946875066	0.5037067871820042
-0.47860717431250066	0.5000681882880726
-0.47854613915625066	0.496399317855644
-0.47848510400000066	0.4927011421420805
-0.47842406884375066	0.4889746232941522
-0.47836303368750066	0.48522063937302673
-0.47830199853125066	0.4814399184110837
-0.47824096337500066	0.47763298785764835
-0.47817992821875066	0.4738001475270455
-0.47811889306250066	0.46994147090327176
-0.47805785790625066	0.4660568290504143
-0.47799682275000066	0.4621459365157598
-0.47793578759375066	0.4582084149732852
-0.47787475243750066	0.4542438613464629
-0.47781371728125066	0.4502519138196858
-0.47775268212500066	0.4462323123950188
-0.47769164696875066	0.44218494710289136
-0.47763061181250066	0.43810988775609827
-0.47756957665625066	0.43400739118175546
-0.47750854150000066	0.42987788655548176
-0.47744750634375066	0.4257219432824505
-0.47738647118750066	0.42154022478203984
-0.47732543603125066	0.41733343248991345
-0.47726440087500066	0.41310224669271295
-0.47720336571875066	0.4088472739566933
-0.47714233056250066	0.4045690090359776
-0.47708129540625066	0.4002678093699936
-0.47702026025000066	0.39594388517641804
-0.47695922509375066	0.39159731195117203
-0.47689818993750066	0.3872280588601328
-0.47683715478125066	0.3828360275763683
-0.47677611962500066	0.3784210995508589
-0.47671508446875066	0.3739831843875929
-0.47665404931250066	0.369522263658969
-0.47659301415625066	0.3650384221941502
-0.47653197900000066	0.3605318621176638
-0.47647094384375066	0.356002905785989
-0.47640990868750066	0.351451986885107
-0.47634887353125066	0.34687962218952406
-0.47628783837500066	0.34228637029264075
-0.47622680321875066	0.3376727894176205
-0.47616576806250066	0.3330393967320499
-0.47610473290625066	0.32838663130358275
-0.47604369775000066	0.32371482779625316
-0.47598266259375066	0.3190242040497055
-0.47592162743750066	0.3143148630801182
-0.47586059228125066	0.3095868128195369
-0.47579955712500066	0.3048400014928788
-0.47573852196875066	0.30007436095688295
-0.47567748681250066	0.29528985387604745
-0.47561645165625066	0.29048651766541633
-0.47555541650000066	0.285664495317466
-0.47549438134375066	0.2808240519423443
-0.47543334618750066	0.2759655784881208
-0.47537231103125066	0.27108957972662184
-0.47531127587500066	0.2661966478471473
-0.47525024071875066	0.26128742653884257
-0.47518920556250066	0.25636256530865664
-0.47512817040625066	0.25142266828327847
-0.47506713525000066	0.24646825032944894
-0.47500610009375066	0.24149970529527393
-0.47494506493750066	0.23651728595708882
-0.47488402978125066	0.2315211018751191
-0.47482299462500066	0.22651113612088122
-0.47476195946875066	0.22148727523468548
-0.47470092431250066	0.21644935271388346
-0.47463988915625066	0.2113972040072187
-0.47457885400000066	0.20633072331063596
-0.47451781884375066	0.2012499120396083
-0.47445678368750066	0.19615491307993677
-0.47439574853125066	0.19104603294011283
-0.47433471337500066	0.18592375056302687
-0.47427367821875066	0.1807887037763547
-0.47421264306250066	0.17564165286422573
-0.47415160790625066	0.17048342727793617
-0.47409057275000066	0.16531486036664259
-0.47402953759375066	0.16013672275340957
-0.47396850243750066	0.1549496659722507
-0.47390746728125066	0.14975417803214167
-0.47384643212500066	0.1445505511765625
-0.47378539696875066	0.13933886934871897
-0.47372436181250066	0.13411902266993425
-0.47366332665625066	0.12889074927489946
-0.47360229150000066	0.1236536964688299
-0.47354125634375066	0.1184074942075442
-0.47348022118750066	0.11315183653607659
-0.47341918603125066	0.10788655690978408
-0.47335815087500066	0.10261168348547828
-0.47329711571875066	0.09732747190150257
-0.47323608056250066	0.0920344182750656
-0.47317504540625066	0.08673325236840092
-0.47311401025000066	0.08142490182815529
-0.47305297509375066	0.07611042365097208
-0.47299193993750066	0.07079091761427932
-0.47293090478125066	0.06546743564508792
-0.47286986962500066	0.06014089146098331
-0.47280883446875066	0.05481198226788153
-0.47274779931250066	0.049481137230050154
-0.47268676415625066	0.044148495406973305
-0.47262572900000066	0.038813913653754674
-0.47256469384375066	0.03347700675989559
-0.47250365868750066	0.028137214959058524
-0.47244262353125066	0.022793893003608387
-0.47238158837500066	0.01744641532478706
-0.47232055321875066	0.012094285048036578
-0.47225951806250066	0.006737232874372822
-0.47219848290625066	0.0013752919577760092
-0.47213744775000066	-0.003991161515114933
-0.47207641259375066	-0.009361405059932156
-0.47201537743750066	-0.014734404794326307
-0.47195434228125066	-0.020108885062437357
-0.47189330712500066	-0.02548342712593534
-0.47183227196875066	-0.030856590492828156
-0.47177123681250066	-0.03622704327422971
-0.47171020165625066	-0.04159368226917675
-0.47164916650000066	-0.04695572761102433
-0.47158813134375066	-0.05231278634156404
-0.47152709618750066	-0.05766487743015788
-0.47146606103125066	-0.06301240987474147
-0.47140502587500066	-0.06835611585973256
-0.47134399071875066	-0.07369694323511085
-0.47128295556250066	-0.07903591992686382
-0.47122192040625066	-0.08437401353348338
-0.47116088525000066	-0.08971199461202407
-0.47109985009375066	-0.09505030890389501
-0.47103881493750066	-0.10038897920976342
-0.47097777978125066	-0.10572755109938328
-0.47091674462500066	-0.11106509030848893
-0.47085570946875066	-0.11640024163550852
-0.47079467431250066	-0.12173134099383272
-0.47073363915625066	-0.1270565583442384
-0.47067260400000066	-0.13237405789446188
-0.47061156884375066	-0.13768216395225538
-0.47055053368750066	-0.1429795142306747
-0.47048949853125066	-0.14826518548909723
-0.47042846337500066	-0.15353877815965108
-0.47036742821875066	-0.15880044489752465
-0.47030639306250066	-0.1640508546365348
-0.47024535790625066	-0.16929109547131782
-0.47018432275000066	-0.17452252985705058
-0.47012328759375066	-0.1797466191599419
-0.47006225243750066	-0.18496473542572722
-0.47000121728125066	-0.1901779783985168
