Time	Frequency
-0.5000409517500017	-1.5810055108874077e-22
-0.49997991659375174	-1.591661818976946e-22
-0.49991888143750174	-1.6022477929252947e-22
-0.49985784628125174	-1.6126716375576155e-22
-0.49979681112500174	-1.62284710445818e-22
-0.49973577596875174	-1.6327044929533766e-22
-0.49967474081250174	-1.6421995589766211e-22
-0.49961370565625174	-1.6513191593811232e-22
-0.49955267050000174	-1.6600828839250007e-22
-0.49949163534375174	-1.6685404631573957e-22
-0.49943060018750174	-1.6767652970393684e-22
-0.49936956503125174	-1.684844950962139e-22
-0.49930852987500174	-1.692869858917733e-22
-0.49924749471875174	-1.7009217102049321e-22
-0.49918645956250174	-1.7090630349507868e-22
-0.49912542440625174	-1.7173293251986436e-22
-0.49906438925000174	-1.7257246831287078e-22
-0.49900335409375174	-1.734221534245144e-22
-0.49894231893750174	-1.7427644057851426e-22
-0.49888128378125174	-1.7512772287276597e-22
-0.49882024862500174	-1.7596731745827076e-22
-0.49875921346875174	-1.7678657291122067e-22
-0.49869817831250174	-1.7757795598681894e-22
-0.49863714315625174	-1.7833597793565995e-22
-0.49857610800000174	-1.7905784382488195e-22
-0.49851507284375174	-1.7974374642162853e-22
-0.49845403768750174	-1.8039677359361563e-22
-0.49839300253125174	-1.810224488472622e-22
-0.49833196737500174	-1.8162797189359286e-22
-0.49827093221875174	-1.8222126326500193e-22
-0.49820989706250174	-1.8280993967098432e-22
-0.49814886190625174	-1.8340035303869768e-22
-0.49808782675000174	-1.8399681497651404e-22
-0.49802679159375174	-1.8460110136279704e-22
-0.49796575643750174	-1.8521229322930513e-22
-0.49790472128125174	-1.8582696528058484e-22
-0.49784368612500174	-1.8643968830165494e-22
-0.49778265096875174	-1.8704377227234517e-22
-0.49772161581250174	-1.8763214793263043e-22
-0.49766058065625174	-1.8819826968389432e-22
-0.49759954550000174	-1.8873692359263994e-22
-0.49753851034375174	-1.8924483981626686e-22
-0.49747747518750174	-1.8972103695606553e-22
-0.49741644003125174	-1.901668626288985e-22
-0.49735540487500174	-1.9058573484699375e-22
-0.49729436971875174	-1.9098262754666955e-22
-0.49723333456250174	-1.9136337515277872e-22
-0.49717229940625174	-1.917338916318112e-22
-0.49711126425000174	-1.9209940745718175e-22
-0.49705022909375174	-1.9246382211632928e-22
-0.49698919393750174	-1.9282925132600207e-22
-0.49692815878125174	-1.9319582037095896e-22
-0.49686712362500174	-1.9356172148986162e-22
-0.49680608846875174	-1.9392351820350288e-22
-0.49674505331250174	-1.9427664807491908e-22
-0.49668401815625174	-1.9461605161631966e-22
-0.49662298300000174	-1.9493684126121433e-22
-0.49656194784375174	-1.9523492225643096e-22
-0.49650091268750174	-1.955074868943073e-22
-0.49643987753125174	-1.9575332273060414e-22
-0.49637884237500174	-1.959729018463175e-22
-0.49631780721875174	-1.9616824807071944e-22
-0.49625677206250174	-1.9634260801389842e-22
-0.49619573690625174	-1.9649997627564016e-22
-0.49613470175000174	-1.9664454234999447e-22
-0.49607366659375174	-1.9678013434245873e-22
-0.49601263143750174	-1.9690973220917696e-22
-0.49595159628125174	-1.9703511152551296e-22
-0.49589056112500174	-1.971566592854713e-22
-0.49582952596875174	-1.9727337892126366e-22
-0.49576849081250174	-1.973830763736051e-22
-0.49570745565625174	-1.9748269582111512e-22
-0.49564642050000174	-1.9756875521588992e-22
-0.49558538534375174	-1.9763782040402534e-22
-0.49552435018750174	-1.9768695386022762e-22
-0.49546331503125174	-1.9771407998204565e-22
-0.49540227987500174	-1.9771822224989028e-22
-0.49534124471875174	-1.976995862595109e-22
-0.49528020956250174	-1.9765948379984113e-22
-0.49521917440625174	-1.9760011407864201e-22
-0.49515813925000174	-1.9752423655721756e-22
-0.49509710409375174	-1.9743478302881076e-22
-0.49503606893750174	-1.97334462784434e-22
-0.49497503378125174	-1.972254132986655e-22
-0.49491399862500174	-1.9710894046574077e-22
-0.49485296346875174	-1.9698537920536366e-22
-0.49479192831250174	-1.9685408846579766e-22
-0.49473089315625174	-1.9671357612628984e-22
-0.49466985800000174	-1.9656173244347096e-22
-0.49460882284375174	-1.963961367181318e-22
-0.49454778768750174	-1.9621439284456548e-22
-0.49448675253125174	-1.9601444831868706e-22
-0.49442571737500174	-1.9579485569286672e-22
-0.49436468221875174	-1.9555494338151873e-22
-0.49430364706250174	-1.9529487598767766e-22
-0.49424261190625174	-1.9501560062525382e-22
-0.49418157675000174	-1.9471869130583209e-22
-0.49412054159375174	-1.9440611650579418e-22
-0.49405950643750174	-1.9407996355745464e-22
-0.49399847128125174	-1.9374215765575196e-22
-0.49393743612500174	-1.9339421318132045e-22
-0.49387640096875174	-1.9303704962784375e-22
-0.49381536581250174	-1.9267089445392257e-22
-0.49375433065625174	-1.9229528260338746e-22
-0.49369329550000174	-1.9190914910668349e-22
-0.49363226034375174	-1.9151099883468116e-22
-0.49357122518750174	-1.910991274303138e-22
-0.49351019003125174	-1.906718614245786e-22
-0.49344915487500174	-1.9022778487151914e-22
-0.49338811971875174	-1.8976592317750683e-22
-0.49332708456250174	-1.892858608574148e-22
-0.49326604940625174	-1.8878777949972538e-22
-0.49320501425000174	-1.8827241402592127e-22
-0.49314397909375174	-1.8774093646241944e-22
-0.49308294393750174	-1.8719478583317379e-22
-0.49302190878125174	-1.8663546886626905e-22
-0.49296087362500174	-1.8606435891369294e-22
-0.49289983846875174	-1.8548252087104297e-22
-0.49283880331250174	-1.8489058508054816e-22
-0.49277776815625174	-1.8428868471661596e-22
-0.49271673300000174	-1.8367646298637966e-22
-0.49265569784375174	-1.8305314658329798e-22
-0.49259466268750174	-1.8241767208833868e-22
-0.49253362753125174	-1.817688464587589e-22
-0.49247259237500174	-1.8110551938518103e-22
-0.49241155721875174	-1.80426743507253e-22
-0.49235052206250174	-1.7973190067590165e-22
-0.49228948690625174	-1.7902077851983982e-22
-0.49222845175000174	-1.7829358926408676e-22
-0.49216741659375174	-1.7755093072959764e-22
-0.49210638143750174	-1.767936967135826e-22
-0.49204534628125174	-1.7602295021465226e-22
-0.49198431112500174	-1.7523977864788439e-22
-0.49192327596875174	-1.7444515222106377e-22
-0.49186224081250174	-1.7363980406682585e-22
-0.49180120565625174	-1.728241472780497e-22
-0.49174017050000174	-1.719982389989138e-22
-0.49167913534375174	-1.7116179454406793e-22
-0.49161810018750174	-1.703142478783458e-22
-0.49155706503125174	-1.6945484837652055e-22
-0.49149602987500174	-1.685827789563953e-22
-0.49143499471875174	-1.6769727909282184e-22
-0.49137395956250174	-1.6679775572314549e-22
-0.49131292440625174	-1.6588386660397338e-22
-0.49125188925000174	-1.649555653958399e-22
-0.49119085409375174	-1.6401310431416471e-22
-0.49112981893750174	-1.6305699648494435e-22
-0.49106878378125174	-1.6208794431622484e-22
-0.49100774862500174	-1.611067439797829e-22
-0.49094671346875174	-1.6011418016417633e-22
-0.49088567831250174	-1.5911092686383342e-22
-0.49082464315625174	-1.5809746768503654e-22
-0.49076360800000174	-1.5707404556079199e-22
-0.49070257284375174	-1.5604064825821618e-22
-0.49064153768750174	-1.54997030850858e-22
-0.49058050253125174	-1.5394276978603815e-22
-0.49051946737500174	-1.5287733857569777e-22
-0.49045843221875174	-1.5180019467676623e-22
-0.49039739706250174	-1.5071086684858494e-22
-0.49033636190625174	-1.4960903023633537e-22
-0.49027532675000174	-1.4849455787378042e-22
-0.49021429159375174	-1.4736754213016223e-22
-0.49015325643750174	-1.462282842313688e-22
-0.49009222128125174	-1.4507725458574805e-22
-0.49003118612500174	-1.4391503090732788e-22
-0.48997015096875174	-1.4274222391838903e-22
-0.48990911581250174	-1.4155940145058768e-22
-0.48984808065625174	-1.403670216126048e-22
-0.48978704550000174	-1.3916538352252507e-22
-0.48972601034375174	-1.379546015332607e-22
-0.48966497518750174	-1.3673460726234006e-22
-0.48960394003125174	-1.3550517806233158e-22
-0.48954290487500174	-1.342659853478877e-22
-0.48948186971875174	-1.330166566385024e-22
-0.48942083456250174	-1.3175684338638705e-22
-0.48935979940625174	-1.304862832365244e-22
-0.48929876425000174	-1.2920484758442964e-22
-0.48923772909375174	-1.2791256944253323e-22
-0.48917669393750174	-1.2660964771851262e-22
-0.48911565878125174	-1.2529642682597195e-22
-0.48905462362500174	-1.2397335621955023e-22
-0.48899358846875174	-1.226409365403988e-22
-0.48893255331250174	-1.2129965975800165e-22
-0.48887151815625174	-1.1994995230632883e-22
-0.48881048300000174	-1.185921288866381e-22
-0.48874944784375174	-1.1722636319473405e-22
-0.48868841268750174	-1.1585268011599071e-22
-0.48862737753125174	-1.1447096939409636e-22
-0.48856634237500174	-1.130810181692934e-22
-0.48850530721875174	-1.1168255826361072e-22
-0.48844427206250174	-1.1027532082647247e-22
-0.48838323690625174	-1.088590890716895e-22
-0.48832220175000174	-1.0743374142265986e-22
-0.48826116659375174	-1.0599928087991365e-22
-0.48820013143750174	-1.0455584770373764e-22
-0.48813909628125174	-1.0310371233472547e-22
-0.48807806112500174	-1.0164324918284394e-22
-0.48801702596875174	-1.0017489671084787e-22
-0.48795599081250174	-9.869910929657958e-23
-0.48789495565625174	-9.721630671468806e-23
-0.48783392050000174	-9.572682968619192e-23
-0.48777288534375174	-9.423090785176534e-23
-0.48771185018750174	-9.272864347535814e-23
-0.48765081503125174	-9.12200137681625e-23
-0.48758977987500174	-8.970489137824371e-23
-0.48752874471875174	-8.81830788406638e-23
-0.48746770956250174	-8.665435260153943e-23
-0.48740667440625174	-8.511851076179646e-23
-0.48734563925000174	-8.357541634692653e-23
-0.48728460409375174	-8.202503037932591e-23
-0.48722356893750174	-8.046743170378827e-23
-0.48716253378125174	-7.890282013921987e-23
-0.48710149862500174	-7.733150237259706e-23
-0.48704046346875174	-7.575386380109375e-23
-0.48697942831250174	-7.417032946018176e-23
-0.48691839315625174	-7.258131921533505e-23
-0.48685735800000174	-7.098720573227253e-23
-0.48679632284375174	-6.93882806855272e-23
-0.48673528768750174	-6.77847316891739e-23
-0.48667425253125174	-6.617663390947057e-23
-0.48661321737500174	-6.456395764690951e-23
-0.48655218221875174	-6.294658910600382e-23
-0.48649114706250174	-6.132436217489535e-23
-0.48643011190625174	-5.969709809009922e-23
-0.48636907675000174	-5.806464630642498e-23
-0.48630804159375174	-5.642691995684376e-23
-0.48624700643750174	-5.478392252164487e-23
-0.48618597128125174	-5.313576324072152e-23
-0.48612493612500174	-5.1482657593688403e-23
-0.48606390096875174	-4.982491192488588e-23
-0.48600286581250174	-4.8162896331303487e-23
-0.48594183065625174	-4.649701010053354e-23
-0.48588079550000174	-4.4827642941995776e-23
-0.48581976034375174	-4.3155137913216636e-23
-0.48575872518750174	-4.147976229963298e-23
-0.48569769003125174	-3.980168940182633e-23
-0.48563665487500174	-3.81209929566601e-23
-0.48557561971875174	-3.643765544390097e-23
-0.48551458456250174	-3.4751588753110484e-23
-0.48545354940625174	-3.3062663666529964e-23
-0.48539251425000174	-3.137074473396006e-23
-0.48533147909375174	-2.967572594468039e-23
-0.48527044393750174	-2.7977561131482916e-23
-0.48520940878125174	-2.627628496612855e-23
-0.48514837362500174	-2.457202315443645e-23
-0.48508733846875174	-2.2864990868539945e-23
-0.48502630331250174	-2.1155478470073216e-23
-0.48496526815625174	-1.9443826506151904e-23
-0.48490423300000174	-1.7730395510327267e-23
-0.48484319784375174	-1.6015534694136463e-23
-0.48478216268750174	-1.429955205565274e-23
-0.48472112753125174	-1.25826901233265e-23
-0.48466009237500174	-1.086511089760419e-23
-0.48459905721875174	-9.146892550616742e-24
-0.48453802206250174	-7.42803838732447e-24
-0.48447698690625174	-5.708494841508209e-24
-0.48441595175000174	-3.9881762972863625e-24
-0.48435491659375174	-2.266994664011927e-24
-0.48429388143750174	-5.448883293988759e-25
-0.48423284628125174	1.1781533311219243e-24
-0.48417181112500174	2.902071641939057e-24
-0.48411077596875174	4.626730223385384e-24
-0.48404974081250174	6.351918930630222e-24
-0.48398870565625174	8.077367915837956e-24
-0.48392767050000174	9.802768111809176e-24
-0.48386663534375174	1.1527796484697715e-23
-0.48380560018750174	1.325214406805244e-23
-0.48374456503125174	1.49755415655195e-23
-0.48368352987500174	1.6697777744229812e-23
-0.48362249471875174	1.8418708656736696e-23
-0.48356145956250174	2.0138257455333966e-23
-0.48350042440625174	2.1856405966147367e-23
-0.48343938925000174	2.3573179360780798e-23
-0.48337835409375174	2.5288625211144948e-23
-0.48331731893750174	2.7002789193889685e-23
-0.48325628378125174	2.8715691192943314e-23
-0.48319524862500174	3.042730562823593e-23
-0.48313421346875174	3.213754804133099e-23
-0.48307317831250174	3.384626986305597e-23
-0.48301214315625174	3.5553263488441996e-23
-0.48295110800000174	3.725827663108158e-23
-0.48289007284375174	3.89610316541601e-23
-0.48282903768750174	4.066124630316823e-23
-0.48276800253125174	4.2358654720933925e-23
-0.48270696737500174	4.405302713783959e-23
-0.48264593221875174	4.5744185045014435e-23
-0.48258489706250174	4.743200891886869e-23
-0.48252386190625174	4.911643625001294e-23
-0.48246282675000174	5.079745062260946e-23
-0.48240179159375174	5.2475065899086665e-23
-0.48234075643750174	5.41493075488426e-23
-0.48227972128125174	5.582019105614528e-23
-0.48221868612500174	5.748770079947239e-23
-0.48215765096875174	5.915177479885287e-23
-0.48209661581250174	6.081229641297822e-23
-0.48203558065625174	6.246909281114906e-23
-0.48197454550000174	6.41219425383227e-23
-0.48191351034375174	6.577059097096043e-23
-0.48185247518750174	6.741476909832049e-23
-0.48179144003125174	6.905421350890775e-23
-0.48173040487500174	7.068868684082303e-23
-0.48166936971875174	7.231799593563713e-23
-0.48160833456250174	7.394200258221307e-23
-0.48154729940625174	7.556062472225094e-23
-0.48148626425000174	7.717383060430827e-23
-0.48142522909375174	7.878162653068485e-23
-0.48136419393750174	8.038403827233451e-23
-0.48130315878125174	8.198108993584782e-23
-0.48124212362500174	8.35727841604667e-23
-0.48118108846875174	8.515908547443519e-23
-0.48112005331250174	8.673990866974709e-23
-0.48105901815625174	8.831511431542406e-23
-0.48099798300000174	8.988451268695792e-23
-0.48093694784375174	9.1447875398915e-23
-0.48087591268750174	9.300495207837333e-23
-0.48081487753125174	9.45554898656491e-23
-0.48075384237500174	9.609925321166441e-23
-0.48069280721875174	9.763604063554376e-23
-0.48063177206250174	9.916569686464264e-23
-0.48057073690625174	1.0068811892014075e-22
-0.48050970175000174	1.0220325385743288e-22
-0.48044866659375174	1.0371108834066404e-22
-0.48038763143750174	1.0521163338167447e-22
-0.48032659628125174	1.0670490662215533e-22
-0.48026556112500174	1.0819091286934466e-22
-0.48020452596875174	1.0966962605240016e-22
-0.48014349081250174	1.1114097674924054e-22
-0.48008245565625174	1.1260484666121011e-22
-0.48002142050000174	1.140610694585671e-22
-0.47996038534375174	1.155094378156657e-22
-0.47989935018750174	1.169497173343506e-22
-0.47983831503125174	1.1838166554126845e-22
-0.47977727987500174	1.1980505187140952e-22
-0.47971624471875174	1.2121967641502089e-22
-0.47965520956250174	1.226253851432208e-22
-0.47959417440625174	1.24022077782362e-22
-0.47953313925000174	1.2540970701228507e-22
-0.47947210409375174	1.2678827095674146e-22
-0.47941106893750174	1.2815780040123734e-22
-0.47935003378125174	1.2951834086362736e-22
-0.47928899862500174	1.3086993131241597e-22
-0.47922796346875174	1.322125830003338e-22
-0.47916692831250174	1.335462621904464e-22
-0.47910589315625174	1.348708799271155e-22
-0.47904485800000174	1.3618628942408212e-22
-0.47898382284375174	1.3749229073893616e-22
-0.47892278768750174	1.387886432890268e-22
-0.47886175253125174	1.4007508522847782e-22
-0.47880071737500174	1.4135135618943217e-22
-0.47873968221875174	1.4261721950905936e-22
-0.47867864706250174	1.4387248138195457e-22
-0.47861761190625174	1.4511700489959424e-22
-0.47855657675000174	1.463507171310555e-22
-0.47849554159375174	1.475736079386551e-22
-0.47843450643750174	1.4878571965053088e-22
-0.47837347128125174	1.4998712908541226e-22
-0.47831243612500174	1.5117792540794465e-22
-0.47825140096875174	1.523581865301456e-22
-0.47819036581250174	1.5352795671619998e-22
-0.47812933065625174	1.5468722845033609e-22
-0.47806829550000174	1.558359309357597e-22
-0.47800726034375174	1.5697392700655552e-22
-0.47794622518750174	1.581010192587476e-22
-0.47788519003125174	1.592169645516451e-22
-0.47782415487500174	1.6032149436116497e-22
-0.47776311971875174	1.6141433800610774e-22
-0.47770208456250174	1.62495246674218e-22
-0.47764104940625174	1.6356401539290033e-22
-0.47758001425000174	1.6462049887102507e-22
-0.47751897909375174	1.6566461912608422e-22
-0.47745794393750174	1.6669636482635018e-22
-0.47739690878125174	1.6771578221776755e-22
-0.47733587362500174	1.6872295861451842e-22
-0.47727483846875174	1.6971800113124222e-22
-0.47721380331250174	1.707010132071941e-22
-0.47715276815625174	1.716720714382715e-22
-0.47709173300000174	1.7263120604089417e-22
-0.47703069784375174	1.7357838800614044e-22
-0.47696966268750174	1.7451352465442596e-22
-0.47690862753125174	1.754364636148954e-22
-0.47684759237500174	1.7634700421844387e-22
-0.47678655721875174	1.772449149947305e-22
-0.47672552206250174	1.781299549700741e-22
-0.47666448690625174	1.79001895637187e-22
-0.47660345175000174	1.7986054076686994e-22
-0.47654241659375174	1.8070574164932711e-22
-0.47648138143750174	1.8153740599956949e-22
-0.47642034628125174	1.8235549967857146e-22
-0.47635931112500174	1.8316004099376606e-22
-0.47629827596875174	1.8395108839363377e-22
-0.47623724081250174	1.8472872366588657e-22
-0.47617620565625174	1.8549303300519664e-22
-0.47611517050000174	1.8624408824663033e-22
-0.47605413534375174	1.8698193073442355e-22
-0.47599310018750174	1.8770655976770464e-22
-0.47593206503125174	1.8841792683662808e-22
-0.47587102987500174	1.8911593641231535e-22
-0.47580999471875174	1.8980045320821101e-22
-0.47574895956250174	1.9047131467394506e-22
-0.47568792440625174	1.9112834654659177e-22
-0.47562688925000174	1.9177137915661699e-22
-0.47556585409375174	1.9240026240071707e-22
-0.47550481893750174	1.9301487742718958e-22
-0.47544378378125174	1.9361514374100074e-22
-0.47538274862500174	1.942010211895012e-22
-0.47532171346875174	1.9477250673331494e-22
-0.47526067831250174	1.9532962654252494e-22
-0.47519964315625174	1.9587242469954045e-22
-0.47513860800000174	1.9640095019418452e-22
-0.47507757284375174	1.9691524411727078e-22
-0.47501653768750174	1.974153289101046e-22
-0.47495550253125174	1.9790120106962274e-22
-0.47489446737500174	1.983728280763777e-22
-0.47483343221875174	1.988301494976914e-22
-0.47477239706250174	1.9927308186106272e-22
-0.47471136190625174	1.9970152678740182e-22
-0.47465032675000174	2.0011538109328214e-22
-0.47458929159375174	2.005145470630353e-22
-0.47452825643750174	2.008989413347013e-22
-0.47446722128125174	2.0126850119704796e-22
-0.47440618612500174	2.016231875820436e-22
-0.47434515096875174	2.019629845715551e-22
-0.47428411581250174	2.022878956524301e-22
-0.47422308065625174	2.0259793738942372e-22
-0.47416204550000174	2.0289313165718646e-22
-0.47410101034375174	2.0317349777732738e-22
-0.47403997518750174	2.034390456884021e-22
-0.47397894003125174	2.0368977100318833e-22
-0.47391790487500174	2.0392565262160256e-22
-0.47385686971875174	2.0414665329995593e-22
-0.47379583456250174	2.0435272309209343e-22
-0.47373479940625174	2.0454380487660777e-22
-0.47367376425000174	2.0471984085393171e-22
-0.47361272909375174	2.0488077905707053e-22
-0.47355169393750174	2.0502657893467077e-22
-0.47349065878125174	2.0515721510531497e-22
-0.47342962362500174	2.052726786883725e-22
-0.47336858846875174	2.0537297604775714e-22
-0.47330755331250174	2.05458125369454e-22
-0.47324651815625174	2.0552815171158347e-22
-0.47318548300000174	2.0558308104016613e-22
-0.47312444784375174	2.056229341583465e-22
-0.47306341268750174	2.0564772188450875e-22
-0.47300237753125174	2.0565744233277536e-22
-0.47294134237500174	2.0565208045223814e-22
-0.47288030721875174	2.056316097893308e-22
-0.47281927206250174	2.055959962123353e-22
-0.47275823690625174	2.0554520316713741e-22
-0.47269720175000174	2.0547919766569826e-22
-0.47263616659375174	2.053979556872066e-22
-0.47257513143750174	2.0530146604740064e-22
-0.47251409628125174	2.0518973247787756e-22
