Time	Frequency
-0.5000076252187498	0.39483701917025604
-0.49994659006249975	0.39889191692279624
-0.49988555490624975	0.4029629692098192
-0.49982451974999975	0.40705244301547844
-0.49976348459374975	0.41115570807029805
-0.49970244943749975	0.4152622935302002
-0.49964141428124975	0.4193578950956285
-0.49958037912499975	0.42342695012196324
-0.49951934396874975	0.42745532054116964
-0.49945830881249975	0.43143262049121506
-0.49939727365624975	0.435353800255727
-0.49933623849999975	0.43921974423947824
-0.49927520334374975	0.4430368263391582
-0.49921416818749975	0.4468155449362369
-0.49915313303124975	0.4505685054617871
-0.49909209787499975	0.45430812086067934
-0.49903106271874975	0.4580444413589099
-0.49897002756249975	0.4617834849873393
-0.49890899240624975	0.4655263310544636
-0.49884795724999975	0.4692690992850911
-0.49878692209374975	0.47300378655514663
-0.49872588693749975	0.4767197827470523
-0.49866485178124975	0.4804057739558297
-0.49860381662499975	0.4840516905423793
-0.49854278146874975	0.48765036336369716
-0.49848174631249975	0.4911986132530753
-0.49842071115624975	0.49469760863644613
-0.49835967599999975	0.4981524569690563
-0.49829864084374975	0.5015711293049652
-0.49823760568749975	0.504962932140077
-0.49817657053124975	0.5083368097912397
-0.49811553537499975	0.5116997739792847
-0.49805450021874975	0.5150557262844782
-0.49799346506249975	0.5184048674786387
-0.49793242990624975	0.5217437736439424
-0.49787139474999975	0.5250660962786561
-0.49781035959374975	0.5283637433587804
-0.49774932443749975	0.5316283204020306
-0.49768828928124975	0.5348525688719387
-0.49762725412499975	0.5380315508190316
-0.49756621896874975	0.54116338542074
-0.49750518381249975	0.5442494296548145
-0.49744414865624975	0.5472938915171219
-0.49738311349999975	0.5503029588763144
-0.49732207834374975	0.553283615095964
-0.49726104318749975	0.556242363679771
-0.49720000803124975	0.5591840848736512
-0.49713897287499975	0.5621112168176551
-0.49707793771874975	0.5650233942865797
-0.49701690256249975	0.5679175901364579
-0.49695586740624975	0.5707887142254374
-0.49689483224999975	0.5736305494078999
-0.49683379709374975	0.5764368488214002
-0.49677276193749975	0.5792023970104416
-0.49671172678124975	0.581923852578941
-0.49665069162499975	0.5846002329581144
-0.49658965646874975	0.5872329694755585
-0.49652862131249975	0.5898255386792998
-0.49646758615624975	0.592382748842886
-0.49640655099999975	0.5949098207466933
-0.49634551584374975	0.5974114324184475
-0.49628448068749975	0.5998908943584851
-0.49622344553124975	0.6023495954440997
-0.49616241037499975	0.6047868089325459
-0.49610137521874975	0.6071998768532162
-0.49604034006249975	0.6095847246621796
-0.49597930490624975	0.6119366067490636
-0.49591826974999975	0.6142509436748435
-0.49585723459374975	0.6165240979632972
-0.49579619943749975	0.6187539554065155
-0.49573516428124975	0.6209402180153311
-0.49567412912499975	0.6230843645629937
-0.49561309396874975	0.6251892965295289
-0.49555205881249975	0.6272587465382966
-0.49549102365624975	0.6292965634228819
-0.49542998849999975	0.6313060030445021
-0.49536895334374975	0.6332891508346035
-0.49530791818749975	0.6352465747606766
-0.49524688303124975	0.6371772605291198
-0.49518584787499975	0.6390788290582397
-0.49512481271874975	0.6409479888424222
-0.49506377756249975	0.6427811364041244
-0.49500274240624975	0.6445749923271806
-0.49494170724999975	0.6463271571248406
-0.49488067209374975	0.6480364904615917
-0.49481963693749975	0.6497032526473822
-0.49475860178124975	0.6513289916229488
-0.49469756662499975	0.6529162037473509
-0.49463653146874975	0.6544678365434049
-0.49457549631249975	0.6559867278244261
-0.49451446115624975	0.6574750828953189
-0.49445342599999975	0.6589340816299823
-0.49439239084374975	0.6603636820983442
-0.49433135568749975	0.6617626496161901
-0.49427032053124975	0.6631287980449997
-0.49420928537499975	0.6644593939649671
-0.49414825021874975	0.6657516473201274
-0.49408721506249975	0.6670031980680818
-0.49402617990624975	0.6682125120922374
-0.49396514474999975	0.6693791185031953
-0.49390410959374975	0.6705036506158574
-0.49384307443749975	0.6715876893824101
-0.49378203928124975	0.6726334430735879
-0.49372100412499975	0.6736433249134306
-0.49365996896874975	0.6746195066810882
-0.49359893381249975	0.6755635281467883
-0.49353789865624975	0.6764760299716951
-0.49347686349999975	0.6773566538372561
-0.49341582834374975	0.6782041224573444
-0.49335479318749975	0.679016479785809
-0.49329375803124975	0.6797914440177059
-0.49323272287499975	0.6805268074334936
-0.49317168771874975	0.6812208113598435
-0.49311065256249975	0.681872431709277
-0.49304961740624975	0.6824815276183163
-0.49298858224999975	0.6830488308139562
-0.49292754709374975	0.6835757832597594
-0.49286651193749975	0.6840642572885929
-0.49280547678124975	0.6845162107001324
-0.49274444162499975	0.6849333390512793
-0.49268340646874975	0.6853167863694759
-0.49262237131249975	0.6856669627008019
-0.49256133615624975	0.6859834958168695
-0.49250030099999975	0.6862653202203957
-0.49243926584374975	0.6865108832995255
-0.49237823068749975	0.6867184281770395
-0.49231719553124975	0.686886300099025
-0.49225616037499975	0.6870132216800402
-0.49219512521874975	0.6870984904021041
-0.49213409006249975	0.6871420674854845
-0.49207305490624975	0.6871445478049777
-0.49201201974999975	0.6871070218789829
-0.49195098459374975	0.6870308599220211
-0.49188994943749975	0.6869174600762713
-0.49182891428124975	0.6867680057824614
-0.49176787912499975	0.6865832743174444
-0.49170684396874975	0.6863635290541008
-0.49164580881249975	0.6861085092600048
-0.49158477365624975	0.6858175115892248
-0.49152373849999975	0.6854895443175538
-0.49146270334374975	0.6851235245766685
-0.49140166818749975	0.6847184792012909
-0.49134063303124975	0.6842737101584949
-0.49127959787499975	0.6837888972621874
-0.49121856271874975	0.6832641247480205
-0.49115752756249975	0.6826998314178963
-0.49109649240624975	0.6820966991448966
-0.49103545724999975	0.6814555063785194
-0.49097442209374975	0.6807769761558716
-0.49091338693749975	0.6800616463292157
-0.49085235178124975	0.6793097862461136
-0.49079131662499975	0.6785213753008719
-0.49073028146874975	0.6776961439088354
-0.49066924631249975	0.6768336631539922
-0.49060821115624975	0.6759334620427888
-0.49054717599999975	0.6749951488030878
-0.49048614084374975	0.6740185097776764
-0.49042510568749975	0.6730035624812462
-0.49036407053124975	0.6719505533611448
-0.49030303537499975	0.67085990394622
-0.49024200021874975	0.669732116814493
-0.49018096506249975	0.6685676608376594
-0.49011992990624975	0.6673668613283192
-0.49005889474999975	0.6661298207229881
-0.48999785959374975	0.6648563889853105
-0.48993682443749975	0.6635461905921517
-0.48987578928124975	0.6621987028052764
-0.48981475412499975	0.660813372909235
-0.48975371896874975	0.6593897529564573
-0.48969268381249975	0.6579276220654431
-0.48963164865624975	0.6564270693893834
-0.48957061349999975	0.6548885205487359
-0.48950957834374975	0.6533126988942507
-0.48944854318749975	0.6517005241142557
-0.48938750803124975	0.6500529666033548
-0.48932647287499975	0.6483708836721473
-0.48926543771874975	0.6466548637886549
-0.48920440256249975	0.6449051099420234
-0.48914336740624975	0.6431213889801516
-0.48908233224999975	0.6413030593800892
-0.48902129709374975	0.6394491778095313
-0.48896026193749975	0.637558666865097
-0.48889922678124975	0.6356305123133156
-0.48883819162499975	0.633663957297485
-0.48877715646874975	0.6316586615219546
-0.48871612131249975	0.6296147979563249
-0.48865508615624975	0.6275330680534302
-0.48859405099999975	0.6254146241195511
-0.48853301584374975	0.6232609063573977
-0.48847198068749975	0.6210734273200751
-0.48841094553124975	0.6188535403519426
-0.48834991037499975	0.6166022241211357
-0.48828887521874975	0.6143199242754201
-0.48822784006249975	0.6120064858543811
-0.48816680490624975	0.6096611852123033
-0.48810576974999975	0.6072828572337281
-0.48804473459374975	0.6048701010161588
-0.48798369943749975	0.6024215277604673
-0.48792266428124975	0.5999360070567394
-0.48786162912499975	0.5974128737981026
-0.48780059396874975	0.5948520638740652
-0.48773955881249975	0.5922541525509067
-0.48767852365624975	0.5896202847778658
-0.48761748849999975	0.5869520086590327
-0.48755645334374975	0.5842510446415566
-0.48749541818749975	0.581519031814924
-0.48743438303124975	0.5787572862976653
-0.48737334787499975	0.57596660919599
-0.48731231271874975	0.573147183620734
-0.48725127756249975	0.5702985779974269
-0.48719024240624975	0.5674198503928346
-0.48712920724999975	0.5645097341945029
-0.48706817209374975	0.5615668727377396
-0.48700713693749975	0.5585900667728119
-0.48694610178124975	0.5555784929512839
-0.48688506662499975	0.5525318524110256
-0.48682403146874975	0.5494504291758624
-0.48676299631249975	0.5463350547349521
-0.48670196115624975	0.5431869827683489
-0.48664092599999975	0.5400076930177007
-0.48657989084374975	0.5367986620681352
-0.48651885568749975	0.5335611456908917
-0.48645782053124975	0.5302960093810803
-0.48639678537499975	0.527003631986814
-0.48633575021874975	0.5236838948952257
-0.48627471506249975	0.5203362541792642
-0.48621367990624975	0.5169598830959348
-0.48615264474999975	0.5135538613255874
-0.48609160959374975	0.5101173724337025
-0.48603057443749975	0.5066498723459637
-0.48596953928124975	0.5031512033743469
-0.48590850412499975	0.4996216346567853
-0.48584746896874975	0.49606182085326855
-0.48578643381249975	0.4924726912045943
-0.48572539865624975	0.4888552951547224
-0.48566436349999975	0.48521063308877627
-0.48560332834374975	0.48153950298353254
-0.48554229318749975	0.4778423920568901
-0.48548125803124975	0.47411943345549235
-0.48542022287499975	0.4703704361174541
-0.48535918771874975	0.46659498087977763
-0.48529815256249975	0.4627925618908344
-0.48523711740624975	0.45896274102708223
-0.48517608224999975	0.45510528171333237
-0.48511504709374975	0.45122024032986735
-0.48505401193749975	0.4473080025220286
-0.48499297678124975	0.4433692545431537
-0.48493194162499975	0.43940488966768676
-0.48487090646874975	0.43541586573077756
-0.48480987131249975	0.4314030443443939
-0.48474883615624975	0.42736704784590557
-0.48468780099999975	0.4233081599171417
-0.48462676584374975	0.41922628736749334
-0.48456573068749975	0.41512099879783093
-0.48450469553124975	0.41099163693134155
-0.48444366037499975	0.40683747794340613
-0.48438262521874975	0.4026579103870768
-0.48432159006249975	0.39845260586401626
-0.48426055490624975	0.39422164593822046
-0.48419951974999975	0.3899655760442827
-0.48413848459374975	0.3856853711670561
-0.48407744943749975	0.38138231735493544
-0.48401641428124975	0.37705783250311664
-0.48395537912499975	0.372713257788059
-0.48389434396874975	0.36834965627223065
-0.48383330881249975	0.3639676562496536
-0.48377227365624975	0.3595673675275135
-0.48371123849999975	0.35514838729047116
-0.48365020334374975	0.35070990128799945
-0.48358916818749975	0.34625086306222175
-0.48352813303124975	0.34177021344656666
-0.48346709787499975	0.3372671073671147
-0.48340606271874975	0.33274111217094365
-0.48334502756249975	0.3281923306942609
-0.48328399240624975	0.3236214255062608
-0.48322295724999975	0.3190295518178979
-0.48316192209374975	0.3144182059413864
-0.48310088693749975	0.3097890034357664
-0.48303985178124975	0.3051434355889293
-0.48297881662499975	0.3004826552099934
-0.48291778146874975	0.2958073206137797
-0.48285674631249975	0.29111752520227285
-0.48279571115624975	0.286412827640869
-0.48273467599999975	0.28169237419561255
-0.48267364084374975	0.2769550973492298
-0.48261260568749975	0.27219995679740877
-0.48255157053124975	0.2674261698720751
-0.48249053537499975	0.2626333914522891
-0.48242950021874975	0.2578218181539014
-0.48236846506249975	0.25299219615778773
-0.48230742990624975	0.24814573084117622
-0.48224639474999975	0.24328391677736397
-0.48218535959374975	0.2384083179244321
-0.48212432443749975	0.23352033653331983
-0.48206328928124975	0.22862101199150256
-0.48200225412499975	0.22371088483091914
-0.48194121896874975	0.2187899512076424
-0.48188018381249975	0.21385771794868494
-0.48181914865624975	0.20891334509134285
-0.48175811349999975	0.20395584892757262
-0.48169707834374975	0.1989843302629343
-0.48163604318749975	0.19399818395731533
-0.48157500803124975	0.18899725408540677
-0.48151397287499975	0.18398190972306455
-0.48145293771874975	0.17895302671170701
-0.48139190256249975	0.17391187822541063
-0.48133086740624975	0.16885994960004813
-0.48126983224999975	0.16379871192536952
-0.48120879709374975	0.1587294034653853
-0.48114776193749975	0.15365286050561536
-0.48108672678124975	0.14856942482174793
-0.48102569162499975	0.14347893767341682
-0.48096465646874975	0.138380818523124
-0.48090362131249975	0.13327422093134855
-0.48084258615624975	0.12815824079626725
-0.48078155099999975	0.12303213449612747
-0.48072051584374975	0.11789550479446109
-0.48065948068749975	0.1127484226419513
-0.48059844553124975	0.10759146420814869
-0.48053741037499975	0.1024256556777737
-0.48047637521874975	0.09725233522997649
-0.48041534006249975	0.09207296115532604
-0.48035430490624975	0.08688890119792475
-0.48029326974999975	0.08170123564046554
-0.48023223459374975	0.07651061333729332
-0.48017119943749975	0.07131718973313675
-0.48011016428124975	0.06612065095866948
-0.48004912912499975	0.06092032149935133
-0.47998809396874975	0.05571534105299164
-0.47992705881249975	0.05050487420899737
-0.47986602365624975	0.04528831597641788
-0.47980498849999975	0.040065458476253576
-0.47974395334374975	0.0348365822488237
-0.47968291818749975	0.02960245563319964
-0.47962188303124975	0.024364248706165607
-0.47956084787499975	0.019123374811848667
-0.47949981271874975	0.013881284145461047
-0.47943877756249975	0.008639251296831066
-0.47937774240624975	0.003398198901877386
-0.47931670724999975	-0.001841415054692898
-0.47925567209374975	-0.007079628281914136
-0.47919463693749975	-0.012316915113355881
-0.47913360178124975	-0.017554048557939652
-0.47907256662499975	-0.022791908461491296
-0.47901153146874975	-0.028031267889623006
-0.47895049631249975	-0.0332725985186365
-0.47888946115624975	-0.038515931097691726
-0.47882842599999975	-0.043760793780814454
-0.47876739084374975	-0.04900624237537832
-0.47870635568749975	-0.05425097759824159
-0.47864532053124975	-0.05949352409232083
-0.47858428537499975	-0.0647324428405261
-0.47852325021874975	-0.06996654069514363
-0.47846221506249975	-0.0751950312252787
-0.47840117990624975	-0.08041761839354217
-0.47834014474999975	-0.0856344989700512
-0.47827910959374975	-0.09084628222508982
-0.47821807443749975	-0.09605383090810078
-0.47815703928124975	-0.10125805446397279
-0.47809600412499975	-0.1064596969807381
-0.47803496896874975	-0.11165915310788824
-0.47797393381249975	-0.11685634166104124
-0.47791289865624975	-0.12205066153950593
-0.47785186349999975	-0.12724104141218712
-0.47779082834374975	-0.13242607768719541
-0.47772979318749975	-0.1376042332526899
-0.47766875803124975	-0.142774057047388
-0.47760772287499975	-0.14793438987631136
-0.47754668771874975	-0.1530845222846496
-0.47748565256249975	-0.1582242699006317
-0.47742461740624975	-0.16335395167483213
-0.47736358224999975	-0.16847428064456385
-0.47730254709374975	-0.17358618912032658
-0.47724151193749975	-0.17869061508663422
-0.47718047678124975	-0.18378828368015182
-0.47711944162499975	-0.18887952650895554
-0.47705840646874975	-0.19396417310770092
-0.47699737131249975	-0.19904152924732849
-0.47693633615624975	-0.20411044784705595
-0.47687530099999975	-0.2091694837114587
-0.47681426584374975	-0.2142170994348515
-0.47675323068749975	-0.21925188255161096
-0.47669219553124975	-0.2242727417511271
-0.47663116037499975	-0.2292790521607395
-0.47657012521874975	-0.23427071706179375
-0.47650909006249975	-0.2392481294773884
-0.47644805490624975	-0.24421204777172073
-0.47638701974999975	-0.2491634127988852
-0.47632598459374975	-0.2541031346250089
-0.47626494943749975	-0.25903188277791894
-0.47620391428124975	-0.26394991734626716
-0.47614287912499975	-0.26885699255554774
-0.47608184396874975	-0.27375235168264667
-0.47602080881249975	-0.2786348129949928
-0.47595977365624975	-0.28350293046059977
-0.47589873849999975	-0.28835520207294724
-0.47583770334374975	-0.2931902868723399
-0.47577666818749975	-0.2980071918196215
-0.47571563303124975	-0.3028053983214435
-0.47565459787499975	-0.30758490475630745
-0.47559356271874975	-0.31234617555005073
-0.47553252756249975	-0.317090005655641
-0.47547149240624975	-0.3218173274778449
-0.47541045724999975	-0.32652899780474415
-0.47534942209374975	-0.3312255987607664
-0.47528838693749975	-0.33590728642485534
-0.47522735178124975	-0.34057371744229514
-0.47516631662499975	-0.34522406567185343
-0.47510528146874975	-0.34985712450828177
-0.47504424631249975	-0.354471477669053
-0.47498321115624975	-0.3590657059451017
-0.47492217599999975	-0.363638591532721
-0.47486114084374975	-0.36818928455360406
-0.47480010568749975	-0.3727174025607377
-0.47473907053124975	-0.37722304748790164
-0.47467803537499975	-0.381706738695075
-0.47461700021874975	-0.38616927189370087
-0.47455596506249975	-0.3906115282969978
-0.47449492990624975	-0.3950342713185088
-0.47443389474999975	-0.3994379694538874
-0.47437285959374975	-0.4038226734651294
-0.47431182443749975	-0.40818796550843994
-0.47425078928124975	-0.41253299163409773
-0.47418975412499975	-0.4168565726173618
-0.47412871896874975	-0.4211573694464387
-0.47406768381249975	-0.4254340761570893
-0.47400664865624975	-0.4296856077943756
-0.47394561349999975	-0.43391124575404294
-0.47388457834374975	-0.4381107140280658
-0.47382354318749975	-0.44228417789968444
-0.47376250803124975	-0.4464321668492124
-0.47370147287499975	-0.45055543299256007
-0.47364043771874975	-0.4546547733696824
-0.47357940256249975	-0.4587308496031966
-0.47351836740624975	-0.46278403217305136
-0.47345733224999975	-0.46681429758268356
-0.47339629709374975	-0.4708211988053752
-0.47333526193749975	-0.47480390913815657
-0.47327422678124975	-0.4787613295796376
-0.47321319162499975	-0.482692244973624
-0.47315215646874975	-0.48659550112612526
-0.47309112131249975	-0.4904701667289492
-0.47303008615624975	-0.4943156509995157
-0.47296905099999975	-0.4981317597531502
-0.47290801584374975	-0.5019186811127885
-0.47284698068749975	-0.5056769038041754
-0.47278594553124975	-0.509407085918903
-0.47272491037499975	-0.5131098994013372
-0.47266387521874975	-0.5167858764390089
-0.47260284006249975	-0.5204352830660296
-0.47254180490624975	-0.5240580402512063
-0.47248076974999975	-0.5276537063764538
-0.47241973459374975	-0.5312215250724416
-0.47235869943749975	-0.5347605276844002
-0.47229766428124975	-0.5382696705547306
-0.47223662912499975	-0.5417479822742597
-0.47217559396874975	-0.5451946940225656
-0.47211455881249975	-0.5486093322332127
-0.47205352365624975	-0.5519917583730328
-0.47199248849999975	-0.5553421491532259
-0.47193145334374975	-0.5586609244562534
-0.47187041818749975	-0.5619486347479041
-0.47180938303124975	-0.5652058255608888
-0.47174834787499975	-0.5684329075338904
-0.47168731271874975	-0.5716300566543501
-0.47162627756249975	-0.5747971582652704
-0.47156524240624975	-0.5779338016208433
-0.47150420724999975	-0.5810393249753005
-0.47144317209374975	-0.5841129035364252
-0.47138213693749975	-0.5871536657262819
-0.47132110178124975	-0.5901608165614969
-0.47126006662499975	-0.5931337434928089
-0.47119903146874975	-0.5960720855210985
-0.47113799631249975	-0.5989757562485417
-0.47107696115624975	-0.601844920624597
-0.47101592599999975	-0.604679930440852
-0.47095489084374975	-0.6074812274068967
-0.47089385568749975	-0.6102492316646889
-0.47083282053124975	-0.6129842381548927
-0.47077178537499975	-0.6156863394331523
-0.47071075021874975	-0.618355387037053
-0.47064971506249975	-0.6209909949330175
-0.47058867990624975	-0.6235925834576033
-0.47052764474999975	-0.6261594585916849
-0.47046660959374975	-0.6286909118864479
-0.47040557443749975	-0.6311863196411004
-0.47034453928124975	-0.6336452237130111
-0.47028350412499975	-0.6360673818556726
-0.47022246896874975	-0.6384527792086324
-0.47016143381249975	-0.640801599055531
-0.47010039865624975	-0.6431141588115311
-0.47003936349999975	-0.6453908231861435
