Time	Frequency
-0.5000338215312503	3.9734580450126454e-22
-0.4999727863750003	3.96852342306315e-22
-0.4999117512187503	3.96341170707688e-22
-0.4998507160625003	3.9581320547839105e-22
-0.4997896809062503	3.952686008043523e-22
-0.4997286457500003	3.9470671513945257e-22
-0.4996676105937503	3.9412645068659766e-22
-0.4996065754375003	3.935267984229312e-22
-0.4995455402812503	3.929073177262339e-22
-0.4994845051250003	3.922683231482981e-22
-0.4994234699687503	3.9161071132292986e-22
-0.4993624348125003	3.909355283137838e-22
-0.4993013996562503	3.9024348619160544e-22
-0.4992403645000003	3.8953465658074986e-22
-0.4991793293437503	3.8880847926989967e-22
-0.4991182941875003	3.880640686273611e-22
-0.4990572590312503	3.873006588300816e-22
-0.4989962238750003	3.865179701022443e-22
-0.4989351887187503	3.8571632737430666e-22
-0.4988741535625003	3.848964855774926e-22
-0.4988131184062503	3.8405926119644116e-22
-0.4987520832500003	3.832051608477809e-22
-0.4986910480937503	3.823341800980349e-22
-0.4986300129375003	3.8144585400652953e-22
-0.4985689777812503	3.8053952380597223e-22
-0.4985079426250003	3.7961468015805796e-22
-0.4984469074687503	3.7867121044997595e-22
-0.4983858723125003	3.7770944098065837e-22
-0.4983248371562503	3.767299718247185e-22
-0.4982638020000003	3.7573339164866325e-22
-0.4982027668437503	3.7472001141137426e-22
-0.4981417316875003	3.736897506296157e-22
-0.4980806965312503	3.72642228444461e-22
-0.4980196613750003	3.715769937762723e-22
-0.4979586262187503	3.704937685092852e-22
-0.4978975910625003	3.6939259168880135e-22
-0.4978365559062503	3.6827380183901473e-22
-0.4977755207500003	3.67137875425806e-22
-0.4977144855937503	3.6598520987710273e-22
-0.4976534504375003	3.648159541903408e-22
-0.4975924152812503	3.636299664831418e-22
-0.4975313801250003	3.624269214131928e-22
-0.4974703449687503	3.61206508719996e-22
-0.4974093098125003	3.599686125278006e-22
-0.4973482746562503	3.587133819170984e-22
-0.4972872395000003	3.574411710873915e-22
-0.4972262043437503	3.5615238898680675e-22
-0.4971651691875003	3.5484733000429345e-22
-0.4971041340312503	3.5352606014970905e-22
-0.4970430988750003	3.5218841263952604e-22
-0.4969820637187503	3.5083409742542117e-22
-0.4969210285625003	3.49462869462591e-22
-0.4968599934062503	3.4807467306865477e-22
-0.4967989582500003	3.4666969170916914e-22
-0.4967379230937503	3.452482834766112e-22
-0.4966768879375003	3.4381084678618164e-22
-0.4966158527812503	3.4235767792918096e-22
-0.4965548176250003	3.408888692086187e-22
-0.4964937824687503	3.394042943825019e-22
-0.4964327473125003	3.3790369147304807e-22
-0.4963717121562503	3.3638679245795577e-22
-0.4963106770000003	3.3485344737090656e-22
-0.4962496418437503	3.33303712189797e-22
-0.4961886066875003	3.317378669627806e-22
-0.4961275715312503	3.301563467879457e-22
-0.4960665363750003	3.285596040846236e-22
-0.4960055012187503	3.269479534731356e-22
-0.4959444660625003	3.2532146490985193e-22
-0.4958834309062503	3.236799435254937e-22
-0.4958223957500003	3.220230099041246e-22
-0.4957613605937503	3.2035027060705427e-22
-0.4957003254375003	3.186615116480529e-22
-0.4956392902812503	3.1695682862600106e-22
-0.4955782551250003	3.152366420888217e-22
-0.4955172199687503	3.1350158782648086e-22
-0.4954561848125003	3.1175231224742395e-22
-0.4953951496562503	3.0998923603206374e-22
-0.4953341145000003	3.082123772451018e-22
-0.4952730793437503	3.064213283802479e-22
-0.4952120441875003	3.0461542629688198e-22
-0.4951510090312503	3.027940551439151e-22
-0.4950899738750003	3.009569496233853e-22
-0.4950289387187503	2.9910437225281086e-22
-0.4949679035625003	2.972370836878841e-22
-0.4949068684062503	2.953560866525309e-22
-0.4948458332500003	2.9346223424183135e-22
-0.4947847980937503	2.9155588282782333e-22
-0.4947237629375003	2.8963674928400523e-22
-0.4946627277812503	2.877040359896521e-22
-0.4946016926250003	2.8575678084023936e-22
-0.4945406574687503	2.837943011268081e-22
-0.4944796223125003	2.81816542656781e-22
-0.4944185871562503	2.798241653650175e-22
-0.4943575520000003	2.778183205729524e-22
-0.4942965168437503	2.758002175032957e-22
-0.4942354816875003	2.737706493268927e-22
-0.4941744465312503	2.717296686766272e-22
-0.4941134113750003	2.696765718768821e-22
-0.4940523762187503	2.676102235722514e-22
-0.4939913410625003	2.65529585861251e-22
-0.4939303059062503	2.634342190741342e-22
-0.4938692707500003	2.6132452278433946e-22
-0.4938082355937503	2.592015998277361e-22
-0.4937472004375003	2.5706681784731063e-22
-0.4936861652812503	2.5492126581811817e-22
-0.4936251301250003	2.5276532371439135e-22
-0.4935640949687503	2.5059853614999837e-22
-0.4935030598125003	2.484198588671564e-22
-0.4934420246562503	2.4622816344298297e-22
-0.4933809895000003	2.440227697753826e-22
-0.4933199543437503	2.4180377390352135e-22
-0.4932589191875003	2.3957203354350554e-22
-0.4931978840312503	2.3732882435255005e-22
-0.4931368488750003	2.350753267276739e-22
-0.4930758137187503	2.3281216633484393e-22
-0.4930147785625003	2.305391996838066e-22
-0.4929537434062503	2.282556397512029e-22
-0.4928927082500003	2.2596046080585788e-22
-0.4928316730937503	2.2365289491622357e-22
-0.4927706379375003	2.213327972996957e-22
-0.4927096027812503	2.190007188578564e-22
-0.4926485676250003	2.166576781929183e-22
-0.4925875324687503	2.1430475524094433e-22
-0.4925264973125003	2.1194267839234637e-22
-0.4924654621562503	2.0957158081801803e-22
-0.4924044270000003	2.071910273300808e-22
-0.4923433918437503	2.0480028089932364e-22
-0.4922823566875003	2.0239867324009232e-22
-0.4922213215312503	1.999859178237987e-22
-0.4921602863750003	1.9756224447873344e-22
-0.4920992512187503	1.9512830710385284e-22
-0.4920382160625003	1.9268492037152034e-22
-0.4919771809062503	1.902327585563544e-22
-0.4919161457500003	1.8777214115283824e-22
-0.4918551105937503	1.853029802407788e-22
-0.4917940754375003	1.8282490689698432e-22
-0.4917330402812503	1.8033750857088465e-22
-0.4916720051250003	1.7784054782014083e-22
-0.4916109699687503	1.7533407494943115e-22
-0.4915499348125003	1.7281841789585431e-22
-0.4914888996562503	1.702940626576448e-22
-0.4914278645000003	1.6776147541331873e-22
-0.4913668293437503	1.652209575072499e-22
-0.4913057941875003	1.6267260180558383e-22
-0.4912447590312503	1.6011634606768856e-22
-0.4911837238750003	1.5755207106950358e-22
-0.4911226887187503	1.5497968813339753e-22
-0.4910616535625003	1.523991945953715e-22
-0.4910006184062503	1.4981070528382006e-22
-0.4909395832500003	1.4721444896319878e-22
-0.4908785480937503	1.4461072024991516e-22
-0.4908175129375003	1.419998124021209e-22
-0.4907564777812503	1.3938195357976178e-22
-0.4906954426250003	1.3675726579701785e-22
-0.4906344074687503	1.341257728767815e-22
-0.4905733723125003	1.3148745066471338e-22
-0.4905123371562503	1.2884228136460065e-22
-0.4904513020000003	1.261902883599655e-22
-0.4903902668437503	1.2353155826418728e-22
-0.4903292316875003	1.208662605906545e-22
-0.4902681965312503	1.181946528856093e-22
-0.4902071613750003	1.1551704898629596e-22
-0.4901461262187503	1.1283374594156962e-22
-0.4900850910625003	1.1014493731354517e-22
-0.4900240559062503	1.074506604661742e-22
-0.4899630207500003	1.0475081761883816e-22
-0.4899019855937503	1.0204526792138281e-22
-0.4898409504375003	9.933393798643377e-23
-0.4897799152812503	9.661690519510815e-23
-0.4897188801250003	9.389443222717367e-23
-0.4896578449687503	9.116692769064645e-23
-0.4895968098125003	8.843483622474057e-23
-0.4895357746562503	8.569850479922534e-23
-0.4894747395000003	8.295807657913035e-23
-0.4894137043437503	8.021346171163732e-23
-0.4893526691875003	7.746441771034155e-23
-0.4892916340312503	7.471071199567205e-23
-0.4892305988750003	7.195228645250516e-23
-0.4891695637187503	6.918933737267366e-23
-0.4891085285625003	6.642227641471875e-23
-0.4890474934062503	6.365160734554576e-23
-0.4889864582500003	6.087776792291441e-23
-0.4889254230937503	5.810099659669783e-23
-0.4888643879375003	5.532129567927579e-23
-0.4888033527812503	5.2538507673084175e-23
-0.4887423176250003	4.9752453153507897e-23
-0.4886812824687503	4.696306294869673e-23
-0.4886202473125003	4.417045653350316e-23
-0.4885592121562503	4.137493783894999e-23
-0.4884981770000003	3.8576903478035943e-23
-0.4884371418437503	3.577670754863923e-23
-0.4883761066875003	3.297456008500778e-23
-0.4883150715312503	3.017050336369583e-23
-0.4882540363750003	2.7364459355304626e-23
-0.4881930012187503	2.4556321578919288e-23
-0.4881319660625003	2.1746054920188975e-23
-0.4880709309062503	1.8933766519999923e-23
-0.4880098957500003	1.6119716785346793e-23
-0.4879488605937503	1.3304254891324042e-23
-0.4878878254375003	1.0487716202076837e-23
-0.4878267902812503	7.670346694181418e-24
-0.4877657551250003	4.852271332101117e-24
-0.4877047199687503	2.0334976564939642e-24
-0.4876436848125003	-7.860344362905662e-25
-0.4875826496562503	-3.606369300396158e-24
-0.4875216145000003	-6.427463857700276e-24
-0.4874605793437503	-9.24915806867538e-24
-0.4873995441875003	-1.2071192493065071e-23
-0.4873385090312503	-1.489326202013223e-23
-0.4872774738750003	-1.7715086225294198e-23
-0.4872164387187503	-2.0536468351326952e-23
-0.4871554035625003	-2.3357314721132603e-23
-0.4870943684062503	-2.6177612913646902e-23
-0.4870333332500003	-2.8997387350668235e-23
-0.4869722980937503	-3.1816644733102197e-23
-0.4869112629375003	-3.463532031701215e-23
-0.4868502277812503	-3.745324588670051e-23
-0.4867891926250003	-4.0270161596808896e-23
-0.4867281574687503	-4.3085769933059997e-23
-0.4866671223125003	-4.5899800201593445e-23
-0.4866060871562503	-4.871205791906315e-23
-0.4865450520000003	-5.1522451100047374e-23
-0.4864840168437503	-5.433098411927664e-23
-0.4864229816875003	-5.713770816161019e-23
-0.4863619465312503	-5.994263906676837e-23
-0.4863009113750003	-6.274569191542332e-23
-0.4862398762187503	-6.554667249728203e-23
-0.4861788410625003	-6.834531160592972e-23
-0.4861178059062503	-7.114131216339857e-23
-0.4860567707500003	-7.393439964095765e-23
-0.4859957355937503	-7.672437148664506e-23
-0.4859347004375003	-7.951112930263462e-23
-0.4858736652812503	-8.22946765469843e-23
-0.4858126301250003	-8.507508008685161e-23
-0.4857515949687503	-8.785240262319655e-23
-0.4856905598125003	-9.062662063562932e-23
-0.4856295246562503	-9.339756252887861e-23
-0.4855684895000003	-9.616490564276398e-23
-0.4855074543437503	-9.892824495089154e-23
-0.4854464191875003	-1.0168721050331288e-22
-0.4853853840312503	-1.0444157972091714e-22
-0.4853243488750003	-1.071913263102632e-22
-0.4852633137187503	-1.09936584461826e-22
-0.4852022785625003	-1.1267754407052208e-22
-0.4851412434062503	-1.154143112761479e-22
-0.4850802082500003	-1.1814679502162643e-22
-0.4850191730937503	-1.208746813089638e-22
-0.4849581379375003	-1.2359751277719782e-22
-0.4848971027812503	-1.2631484245557292e-22
-0.4848360676250003	-1.2902638618744596e-22
-0.4847750324687503	-1.3173209048980056e-22
-0.4847139973125003	-1.3443208692702726e-22
-0.4846529621562503	-1.3712656140134797e-22
-0.4845919270000003	-1.3981560544230726e-22
-0.4845308918437503	-1.42499121545511e-22
-0.4844698566875003	-1.4517681333122839e-22
-0.4844088215312503	-1.478482666223341e-22
-0.4843477863750003	-1.505130976689964e-22
-0.4842867512187503	-1.5317108508939946e-22
-0.4842257160625003	-1.55822207777601e-22
-0.4841646809062503	-1.5846658222003858e-22
-0.4841036457500003	-1.6110433874414455e-22
-0.4840426105937503	-1.6373548990028502e-22
-0.4839815754375003	-1.6635985633168323e-22
-0.4839205402812503	-1.6897709885238351e-22
-0.4838595051250003	-1.715868395676816e-22
-0.4837984699687503	-1.7418879923547068e-22
-0.4837374348125003	-1.7678287558043356e-22
-0.4836763996562503	-1.7936912622548419e-22
-0.4836153645000003	-1.8194767395067167e-22
-0.4835543293437503	-1.84518585900329e-22
-0.4834932941875003	-1.870817773060617e-22
-0.4834322590312503	-1.896369758862406e-22
-0.4833712238750003	-1.9218378006566292e-22
-0.4833101887187503	-1.9472180461478837e-22
-0.4832491535625003	-1.9725082861659552e-22
-0.4831881184062503	-1.9977084945422263e-22
-0.4831270832500003	-2.0228201980229037e-22
-0.4830660480937503	-2.0478451842948292e-22
-0.4830050129375003	-2.0727841335137293e-22
-0.4829439777812503	-2.0976356307318327e-22
-0.4828829426250003	-2.1223961521739255e-22
-0.4828219074687503	-2.1470611715254355e-22
-0.4827608723125003	-2.1716267421865813e-22
-0.4826998371562503	-2.1960908021811086e-22
-0.4826388020000003	-2.2204536768460685e-22
-0.4825777668437503	-2.244717488755354e-22
-0.4825167316875003	-2.2688845976419687e-22
-0.4824556965312503	-2.2929557640256677e-22
-0.4823946613750003	-2.316929128736309e-22
-0.4823336262187503	-2.340800630367398e-22
-0.4822725910625003	-2.3645654830222603e-22
-0.4822115559062503	-2.3882199323365187e-22
-0.4821505207500003	-2.4117625124695618e-22
-0.4820894855937503	-2.435194167225491e-22
-0.4820284504375003	-2.4585171922097934e-22
-0.4819674152812503	-2.4817335412537198e-22
-0.4819063801250003	-2.5048432884847014e-22
-0.4818453449687503	-2.5278440192967936e-22
-0.4817843098125003	-2.550731508599442e-22
-0.4817232746562503	-2.5735013236674584e-22
-0.4816622395000003	-2.596150464777577e-22
-0.4816012043437503	-2.6186782875971856e-22
-0.4815401691875003	-2.6410863274871846e-22
-0.4814791340312503	-2.663376984809129e-22
-0.4814180988750003	-2.685551679787748e-22
-0.4813570637187503	-2.7076095264386636e-22
-0.4812960285625003	-2.7295472531380753e-22
-0.4812349934062503	-2.751360386025862e-22
-0.4811739582500003	-2.7730450347472546e-22
-0.4811129230937503	-2.7945993370280875e-22
-0.4810518879375003	-2.816023825694326e-22
-0.4809908527812503	-2.8373205559611094e-22
-0.4809298176250003	-2.858491510350147e-22
-0.4808687824687503	-2.879537092057741e-22
-0.4808077473125003	-2.900455388370077e-22
-0.4807467121562503	-2.9212425830539053e-22
-0.4806856770000003	-2.9418944122005357e-22
-0.4806246418437503	-2.9624078998876343e-22
-0.4805636066875003	-2.9827823696156767e-22
-0.4805025715312503	-3.00301926111403e-22
-0.4804415363750003	-3.02312088945598e-22
-0.4803805012187503	-3.0430886913859152e-22
-0.4803194660625003	-3.062921892519996e-22
-0.4802584309062503	-3.0826173895339577e-22
-0.4801973957500003	-3.102170878446436e-22
-0.4801363605937503	-3.121578585365831e-22
-0.4800753254375003	-3.1408387282383925e-22
-0.4800142902812503	-3.1599519866110016e-22
-0.4799532551250003	-3.178920702885093e-22
-0.4798922199687503	-3.197747166361968e-22
-0.4798311848125003	-3.216431865252755e-22
-0.4797701496562503	-3.234972674236392e-22
-0.4797091145000003	-3.253365458240711e-22
-0.4796480793437503	-3.2716057825182403e-22
-0.4795870441875003	-3.289690805389726e-22
-0.4795260090312503	-3.307620335573574e-22
-0.4794649738750003	-3.3253964856437423e-22
-0.4794039387187503	-3.343022102545376e-22
-0.4793429035625003	-3.3604987977572237e-22
-0.4792818684062503	-3.3778256185651153e-22
-0.4792208332500003	-3.3949990604343995e-22
-0.4791597980937503	-3.4120144023302786e-22
-0.4790987629375003	-3.428867701508868e-22
-0.4790377277812503	-3.4455574347705595e-22
-0.4789766926250003	-3.4620849038799446e-22
-0.4789156574687503	-3.4784531973458347e-22
-0.4788546223125003	-3.4946652024688576e-22
-0.4787935871562503	-3.510721601489039e-22
-0.4787325520000003	-3.5266199679435924e-22
-0.4786715168437503	-3.542355573725582e-22
-0.4786104816875003	-3.5579234640181104e-22
-0.4785494465312503	-3.5733206404803547e-22
-0.4784884113750003	-3.5885472106393826e-22
-0.4784273762187503	-3.603605979206028e-22
-0.4783663410625003	-3.61850068355627e-22
-0.4783053059062503	-3.633233661328259e-22
-0.4782442707500003	-3.6478041792829345e-22
-0.4781832355937503	-3.6622083688334447e-22
-0.4781222004375003	-3.6764407636034156e-22
-0.4780611652812503	-3.6904966844062867e-22
-0.4780001301250003	-3.7043743210862795e-22
-0.4779390949687503	-3.7180753839340396e-22
-0.4778780598125003	-3.731603949004048e-22
-0.4778170246562503	-3.744964084185453e-22
-0.4777559895000003	-3.7581573965849074e-22
-0.4776949543437503	-3.7711817607714945e-22
-0.4776339191875003	-3.784031958704033e-22
-0.4775728840312503	-3.796701913005765e-22
-0.4775118488750003	-3.8091874004143564e-22
-0.4774508137187503	-3.8214879149811676e-22
-0.4773897785625003	-3.833606709658437e-22
-0.4773287434062503	-3.8455489409460283e-22
-0.4772677082500003	-3.857318798144424e-22
-0.4772066730937503	-3.8689170466628733e-22
-0.4771456379375003	-3.880340266105304e-22
-0.4770846027812503	-3.89158218062555e-22
-0.4770235676250003	-3.902636435955885e-22
-0.4769625324687503	-3.9134994798679564e-22
-0.4769014973125003	-3.9241720959590063e-22
-0.4768404621562503	-3.934658792598071e-22
-0.4767794270000003	-3.944965326126529e-22
-0.4767183918437503	-3.955095574765414e-22
-0.4766573566875003	-3.9650493292639075e-22
-0.4765963215312503	-3.9748221112687046e-22
-0.4765352863750003	-3.984407103086714e-22
-0.4764742512187503	-3.993798241004477e-22
-0.4764132160625003	-4.002992976178214e-22
-0.4763521809062503	-4.011993319102571e-22
-0.4762911457500003	-4.0208045944803894e-22
-0.4762301105937503	-4.0294325385954377e-22
-0.4761690754375003	-4.0378802182234663e-22
-0.4761080402812503	-4.0461462856395193e-22
-0.4760470051250003	-4.054225421154318e-22
-0.4759859699687503	-4.062110754579663e-22
-0.4759249348125003	-4.069797066010697e-22
-0.4758638996562503	-4.0772831650589466e-22
-0.4758028645000003	-4.0845722514846527e-22
-0.4757418293437503	-4.0916700778492646e-22
-0.4756807941875003	-4.0985818525895453e-22
-0.4756197590312503	-4.1053094504248107e-22
-0.4755587238750003	-4.111850318446705e-22
-0.4754976887187503	-4.1181986000486822e-22
-0.4754366535625003	-4.124347896399988e-22
-0.4753756184062503	-4.1302942756039363e-22
-0.4753145832500003	-4.136038029575527e-22
-0.4752535480937503	-4.1415833213242834e-22
-0.4751925129375003	-4.146935914906182e-22
-0.4751314777812503	-4.1521001313679694e-22
-0.4750704426250003	-4.15707655461461e-22
-0.4750094074687503	-4.1618616213449235e-22
-0.4749483723125003	-4.1664492833988435e-22
-0.4748873371562503	-4.1708338992103054e-22
-0.4748263020000003	-4.175012899483836e-22
-0.4747652668437503	-4.1789879014814717e-22
-0.4747042316875003	-4.182763742062155e-22
-0.4746431965312503	-4.186345927711963e-22
-0.4745821613750003	-4.189737765784296e-22
-0.4745211262187503	-4.1929386036515092e-22
-0.4744600910625003	-4.195944058774332e-22
-0.4743990559062503	-4.1987481267836516e-22
-0.4743380207500003	-4.2013461075769397e-22
-0.4742769855937503	-4.2037368690410323e-22
-0.4742159504375003	-4.2059233154786114e-22
-0.4741549152812503	-4.2079108370422494e-22
-0.4740938801250003	-4.209704505688088e-22
-0.4740328449687503	-4.2113064169562814e-22
-0.4739718098125003	-4.2127145304142733e-22
-0.4739107746562503	-4.213923611934468e-22
-0.4738497395000003	-4.2149278149833426e-22
-0.4737887043437503	-4.215723606751661e-22
-0.4737276691875003	-4.2163115526324997e-22
-0.4736666340312503	-4.216696024003436e-22
-0.4736055988750003	-4.21688295223842e-22
-0.4735445637187503	-4.2168767532177754e-22
-0.4734835285625003	-4.2166779782080054e-22
-0.4734224934062503	-4.216282931664755e-22
-0.4733614582500003	-4.2156854973783695e-22
-0.4733004230937503	-4.2148802312374333e-22
-0.4732393879375003	-4.213865144352094e-22
-0.4731783527812503	-4.2126427608304354e-22
-0.4731173176250003	-4.211218876122626e-22
-0.4730562824687503	-4.209599638144779e-22
-0.4729952473125003	-4.20778842893696e-22
-0.4729342121562503	-4.2057841065837944e-22
-0.4728731770000003	-4.203581532665051e-22
-0.4728121418437503	-4.201174171190584e-22
-0.4727511066875003	-4.198557432347605e-22
-0.4726900715312503	-4.195731019700533e-22
-0.4726290363750003	-4.192699098883069e-22
-0.4725680012187503	-4.1894682516928383e-22
-0.4725069660625003	-4.1860442225058374e-22
-0.4724459309062503	-4.1824290746998143e-22
-0.4723848957500003	-4.1786202477408515e-22
-0.4723238605937503	-4.1746119660074833e-22
-0.4722628254375003	-4.1703981929396884e-22
-0.4722017902812503	-4.16597563708301e-22
-0.4721407551250003	-4.161345362811256e-22
-0.4720797199687503	-4.156512237653602e-22
-0.4720186848125003	-4.151482504213595e-22
-0.4719576496562503	-4.1462607383708723e-22
-0.4718966145000003	-4.1408477974356854e-22
-0.4718355793437503	-4.1352407579208958e-22
-0.4717745441875003	-4.1294346951207794e-22
