Time	Frequency
-0.500023480374999	0.3223286089814202
-0.499962445218749	0.31705802517181053
-0.499901410062499	0.31172193041880086
-0.499840374906249	0.30630370243289734
-0.499779339749999	0.3008009537107198
-0.499718304593749	0.2952258273531521
-0.499657269437499	0.2896018565762636
-0.499596234281249	0.28395820508112507
-0.499535199124999	0.27832272822760207
-0.499474163968749	0.2727155708826079
-0.499413128812499	0.2671448112041577
-0.499352093656249	0.26160509041353175
-0.499291058499999	0.2560794504126466
-0.499230023343749	0.25054384209702973
-0.499168988187499	0.24497313358149123
-0.499107953031249	0.23934713645637715
-0.499046917874999	0.23365523484184342
-0.498985882718749	0.22789857770884137
-0.498924847562499	0.22208939144784628
-0.498863812406249	0.21624767962613967
-0.498802777249999	0.21039622403238561
-0.498741742093749	0.2045551791202775
-0.498680706937499	0.19873755958885483
-0.498619671781249	0.19294662505703766
-0.498558636624999	0.18717568214026215
-0.498497601468749	0.18141024270026637
-0.498436566312499	0.1756319225348162
-0.498375531156249	0.16982308498744647
-0.498314495999999	0.16397109072280178
-0.498253460843749	0.15807114623857432
-0.498192425687499	0.1521271361638871
-0.498131390531249	0.14615033950344702
-0.498070355374999	0.1401564483089787
-0.498009320218749	0.13416170199851873
-0.497948285062499	0.12817909761902577
-0.497887249906249	0.12221555214073358
-0.497826214749999	0.11627065362023573
-0.497765179593749	0.11033724583160574
-0.497704144437499	0.1044036054795399
-0.497643109281249	0.09845658687160869
-0.497582074124999	0.09248493205376143
-0.497521038968749	0.08648196636903928
-0.497460003812499	0.08044708077711096
-0.497398968656249	0.07438568675014622
-0.497337933499999	0.06830770220159137
-0.497276898343749	0.06222501103800677
-0.497215863187499	0.05614858465866048
-0.497154828031249	0.050085987995753485
-0.497093792874999	0.04403983594886846
-0.497032757718749	0.038007515552522325
-0.496971722562499	0.0319821895714558
-0.496910687406249	0.02595476495306387
-0.496849652249999	0.019916299464391725
-0.496788617093749	0.013860268591125277
-0.496727581937499	0.007784136903009911
-0.496666546781249	0.0016898673419225776
-0.496605511624999	-0.0044166772688546295
-0.496544476468749	-0.010527244589116677
-0.496483441312499	-0.016633222594955976
-0.496422406156249	-0.022727648322566178
-0.496361370999999	-0.02880670924735719
-0.496300335843749	-0.03487041673095397
-0.496239300687499	-0.04092231168402033
-0.496178265531249	-0.046968320486991066
-0.496117230374999	-0.053015096127555936
-0.496056195218749	-0.05906825240816371
-0.495995160062499	-0.0651309294304841
-0.495934124906249	-0.07120305250241189
-0.495873089749999	-0.07728141825691125
-0.495812054593749	-0.0833605332434784
-0.495751019437499	-0.08943396399812596
-0.495689984281249	-0.09549583938052876
-0.495628949124999	-0.10154214819188219
-0.495567913968749	-0.10757153140664737
-0.495506878812499	-0.11358537723321283
-0.495445843656249	-0.11958723332253975
-0.495384808499999	-0.12558173223660457
-0.495323773343749	-0.1315733052872588
-0.495262738187499	-0.13756500198651977
-0.495201703031249	-0.14355770809256124
-0.495140667874999	-0.14954993040390194
-0.495079632718749	-0.15553817502294484
-0.495018597562499	-0.1615178093060684
-0.494957562406249	-0.16748417275484836
-0.494896527249999	-0.17343363323358926
-0.494835492093749	-0.1793643144454372
-0.494774456937499	-0.18527635020671732
-0.494713421781249	-0.1911716437890639
-0.494652386624999	-0.197053206487807
-0.494591351468749	-0.20292425622696977
-0.494530316312499	-0.2087873028678233
-0.494469281156249	-0.21464344427667345
-0.494408245999999	-0.22049205744859265
-0.494347210843749	-0.2263309446775654
-0.494286175687499	-0.2321568701325147
-0.494225140531249	-0.23796633152528332
-0.494164105374999	-0.2437563505993457
-0.494103070218749	-0.24952509081750499
-0.494042035062499	-0.2552721703020178
-0.493980999906249	-0.2609985930516852
-0.493919964749999	-0.26670631514507914
-0.493858929593749	-0.27239758029428646
-0.493797894437499	-0.27807422734124804
-0.493736859281249	-0.28373714512069853
-0.493675824124999	-0.28938598160926127
-0.493614788968749	-0.29501916825696767
-0.493553753812499	-0.3006342634171983
-0.493492718656249	-0.3062285298752918
-0.493431683499999	-0.3117995728515314
-0.493370648343749	-0.3173458495383038
-0.493309613187499	-0.32286693724421667
-0.493248578031249	-0.32836350442085477
-0.493187542874999	-0.33383698683460145
-0.493126507718749	-0.339289080727086
-0.493065472562499	-0.34472120134269413
-0.493004437406249	-0.3501340202549794
-0.492943402249999	-0.355527194571187
-0.492882367093749	-0.36089937598302835
-0.492821331937499	-0.366248491094195
-0.492760296781249	-0.3715721982932455
-0.492699261624999	-0.37686840294002355
-0.492638226468749	-0.382135711876662
-0.492577191312499	-0.3873736911521734
-0.492516156156249	-0.3925828471683943
-0.492455120999999	-0.3977643770622019
-0.492394085843749	-0.40291976834675325
-0.492333050687499	-0.4080503175732034
-0.492272015531249	-0.41315669206911115
-0.492210980374999	-0.41823867474993454
-0.492149945218749	-0.42329514897146164
-0.492088910062499	-0.42832430578013647
-0.492027874906249	-0.4333240220516697
-0.491966839749999	-0.4382923157935271
-0.491905804593749	-0.44322775559655403
-0.491844769437499	-0.4481297192760276
-0.491783734281249	-0.45299845026860025
-0.491722699124999	-0.4578348983983064
-0.491661663968749	-0.46264037040166994
-0.491600628812499	-0.46741609068765755
-0.491539593656249	-0.47216280649180103
-0.491478558499999	-0.4768805350296504
-0.491417523343749	-0.48156849862484774
-0.491356488187499	-0.48622525337655714
-0.491295453031249	-0.49084898436040925
-0.491234417874999	-0.4954378945263599
-0.491173382718749	-0.4999905739976451
-0.491112347562499	-0.5045062524008614
-0.491051312406249	-0.5089848861351153
-0.490990277249999	-0.513427065368432
-0.490929242093749	-0.5178337598304804
-0.490868206937499	-0.52220597220374
-0.490807171781249	-0.5265443995819901
-0.490746136624999	-0.5308491919165725
-0.490685101468749	-0.5351198590893391
-0.490624066312499	-0.5393553415475419
-0.490563031156249	-0.5435542279289626
-0.490501995999999	-0.5477150635800068
-0.490440960843749	-0.5518366529906713
-0.490379925687499	-0.5559182720660961
-0.490318890531249	-0.5599597561609274
-0.490257855374999	-0.5639614477002489
-0.490196820218749	-0.5679240081228161
-0.490135785062499	-0.5718481503162095
-0.490074749906249	-0.5757343709921314
-0.490013714749999	-0.5795827495088184
-0.489952679593749	-0.5833928647370367
-0.489891644437499	-0.5871638499150379
-0.489830609281249	-0.5908945597320296
-0.489769574124999	-0.5945838044794144
-0.489708538968749	-0.5982305995685411
-0.489647503812499	-0.6018343631429629
-0.489586468656249	-0.6053950009201424
-0.489525433499999	-0.6089128559975473
-0.489464398343749	-0.612388543246664
-0.489403363187499	-0.6158227146394553
-0.489342328031249	-0.6192158145997152
-0.489281292874999	-0.6225678905261844
-0.489220257718749	-0.6258785122525122
-0.489159222562499	-0.6291468169745599
-0.489098187406249	-0.63237166291875
-0.489037152249999	-0.6355518562386467
-0.488976117093749	-0.6386863930485952
-0.488915081937499	-0.6417746537436396
-0.488854046781249	-0.6448165067189063
-0.488793011624999	-0.6478122981820976
-0.488731976468749	-0.6507627272317263
-0.488670941312499	-0.6536686322148756
-0.488609906156249	-0.6565307365754306
-0.488548870999999	-0.6593494144383213
-0.488487835843749	-0.6621245365433364
-0.488426800687499	-0.6648554380322164
-0.488365765531249	-0.6675410138518088
-0.488304730374999	-0.670179922278051
-0.488243695218749	-0.672770852111905
-0.488182660062499	-0.6753127833254746
-0.488121624906249	-0.6778051795873162
-0.488060589749999	-0.6802480748397209
-0.487999554593749	-0.6826420301207293
-0.487938519437499	-0.6849879675082103
-0.487877484281249	-0.6872869251263699
-0.487816449124999	-0.6895397879711949
-0.487755413968749	-0.6917470512810362
-0.487694378812499	-0.6939086704187386
-0.487633343656249	-0.696024031480298
-0.487572308499999	-0.6980920507865201
-0.487511273343749	-0.7001113796103475
-0.487450238187499	-0.70208066292147
-0.487389203031249	-0.7039987948709107
-0.487328167874999	-0.7058651201386356
-0.487267132718749	-0.7076795394898568
-0.487206097562499	-0.7094424960312882
-0.487145062406249	-0.7111548454945605
-0.487084027249999	-0.7128176400414189
-0.487022992093749	-0.7144318763106098
-0.486961956937499	-0.7159982644447734
-0.486900921781249	-0.7175170624376773
-0.486839886624999	-0.7189880054867859
-0.486778851468749	-0.7204103451468601
-0.486717816312499	-0.7217829895705007
-0.486656781156249	-0.7231047120904032
-0.486595745999999	-0.7243743813500368
-0.486534710843749	-0.7255911639776796
-0.486473675687499	-0.7267546604444366
-0.486412640531249	-0.7278649507845562
-0.486351605374999	-0.7289225450659109
-0.486290570218749	-0.7299282519318456
-0.486229535062499	-0.7308829926172428
-0.486168499906249	-0.7317875983207124
-0.486107464749999	-0.7326426336475588
-0.486046429593749	-0.7334482814729931
-0.485985394437499	-0.7342043087665036
-0.485924359281249	-0.7349101165552719
-0.485863324124999	-0.7355648599177359
-0.485802288968749	-0.7361676095756732
-0.485741253812499	-0.7367175223630027
-0.485680218656249	-0.7372139880306067
-0.485619183499999	-0.7376567236448345
-0.485558148343749	-0.7380457999255902
-0.485497113187499	-0.7383815994662286
-0.485436078031249	-0.738664720078981
-0.485375042874999	-0.7388958465334822
-0.485314007718749	-0.7390756141573471
-0.485252972562499	-0.7392044852924814
-0.485191937406249	-0.7392826634403109
-0.485130902249999	-0.7393100660555402
-0.485069867093749	-0.7392863577928274
-0.485008831937499	-0.7392110295441552
-0.484947796781249	-0.739083503449262
-0.484886761624999	-0.7389032417214486
-0.484825726468749	-0.7386698385069154
-0.484764691312499	-0.738383082378707
-0.484703656156249	-0.7380429836193508
-0.484642620999999	-0.7376497599376333
-0.484581585843749	-0.7372037831118534
-0.484520550687499	-0.7367055035756942
-0.484459515531249	-0.7361553654332694
-0.484398480374999	-0.7355537239531333
-0.484337445218749	-0.7349007899081662
-0.484276410062499	-0.7341966134743884
-0.484215374906249	-0.7334410994896018
-0.484154339749999	-0.7326340460544625
-0.484093304593749	-0.7317752015090598
-0.484032269437499	-0.7308643246495804
-0.483971234281249	-0.7299012311435333
-0.483910199124999	-0.7288858276858289
-0.483849163968749	-0.7278181351432407
-0.483788128812499	-0.7266982841775772
-0.483727093656249	-0.7255264823515346
-0.483666058499999	-0.7243029710329211
-0.483605023343749	-0.7230279839344493
-0.483543988187499	-0.7217017183813154
-0.483482953031249	-0.7203243273071422
-0.483421917874999	-0.7188959253357772
-0.483360882718749	-0.7174165979015636
-0.483299847562499	-0.7158864126581103
-0.483238812406249	-0.7143054362799048
-0.483177777249999	-0.7126737477455115
-0.483116742093749	-0.7109914387073308
-0.483055706937499	-0.709258601447946
-0.482994671781249	-0.7074753103510432
-0.482933636624999	-0.7056416086996217
-0.482872601468749	-0.7037575063619806
-0.482811566312499	-0.7018229888404669
-0.482750531156249	-0.6998380441130042
-0.482689495999999	-0.6978027006969915
-0.482628460843749	-0.6957170596288202
-0.482567425687499	-0.693581317386687
-0.482506390531249	-0.6913957762175148
-0.482445355374999	-0.6891608258256918
-0.482384320218749	-0.6868768945215605
-0.482323285062499	-0.6845443860015156
-0.482262249906249	-0.682163612508213
-0.482201214749999	-0.6797347390758064
-0.482140179593749	-0.6772577688134491
-0.482079144437499	-0.6747325776850704
-0.482018109281249	-0.6721589743306288
-0.481957074124999	-0.6695367716783928
-0.481896038968749	-0.6668658717102173
-0.481835003812499	-0.6641463417772578
-0.481773968656249	-0.6613784504775967
-0.481712933499999	-0.6585626536812608
-0.481651898343749	-0.6556995342569325
-0.481590863187499	-0.6527897061301537
-0.481529828031249	-0.6498337070121066
-0.481468792874999	-0.646831906684655
-0.481407757718749	-0.6437844562610834
-0.481346722562499	-0.640691297278887
-0.481285687406249	-0.6375522266044064
-0.481224652249999	-0.6343669957285264
-0.481163617093749	-0.6311354270792426
-0.481102581937499	-0.6278575215380664
-0.481041546781249	-0.6245335181454205
-0.480980511624999	-0.6211638916781498
-0.480919476468749	-0.6177492941576705
-0.480858441312499	-0.614290447925769
-0.480797406156249	-0.6107880161810134
-0.480736370999999	-0.6072424893178877
-0.480675335843749	-0.6036541159071661
-0.480614300687499	-0.6000228929197029
-0.480553265531249	-0.5963486241860311
-0.480492230374999	-0.5926310411696001
-0.480431195218749	-0.5888699396262888
-0.480370160062499	-0.5850652866355094
-0.480309124906249	-0.5812172929940662
-0.480248089749999	-0.5773264394072678
-0.480187054593749	-0.5733934349906099
-0.480126019437499	-0.5694191083780186
-0.480064984281249	-0.5654042529079216
-0.480003949124999	-0.5613494779601098
-0.479942913968749	-0.5572551203387287
-0.479881878812499	-0.5531212312464762
-0.479820843656249	-0.5489476332592952
-0.479759808499999	-0.5447340286532679
-0.479698773343749	-0.5404801408038798
-0.479637738187499	-0.5361858770497832
-0.479576703031249	-0.5318514501136417
-0.479515667874999	-0.5274773890398307
-0.479454632718749	-0.5230644631944772
-0.479393597562499	-0.5186135719599474
-0.479332562406249	-0.5141256086591532
-0.479271527249999	-0.5096013056649459
-0.479210492093749	-0.5050411106503523
-0.479149456937499	-0.5004451481578486
-0.479088421781249	-0.49581326552967464
-0.479027386624999	-0.49114514366471873
-0.478966351468749	-0.4864404628259912
-0.478905316312499	-0.48169907757948904
-0.478844281156249	-0.47692114138718356
-0.478783245999999	-0.4721071530350078
-0.478722210843749	-0.4672579164405122
-0.478661175687499	-0.462374423851066
-0.478600140531249	-0.4574576899571979
-0.478539105374999	-0.4525085784393323
-0.478478070218749	-0.447527668314687
-0.478417035062499	-0.4425151824882032
-0.478355999906249	-0.43747100213084006
-0.478294964749999	-0.43239479095860067
-0.478233929593749	-0.42728618486688785
-0.478172894437499	-0.4221449703530611
-0.478111859281249	-0.4169712168708167
-0.478050824124999	-0.41176534927611036
-0.477989788968749	-0.4065281399375349
-0.477928753812499	-0.4012606172999867
-0.477867718656249	-0.3959639049001802
-0.477806683499999	-0.3906390215195879
-0.477745648343749	-0.3852867081215237
-0.477684613187499	-0.3799073331972804
-0.477623578031249	-0.3745008921656921
-0.477562542874999	-0.3690671045274011
-0.477501507718749	-0.3636055810558106
-0.477440472562499	-0.35811600999783666
-0.477379437406249	-0.3525983306357283
-0.477318402249999	-0.3470528615791744
-0.477257367093749	-0.34148032308254606
-0.477196331937499	-0.33588173937333204
-0.477135296781249	-0.33025827510105815
-0.477074261624999	-0.32461105010070607
-0.477013226468749	-0.3189409637327187
-0.476952191312499	-0.31324856347666974
-0.476891156156249	-0.3075339977504178
-0.476830120999999	-0.30179708508777986
-0.476769085843749	-0.29603746969987504
-0.476708050687499	-0.29025480204395954
-0.476647015531249	-0.28444890970798536
-0.476585980374999	-0.27861994123804207
-0.476524945218749	-0.2727684485784638
-0.476463910062499	-0.26689535828778
-0.476402874906249	-0.2610018307559835
-0.476341839749999	-0.25508906376703344
-0.476280804593749	-0.24915810242671008
-0.476219769437499	-0.24320969637278772
-0.476158734281249	-0.23724422152531452
-0.476097699124999	-0.23126168323416307
-0.476036663968749	-0.22526181629469869
-0.475975628812499	-0.21924426050185494
-0.475914593656249	-0.2132087557833408
-0.475853558499999	-0.20715530849215893
-0.475792523343749	-0.20108429478884682
-0.475731488187499	-0.19499647382566174
-0.475670453031249	-0.1888929077366561
-0.475609417874999	-0.18277480248682795
-0.475548382718749	-0.17664330389756025
-0.475487347562499	-0.1704993134081022
-0.475426312406249	-0.16434338404201573
-0.475365277249999	-0.15817571025205582
-0.475304242093749	-0.15199618935426726
-0.475243206937499	-0.1458045500795326
-0.475182171781249	-0.13960053176220968
-0.475121136624999	-0.1333840515231597
-0.475060101468749	-0.12715531602218458
-0.474999066312499	-0.12091486872135539
-0.474938031156249	-0.11466356436151799
-0.474876995999999	-0.10840247630087588
-0.474815960843749	-0.1021327560556298
-0.474754925687499	-0.09585546325307087
-0.474693890531249	-0.0895714074877629
-0.474632855374999	-0.08328105462456711
-0.474571820218749	-0.07698452203886774
-0.474510785062499	-0.0706816664687504
-0.474449749906249	-0.06437223547044944
-0.474388714749999	-0.05805603443559331
-0.474327679593749	-0.05173308534502104
-0.474266644437499	-0.045403737052551636
-0.474205609281249	-0.03906867660341387
-0.474144574124999	-0.03272885308299954
-0.474083538968749	-0.02638535594682683
-0.474022503812499	-0.02003926697345572
-0.473961468656249	-0.013691509081627345
-0.473900433499999	-0.007342737455262517
-0.473839398343749	-0.0009933013809464866
-0.473778363187499	0.005356725144899026
-0.473717328031249	0.011707449361356884
-0.473656292874999	0.018059020930019872
-0.473595257718749	0.02441148793184807
-0.473534222562499	0.030764687496369583
-0.473473187406249	0.037118193384773096
-0.473412152249999	0.043471312424269916
-0.473351117093749	0.0498231271776228
-0.473290081937499	0.05617260240122242
-0.473229046781249	0.06251873622781234
-0.473168011624999	0.06886069710009539
-0.473106976468749	0.07519790963665274
-0.473045941312499	0.08153007861753807
-0.472984906156249	0.08785713568304006
-0.472923870999999	0.09417913225011446
-0.472862835843749	0.1004961318737329
-0.472801800687499	0.10680810066031554
-0.472740765531249	0.11311479718299464
-0.472679730374999	0.11941572239522527
-0.472618695218749	0.1257101462026769
-0.472557660062499	0.13199717735814703
-0.472496624906249	0.13827586747401657
-0.472435589749999	0.14454533244391374
-0.472374554593749	0.15080485563195603
-0.472313519437499	0.15705394698996977
-0.472252484281249	0.16329234383751293
-0.472191449124999	0.16951995501884737
-0.472130413968749	0.17573677009306407
-0.472069378812499	0.18194276041266627
-0.472008343656249	0.18813778011749513
-0.471947308499999	0.19432149115647454
-0.471886273343749	0.20049334319163023
-0.471825238187499	0.20665259688339452
-0.471764203031249	0.2127983955859511
-0.471703167874999	0.2189298865816964
-0.471642132718749	0.2250463371381707
-0.471581097562499	0.23114720133110772
-0.471520062406249	0.23723212669387167
-0.471459027249999	0.24330091453870445
-0.471397992093749	0.24935345456150285
-0.471336956937499	0.25538964183597435
-0.471275921781249	0.2614092974131747
-0.471214886624999	0.2674121100200134
-0.471153851468749	0.2733976042522616
-0.471092816312499	0.279365152121948
-0.471031781156249	0.28531403376249276
-0.470970745999999	0.29124352617832744
-0.470909710843749	0.29715298316610483
-0.470848675687499	0.3030418829559644
-0.470787640531249	0.30890984715299025
-0.470726605374999	0.3147566232441367
-0.470665570218749	0.3205820248300625
-0.470604535062499	0.32638586030584255
-0.470543499906249	0.33216787409195053
-0.470482464749999	0.3379277036930388
-0.470421429593749	0.34366486394350815
-0.470360394437499	0.3493787680014651
-0.470299359281249	0.35506877834020983
-0.470238324124999	0.3607342715884698
-0.470177288968749	0.3663747018390343
-0.470116253812499	0.3719896410399727
-0.470055218656249	0.37757877762406267
-0.469994183499999	0.38314188362009965
-0.469933148343749	0.388678766482108
-0.469872113187499	0.39418920940498686
-0.469811078031249	0.39967291617520245
-0.469750042874999	0.4051294813681288
-0.469689007718749	0.4105583870837327
-0.469627972562499	0.41595902776894006
-0.469566937406249	0.42133077416739956
-0.469505902249999	0.42667305586628157
-0.469444867093749	0.431985416536098
-0.469383831937499	0.4372675232355387
-0.469322796781249	0.4425191479309685
-0.469261761624999	0.4477401330243969
-0.469200726468749	0.4529303285456473
-0.469139691312499	0.4580895190301762
-0.469078656156249	0.46321737733498486
-0.469017620999999	0.4683134469715831
-0.468956585843749	0.4733771544541679
