Time	Frequency
-0.5000152546562475	-2.1736293505076866e-22
-0.4999542194999975	-2.166869070925752e-22
-0.4998931843437475	-2.160226675340447e-22
-0.4998321491874975	-2.1537270561545e-22
-0.4997711140312475	-2.147347229512466e-22
-0.4997100788749975	-2.141021106003982e-22
-0.4996490437187475	-2.134651459675324e-22
-0.4995880085624975	-2.128126911241181e-22
-0.4995269734062475	-2.1213409395154837e-22
-0.4994659382499975	-2.1142096553700755e-22
-0.4994049030937475	-2.106685341221207e-22
-0.4993438679374975	-2.098763545425354e-22
-0.4992828327812475	-2.0904826866697275e-22
-0.4992217976249975	-2.0819164450562405e-22
-0.4991607624687475	-2.0731604369275011e-22
-0.4990997273124975	-2.0643155911483222e-22
-0.4990386921562475	-2.0554711457661315e-22
-0.4989776569999975	-2.046690173422798e-22
-0.4989166218437475	-2.0380000193124992e-22
-0.4988555866874975	-2.0293891121995687e-22
-0.4987945515312475	-2.0208104583529205e-22
-0.4987335163749975	-2.0121909786824043e-22
-0.4986724812187475	-2.0034449047214815e-22
-0.4986114460624975	-1.9944888213219894e-22
-0.4985504109062475	-1.9852557305810005e-22
-0.4984893757499975	-1.975705772551341e-22
-0.4984283405937475	-1.965831911214946e-22
-0.4983673054374975	-1.9556598219796653e-22
-0.4983062702812475	-1.9452422300269825e-22
-0.4982452351249975	-1.9346488915184354e-22
-0.4981841999687475	-1.9239541107563471e-22
-0.4981231648124975	-1.9132240208344836e-22
-0.4980621296562475	-1.902505804578883e-22
-0.4980010944999975	-1.8918206243074568e-22
-0.4979400593437475	-1.8811613246933486e-22
-0.4978790241874975	-1.870495098413315e-22
-0.4978179890312475	-1.8597704304143715e-22
-0.4977569538749975	-1.8489269261061948e-22
-0.4976959187187475	-1.8379062027195258e-22
-0.4976348835624975	-1.8266619376864745e-22
-0.4975738484062475	-1.8151673946959463e-22
-0.4975128132499975	-1.8034192336647518e-22
-0.4974517780937475	-1.7914371001994626e-22
-0.4973907429374975	-1.779259258523472e-22
-0.4973297077812475	-1.7669352076080982e-22
-0.4972686726249975	-1.7545166936946691e-22
-0.4972076374687475	-1.7420487510151977e-22
-0.4971466023124975	-1.7295623325409976e-22
-0.4970855671562475	-1.7170697425309324e-22
-0.4970245319999975	-1.7045635281381533e-22
-0.4969634968437475	-1.6920188577109067e-22
-0.4969024616874975	-1.6793988205236596e-22
-0.4968414265312475	-1.6666616042074054e-22
-0.4967803913749975	-1.6537682014340993e-22
-0.4967193562187475	-1.6406892521861076e-22
-0.4966583210624975	-1.6274098816780287e-22
-0.4965972859062475	-1.61393180045575e-22
-0.4965362507499975	-1.6002723912825924e-22
-0.4964752155937475	-1.58646105255422e-22
-0.4964141804374975	-1.5725335938186697e-22
-0.4963531452812475	-1.5585257822941943e-22
-0.4962921101249975	-1.5444671889533448e-22
-0.4962310749687475	-1.5303763896866103e-22
-0.4961700398124975	-1.5162583359884555e-22
-0.4961090046562475	-1.5021042729173296e-22
-0.4960479694999975	-1.4878940823984834e-22
-0.4959869343437475	-1.473600520826231e-22
-0.4959258991874975	-1.459194536506547e-22
-0.4958648640312475	-1.4446506921762288e-22
-0.4958038288749975	-1.4299517110485627e-22
-0.4957427937187475	-1.415091358573624e-22
-0.4956817585624975	-1.4000752290413151e-22
-0.4956207234062475	-1.3849194044878077e-22
-0.4955596882499975	-1.3696473074178886e-22
-0.4954986530937475	-1.354285364477007e-22
-0.4954376179374975	-1.3388583106352537e-22
-0.4953765827812475	-1.323385007600773e-22
-0.4953155476249975	-1.307875496935456e-22
-0.4952545124687475	-1.2923297574311058e-22
-0.4951934773124975	-1.2767383257239724e-22
-0.4951324421562475	-1.2610845803785525e-22
-0.4950714069999975	-1.245348207036919e-22
-0.4950103718437475	-1.2295091908012447e-22
-0.4949493366874975	-1.213551598350505e-22
-0.4948883015312475	-1.1974664708776662e-22
-0.4948272663749975	-1.1812533415826908e-22
-0.4947662312187475	-1.164920153831357e-22
-0.4947051960624975	-1.1484816604722757e-22
-0.4946441609062475	-1.131956674977242e-22
-0.4945831257499975	-1.1153647170736394e-22
-0.4945220905937475	-1.0987226504720794e-22
-0.4944610554374975	-1.0820419189408584e-22
-0.4944000202812475	-1.065326881012547e-22
-0.4943389851249975	-1.048574497395271e-22
-0.4942779499687475	-1.0317753694918236e-22
-0.4942169148124975	-1.0149159002625257e-22
-0.4941558796562475	-9.979811403883531e-23
-0.4940948444999975	-9.809577673778203e-23
-0.4940338093437475	-9.63836652545242e-23
-0.4939727741874975	-9.466145643264319e-23
-0.4939117390312475	-9.292947338653094e-23
-0.4938507038749975	-9.118862310769127e-23
-0.4937896687187475	-8.9440229720945e-23
-0.4937286335624975	-8.768579662066776e-23
-0.4936675984062475	-8.592674494075006e-23
-0.4936065632499975	-8.416417771364319e-23
-0.4935455280937475	-8.239871112701138e-23
-0.4934844929374975	-8.063040069928681e-23
-0.4934234577812475	-7.88587722977422e-23
-0.4933624226249975	-7.708294951056118e-23
-0.4933013874687475	-7.530185091624665e-23
-0.4932403523124975	-7.351441730375968e-23
-0.4931793171562475	-7.17198274972794e-23
-0.4931182819999975	-6.991766510661498e-23
-0.4930572468437475	-6.810800441035371e-23
-0.4929962116874975	-6.62914011622406e-23
-0.4929351765312475	-6.446879527967632e-23
-0.4928741413749975	-6.264134601586614e-23
-0.4928131062187475	-6.081023125489549e-23
-0.4927520710624975	-5.897645075583782e-23
-0.4926910359062475	-5.714066990265648e-23
-0.4926300007499975	-5.530313006883808e-23
-0.4925689655937475	-5.346363994055722e-23
-0.4925079304374975	-5.1621646320254716e-23
-0.4924468952812475	-4.977636962658272e-23
-0.4923858601249975	-4.7926978698165317e-23
-0.4923248249687475	-4.6072769755215074e-23
-0.4922637898124975	-4.4213316146591377e-23
-0.4922027546562475	-4.2348563373428334e-23
-0.4921417194999975	-4.0478851888128427e-23
-0.4920806843437475	-3.860486519971904e-23
-0.4920196491874975	-3.672751626836577e-23
-0.4919586140312475	-3.484779469114768e-23
-0.4918975788749975	-3.296660357087145e-23
-0.4918365437187475	-3.108461679817116e-23
-0.4917755085624975	-2.920218318891346e-23
-0.4917144734062475	-2.731929341462374e-23
-0.4916534382499975	-2.5435613306782413e-23
-0.4915924030937475	-2.3550576710476176e-23
-0.4915313679374975	-2.1663519929238735e-23
-0.4914703327812475	-1.977383165022688e-23
-0.4914092976249975	-1.788108938970953e-23
-0.4913482624687475	-1.5985156359966237e-23
-0.4912872273124975	-1.4086223379665913e-23
-0.4912261921562475	-1.2184790083380564e-23
-0.4911651569999975	-1.0281588035748973e-23
-0.4911041218437475	-8.377461898344431e-24
-0.4910430866874975	-6.473233601771209e-24
-0.4909820515312475	-4.569573872448051e-24
-0.4909210163749975	-2.666904115740218e-24
-0.4908599812187475	-7.653478512974869e-25
-0.4907989460624975	1.1352607400174113e-24
-0.4907379109062475	3.035315537118377e-24
-0.4906768757499975	4.935336550064347e-24
-0.4906158405937475	6.835847001479923e-24
-0.4905548054374975	8.737253758957684e-24
-0.4904937702812475	1.0639751819777202e-23
-0.4904327351249975	1.254326813057999e-23
-0.4903716999687475	1.4447456597680168e-23
-0.4903106648124975	1.6351745624772124e-23
-0.4902496296562475	1.8255426196547572e-23
-0.4901885944999975	2.0157762645661342e-23
-0.4901275593437475	2.2058105897824326e-23
-0.4900665241874975	2.395598918613174e-23
-0.4900054890312475	2.585118837613045e-23
-0.4899444538749975	2.7743733944916253e-23
-0.4898834187187475	2.963387498234733e-23
-0.4898223835624975	3.152200573064833e-23
-0.4897613484062475	3.340856606903709e-23
-0.4897003132499975	3.529393246115609e-23
-0.4896392780937475	3.717832281338895e-23
-0.4895782429374975	3.906173550940767e-23
-0.4895172077812475	4.094393217628741e-23
-0.4894561726249975	4.2824464445220983e-23
-0.4893951374687475	4.4702738885920014e-23
-0.4893341023124975	4.657810737762489e-23
-0.4892730671562475	4.844996557300959e-23
-0.4892120319999975	5.0317842143882824e-23
-0.4891509968437475	5.2181462100628137e-23
-0.4890899616874975	5.404077185455094e-23
-0.4890289265312475	5.589592193021028e-23
-0.4889678913749975	5.774721079546745e-23
-0.4889068562187475	5.959500148037588e-23
-0.4888458210624975	6.143962863412401e-23
-0.4887847859062475	6.328131274454574e-23
-0.4887237507499975	6.512009608306521e-23
-0.4886627155937475	6.695581340110475e-23
-0.4886016804374975	6.878810261447652e-23
-0.4885406452812475	7.061645180212664e-23
-0.4884796101249975	7.244027404562645e-23
-0.4884185749687475	7.425899611126756e-23
-0.4883575398124975	7.607214360368255e-23
-0.4882965046562475	7.787940674565184e-23
-0.4882354694999975	7.968067405465014e-23
-0.4881744343437475	8.147602802065947e-23
-0.4881133991874975	8.326570519950334e-23
-0.4880523640312475	8.505002774832729e-23
-0.4879913288749975	8.682931926204529e-23
-0.4879302937187475	8.860382169986781e-23
-0.4878692585624975	9.037362787075928e-23
-0.4878082234062475	9.213864235856509e-23
-0.4877471882499975	9.389857880155323e-23
-0.4876861530937475	9.565299218911393e-23
-0.4876251179374975	9.740133998766116e-23
-0.4875640827812475	9.914306167227756e-23
-0.4875030476249975	1.008776610934892e-22
-0.4874420124687475	1.0260477582625507e-22
-0.4873809773124975	1.0432422082080682e-22
-0.4873199421562475	1.060359987326997e-22
-0.4872589069999975	1.0774027636655068e-22
-0.4871978718437475	1.0943733199425557e-22
-0.4871368366874975	1.111274823797156e-22
-0.4870758015312475	1.1281100281881306e-22
-0.4870147663749975	1.1448805560036975e-22
-0.4869537312187475	1.1615864047328555e-22
-0.4868926960624975	1.1782257570498245e-22
-0.4868316609062475	1.1947951293573124e-22
-0.4867706257499975	1.2112898313491965e-22
-0.4867095905937475	1.2277046392203944e-22
-0.4866485554374975	1.2440345437004068e-22
-0.4865875202812475	1.2602754397781352e-22
-0.4865264851249975	1.2764246540084781e-22
-0.4864654499687475	1.2924812129442594e-22
-0.4864044148124975	1.3084457799175414e-22
-0.4863433796562475	1.3243202862906708e-22
-0.4862823444999975	1.34010735692938e-22
-0.4862213093437475	1.355809628401344e-22
-0.4861602741874975	1.3714290692289153e-22
-0.4860992390312475	1.3869664382441203e-22
-0.4860382038749975	1.402420991410321e-22
-0.4859771687187475	1.41779047476539e-22
-0.4859161335624975	1.4330713874021708e-22
-0.4858550984062475	1.4482594632214327e-22
-0.4857940632499975	1.4633502803658191e-22
-0.4857330280937475	1.478339884675101e-22
-0.4856719929374975	1.493225314055351e-22
-0.4856109577812475	1.5080049232889529e-22
-0.4855499226249975	1.5226784470695377e-22
-0.4854888874687475	1.5372468059913862e-22
-0.4854278523124975	1.551711703687871e-22
-0.4853668171562475	1.5660750842311868e-22
-0.4853057819999975	1.5803385623585492e-22
-0.4852447468437475	1.5945029477202573e-22
-0.4851837116874975	1.6085679387932846e-22
-0.4851226765312475	1.6225320333849568e-22
-0.4850616413749975	1.6363926765353837e-22
-0.4850006062187475	1.6501466126956306e-22
-0.4849395710624975	1.6637903632442942e-22
-0.4848785359062475	1.6773207356133482e-22
-0.4848175007499975	1.6907352654811974e-22
-0.4847564655937475	1.7040324991760746e-22
-0.4846954304374975	1.7172120666067208e-22
-0.4846343952812475	1.7302745400485686e-22
-0.4845733601249975	1.743221105528166e-22
-0.4845123249687475	1.756053118373957e-22
-0.4844512898124975	1.7687716348498214e-22
-0.4843902546562475	1.7813770083152847e-22
-0.4843292194999975	1.7938686351518452e-22
-0.4842681843437475	1.80624489685191e-22
-0.4842071491874975	1.8185033030215617e-22
-0.4841461140312475	1.83064081918095e-22
-0.4840850788749975	1.8426543200443978e-22
-0.4840240437187475	1.8545410704256656e-22
-0.4839630085624975	1.8662991289931064e-22
-0.4839019734062475	1.8779275913353505e-22
-0.4838409382499975	1.8894266319809795e-22
-0.4837799030937475	1.9007973405635074e-22
-0.4837188679374975	1.9120413793262614e-22
-0.4836578327812475	1.9231605186375693e-22
-0.4835967976249975	1.9341561299153643e-22
-0.4835357624687475	1.9450287401904062e-22
-0.4834747273124975	1.9557777442477315e-22
-0.4834136921562475	1.9664013296588152e-22
-0.4833526569999975	1.9768966305566962e-22
-0.4832916218437475	1.9872600803846236e-22
-0.4832305866874975	1.997487902113438e-22
-0.4831695515312475	2.007576662442425e-22
-0.4831085163749975	2.0175237889412943e-22
-0.4830474812187475	2.0273279392637834e-22
-0.4829864460624975	2.0369891544152285e-22
-0.4829254109062475	2.0465087717578961e-22
-0.4828643757499975	2.0558891013549222e-22
-0.4828033405937475	2.0651329194522313e-22
-0.4827423054374975	2.0742428784491683e-22
-0.4826812702812475	2.0832209348907255e-22
-0.4826202351249975	2.0920678869414869e-22
-0.4825591999687475	2.100783103829151e-22
-0.4824981648124975	2.1093644984732986e-22
-0.4824371296562475	2.117808753771784e-22
-0.4823760944999975	2.12611176986241e-22
-0.4823150593437475	2.1342692509964596e-22
-0.4822540241874975	2.142277328805876e-22
-0.4821929890312475	2.1501331209222323e-22
-0.4821319538749975	2.1578351276568573e-22
-0.4820709187187475	2.1653833952977603e-22
-0.4820098835624975	2.1727794200024586e-22
-0.4819488484062475	2.1800258076907355e-22
-0.4818878132499975	2.1871257462979284e-22
-0.4818267780937475	2.194082379451696e-22
-0.4817657429374975	2.2008981847174956e-22
-0.4817047077812475	2.2075744638717823e-22
-0.4816436726249975	2.2141110370842285e-22
-0.4815826374687475	2.2205061931603065e-22
-0.4815216023124975	2.2267569025032144e-22
-0.4814605671562475	2.2328592564774485e-22
-0.4813995319999975	2.238809058654517e-22
-0.4813384968437475	2.2446024636383037e-22
-0.4812774616874975	2.250236550879607e-22
-0.4812164265312475	2.255709738936962e-22
-0.4811553913749975	2.261021974298453e-22
-0.4810943562187475	2.26617466160119e-22
-0.4810333210624975	2.271170344665521e-22
-0.4809722859062475	2.2760121968081306e-22
-0.4809112507499975	2.2807034124516006e-22
-0.4808502155937475	2.285246602795859e-22
-0.4807891804374975	2.28964329860336e-22
-0.4807281452812475	2.293893646424775e-22
-0.4806671101249975	2.297996347720184e-22
-0.4806060749687475	2.3019488474902024e-22
-0.4805450398124975	2.3057477367329397e-22
-0.4804840046562475	2.309389296928712e-22
-0.4804229694999975	2.312870091016985e-22
-0.4803619343437475	2.3161874972893605e-22
-0.4803008991874975	2.3193400948489127e-22
-0.4802398640312475	2.322327837698521e-22
-0.4801788288749975	2.3251519900916665e-22
-0.4801177937187475	2.3278148365217717e-22
-0.4800567585624975	2.3303192218978617e-22
-0.4799957234062475	2.332668006729163e-22
-0.4799346882499975	2.3348635326586837e-22
-0.4798736530937475	2.3369071910080746e-22
-0.4798126179374975	2.33879916794169e-22
-0.4797515827812475	2.340538407404178e-22
-0.4796905476249975	2.3421227961768045e-22
-0.4796295124687475	2.3435495350691776e-22
-0.4795684773124975	2.344815626007699e-22
-0.4795074421562475	2.345918385108002e-22
-0.4794464069999975	2.3468558883836746e-22
-0.4793853718437475	2.347627274633411e-22
-0.4793243366874975	2.348232859004151e-22
-0.4792633015312475	2.3486740391205637e-22
-0.4792022663749975	2.348953009720621e-22
-0.4791412312187475	2.349072338206121e-22
-0.4790801960624975	2.3490344806887135e-22
-0.4790191609062475	2.348841329547143e-22
-0.4789581257499975	2.3484938724330903e-22
-0.4788970905937475	2.347992019813113e-22
-0.4788360554374975	2.3473346340283386e-22
-0.4787750202812475	2.3465197538329547e-22
-0.4787139851249975	2.3455449668618316e-22
-0.4786529499687475	2.3444078603806684e-22
-0.4785919148124975	2.3431064679305523e-22
-0.4785308796562475	2.341639629606237e-22
-0.4784698444999975	2.3400072029660104e-22
-0.4784088093437475	2.338210089239806e-22
-0.4783477741874975	2.3362500718756427e-22
-0.4782867390312475	2.3341294961391544e-22
-0.4782257038749975	2.3318508496646653e-22
-0.4781646687187475	2.3294163243309567e-22
-0.4781036335624975	2.3268274360681747e-22
-0.4780425984062475	2.3240847716322386e-22
-0.4779815632499975	2.3211879147744376e-22
-0.4779205280937475	2.31813556187631e-22
-0.4778594929374975	2.3149257964568123e-22
-0.4777984577812475	2.3115564699732077e-22
-0.4777374226249975	2.308025625439934e-22
-0.4776763874687475	2.3043318895676383e-22
-0.4776153523124975	2.300474757485544e-22
-0.4775543171562475	2.2964547188794345e-22
-0.4774932819999975	2.2922732045865984e-22
-0.4774322468437475	2.2879323594169105e-22
-0.4773712116874975	2.2834346864492824e-22
-0.4773101765312475	2.2787826358075575e-22
-0.4772491413749975	2.273978207092727e-22
-0.4771881062187475	2.2690226349170346e-22
-0.4771270710624975	2.2639162234103563e-22
-0.4770660359062475	2.258658355093116e-22
-0.4770050007499975	2.253247662798082e-22
-0.4769439655937475	2.247682337333518e-22
-0.4768829304374975	2.2419605222229466e-22
-0.4768218952812475	2.236080722693829e-22
-0.4767608601249975	2.230042146402449e-22
-0.4766998249687475	2.2238449098744367e-22
-0.4766387898124975	2.2174900752252236e-22
-0.4765777546562475	2.210979516485819e-22
-0.4765167194999975	2.20431564583756e-22
-0.4764556843437475	2.1975010433325997e-22
-0.4763946491874975	2.1905380511887485e-22
-0.4763336140312475	2.183428416742114e-22
-0.4762725788749975	2.176173053018791e-22
-0.4762115437187475	2.1687719525891495e-22
-0.4761505085624975	2.161224274342878e-22
-0.4760894734062475	2.1535285937823655e-22
-0.4760284382499975	2.1456832658661968e-22
-0.4759674030937475	2.1376868248377445e-22
-0.4759063679374975	2.1295383417979267e-22
-0.4758453327812475	2.12123768044364e-22
-0.4757842976249975	2.1127856130195892e-22
-0.4757232624687475	2.104183774307322e-22
-0.4756622273124975	2.0954344600661315e-22
-0.4756011921562475	2.0865403014718572e-22
-0.4755401569999975	2.0775038744713201e-22
-0.4754791218437475	2.0683273252079308e-22
-0.4754180866874975	2.0590120771128073e-22
-0.4753570515312475	2.049558670126711e-22
-0.4752960163749975	2.0399667722692563e-22
-0.4752349812187475	2.0302353602844807e-22
-0.4751739460624975	2.020363025214199e-22
-0.4751129109062475	2.010348351166205e-22
-0.4750518757499975	2.000190304206474e-22
-0.4749908405937475	1.9898885524893184e-22
-0.4749298054374975	1.9794436515766635e-22
-0.4748687702812475	1.968857060558231e-22
-0.4748077351249975	1.9581309938151913e-22
-0.4747466999687475	1.9472681413144624e-22
-0.4746856648124975	1.9362712985521202e-22
-0.4746246296562475	1.9251429702879676e-22
-0.4745635944999975	1.9138850327183985e-22
-0.4745025593437475	1.9024985180141117e-22
-0.4744415241874975	1.890983557527138e-22
-0.4743804890312475	1.8793394938277977e-22
-0.4743194538749975	1.867565137378943e-22
-0.4742584187187475	1.8556591298761198e-22
-0.4741973835624975	1.8436203473390569e-22
-0.4741363484062475	1.8314482521894283e-22
-0.4740753132499975	1.8191431391272056e-22
-0.4740142780937475	1.8067062367283578e-22
-0.4739532429374975	1.794139633359179e-22
-0.4738922077812475	1.7814460459685417e-22
-0.4738311726249975	1.7686284748532402e-22
-0.4737701374687475	1.7556897961391783e-22
-0.4737091023124975	1.74263237714236e-22
-0.4736480671562475	1.7294577908003932e-22
-0.4735870319999975	1.7161666698901884e-22
-0.4735259968437475	1.7027587408355563e-22
-0.4734649616874975	1.689233041762737e-22
-0.4734039265312475	1.6755882627903978e-22
-0.4733428913749975	1.6618231468661828e-22
-0.4732818562187475	1.647936897707301e-22
-0.4732208210624975	1.6339295068541256e-22
-0.4731597859062475	1.6198019247644788e-22
-0.4730987507499975	1.6055560522528383e-22
-0.4730377155937475	1.5911945693393545e-22
-0.4729766804374975	1.5767206404828572e-22
-0.4729156452812475	1.5621375208768857e-22
-0.4728546101249975	1.547448112346196e-22
-0.4727935749687475	1.532654577347824e-22
-0.4727325398124975	1.517758108370995e-22
-0.4726715046562475	1.502758892997183e-22
-0.4726104694999975	1.4876562647885201e-22
-0.4725494343437475	1.4724489996259023e-22
-0.4724883991874975	1.45713571702647e-22
-0.4724273640312475	1.4417153252402864e-22
-0.4723663288749975	1.426187415653799e-22
-0.4723052937187475	1.410552531751856e-22
-0.4722442585624975	1.3948122719938865e-22
-0.4721832234062475	1.3789692019354328e-22
-0.4721221882499975	1.3630265815677776e-22
-0.4720611530937475	1.3469879589537304e-22
-0.4720001179374975	1.3308567132765576e-22
-0.4719390827812475	1.314635631178727e-22
-0.4718780476249975	1.2983265863750034e-22
-0.4718170124687475	1.2819303786985926e-22
-0.4717559773124975	1.2654467700499845e-22
-0.4716949421562475	1.2488747240656754e-22
-0.4716339069999975	1.2322128001739764e-22
