Time	Frequency
-0.5000541847499989	2.910508159761222e-22
-0.49999314959374885	2.9018001281701736e-22
-0.49993211443749885	2.892901859397387e-22
-0.49987107928124885	2.883792617751052e-22
-0.49981004412499885	2.874468831200757e-22
-0.49974900896874885	2.864944094233265e-22
-0.49968797381249885	2.85524396713785e-22
-0.49962693865624885	2.8453974897659664e-22
-0.49956590349999885	2.83542821035026e-22
-0.49950486834374885	2.825347486215804e-22
-0.49944383318749885	2.8151519221302184e-22
-0.49938279803124885	2.804825477449133e-22
-0.49932176287499885	2.794345345049921e-22
-0.49926072771874885	2.7836895764784306e-22
-0.49919969256249885	2.7728440007265515e-22
-0.49913865740624885	2.7618063486719005e-22
-0.49907762224999885	2.7505864761368443e-22
-0.49901658709374885	2.7392028618663887e-22
-0.49895555193749885	2.72767665369751e-22
-0.49889451678124885	2.716025146839272e-22
-0.49883348162499885	2.704256715859143e-22
-0.49877244646874885	2.69236874882063e-22
-0.49871141131249885	2.6803491080750293e-22
-0.49865037615624885	2.6681805106813854e-22
-0.49858934099999885	2.655846320163393e-22
-0.49852830584374885	2.6433358789613064e-22
-0.49846727068749885	2.6306477943626356e-22
-0.49840623553124885	2.617790280192926e-22
-0.49834520037499885	2.604778528770564e-22
-0.49828416521874885	2.5916299877119663e-22
-0.49822313006249885	2.5783590696866337e-22
-0.49816209490624885	2.5649729611328817e-22
-0.49810105974999885	2.5514698091579247e-22
-0.49804002459374885	2.537839764262556e-22
-0.49797898943749885	2.524068431512999e-22
-0.49791795428124885	2.510141622091433e-22
-0.49785691912499885	2.496049960855218e-22
-0.49779588396874885	2.4817919097424476e-22
-0.49773484881249885	2.467374283217425e-22
-0.49767381365624885	2.452810185304836e-22
-0.49761277849999885	2.438115072962273e-22
-0.49755174334374885	2.423302198437301e-22
-0.49749070818749885	2.408378834536121e-22
-0.49742967303124885	2.3933443944312445e-22
-0.49736863787499885	2.3781910157307514e-22
-0.49730760271874885	2.362906380612223e-22
-0.49724656756249885	2.347477809196982e-22
-0.49718553240624885	2.3318963688186855e-22
-0.49712449724999885	2.3161597529292873e-22
-0.49706346209374885	2.3002730799772543e-22
-0.49700242693749885	2.284247462906508e-22
-0.49694139178124885	2.2680967830696864e-22
-0.49688035662499885	2.2518336327644125e-22
-0.49681932146874885	2.235465759643006e-22
-0.49675828631249885	2.218994116438863e-22
-0.49669725115624885	2.2024129905542515e-22
-0.49663621599999885	2.185712115137917e-22
-0.49657518084374885	2.1688801320625993e-22
-0.49651414568749885	2.1519083233164026e-22
-0.49645311053124885	2.1347934652046355e-22
-0.49639207537499885	2.1175389493806128e-22
-0.49633104021874885	2.1001538471546439e-22
-0.49627000506249885	2.0826502964348175e-22
-0.49620896990624885	2.0650400598243617e-22
-0.49614793474999885	2.0473312711454098e-22
-0.49608689959374885	2.0295263858143698e-22
-0.49602586443749885	2.011621933104801e-22
-0.49596482928124885	1.9936100160380056e-22
-0.49590379412499885	1.9754810584022924e-22
-0.49584275896874885	1.957226978182991e-22
-0.49578172381249885	1.9388438021285455e-22
-0.49572068865624885	1.9203329596952966e-22
-0.49565965349999885	1.9017009521422186e-22
-0.49559861834374885	1.8829575484325715e-22
-0.49553758318749885	1.8641130965792904e-22
-0.49547654803124885	1.845175797379461e-22
-0.49541551287499885	1.826149731306084e-22
-0.49535447771874885	1.8070341812264242e-22
-0.49529344256249885	1.787824374750969e-22
-0.49523240740624885	1.7685133239930934e-22
-0.49517137224999885	1.7490942052514292e-22
-0.49511033709374885	1.7295626096789507e-22
-0.49504930193749885	1.7099179643459975e-22
-0.49498826678124885	1.6901636839740057e-22
-0.49492723162499885	1.6703061338692024e-22
-0.49486619646874885	1.6503528752492624e-22
-0.49480516131249885	1.6303107873501406e-22
-0.49474412615624885	1.6101845979312664e-22
-0.49468309099999885	1.5899761485297761e-22
-0.49462205584374885	1.5696845257411176e-22
-0.49456102068749885	1.5493069925284382e-22
-0.49449998553124885	1.5288403475689896e-22
-0.49443895037499885	1.5082821576130783e-22
-0.49437791521874885	1.487631498046472e-22
-0.49431688006249885	1.4668891108709177e-22
-0.49425584490624885	1.4460569997620181e-22
-0.49419480974999885	1.4251377028520154e-22
-0.49413377459374885	1.4041336769205337e-22
-0.49407273943749885	1.3830470167177274e-22
-0.49401170428124885	1.3618794799536467e-22
-0.49395066912499885	1.3406327851134697e-22
-0.49388963396874885	1.31930902541888e-22
-0.49382859881249885	1.297910853434681e-22
-0.49376756365624885	1.276441268286422e-22
-0.49370652849999885	1.2549030833957736e-22
-0.49364549334374885	1.2332981714641616e-22
-0.49358445818749885	1.2116267092790106e-22
-0.49352342303124885	1.1898868451877053e-22
-0.49346238787499885	1.168075073847933e-22
-0.49340135271874885	1.146187263002289e-22
-0.49334031756249885	1.1242201274126327e-22
-0.49327928240624885	1.1021728203128862e-22
-0.49321824724999885	1.0800480702294568e-22
-0.49315721209374885	1.0578523075516658e-22
-0.49309617693749885	1.035594633873707e-22
-0.49303514178124885	1.0132849023025138e-22
-0.49297410662499885	9.909313684142526e-23
-0.49291307146874885	9.685385044242658e-23
-0.49285203631249885	9.461056394053728e-23
-0.49279100115624885	9.236269524096754e-23
-0.49272996599999885	9.01092994337758e-23
-0.49266893084374885	8.784934213814663e-23
-0.49260789568749885	8.558201717482039e-23
-0.49254686053124885	8.330701306254567e-23
-0.49248582537499885	8.10246557316232e-23
-0.49242479021874885	7.873589030596394e-23
-0.49236375506249885	7.644209207390975e-23
-0.49230271990624885	7.414474491476213e-23
-0.49224168474999885	7.184507773127412e-23
-0.49218064959374885	6.95437616836156e-23
-0.49211961443749885	6.724074777378365e-23
-0.49205857928124885	6.493529192625792e-23
-0.49199754412499885	6.262617266331817e-23
-0.49193650896874885	6.031204736921125e-23
-0.49187547381249885	5.79918449165421e-23
-0.49181443865624885	5.566508370865015e-23
-0.49175340349999885	5.333203024961031e-23
-0.49169236834374885	5.0993657237273094e-23
-0.49163133318749885	4.8651414225982034e-23
-0.49157029803124885	4.630687510820301e-23
-0.49150926287499885	4.396135649673765e-23
-0.49144822771874885	4.161560943219846e-23
-0.49138719256249885	3.926966982545949e-23
-0.49132615740624885	3.6922903250502667e-23
-0.49126512224999885	3.457422532409165e-23
-0.49120408709374885	3.222243920399458e-23
-0.49114305193749885	2.986659355740179e-23
-0.49108201678124885	2.7506255837929207e-23
-0.49102098162499885	2.5141632598130814e-23
-0.49095994646874885	2.277351337886786e-23
-0.49089891131249885	2.0403062357041676e-23
-0.49083787615624885	1.803152302046313e-23
-0.49077684099999885	1.5659918639158758e-23
-0.49071580584374885	1.328882948396545e-23
-0.49065477068749885	1.0918300171146041e-23
-0.49059373553124885	8.54789723225702e-24
-0.49053270037499885	6.176900888234298e-24
-0.49047166521874885	3.8045656743276285e-24
-0.49041063006249885	1.430365285487984e-24
-0.49034959490624885	-9.458426998680572e-25
-0.49028855974999885	-3.323770844787571e-24
-0.49022752459374885	-5.702784168138248e-24
-0.49016648943749885	-8.082079691483838e-24
-0.49010545428124885	-1.0460899734185268e-23
-0.49004441912499885	-1.2838712714020898e-23
-0.48998338396874885	-1.5215313602778713e-23
-0.48992234881249885	-1.7590820630016434e-23
-0.48986131365624885	-1.9965573690105797e-23
-0.48980027849999885	-2.2339970890639348e-23
-0.48973924334374885	-2.471429723152737e-23
-0.48967820818749885	-2.7088597766279574e-23
-0.48961717303124885	-2.946263458892966e-23
-0.48955613787499885	-3.183593528119768e-23
-0.48949510271874885	-3.4207907528138623e-23
-0.48943406756249885	-3.6577986372301436e-23
-0.48937303240624885	-3.894577601576407e-23
-0.48931199724999885	-4.1311137736825106e-23
-0.48925096209374885	-4.367418816020826e-23
-0.48918992693749885	-4.603521511305303e-23
-0.48912889178124885	-4.8394546839978244e-23
-0.48906785662499885	-5.075241184166129e-23
-0.48900682146874885	-5.310883105806556e-23
-0.48894578631249885	-5.5463573730696e-23
-0.48888475115624885	-5.781618318719933e-23
-0.48882371599999885	-6.016606924704154e-23
-0.48876268084374885	-6.251264911215048e-23
-0.48870164568749885	-6.485548810842035e-23
-0.48864061053124885	-6.719438529423081e-23
-0.48857957537499885	-6.95293829539513e-23
-0.48851854021874885	-7.186071096415956e-23
-0.48845750506249885	-7.418868285442054e-23
-0.48839646990624885	-7.651356690210599e-23
-0.48833543474999885	-7.883547057549462e-23
-0.48827439959374885	-8.115427823423074e-23
-0.48821336443749885	-8.346965890661634e-23
-0.48815232928124885	-8.578113482863877e-23
-0.48809129412499885	-8.808818741710262e-23
-0.48803025896874885	-9.039036831960569e-23
-0.48796922381249885	-9.268738600492529e-23
-0.48790818865624885	-9.497914693325508e-23
-0.48784715349999885	-9.726573823690396e-23
-0.48778611834374885	-9.954735495809487e-23
-0.48772508318749885	-1.0182419527106153e-22
-0.48766404803124885	-1.040963614196189e-22
-0.48760301287499885	-1.0636379968564918e-22
-0.48754197771874885	-1.0862629218792627e-22
-0.48748094256249885	-1.1088349341173526e-22
-0.48741990740624885	-1.1313499797043926e-22
-0.48735887224999885	-1.1538042580139121e-22
-0.48729783709374885	-1.176194993520171e-22
-0.48723680193749885	-1.1985208729768323e-22
-0.48717576678124885	-1.2207820481344594e-22
-0.48711473162499885	-1.2429796506956505e-22
-0.48705369646874885	-1.2651149564482885e-22
-0.48699266131249885	-1.2871885675185587e-22
-0.48693162615624885	-1.3091998695449215e-22
-0.48687059099999885	-1.3311468725592702e-22
-0.48680955584374885	-1.3530264909775765e-22
-0.48674852068749885	-1.3748351725159075e-22
-0.48668748553124885	-1.396569632770163e-22
-0.48662645037499885	-1.4182274578551234e-22
-0.48656541521874885	-1.439807456702276e-22
-0.48650438006249885	-1.461309681045313e-22
-0.48644334490624885	-1.4827350358795475e-22
-0.48638230974999885	-1.5040845565932995e-22
-0.48632127459374885	-1.5253586544460182e-22
-0.48626023943749885	-1.546556628546537e-22
-0.48619920428124885	-1.5676765446951471e-22
-0.48613816912499885	-1.5887154870695253e-22
-0.48607713396874885	-1.6096701234947973e-22
-0.48601609881249885	-1.6305374099690202e-22
-0.48595506365624885	-1.6513151996218707e-22
-0.48589402849999885	-1.672002537300578e-22
-0.48583299334374885	-1.6925995484243113e-22
-0.48577195818749885	-1.7131069827776332e-22
-0.48571092303124885	-1.7335255582175618e-22
-0.48564988787499885	-1.753855326262323e-22
-0.48558885271874885	-1.774095276826865e-22
-0.48552781756249885	-1.7942432987102146e-22
-0.48546678240624885	-1.8142965045650903e-22
-0.48540574724999885	-1.8342518252995506e-22
-0.48534471209374885	-1.8541066940545862e-22
-0.48528367693749885	-1.8738595768518189e-22
-0.48522264178124885	-1.893510159475844e-22
-0.48516160662499885	-1.9130591350468669e-22
-0.48510057146874885	-1.9325076254655146e-22
-0.48503953631249885	-1.95185639592532e-22
-0.48497850115624885	-1.971105144504736e-22
-0.48491746599999885	-1.9902521192768766e-22
-0.48485643084374885	-2.0092942207782354e-22
-0.48479539568749885	-2.0282276034582564e-22
-0.48473436053124885	-2.0470485670014842e-22
-0.48467332537499885	-2.0657544317541693e-22
-0.48461229021874885	-2.0843441302885243e-22
-0.48455125506249885	-2.1028183011717089e-22
-0.48449021990624885	-2.1211788314350786e-22
-0.48442918474999885	-2.1394280055971405e-22
-0.48436814959374885	-2.1575675030980523e-22
-0.48430711443749885	-2.1755975257378407e-22
-0.48424607928124885	-2.1935163722504706e-22
-0.48418504412499885	-2.2113206296027595e-22
-0.48412400896874885	-2.229005895084883e-22
-0.48406297381249885	-2.2465678024081274e-22
-0.48400193865624885	-2.2640030466940506e-22
-0.48394090349999885	-2.2813100481668772e-22
-0.48387986834374885	-2.298489039663287e-22
-0.48381883318749885	-2.315541624731155e-22
-0.48375779803124885	-2.332469959397122e-22
-0.48369676287499885	-2.349275766015983e-22
-0.48363572771874885	-2.365959495238136e-22
-0.48357469256249885	-2.3825199282985303e-22
-0.48351365740624885	-2.398954347674977e-22
-0.48345262224999885	-2.415259181875042e-22
-0.48339158709374885	-2.4314308597536907e-22
-0.48333055193749885	-2.44746661433256e-22
-0.48326951678124885	-2.4633650214211375e-22
-0.48320848162499885	-2.4791261056453695e-22
-0.48314744646874885	-2.4947509720660147e-22
-0.48308641131249885	-2.5102410971733023e-22
-0.48302537615624885	-2.525597547092058e-22
-0.48296434099999885	-2.5408203637691053e-22
-0.48290330584374885	-2.5559082942165234e-22
-0.48284227068749885	-2.570858987192852e-22
-0.48278123553124885	-2.585669599604112e-22
-0.48272020037499885	-2.6003375394406196e-22
-0.48265916521874885	-2.614861044489208e-22
-0.48259813006249885	-2.6292394370928744e-22
-0.48253709490624885	-2.6434730085405325e-22
-0.48247605974999885	-2.657562571591712e-22
-0.48241502459374885	-2.671508831193602e-22
-0.48235398943749885	-2.685311781322891e-22
-0.48229295428124885	-2.6989703513596846e-22
-0.48223191912499885	-2.712482478028729e-22
-0.48217088396874885	-2.7258455864120384e-22
-0.48210984881249885	-2.739057263096105e-22
-0.48204881365624885	-2.752115880930236e-22
-0.48198777849999885	-2.7650209817994283e-22
-0.48192674334374885	-2.7777732502802053e-22
-0.48186570818749885	-2.790374054783565e-22
-0.48180467303124885	-2.802824721482916e-22
-0.48174363787499885	-2.815125776345173e-22
-0.48168260271874885	-2.8272764066445145e-22
-0.48162156756249885	-2.839274363166919e-22
-0.48156053240624885	-2.8511163785405883e-22
-0.48149949724999885	-2.862798968786121e-22
-0.48143846209374885	-2.874319349655961e-22
-0.48137742693749885	-2.885676188493959e-22
-0.48131639178124885	-2.8968699370002277e-22
-0.48125535662499885	-2.907902581530869e-22
-0.48119432146874885	-2.918776869073169e-22
-0.48113328631249885	-2.9294952617830643e-22
-0.48107225115624885	-2.940058936063467e-22
-0.48101121599999885	-2.9504671264880007e-22
-0.48095018084374885	-2.960717046394832e-22
-0.48088914568749885	-2.97080445785843e-22
-0.48082811053124885	-2.9807247347497094e-22
-0.48076707537499885	-2.990474089320987e-22
-0.48070604021874885	-3.0000505839820567e-22
-0.48064500506249885	-3.0094546120710207e-22
-0.48058396990624885	-3.018688685575576e-22
-0.48052293474999885	-3.027756571247048e-22
-0.48046189959374885	-3.0366620148576563e-22
-0.48040086443749885	-3.0454074337026693e-22
-0.48033982928124885	-3.0539929869675146e-22
-0.48027879412499885	-3.0624163211983356e-22
-0.48021775896874885	-3.070673066560255e-22
-0.48015672381249885	-3.078757939956272e-22
-0.48009568865624885	-3.0866661509606036e-22
-0.48003465349999885	-3.094394703657687e-22
-0.47997361834374885	-3.101943187754906e-22
-0.47991258318749885	-3.1093137932111946e-22
-0.47985154803124885	-3.116510531532328e-22
-0.47979051287499885	-3.1235379005683355e-22
-0.47972947771874885	-3.1303993954604594e-22
-0.47966844256249885	-3.1370963149490535e-22
-0.47960740740624885	-3.1436272247487946e-22
-0.47954637224999885	-3.1499882415461403e-22
-0.47948533709374885	-3.156174060565764e-22
-0.47942430193749885	-3.1621794291750676e-22
-0.47936326678124885	-3.1680006236106106e-22
-0.47930223162499885	-3.173636472259936e-22
-0.47924119646874885	-3.1790886048337975e-22
-0.47918016131249885	-3.184360848481808e-22
-0.47911912615624885	-3.189457957883036e-22
-0.47905809099999885	-3.1943840661937287e-22
-0.47899705584374885	-3.199141324122495e-22
-0.47893602068749885	-3.203729141501055e-22
-0.47887498553124885	-3.2081442633268675e-22
-0.47881395037499885	-3.2123816574236283e-22
-0.47875291521874885	-3.216435947174937e-22
-0.47869188006249885	-3.2203029542762635e-22
-0.47863084490624885	-3.2239808796354787e-22
-0.47856980974999885	-3.2274707653440335e-22
-0.47850877459374885	-3.2307761040049304e-22
-0.47844773943749885	-3.23390171416998e-22
-0.47838670428124885	-3.2368522173506967e-22
-0.47832566912499885	-3.239630578788794e-22
-0.47826463396874885	-3.242237151580588e-22
-0.47820359881249885	-3.2446695031811825e-22
-0.47814256365624885	-3.246923076198979e-22
-0.47808152849999885	-3.248992493456367e-22
-0.47802049334374885	-3.2508731180064843e-22
-0.47795945818749885	-3.2525623921708863e-22
-0.47789842303124885	-3.2540605479410997e-22
-0.47783738787499885	-3.255370480522317e-22
-0.47777635271874885	-3.256496828317103e-22
-0.47771531756249885	-3.257444537341415e-22
-0.47765428240624885	-3.2582173445116655e-22
-0.47759324724999885	-3.258816640343231e-22
-0.47753221209374885	-3.25924104830077e-22
-0.47747117693749885	-3.259486834593128e-22
-0.47741014178124885	-3.2595490284117277e-22
-0.47734910662499885	-3.259422914621797e-22
-0.47728807146874885	-3.2591054238530427e-22
-0.47722703631249885	-3.2585959985542647e-22
-0.47716600115624885	-3.2578966980888605e-22
-0.47710496599999885	-3.2570115195954476e-22
-0.47704393084374885	-3.2559451468582183e-22
-0.47698289568749885	-3.2547015193264305e-22
-0.47692186053124885	-3.2532826600533247e-22
-0.47686082537499885	-3.2516881154879986e-22
-0.47679979021874885	-3.2499151627010515e-22
-0.47673875506249885	-3.2479597128237455e-22
-0.47667771990624885	-3.2458176260744926e-22
-0.47661668474999885	-3.2434860044079534e-22
-0.47655564959374885	-3.2409640573511838e-22
-0.47649461443749885	-3.238253304073414e-22
-0.47643357928124885	-3.2353570650402073e-22
-0.47637254412499885	-3.232279399415138e-22
-0.47631150896874885	-3.2290238366952727e-22
-0.47625047381249885	-3.2255923186639556e-22
-0.47618943865624885	-3.221984672951377e-22
-0.47612840349999885	-3.2181987615446784e-22
-0.47606736834374885	-3.2142312409683464e-22
-0.47600633318749885	-3.2100786960695766e-22
-0.47594529803124885	-3.2057388041303143e-22
-0.47588426287499885	-3.201211145241262e-22
-0.47582322771874885	-3.1964973706962465e-22
-0.47576219256249885	-3.191600696568787e-22
-0.47570115740624885	-3.1865249216077495e-22
-0.47564012224999885	-3.1812732616857793e-22
-0.47557908709374885	-3.175847356267472e-22
-0.47551805193749885	-3.1702468019851853e-22
-0.47545701678124885	-3.164469368173976e-22
-0.47539598162499885	-3.1585118027425006e-22
-0.47533494646874885	-3.152370975262647e-22
-0.47527391131249885	-3.146044989221625e-22
-0.47521287615624885	-3.13953389981481e-22
-0.47515184099999885	-3.1328398058192327e-22
-0.47509080584374885	-3.125966290927438e-22
-0.47502977068749885	-3.118917397130276e-22
-0.47496873553124885	-3.1116964413982678e-22
-0.47490770037499885	-3.1043050520662116e-22
-0.47484666521874885	-3.0967427327372006e-22
-0.47478563006249885	-3.0890070919233634e-22
-0.47472459490624885	-3.081094691952724e-22
-0.47466355974999885	-3.073002253077733e-22
-0.47460252459374885	-3.0647278219683563e-22
-0.47454148943749885	-3.056271530918994e-22
-0.47448045428124885	-3.047635695179844e-22
-0.47441941912499885	-3.038824229660176e-22
-0.47435838396874885	-3.0298415863832985e-22
-0.47429734881249885	-3.0206915216743766e-22
-0.47423631365624885	-3.0113760513038924e-22
-0.47417527849999885	-3.0018949327688264e-22
-0.47411424334374885	-2.992245866665474e-22
-0.47405320818749885	-2.9824253618619596e-22
-0.47399217303124885	-2.972429972417925e-22
-0.47393113787499885	-2.962257521828029e-22
-0.47387010271874885	-2.9519079561678092e-22
-0.47380906756249885	-2.9413835383983464e-22
-0.47374803240624885	-2.930688293719472e-22
-0.47368699724999885	-2.919826914691017e-22
-0.47362596209374885	-2.9088035134939597e-22
-0.47356492693749885	-2.8976205516306853e-22
-0.47350389178124885	-2.8862782177780448e-22
-0.47344285662499885	-2.874774521907219e-22
-0.47338182146874885	-2.863106118419905e-22
-0.47332078631249885	-2.8512695177911264e-22
-0.47325975115624885	-2.8392622886080285e-22
-0.47319871599999885	-2.827083967812643e-22
-0.47313768084374885	-2.8147364178214264e-22
-0.47307664568749885	-2.8022234627796314e-22
-0.47301561053124885	-2.789549917659652e-22
-0.47295457537499885	-2.7767203179766007e-22
-0.47289354021874885	-2.763737733954472e-22
-0.47283250506249885	-2.750603067120661e-22
-0.47277146990624885	-2.7373150334468758e-22
-0.47271043474999885	-2.7238707672176886e-22
-0.47264939959374885	-2.710266861067696e-22
-0.47258836443749885	-2.6965005717051457e-22
-0.47252732928124885	-2.682570827962532e-22
