Time	Frequency
-0.5000076252187498	1.8236820296497528e-22
-0.49994659006249975	1.8424108818199746e-22
-0.49988555490624975	1.8612143489143374e-22
-0.49982451974999975	1.880102901729807e-22
-0.49976348459374975	1.899055153874466e-22
-0.49970244943749975	1.9180227423801713e-22
-0.49964141428124975	1.9369395982291226e-22
-0.49958037912499975	1.9557338403312782e-22
-0.49951934396874975	1.9743401674626968e-22
-0.49945830881249975	1.9927106091721998e-22
-0.49939727365624975	2.0108218417171907e-22
-0.49933623849999975	2.0286779500061564e-22
-0.49927520334374975	2.0463083739352747e-22
-0.49921416818749975	2.0637616036630083e-22
-0.49915313303124975	2.0810958614355185e-22
-0.49909209787499975	2.098368480439402e-22
-0.49903106271874975	2.115625880882627e-22
-0.49897002756249975	2.1328958589803446e-22
-0.49890899240624975	2.150183399866707e-22
-0.49884795724999975	2.1674705812401204e-22
-0.49878692209374975	2.184720438092626e-22
-0.49872588693749975	2.2018839641765323e-22
-0.49866485178124975	2.2189089025752045e-22
-0.49860381662499975	2.2357487434150027e-22
-0.49854278146874975	2.252370373698337e-22
-0.49848174631249975	2.2687591094191153e-22
-0.49842071115624975	2.2849203473290913e-22
-0.49835967599999975	2.3008776778564634e-22
-0.49829864084374975	2.316667917883489e-22
-0.49823760568749975	2.3323340524609993e-22
-0.49817657053124975	2.347917393799126e-22
-0.49811553537499975	2.3634503277904163e-22
-0.49805450021874975	2.378950875140815e-22
-0.49799346506249975	2.3944199631796767e-22
-0.49793242990624975	2.409841777438997e-22
-0.49787139474999975	2.425186995317389e-22
-0.49781035959374975	2.4404182411939403e-22
-0.49774932443749975	2.455496742446661e-22
-0.49768828928124975	2.4703889731854363e-22
-0.49762725412499975	2.485072125899117e-22
-0.49756621896874975	2.4995375134024733e-22
-0.49750518381249975	2.513791403334602e-22
-0.49744414865624975	2.5278532316806604e-22
-0.49738311349999975	2.5417515791063764e-22
-0.49732207834374975	2.5555187005271575e-22
-0.49726104318749975	2.5691846344709335e-22
-0.49720000803124975	2.582771921926378e-22
-0.49713897287499975	2.59629182422913e-22
-0.49707793771874975	2.6097426544688753e-22
-0.49701690256249975	2.6231104308055507e-22
-0.49695586740624975	2.6363716427784484e-22
-0.49689483224999975	2.649497574496735e-22
-0.49683379709374975	2.662459372812833e-22
-0.49677276193749975	2.675232948464583e-22
-0.49671172678124975	2.6878028681372356e-22
-0.49665069162499975	2.700164593520179e-22
-0.49658965646874975	2.7123247356612377e-22
-0.49652862131249975	2.7242993521179693e-22
-0.49646758615624975	2.7361106514514696e-22
-0.49640655099999975	2.7477827475185713e-22
-0.49634551584374975	2.7593372472980617e-22
-0.49628448068749975	2.770789441402724e-22
-0.49622344553124975	2.7821457448099773e-22
-0.49616241037499975	2.793402800824221e-22
-0.49610137521874975	2.8045483327515363e-22
-0.49604034006249975	2.8155635209975463e-22
-0.49597930490624975	2.826426446431226e-22
-0.49591826974999975	2.8371159574374815e-22
-0.49585723459374975	2.8476152531600154e-22
-0.49579619943749975	2.857914568448186e-22
-0.49573516428124975	2.868012526942981e-22
-0.49567412912499975	2.8779159588352655e-22
-0.49561309396874975	2.887638265545692e-22
-0.49555205881249975	2.897196687398276e-22
-0.49549102365624975	2.9066090014714163e-22
-0.49542998849999975	2.915890246009515e-22
-0.49536895334374975	2.9250500532498447e-22
-0.49530791818749975	2.934091046533317e-22
-0.49524688303124975	2.943008541018023e-22
-0.49518584787499975	2.9517915481483804e-22
-0.49512481271874975	2.9604248650448535e-22
-0.49506377756249975	2.968891847885003e-22
-0.49500274240624975	2.977177349628307e-22
-0.49494170724999975	2.9852702874718505e-22
-0.49488067209374975	2.993165394408538e-22
-0.49481963693749975	3.000863872763761e-22
-0.49475860178124975	3.0083728722007194e-22
-0.49469756662499975	3.015703922958306e-22
-0.49463653146874975	3.0228706391206416e-22
-0.49457549631249975	3.029886128043156e-22
-0.49451446115624975	3.0367605756373225e-22
-0.49445342599999975	3.0434994315310192e-22
-0.49439239084374975	3.050102502056694e-22
-0.49433135568749975	3.0565640844273615e-22
-0.49427032053124975	3.0628740812576704e-22
-0.49420928537499975	3.0690198673672595e-22
-0.49414825021874975	3.0749885559834166e-22
-0.49408721506249975	3.0807692464896784e-22
-0.49402617990624975	3.0863548530741103e-22
-0.49396514474999975	3.0917432007822564e-22
-0.49390410959374975	3.0969372147831083e-22
-0.49384307443749975	3.101944197213884e-22
-0.49378203928124975	3.106774347684698e-22
-0.49372100412499975	3.1114388124485666e-22
-0.49365996896874975	3.115947622567459e-22
-0.49359893381249975	3.1203078899664436e-22
-0.49353789865624975	3.1245225737455937e-22
-0.49347686349999975	3.1285900188951873e-22
-0.49341582834374975	3.1325043258575748e-22
-0.49335479318749975	3.1362564600031737e-22
-0.49329375803124975	3.139835882080418e-22
-0.49323272287499975	3.1432323950250565e-22
-0.49317168771874975	3.146437875837496e-22
-0.49311065256249975	3.149447594439652e-22
-0.49304961740624975	3.152260900208151e-22
-0.49298858224999975	3.1548811728599567e-22
-0.49292754709374975	3.1573150725685284e-22
-0.49286651193749975	3.1595712473066696e-22
-0.49280547678124975	3.161658739803185e-22
-0.49274444162499975	3.1635853815341036e-22
-0.49268340646874975	3.1653564565588903e-22
-0.49262237131249975	3.1669738588075216e-22
-0.49256133615624975	3.16843586902322e-22
-0.49250030099999975	3.1697375658633723e-22
-0.49243926584374975	3.1708717780897155e-22
-0.49237823068749975	3.171830390998568e-22
-0.49231719553124975	3.1726057615756544e-22
-0.49225616037499975	3.1731919898046074e-22
-0.49219512521874975	3.1735858308797104e-22
-0.49213409006249975	3.1737871056842705e-22
-0.49207305490624975	3.173798561839264e-22
-0.49201201974999975	3.1736252362553926e-22
-0.49195098459374975	3.173273457710045e-22
-0.49188994943749975	3.1727496839734976e-22
-0.49182891428124975	3.172059381148178e-22
-0.49176787912499975	3.171206139337748e-22
-0.49170684396874975	3.170191175014742e-22
-0.49164580881249975	3.169013283902419e-22
-0.49158477365624975	3.167669217370902e-22
-0.49152373849999975	3.1661543948223082e-22
-0.49146270334374975	3.164463814680276e-22
-0.49140166818749975	3.162592982067315e-22
-0.49134063303124975	3.1605386728933798e-22
-0.49127959787499975	3.1582994082758024e-22
-0.49121856271874975	3.155875577284092e-22
-0.49115752756249975	3.1532692066662585e-22
-0.49109649240624975	3.1504834458729e-22
-0.49103545724999975	3.147521890423921e-22
-0.49097442209374975	3.144387879899232e-22
-0.49091338693749975	3.141083898542859e-22
-0.49085235178124975	3.1376111904233276e-22
-0.49079131662499975	3.133969660366602e-22
-0.49073028146874975	3.1301580632090654e-22
-0.49066924631249975	3.1261744178638743e-22
-0.49060821115624975	3.1220165488955017e-22
-0.49054717599999975	3.1176826467780605e-22
-0.49048614084374975	3.113171724666853e-22
-0.49042510568749975	3.108483863459129e-22
-0.49036407053124975	3.1036202014513934e-22
-0.49030303537499975	3.0985826856104853e-22
-0.49024200021874975	3.0933736372549815e-22
-0.49018096506249975	3.0879952220199246e-22
-0.49011992990624975	3.082448942466406e-22
-0.49005889474999975	3.0767352717304884e-22
-0.48999785959374975	3.0708535168209087e-22
-0.48993682443749975	3.064801943263035e-22
-0.48987578928124975	3.058578136621849e-22
-0.48981475412499975	3.0521795440029065e-22
-0.48975371896874975	3.045604096415979e-22
-0.48969268381249975	3.0388507736486675e-22
-0.48963164865624975	3.03191998748372e-22
-0.48957061349999975	3.0248137037863974e-22
-0.48950957834374975	3.0175352635852766e-22
-0.48944854318749975	3.010088914757317e-22
-0.48938750803124975	3.0024791393827566e-22
-0.48932647287499975	2.9947098972269127e-22
-0.48926543771874975	2.9867839063190075e-22
-0.48920440256249975	2.9787021042298335e-22
-0.48914336740624975	2.970463414071265e-22
-0.48908233224999975	2.962064872762793e-22
-0.48902129709374975	2.9535021232201285e-22
-0.48896026193749975	2.944770189108511e-22
-0.48889922678124975	2.935864385863765e-22
-0.48883819162499975	2.926781217699276e-22
-0.48877715646874975	2.9175191128499026e-22
-0.48871612131249975	2.908078870231493e-22
-0.48865508615624975	2.8984637297300433e-22
-0.48859405099999975	2.8886790136435e-22
-0.48853301584374975	2.878731374012259e-22
-0.48847198068749975	2.8686277970503363e-22
-0.48841094553124975	2.8583745336148396e-22
-0.48834991037499975	2.847976103999978e-22
-0.48828887521874975	2.8374345665735913e-22
-0.48822784006249975	2.82674920560106e-22
-0.48816680490624975	2.8159166786914153e-22
-0.48810576974999975	2.8049316043833936e-22
-0.48804473459374975	2.793787512157302e-22
-0.48798369943749975	2.7824779873967545e-22
-0.48792266428124975	2.770997808939229e-22
-0.48786162912499975	2.759343904774269e-22
-0.48780059396874975	2.7475159787869075e-22
-0.48773955881249975	2.735516688029867e-22
-0.48767852365624975	2.7233513208202223e-22
-0.48761748849999975	2.711027027575672e-22
-0.48755645334374975	2.698551754735878e-22
-0.48749541818749975	2.6859330729639117e-22
-0.48743438303124975	2.6731770611773944e-22
-0.48737334787499975	2.660287419543552e-22
-0.48731231271874975	2.6472649938187986e-22
-0.48725127756249975	2.6341077906373443e-22
-0.48719024240624975	2.6208114593769604e-22
-0.48712920724999975	2.6073701497797976e-22
-0.48706817209374975	2.5937775956527187e-22
-0.48700713693749975	2.580028257874312e-22
-0.48694610178124975	2.566118333544461e-22
-0.48688506662499975	2.552046442272093e-22
-0.48682403146874975	2.537813895912788e-22
-0.48676299631249975	2.523424534967211e-22
-0.48670196115624975	2.5088841499607556e-22
-0.48664092599999975	2.494199575557144e-22
-0.48657989084374975	2.4793776318406965e-22
-0.48651885568749975	2.464424118995616e-22
-0.48645782053124975	2.449343034590022e-22
-0.48639678537499975	2.434136128456026e-22
-0.48633575021874975	2.4188028527418735e-22
-0.48627471506249975	2.403340695145169e-22
-0.48621367990624975	2.3877458370869314e-22
-0.48615264474999975	2.372014027774238e-22
-0.48609160959374975	2.3561414962411214e-22
-0.48603057443749975	2.340125729504996e-22
-0.48596953928124975	2.3239659992328994e-22
-0.48590850412499975	2.3076635485251165e-22
-0.48584746896874975	2.2912214011398094e-22
-0.48578643381249975	2.274643849075098e-22
-0.48572539865624975	2.2579357395261496e-22
-0.48566436349999975	2.241101693094081e-22
-0.48560332834374975	2.224145395491824e-22
-0.48554229318749975	2.2070690970922746e-22
-0.48548125803124975	2.1898734128761206e-22
-0.48542022287499975	2.1725574603624637e-22
-0.48535918771874975	2.155119303511902e-22
-0.48529815256249975	2.1375566058856543e-22
-0.48523711740624975	2.119867343868934e-22
-0.48517608224999975	2.1020504247629823e-22
-0.48511504709374975	2.0841061089783062e-22
-0.48505401193749975	2.0660361777422085e-22
-0.48499297678124975	2.0478438007369088e-22
-0.48493194162499975	2.0295331038383327e-22
-0.48487090646874975	2.0111085111168301e-22
-0.48480987131249975	1.9925740022049724e-22
-0.48474883615624975	1.9739324515684833e-22
-0.48468780099999975	1.9551851694833206e-22
-0.48462676584374975	1.9363317255186224e-22
-0.48456573068749975	1.9173701271184694e-22
-0.48450469553124975	1.8982973384380583e-22
-0.48444366037499975	1.879110016260096e-22
-0.48438262521874975	1.8598053364197844e-22
-0.48432159006249975	1.8403817821035584e-22
-0.48426055490624975	1.8208397300410204e-22
-0.48419951974999975	1.8011816994976345e-22
-0.48413848459374975	1.7814121937551842e-22
-0.48407744943749975	1.7615371528426771e-22
-0.48401641428124975	1.7415631257660662e-22
-0.48395537912499975	1.721496307181092e-22
-0.48389434396874975	1.7013416071843903e-22
-0.48383330881249975	1.6811019277544013e-22
-0.48377227365624975	1.6607777760710032e-22
-0.48371123849999975	1.6403672916017243e-22
-0.48365020334374975	1.6198667134680707e-22
-0.48358916818749975	1.5992712082670638e-22
-0.48352813303124975	1.578575883896523e-22
-0.48346709787499975	1.5577768371101791e-22
-0.48340606271874975	1.536872069561069e-22
-0.48334502756249975	1.5158620562313598e-22
-0.48328399240624975	1.4947498574104234e-22
-0.48322295724999975	1.4735408088123776e-22
-0.48316192209374975	1.4522418216374504e-22
-0.48310088693749975	1.4308603578657653e-22
-0.48303985178124975	1.4094033054910931e-22
-0.48297881662499975	1.3878759891338995e-22
-0.48291778146874975	1.3662814494333612e-22
-0.48285674631249975	1.3446201177966473e-22
-0.48279571115624975	1.3228899557776478e-22
-0.48273467599999975	1.3010870201309308e-22
-0.48267364084374975	1.2792063801839026e-22
-0.48261260568749975	1.2572432309558048e-22
-0.48255157053124975	1.2351939574418825e-22
-0.48249053537499975	1.2130569655898424e-22
-0.48242950021874975	1.1908331635333607e-22
-0.48236846506249975	1.1685259977493088e-22
-0.48230742990624975	1.146141035660909e-22
-0.48224639474999975	1.1236851804366365e-22
-0.48218535959374975	1.1011656557209556e-22
-0.48212432443749975	1.078588938261774e-22
-0.48206328928124975	1.0559598288051454e-22
-0.48200225412499975	1.033280823972043e-22
-0.48194121896874975	1.0105519060080518e-22
-0.48188018381249975	9.877707970347783e-23
-0.48181914865624975	9.649336174137522e-23
-0.48175811349999975	9.420358235723259e-23
-0.48169707834374975	9.190732622911659e-23
-0.48163604318749975	8.960431385356249e-23
-0.48157500803124975	8.729447321144079e-23
-0.48151397287499975	8.49779747723308e-23
-0.48145293771874975	8.265522307182027e-23
-0.48139190256249975	8.032680616639114e-23
-0.48133086740624975	7.799341010628858e-23
-0.48126983224999975	7.565571436172721e-23
-0.48120879709374975	7.33142908648497e-23
-0.48114776193749975	7.096952588107699e-23
-0.48108672678124975	6.862157727052643e-23
-0.48102569162499975	6.627037171384343e-23
-0.48096465646874975	6.391564107107373e-23
-0.48090362131249975	6.155699438684353e-23
-0.48084258615624975	5.919401407258669e-23
-0.48078155099999975	5.682635666262964e-23
-0.48072051584374975	5.445383868050658e-23
-0.48065948068749975	5.2076492897077155e-23
-0.48059844553124975	4.969458543481848e-23
-0.48053741037499975	4.7308590270217915e-23
-0.48047637521874975	4.4919125484445396e-23
-0.48041534006249975	4.252686463600124e-23
-0.48035430490624975	4.013243946158179e-23
-0.48029326974999975	3.77363489245665e-23
-0.48023223459374975	3.533889271924728e-23
-0.48017119943749975	3.294014264278195e-23
-0.48011016428124975	3.053995372450607e-23
-0.48004912912499975	2.813801395625736e-23
-0.47998809396874975	2.573392597974142e-23
-0.47992705881249975	2.3327303933650266e-23
-0.47986602365624975	2.0917868383414603e-23
-0.47980498849999975	1.85055233134183e-23
-0.47974395334374975	1.6090398300250026e-23
-0.47968291818749975	1.367284822607351e-23
-0.47962188303124975	1.1253413528563203e-23
-0.47956084787499975	8.832747006256658e-24
-0.47949981271874975	6.411518478552652e-24
-0.47943877756249975	3.99031665584363e-24
-0.47937774240624975	1.5695676872653135e-24
-0.47931670724999975	-8.505168921843702e-25
-0.47925567209374975	-3.2699544996385447e-24
-0.47919463693749975	-5.688964221344232e-24
-0.47913360178124975	-8.107903096385925e-24
-0.47907256662499975	-1.052717750991573e-23
-0.47901153146874975	-1.2947144527202713e-23
-0.47895049631249975	-1.5368022007149073e-23
-0.47888946115624975	-1.7789824152245285e-23
-0.47882842599999975	-2.0212333025220716e-23
-0.47876739084374975	-2.2635112520279153e-23
-0.47870635568749975	-2.5057562521625743e-23
-0.47864532053124975	-2.74790015880405e-23
-0.47858428537499975	-2.989876506310068e-23
-0.47852325021874975	-3.2316301853079294e-23
-0.47846221506249975	-3.47312487195207e-23
-0.47840117990624975	-3.7143468928015297e-23
-0.47834014474999975	-3.955305336318371e-23
-0.47827910959374975	-4.196028343614348e-23
-0.47821807443749975	-4.436555763553138e-23
-0.47815703928124975	-4.676929601778064e-23
-0.47809600412499975	-4.9171842263931106e-23
-0.47803496896874975	-5.1573378655570033e-23
-0.47797393381249975	-5.397386769507419e-23
-0.47791289865624975	-5.637303174471574e-23
-0.47785186349999975	-5.877037597569928e-23
-0.47779082834374975	-6.116525209387262e-23
-0.47772979318749975	-6.355695013459062e-23
-0.47766875803124975	-6.594479987843205e-23
-0.47760772287499975	-6.832826591383478e-23
-0.47754668771874975	-7.07070205562289e-23
-0.47748565256249975	-7.308097864756964e-23
-0.47742461740624975	-7.545028750545976e-23
-0.47736358224999975	-7.781527646916364e-23
-0.47730254709374975	-8.017637615633395e-23
-0.47724151193749975	-8.253401980534982e-23
-0.47718047678124975	-8.488854234395136e-23
-0.47711944162499975	-8.724009693601622e-23
-0.47705840646874975	-8.958860484663099e-23
-0.47699737131249975	-9.193374542372936e-23
-0.47693633615624975	-9.427498885108172e-23
-0.47687530099999975	-9.661166761860229e-23
-0.47681426584374975	-9.894307162592452e-23
-0.47675323068749975	-1.0126854848027632e-22
-0.47669219553124975	-1.0358759412467921e-22
-0.47663116037499975	-1.0589991994155537e-22
-0.47657012521874975	-1.0820548125827686e-22
-0.47650909006249975	-1.10504459605229e-22
-0.47644805490624975	-1.1279720525735866e-22
-0.47638701974999975	-1.150841527784528e-22
-0.47632598459374975	-1.1736572251188412e-22
-0.47626494943749975	-1.196422237006583e-22
-0.47620391428124975	-1.2191377647510175e-22
-0.47614287912499975	-1.2418026731633798e-22
-0.47608184396874975	-1.2644134670740738e-22
-0.47602080881249975	-1.286964688270345e-22
-0.47595977365624975	-1.3094496577874073e-22
-0.47589873849999975	-1.3318614381240468e-22
-0.47583770334374975	-1.3541938356257185e-22
-0.47577666818749975	-1.3764422636210181e-22
-0.47571563303124975	-1.3986043268194226e-22
-0.47565459787499975	-1.4206800177315184e-22
-0.47559356271874975	-1.4426714814577222e-22
-0.47553252756249975	-1.464582389744528e-22
-0.47547149240624975	-1.486417049203866e-22
-0.47541045724999975	-1.5081794171876385e-22
-0.47534942209374975	-1.5298721824251341e-22
-0.47528838693749975	-1.5514960658172567e-22
-0.47522735178124975	-1.5730494814695868e-22
-0.47516631662499975	-1.5945286135825772e-22
-0.47510528146874975	-1.6159278890609997e-22
-0.47504424631249975	-1.6372407663475334e-22
-0.47498321115624975	-1.6584606903676942e-22
-0.47492217599999975	-1.67958203630256e-22
-0.47486114084374975	-1.700600878715256e-22
-0.47480010568749975	-1.7215154511509907e-22
-0.47473907053124975	-1.7423262244237744e-22
-0.47467803537499975	-1.7630355973650638e-22
-0.47461700021874975	-1.7836472452246163e-22
-0.47455596506249975	-1.8041652381696957e-22
-0.47449492990624975	-1.824593102271802e-22
-0.47443389474999975	-1.8449330014291056e-22
-0.47437285959374975	-1.8651851701022498e-22
-0.47431182443749975	-1.8853476783449957e-22
-0.47425078928124975	-1.9054165819153243e-22
-0.47418975412499975	-1.9253864341837032e-22
-0.47412871896874975	-1.9452510504926e-22
-0.47406768381249975	-1.9650043988252609e-22
-0.47400664865624975	-1.9846414679676211e-22
-0.47394561349999975	-2.0041589388143231e-22
-0.47388457834374975	-2.0235555365333416e-22
-0.47382354318749975	-2.0428320245385934e-22
-0.47376250803124975	-2.0619908484055615e-22
-0.47370147287499975	-2.0810354820239842e-22
-0.47364043771874975	-2.0999696067797836e-22
-0.47357940256249975	-2.1187962785902575e-22
-0.47351836740624975	-2.137517208636454e-22
-0.47345733224999975	-2.1561322883919234e-22
-0.47339629709374975	-2.174639453119693e-22
-0.47333526193749975	-2.193034884425648e-22
-0.47327422678124975	-2.2113135062176574e-22
-0.47321319162499975	-2.22946970590519e-22
-0.47315215646874975	-2.2474981524713043e-22
-0.47309112131249975	-2.2653945443689503e-22
-0.47303008615624975	-2.2831561528783725e-22
-0.47296905099999975	-2.300782081095067e-22
-0.47290801584374975	-2.3182731979254455e-22
-0.47284698068749975	-2.335631760706877e-22
-0.47278594553124975	-2.352860809047484e-22
-0.47272491037499975	-2.3699634465388883e-22
-0.47266387521874975	-2.386942131260727e-22
-0.47260284006249975	-2.4037980919772872e-22
-0.47254180490624975	-2.420530963657531e-22
-0.47248076974999975	-2.4371387065460015e-22
-0.47241973459374975	-2.4536178271071657e-22
-0.47235869943749975	-2.4699638512967714e-22
-0.47229766428124975	-2.4861719586458236e-22
-0.47223662912499975	-2.5022376623879686e-22
