Time	Frequency
-0.50000762553125	-3.0000412010982967e-22
-0.499946590375	-2.9806576807464025e-22
-0.49988555521875	-2.9611124440229084e-22
-0.4998245200625	-2.941395364921565e-22
-0.49976348490625	-2.9215018373190047e-22
-0.49970244975	-2.9014337590697127e-22
-0.49964141459375	-2.8811994900928853e-22
-0.4995803794375	-2.8608127234056404e-22
-0.49951934428125	-2.840290403570988e-22
-0.499458309125	-2.819650093807832e-22
-0.49939727396875	-2.798907278850848e-22
-0.4993362388125	-2.778073019789637e-22
-0.49927520365625	-2.757152311362213e-22
-0.4992141685	-2.73614340613634e-22
-0.49915313334375	-2.71503823475622e-22
-0.4990920981875	-2.6938238755721266e-22
-0.49903106303125	-2.672484807440937e-22
-0.498970027875	-2.6510055256135742e-22
-0.49890899271875	-2.6293730843256123e-22
-0.4988479575625	-2.6075791869298335e-22
-0.49878692240625	-2.5856215282398625e-22
-0.49872588725	-2.563504203347712e-22
-0.49866485209375	-2.5412371282378203e-22
-0.4986038169375	-2.518834542097796e-22
-0.49854278178125	-2.496312829168494e-22
-0.498481746625	-2.4736880718391683e-22
-0.49842071146875	-2.4509737554519333e-22
-0.4983596763125	-2.4281789511833663e-22
-0.49829864115625	-2.4053072352937023e-22
-0.498237606	-2.3823565202558294e-22
-0.49817657084375	-2.3593198079450085e-22
-0.4981155356875	-2.3361866741349083e-22
-0.49805450053125	-2.3129451825320885e-22
-0.497993465375	-2.2895839096490393e-22
-0.49793243021875	-2.2660937888676973e-22
-0.4978713950625	-2.2424695070704035e-22
-0.49781035990625	-2.218710223252501e-22
-0.49774932475	-2.194819509222462e-22
-0.49768828959375	-2.170804594360276e-22
-0.4976272544375	-2.1466751197502643e-22
-0.49756621928125	-2.122441604278073e-22
-0.497505184125	-2.0981138417709982e-22
-0.49744414896875	-2.0736995672866621e-22
-0.4973831138125	-2.0492036427364237e-22
-0.49732207865625	-2.0246277974703359e-22
-0.4972610435	-1.9999709329858754e-22
-0.49720000834375	-1.9752299184277972e-22
-0.4971389731875	-1.9504006378636022e-22
-0.49707793803125	-1.9254790809868327e-22
-0.497016902875	-1.9004623218711353e-22
-0.49695586771875	-1.8753491835068804e-22
-0.4968948325625	-1.8501404373378432e-22
-0.49683379740625	-1.8248385282826278e-22
-0.49677276225	-1.7994469261725884e-22
-0.49671172709375	-1.7739692795983017e-22
-0.4966506919375	-1.7484085662195691e-22
-0.49658965678125	-1.7227664146762339e-22
-0.496528621625	-1.6970427452184182e-22
-0.49646758646875	-1.671235817431262e-22
-0.4964065513125	-1.6453427144366033e-22
-0.49634551615625	-1.619360227418748e-22
-0.496284481	-1.5932859775530555e-22
-0.49622344584375	-1.5671194767906198e-22
-0.4961624106875	-1.5408628531933414e-22
-0.49610137553125	-1.5145211308404869e-22
-0.496040340375	-1.4881020073951752e-22
-0.49597930521875	-1.4616150575317128e-22
-0.4959182700625	-1.435070445252676e-22
-0.49585723490625	-1.4084773912462044e-22
-0.49579619975	-1.3818426560661573e-22
-0.49573516459375	-1.3551692925911879e-22
-0.4956741294375	-1.3284558716022229e-22
-0.49561309428125	-1.301696363278458e-22
-0.495552059125	-1.2748808631718423e-22
-0.49549102396875	-1.2479970804357136e-22
-0.4954299888125	-1.2210322502644288e-22
-0.49536895365625	-1.193975243774145e-22
-0.4953079185	-1.166818656199984e-22
-0.49524688334375	-1.1395604636573772e-22
-0.4951858481875	-1.1122048926801078e-22
-0.49512481303125	-1.0847623621880806e-22
-0.495063777875	-1.057248480004184e-22
-0.49500274271875	-1.0296821716096341e-22
-0.4949417075625	-1.0020831486411022e-22
-0.49488067240625	-9.744690980410174e-23
-0.49481963725	-9.468531045727526e-23
-0.49475860209375	-9.192417145193553e-23
-0.4946975669375	-8.916338818550383e-23
-0.49463653178125	-8.640210124743452e-23
-0.494575496625	-8.363881717720499e-23
-0.49451446146875	-8.087162774773671e-23
-0.4944534263125	-7.80984973023905e-23
-0.49439239115625	-7.53175754491568e-23
-0.494331356	-7.252749191071277e-23
-0.49427032084375	-6.972759422931385e-23
-0.4942092856875	-6.691808221691464e-23
-0.49414825053125	-6.41000096137475e-23
-0.494087215375	-6.127515607683198e-23
-0.49402618021875	-5.844579184230019e-23
-0.4939651450625	-5.561436921353658e-23
-0.49390410990625	-5.278318347776946e-23
-0.49384307475	-4.995405264399056e-23
-0.49378203959375	-4.7128066348656236e-23
-0.4937210044375	-4.430544427527028e-23
-0.49365996928125	-4.1485524836825563e-23
-0.493598934125	-3.866688020973615e-23
-0.49353789896875	-3.5847538946528256e-23
-0.4934768638125	-3.302529215228068e-23
-0.49341582865625	-3.019804225045609e-23
-0.4933547935	-2.736413564453751e-23
-0.49329375834375	-2.4522626855875278e-23
-0.4932327231875	-2.1673434137435843e-23
-0.49317168803125	-1.8817360898175513e-23
-0.493110652875	-1.5955983196015345e-23
-0.49304961771875	-1.3091423257028082e-23
-0.4929885825625	-1.0226042307566669e-23
-0.49292754740625	-7.362099313905777e-24
-0.49286651225	-4.501428915327263e-24
-0.49280547709375	-1.64519227114686e-24
-0.4927444419375	1.2062613191723243e-24
-0.49268340678125	4.053411637405824e-24
-0.492622371625	6.897462057072406e-24
-0.49256133646875	9.740119523355206e-24
-0.4925003013125	1.2583299907283508e-23
-0.49243926615625	1.542881275806233e-23
-0.492378231	1.8278069004211086e-23
-0.49231719584375	2.113184958112501e-23
-0.4922561606875	2.3990173622338286e-23
-0.49219512553125	2.6852292375069195e-23
-0.492134090375	2.9716804626920143e-23
-0.49207305521875	3.258186918033036e-23
-0.4920120200625	3.5445483631035505e-23
-0.49195098490625	3.83057854604035e-23
-0.49188994975	4.1161326614613985e-23
-0.49182891459375	4.401127868190087e-23
-0.4917678794375	4.68555312467417e-23
-0.49170684428125	4.9694669635270325e-23
-0.491645809125	5.252984685213906e-23
-0.49158477396875	5.536256986720094e-23
-0.4915237388125	5.819442724305322e-23
-0.49146270365625	6.102680632965594e-23
-0.4914016685	6.386065094618842e-23
-0.49134063334375	6.669629533098884e-23
-0.4912795981875	6.953339709356301e-23
-0.49121856303125	7.23709769539694e-23
-0.491157527875	7.520756038396937e-23
-0.49109649271875	7.804140333294548e-23
-0.4910354575625	8.087076372222446e-23
-0.49097442240625	8.369416928897536e-23
-0.49091338725	8.651063699788491e-23
-0.49085235209375	8.93198073137281e-23
-0.4907913169375	9.212197328429657e-23
-0.49073028178125	9.491800849227828e-23
-0.490669246625	9.770920747723012e-23
-0.49060821146875	1.004970571925479e-22
-0.4905471763125	1.0328297474122035e-22
-0.49048614115625	1.060680533445444e-22
-0.490425106	1.0885285731560776e-22
-0.49036407084375	1.1163730601435432e-22
-0.4903030356875	1.1442066518529448e-22
-0.49024200053125	1.1720164231611363e-22
-0.490180965375	1.1997857462565725e-22
-0.49011993021875	1.2274967730866598e-22
-0.4900588950625	1.2551330574709116e-22
-0.48999785990625	1.2826819565086973e-22
-0.48993682475	1.3101364924887613e-22
-0.48987578959375	1.337496336945453e-22
-0.4898147544375	1.3647677231818898e-22
-0.48975371928125	1.3919622944114404e-22
-0.489692684125	1.4190950539542546e-22
-0.48963164896875	1.446181781978186e-22
-0.4895706138125	1.4732363757443298e-22
-0.48950957865625	1.500268490173271e-22
-0.4894485435	1.527281799555427e-22
-0.48938750834375	1.5542731822661879e-22
-0.4893264731875	1.5812329993714647e-22
-0.48926543803125	1.608146403336753e-22
-0.489204402875	1.6349954483938339e-22
-0.48914336771875	1.6617617012300552e-22
-0.4890823325625	1.6884289453272744e-22
-0.48902129740625	1.7149855259083765e-22
-0.48896026225	1.7414259947823889e-22
-0.48889922709375	1.767751804050006e-22
-0.4888381919375	1.7939708767803466e-22
-0.48877715678125	1.820096127896693e-22
-0.488716121625	1.8461432254798257e-22
-0.48865508646875	1.8721279336967009e-22
-0.4885940513125	1.8980634265688348e-22
-0.48853301615625	1.9239580056546672e-22
-0.488471981	1.9498135774421409e-22
-0.48841094584375	1.975625132499675e-22
-0.4883499106875	2.0013813469905225e-22
-0.48828887553125	2.02706620393429e-22
-0.488227840375	2.0526613558239143e-22
-0.48816680521875	2.0781488646200634e-22
-0.4881057700625	2.1035138635168946e-22
-0.48804473490625	2.1287467102426697e-22
-0.48798369975	2.1538443329088793e-22
-0.48792266459375	2.178810572019559e-22
-0.4878616294375	2.2036554383781196e-22
-0.48780059428125	2.228393387962715e-22
-0.487739559125	2.25304086913424e-22
-0.48767852396875	2.2776135154233365e-22
-0.4876174888125	2.3021234736447597e-22
-0.48755645365625	2.326577327338931e-22
-0.4874954185	2.350974912444252e-22
-0.48743438334375	2.3753091625243044e-22
-0.4873733481875	2.3995669801158904e-22
-0.48731231303125	2.4237310333250905e-22
-0.487251277875	2.447782270287365e-22
-0.48719024271875	2.4717027508661565e-22
-0.4871292075625	2.495478265260878e-22
-0.48706817240625	2.519100330691959e-22
-0.48700713725	2.5425673216684644e-22
-0.48694610209375	2.565884535706356e-22
-0.4868850669375	2.5890631757035397e-22
-0.48682403178125	2.612118459240989e-22
-0.486762996625	2.635067124729635e-22
-0.48670196146875	2.6579246889835975e-22
-0.4866409263125	2.6807029107398633e-22
-0.48657989115625	2.7034078565521507e-22
-0.486518856	2.7260388343376813e-22
-0.48645782084375	2.748588341483369e-22
-0.4863967856875	2.771043063517445e-22
-0.48633575053125	2.7933857959612806e-22
-0.486274715375	2.8155979635510484e-22
-0.48621368021875	2.837662300725721e-22
-0.4861526450625	2.859565265540317e-22
-0.48609160990625	2.8812988584649766e-22
-0.48603057475	2.902861630804033e-22
-0.48596953959375	2.924258721017468e-22
-0.4859085044375	2.9455008591358975e-22
-0.48584746928125	2.966602509345068e-22
-0.485786434125	2.987579494575781e-22
-0.48572539896875	3.008446466066572e-22
-0.4856643638125	3.029214568510452e-22
-0.48560332865625	3.049889643045417e-22
-0.4855422935	3.0704712581086604e-22
-0.48548125834375	3.0909527227309514e-22
-0.4854202231875	3.1113220615503284e-22
-0.48535918803125	3.131563783274641e-22
-0.485298152875	3.151661130088509e-22
-0.48523711771875	3.171598449240294e-22
-0.4851760825625	3.191363372127778e-22
-0.48511504740625	3.210948469923971e-22
-0.48505401225	3.2303521194068077e-22
-0.48499297709375	3.2495784803621786e-22
-0.4849319419375	3.26863659813128e-22
-0.48487090678125	3.287538780942018e-22
-0.484809871625	3.3062985374935698e-22
-0.48474883646875	3.3249283860231985e-22
-0.4846878013125	3.3434378550716896e-22
-0.48462676615625	3.3618320027151905e-22
-0.484565731	3.3801106656912957e-22
-0.48450469584375	3.3982684919655164e-22
-0.4844436606875	3.4162957477605645e-22
-0.48438262553125	3.4341797926811266e-22
-0.484321590375	3.4519069482982425e-22
-0.48426055521875	3.4694644527904906e-22
-0.4841995200625	3.486842234313302e-22
-0.48413848490625	3.504034222803448e-22
-0.48407744975	3.52103899762647e-22
-0.48401641459375	3.5378597097855885e-22
-0.4839553794375	3.554503309379174e-22
-0.48389434428125	3.570979216254894e-22
-0.483833309125	3.5872976695091114e-22
-0.48377227396875	3.6034680200888755e-22
-0.4837112388125	3.619497219797417e-22
-0.48365020365625	3.6353887288085593e-22
-0.4835891685	3.651142000033478e-22
-0.48352813334375	3.666752607508907e-22
-0.4834670981875	3.6822129873157394e-22
-0.48340606303125	3.6975136438453047e-22
-0.483345027875	3.712644597716072e-22
-0.48328399271875	3.727596848496465e-22
-0.4832229575625	3.742363621149842e-22
-0.48316192240625	3.756941198800833e-22
-0.48310088725	3.771329240016975e-22
-0.48303985209375	3.7855305468166896e-22
-0.4829788169375	3.799550328317151e-22
-0.48291778178125	3.8133951136578882e-22
-0.482856746625	3.827071521727397e-22
-0.48279571146875	3.840585092427585e-22
-0.4827346763125	3.8539393537156994e-22
-0.48267364115625	3.8671352513315326e-22
-0.482612606	3.8801710255523675e-22
-0.48255157084375	3.893042551630155e-22
-0.4824905356875	3.9057440582476664e-22
-0.48242950053125	3.9182690817808777e-22
-0.482368465375	3.9306114967639125e-22
-0.48230743021875	3.9427664377089594e-22
-0.4822463950625	3.9547309506404045e-22
-0.48218535990625	3.9665042809980632e-22
-0.48212432475	3.9780877677639682e-22
-0.48206328959375	3.989484381087207e-22
-0.4820022544375	4.0006980010529015e-22
-0.48194121928125	4.0117325719524502e-22
-0.481880184125	4.02259128415012e-22
-0.48181914896875	4.0332759291844955e-22
-0.4817581138125	4.043786538323725e-22
-0.48169707865625	4.054121357897523e-22
-0.4816360435	4.064277150986793e-22
-0.48157500834375	4.074249758545399e-22
-0.4815139731875	4.0840348144093505e-22
-0.48145293803125	4.09362848518333e-22
-0.481391902875	4.1030280963686853e-22
-0.48133086771875	4.112232525331264e-22
-0.4812698325625	4.121242291862345e-22
-0.48120879740625	4.13005933914665e-22
-0.48114776225	4.138686551979025e-22
-0.48108672709375	4.147127102216142e-22
-0.4810256919375	4.155383747311228e-22
-0.48096465678125	4.1634582126848303e-22
-0.480903621625	4.171350766950168e-22
-0.48084258646875	4.179060073797321e-22
-0.4807815513125	4.186583350418423e-22
-0.48072051615625	4.1939167988532227e-22
-0.480659481	4.2010562375015e-22
-0.48059844584375	4.2079978187673676e-22
-0.4805374106875	4.214738692088955e-22
-0.48047637553125	4.221277488573227e-22
-0.480415340375	4.2276145399666806e-22
-0.48035430521875	4.2337517872487136e-22
-0.4802932700625	4.239692387159537e-22
-0.48023223490625	4.245440083935061e-22
-0.48017119975	4.250998461973108e-22
-0.48011016459375	4.256370216050328e-22
-0.4800491294375	4.2615565711075325e-22
-0.47998809428125	4.266556961100923e-22
-0.479927059125	4.271369033071838e-22
-0.47986602396875	4.275988982520294e-22
-0.4798049888125	4.280412164356884e-22
-0.47974395365625	4.284633873577096e-22
-0.4796829185	4.288650158860866e-22
-0.47962188334375	4.292458522614881e-22
-0.4795608481875	4.296058375768757e-22
-0.47949981303125	4.299451157299279e-22
-0.479438777875	4.30264009062386e-22
-0.47937774271875	4.305629613735719e-22
-0.4793167075625	4.308424574455098e-22
-0.47925567240625	4.311029326150452e-22
-0.47919463725	4.313446883231013e-22
-0.47913360209375	4.315678292896336e-22
-0.4790725669375	4.317722345344311e-22
-0.47901153178125	4.319575678924572e-22
-0.478950496625	4.321233272266735e-22
-0.47888946146875	4.322689255499035e-22
-0.4788284263125	4.323937906288969e-22
-0.47876739115625	4.324974655900457e-22
-0.478706356	4.325796927682883e-22
-0.47864532084375	4.3264046574192075e-22
-0.4785842856875	4.326800393075955e-22
-0.47852325053125	4.326988936699239e-22
-0.478462215375	4.32697657551557e-22
-0.47840118021875	4.326770025602745e-22
-0.4783401450625	4.326375261629696e-22
-0.47827910990625	4.32579643066703e-22
-0.47821807475	4.325035044508221e-22
-0.47815703959375	4.324089606009219e-22
-0.4780960044375	4.322955742041656e-22
-0.47803496928125	4.321626825372342e-22
-0.477973934125	4.320095003594751e-22
-0.47791289896875	4.318352489078447e-22
-0.4778518638125	4.31639289684152e-22
-0.47779082865625	4.314212396362863e-22
-0.4777297935	4.311810474149498e-22
-0.47766875834375	4.309190162716801e-22
-0.4776077231875	4.306357679887439e-22
-0.47754668803125	4.303321517898234e-22
-0.477485652875	4.3000911133930415e-22
-0.47742461771875	4.296675308163207e-22
-0.4773635825625	4.293080857350888e-22
-0.47730254740625	4.289311240409193e-22
-0.47724151225	4.285365972265732e-22
-0.47718047709375	4.281240546913395e-22
-0.4771194419375	4.276927058332696e-22
-0.47705840678125	4.272415417049889e-22
-0.476997371625	4.2676949785971845e-22
-0.47693633646875	4.262756322203127e-22
-0.4768753013125	4.2575928784492415e-22
-0.47681426615625	4.252202135823003e-22
-0.476753231	4.246586218712752e-22
-0.47669219584375	4.240751714446699e-22
-0.4766311606875	4.2347087553276154e-22
-0.47657012553125	4.228469494061578e-22
-0.476509090375	4.222046207008718e-22
-0.47644805521875	4.215449324250512e-22
-0.4763870200625	4.2086857036272515e-22
-0.47632598490625	4.2017574355871217e-22
-0.47626494975	4.1946613977561167e-22
-0.47620391459375	4.1873896568428744e-22
-0.4761428794375	4.179930676813563e-22
-0.47608184428125	4.1722711575858554e-22
-0.476020809125	4.164398200915148e-22
-0.47595977396875	4.156301459031934e-22
-0.4758987388125	4.1479749335284006e-22
-0.47583770365625	4.139418109283375e-22
-0.4757766685	4.1306362288854027e-22
-0.47571563334375	4.1216396624660074e-22
-0.4756545981875	4.1124424288743157e-22
-0.47559356303125	4.103060077769367e-22
-0.475532527875	4.093507271621353e-22
-0.47547149271875	4.0837954413225953e-22
-0.4754104575625	4.0739309046156135e-22
-0.47534942240625	4.063913789615341e-22
-0.47528838725	4.05373794651952e-22
-0.47522735209375	4.0433918479878254e-22
-0.4751663169375	4.0328603546295232e-22
-0.47510528178125	4.0221271105013933e-22
-0.475044246625	4.011177212060459e-22
-0.47498321146875	3.9999997145189597e-22
-0.4749221763125	3.988589557003316e-22
-0.47486114115625	3.976948597620147e-22
-0.474800106	3.965085568616618e-22
-0.47473907084375	3.9530149245683156e-22
-0.4746780356875	3.9407547563721393e-22
-0.47461700053125	3.928324079683369e-22
-0.474555965375	3.915739898643513e-22
-0.47449493021875	3.9030145101566827e-22
-0.4744338950625	3.8901534942913226e-22
-0.47437285990625	3.877154733539626e-22
-0.47431182475	3.8640086605834366e-22
-0.47425078959375	3.8506997106436975e-22
-0.4741897544375	3.8372087313176742e-22
-0.47412871928125	3.8235160019159625e-22
-0.474067684125	3.809604435597507e-22
-0.47400664896875	3.7954624609293913e-22
-0.4739456138125	3.7810860960738896e-22
-0.47388457865625	3.7664798544301923e-22
-0.4738235435	3.7516563243707293e-22
-0.47376250834375	3.7366344724897863e-22
-0.4737014731875	3.721436907944427e-22
-0.47364043803125	3.7060865171988526e-22
-0.473579402875	3.6906029670623377e-22
-0.47351836771875	3.674999607324792e-22
-0.4734573325625	3.6592813015527884e-22
-0.47339629740625	3.6434435821555143e-22
-0.47333526225	3.627473283572082e-22
-0.47327422709375	3.6113505285474986e-22
-0.4732131919375	3.5950517554635327e-22
-0.47315215678125	3.5785534170342776e-22
-0.473091121625	3.5618358187922854e-22
-0.47303008646875	3.544886408147306e-22
-0.4729690513125	3.527701982449497e-22
-0.47290801615625	3.5102895055670627e-22
-0.472846981	3.4926653411023486e-22
-0.47278594584375	3.4748529884244686e-22
-0.4727249106875	3.456879702709523e-22
-0.47266387553125	3.438772465757228e-22
-0.472602840375	3.420553873353148e-22
-0.47254180521875	3.4022386336225535e-22
-0.4724807700625	3.3838312610868275e-22
-0.47241973490625	3.3653253068485424e-22
-0.47235869975	3.346704275450135e-22
-0.47229766459375	3.327944143115164e-22
-0.4722366294375	3.309017123064889e-22
-0.47217559428125	3.2898960956766207e-22
-0.472114559125	3.270558992679588e-22
-0.47205352396875	3.2509924486445975e-22
-0.4719924888125	3.2311941463845825e-22
-0.47193145365625	3.211173479340657e-22
-0.4718704185	3.1909504019263592e-22
-0.47180938334375	3.170552596507805e-22
-0.4717483481875	3.1500113552475293e-22
-0.47168731303125	3.129356804336579e-22
-0.471626277875	3.1086132418391357e-22
-0.47156524271875	3.0877953717154613e-22
-0.4715042075625	3.0669060512941183e-22
-0.47144317240625	3.0459358923233583e-22
-0.47138213725	3.0248647903443584e-22
-0.47132110209375	3.0036651720899604e-22
-0.4712600669375	2.9823064506472926e-22
-0.47119903178125	2.9607599972341384e-22
-0.471137996625	2.93900385587901e-22
-0.47107696146875	2.9170264391463597e-22
-0.4710159263125	2.894828619038485e-22
-0.47095489115625	2.872423866815274e-22
-0.470893856	2.849836356771316e-22
-0.47083282084375	2.8270973100076585e-22
-0.4707717856875	2.804240169624881e-22
-0.47071075053125	2.7812953751454446e-22
-0.470649715375	2.75828559989738e-22
-0.47058868021875	2.7352222117482595e-22
-0.4705276450625	2.7121035098028814e-22
-0.47046660990625	2.68891510436281e-22
-0.47040557475	2.665632414822916e-22
-0.47034453959375	2.6422247916777843e-22
-0.4702835044375	2.6186605849023176e-22
-0.47022246928125	2.5949124400325696e-22
-0.470161434125	2.570961978260041e-22
-0.47010039896875	2.5468030226400876e-22
-0.4700393638125	2.522442837285288e-22
-0.46997832865625	2.49790118345004e-22
-0.4699172935	2.473207311715929e-22
-0.46985625834375	2.4483953842529546e-22
-0.4697952231875	2.4234990630280706e-22
-0.46973418803125	2.3985461219650273e-22
-0.469673152875	2.373553999972649e-22
-0.46961211771875	2.3485270810002304e-22
-0.4695510825625	2.3234561480210976e-22
-0.46949004740625	2.2983200483935e-22
-0.46942901225	2.273089285317461e-22
-0.46936797709375	2.2477310248118793e-22
