Time	Frequency
-0.5000397523749989	0.629748127169982
-0.49997871721874887	0.6320097654815173
-0.49991768206249887	0.6342820093205995
-0.49985664690624887	0.6365491262036357
-0.49979561174999887	0.6387900337504595
-0.49973457659374887	0.6409825674206736
-0.49967354143749887	0.6431077588839098
-0.49961250628124887	0.6451533037096607
-0.49955147112499887	0.6471155878419205
-0.49949043596874887	0.6489999453720029
-0.49942940081249887	0.6508191776842662
-0.49936836565624887	0.6525907016790672
-0.49930733049999887	0.6543329434163694
-0.49924629534374887	0.6560617073310603
-0.49918526018749887	0.657787221312599
-0.49912422503124887	0.6595123980880842
-0.49906318987499887	0.6612325940890018
-0.49900215471874887	0.6629368445608703
-0.49894111956249887	0.6646102694761986
-0.49888008440624887	0.6662371297041524
-0.49881904924999887	0.6678039079641531
-0.49875801409374887	0.6693018153416541
-0.49869697893749887	0.6707282652184161
-0.49863594378124887	0.6720870734660243
-0.49857490862499887	0.6733874006783085
-0.49851387346874887	0.674641700313263
-0.49845283831249887	0.6758631180499755
-0.49839180315624887	0.6770628732522335
-0.49833076799999887	0.6782481355299724
-0.49826973284374887	0.6794207889297516
-0.49820869768749887	0.6805772835129643
-0.49814766253124887	0.6817095557037434
-0.49808662737499887	0.6828067923606831
-0.49802559221874887	0.6838576567799436
-0.49796455706249887	0.684852520922967
-0.49790352190624887	0.6857852667691527
-0.49784248674999887	0.6866543221885564
-0.49778145159374887	0.6874627612834636
-0.49772041643749887	0.6882174897697951
-0.49765938128124887	0.6889277140111787
-0.49759834612499887	0.6896030244086049
-0.49753731096874887	0.6902514850031586
-0.49747627581249887	0.6908781030184158
-0.49741524065624887	0.6914839625392203
-0.49735420549999887	0.6920661649452554
-0.49729317034374887	0.6926185540506661
-0.49723213518749887	0.6931330503600536
-0.49717110003124887	0.6936013074936994
-0.49711006487499887	0.6940163536854874
-0.49704902971874887	0.6943738981400923
-0.49698799456249887	0.694673059556113
-0.49692695940624887	0.6949163968501338
-0.49686592424999887	0.6951092649807781
-0.49680488909374887	0.6952586489226713
-0.49674385393749887	0.6953717237855663
-0.49668281878124887	0.6954544353535713
-0.49662178362499887	0.6955103801428103
-0.49656074846874887	0.6955401906416586
-0.49649971331249887	0.6955415230318439
-0.49643867815624887	0.6955096266169558
-0.49637764299999887	0.6954383627518412
-0.49631660784374887	0.6953214558374913
-0.49625557268749887	0.6951537224721795
-0.49619453753124887	0.6949320414230669
-0.49613350237499887	0.6946558856987811
-0.49607246721874887	0.6943273290278515
-0.49601143206249887	0.6939505460120122
-0.49595039690624887	0.6935309227281673
-0.49588936174999887	0.6930739654720465
-0.49582832659374887	0.6925842283310694
-0.49576729143749887	0.6920644679920608
-0.49570625628124887	0.6915151791471412
-0.49564522112499887	0.6909345831873729
-0.49558418596874887	0.6903190582879738
-0.49552315081249887	0.6896639150682572
-0.49546211565624887	0.688964351586135
-0.49540108049999887	0.6882163912217036
-0.49534004534374887	0.6874176225867675
-0.49527901018749887	0.6865676106080808
-0.49521797503124887	0.6856679151199994
-0.49515693987499887	0.6847217254981112
-0.49509590471874887	0.6837331947689794
-0.49503486956249887	0.682706615385929
-0.49497383440624887	0.6816456018568234
-0.49491279924999887	0.6805524368192556
-0.49485176409374887	0.6794276978029052
-0.49479072893749887	0.6782702219777486
-0.49472969378124887	0.6770774039139553
-0.49466865862499887	0.6758457570879373
-0.49460762346874887	0.6745716198091286
-0.49454658831249887	0.6732518667427393
-0.49448555315624887	0.6718844919951592
-0.49442451799999887	0.6704689572925263
-0.49436348284374887	0.669006247987853
-0.49430244768749887	0.6674986393912761
-0.49424141253124887	0.665949229111332
-0.49418037737499887	0.6643613333118616
-0.49411934221874887	0.6627378705468223
-0.49405830706249887	0.6610808508085108
-0.49399727190624887	0.6593910581943362
-0.49393623674999887	0.6576679757403278
-0.49387520159374887	0.6559099546551442
-0.49381416643749887	0.6541145858410736
-0.49375313128124887	0.6522791959632375
-0.49369209612499887	0.6504013701621181
-0.49363106096874887	0.6484794030994548
-0.49357002581249887	0.6465125990783727
-0.49350899065624887	0.6445013717352952
-0.49344795549999887	0.6424471345804837
-0.49338692034374887	0.6403520176616576
-0.49332588518749887	0.6382184707685034
-0.49326485003124887	0.6360488274092404
-0.49320381487499887	0.6338449078540703
-0.49314277971874887	0.631607731084233
-0.49308174456249887	0.6293373900446576
-0.49302070940624887	0.6270331041403654
-0.49295967424999887	0.6246934194569883
-0.49289863909374887	0.6223165171709147
-0.49283760393749887	0.619900579291811
-0.49277656878124887	0.6174441376147748
-0.49271553362499887	0.6149463405451209
-0.49265449846874887	0.6124071006878936
-0.49259346331249887	0.6098271024563356
-0.49253242815624887	0.607207671696908
-0.49247139299999887	0.6045505414012334
-0.49241035784374887	0.6018575617658882
-0.49234932268749887	0.5991303994991525
-0.49228828753124887	0.5963702762225201
-0.49222725237499887	0.5935778005469595
-0.49216621721874887	0.5907529206397505
-0.49210518206249887	0.5878949879619937
-0.49204414690624887	0.5850029128261319
-0.49198311174999887	0.5820753866586724
-0.49192207659374887	0.5791111365403632
-0.49186104143749887	0.5761091701381557
-0.49180000628124887	0.5730689631880939
-0.49173897112499887	0.5699905594451171
-0.49167793596874887	0.5668745784941513
-0.49161690081249887	0.5637221303565484
-0.49155586565624887	0.5605346465709471
-0.49149483049999887	0.5573136639587878
-0.49143379534374887	0.5540606014329331
-0.49137276018749887	0.5507765599656945
-0.49131172503124887	0.5474621751745431
-0.49125068987499887	0.5441175499334677
-0.49118965471874887	0.5407422777241349
-0.49112861956249887	0.5373355437182784
-0.49106758440624887	0.5338962879820371
-0.49100654924999887	0.5304234130348804
-0.49094551409374887	0.5269159950011644
-0.49088447893749887	0.5233734584742097
-0.49082344378124887	0.5197957013276715
-0.49076240862499887	0.5161831551571666
-0.49070137346874887	0.5125367531843725
-0.49064033831249887	0.5088578082819105
-0.49057930315624887	0.5051478363671384
-0.49051826799999887	0.5014083471599563
-0.49045723284374887	0.497640627883006
-0.49039619768749887	0.49384556570592464
-0.49033516253124887	0.4900235344823353
-0.49027412737499887	0.486174356607529
-0.49021309221874887	0.48229736483740737
-0.49015205706249887	0.4783915564562065
-0.49009102190624887	0.4744557896184704
-0.49002998674999887	0.4704889942048251
-0.48996895159374887	0.46649038255406083
-0.48990791643749887	0.4624596199105572
-0.48984688128124887	0.4583969202448811
-0.48978584612499887	0.454303057866632
-0.48972481096874887	0.45017929156469244
-0.48966377581249887	0.44602720501199705
-0.48960274065624887	0.4418484896508405
-0.48954170549999887	0.43764471113255804
-0.48948067034374887	0.4334170929509718
-0.48941963518749887	0.4291663495044094
-0.48935860003124887	0.42489260101433285
-0.48929756487499887	0.4205953848219542
-0.48923652971874887	0.41627376292693563
-0.48917549456249887	0.4119265082512247
-0.48911445940624887	0.4075523374175914
-0.48905342424999887	0.403150163322661
-0.48899238909374887	0.39871932465508514
-0.48893135393749887	0.39425973799367114
-0.48887031878124887	0.3897719537933726
-0.48880928362499887	0.3852571183025809
-0.48874824846874887	0.38071683844146853
-0.48868721331249887	0.37615296242156043
-0.48862617815624887	0.3715673195058238
-0.48856514299999887	0.36696146915027805
-0.48850410784374887	0.3623364935249185
-0.48844307268749887	0.3576928647093439
-0.48838203753124887	0.35303041365378934
-0.48832100237499887	0.34834840014966917
-0.48825996721874887	0.343645666142124
-0.48819893206249887	0.33892085603207794
-0.48813789690624887	0.33417267714623095
-0.48807686174999887	0.3294001565199876
-0.48801582659374887	0.32460284646492554
-0.48795479143749887	0.31978094305799676
-0.48789375628124887	0.31493530186328383
-0.48783272112499887	0.3100673496784329
-0.48777168596874887	0.3051788995523662
-0.48771065081249887	0.3002718996849484
-0.48764961565624887	0.29534816726168145
-0.48758858049999887	0.29040914774150156
-0.48752754534374887	0.28545572956058807
-0.48746651018749887	0.280488147715101
-0.48740547503124887	0.27550599507747914
-0.48734443987499887	0.2705083356414725
-0.48728340471874887	0.2654939009813378
-0.48722236956249887	0.2604613371601906
-0.48716133440624887	0.25540946794888786
-0.48710029924999887	0.2503375408785729
-0.48703926409374887	0.24524540408511028
-0.48697822893749887	0.2401335724620466
-0.48691719378124887	0.23500317965488926
-0.48685615862499887	0.22985583428149972
-0.48679512346874887	0.22469340401921337
-0.48673408831249887	0.2195177616684886
-0.48667305315624887	0.21433053915188227
-0.48661201799999887	0.20913291982191523
-0.48655098284374887	0.20392549225997395
-0.48648994768749887	0.19870820308348625
-0.48642891253124887	0.19348042764435489
-0.48636787737499887	0.18824113658912678
-0.48630684221874887	0.1829891190207955
-0.48624580706249887	0.1777232300756
-0.48618477190624887	0.1724426299616701
-0.48612373674999887	0.16714697399270403
-0.48606270159374887	0.16183651784359754
-0.48600166643749887	0.1565121139525211
-0.48594063128124887	0.15117510479358243
-0.48587959612499887	0.1458271422808589
-0.48581856096874887	0.14046995705841883
-0.48575752581249887	0.1351051149218997
-0.48569649065624887	0.1297338128654021
-0.48563545549999887	0.12435674010907838
-0.48557442034374887	0.11897401945992724
-0.48551338518749887	0.11358525869450325
-0.48545235003124887	0.10818970579362042
-0.48539131487499887	0.10278645141818196
-0.48533027971874887	0.09737463301293786
-0.48526924456249887	0.091953628100293
-0.48520820940624887	0.08652321394051767
-0.48514717424999887	0.08108365440773771
-0.48508613909374887	0.07563569573927177
-0.48502510393749887	0.07018047443180717
-0.48496406878124887	0.06471935345575677
-0.48490303362499887	0.05925372014423733
-0.48484199846874887	0.05378478727904837
-0.48478096331249887	0.04831343706204622
-0.48471992815624887	0.04284013720049331
-0.48465889299999887	0.037364937930294384
-0.48459785784374887	0.031887546441729135
-0.48453682268749887	0.02640746592244974
-0.48447578753124887	0.020924166526673203
-0.48441475237499887	0.015437252174249098
-0.48435371721874887	0.009946598065593197
-0.48429268206249887	0.004452432802885762
-0.48423164690624887	-0.001044657045246686
-0.48417061174999887	-0.006543801636561322
-0.48410957659374887	-0.01204398247711659
-0.48404854143749887	-0.01754419020034915
-0.48398750628124887	-0.023043563677046238
-0.48392647112499887	-0.02854149142229025
-0.48386543596874887	-0.03403767268843426
-0.48380440081249887	-0.039532117341371506
-0.48374336565624887	-0.04502506472417804
-0.48368233049999887	-0.05051684350566701
-0.48362129534374887	-0.05600771880189054
-0.48356026018749887	-0.06149776218092991
-0.48349922503124887	-0.06698676426733095
-0.48343818987499887	-0.07247420625721929
-0.48337715471874887	-0.07795929939171406
-0.48331611956249887	-0.08344107731333843
-0.48325508440624887	-0.08891852255115627
-0.48319404924999887	-0.09439071610912385
-0.48313301409374887	-0.09985697638501062
-0.48307197893749887	-0.10531694295244069
-0.48301094378124887	-0.11077058698655283
-0.48294990862499887	-0.11621814840537414
-0.48288887346874887	-0.12166001635913805
-0.48282783831249887	-0.12709658643543972
-0.48276680315624887	-0.13252811263584668
-0.48270576799999887	-0.1379545785403071
-0.48264473284374887	-0.14337562925362995
-0.48258369768749887	-0.1487905753880041
-0.48252266253124887	-0.15419846446663446
-0.48246162737499887	-0.15959820971062422
-0.48240059221874887	-0.16498874463773502
-0.48233955706249887	-0.17036917167006
-0.48227852190624887	-0.17573887924868534
-0.48221748674999887	-0.1810976043472394
-0.48215645159374887	-0.18644542289400778
-0.48209541643749887	-0.1917826680496717
-0.48203438128124887	-0.19710979961453276
-0.48197334612499887	-0.20242724980239904
-0.48191231096874887	-0.20773526740122086
-0.48185127581249887	-0.21303379150258506
-0.48179024065624887	-0.21832239078249582
-0.48172920549999887	-0.22360028625251632
-0.48166817034374887	-0.22886644987576227
-0.48160713518749887	-0.23411975650653113
-0.48154610003124887	-0.23935914958111348
-0.48148506487499887	-0.2445837845917712
-0.48142402971874887	-0.24979313354638713
-0.48136299456249887	-0.25498703117969557
-0.48130195940624887	-0.26016564878100806
-0.48124092424999887	-0.26532939859334986
-0.48117988909374887	-0.27047878121400065
-0.48111885393749887	-0.2756142100857527
-0.48105781878124887	-0.28073586198961664
-0.48099678362499887	-0.28584358216394956
-0.48093574846874887	-0.2909368509468159
-0.48087471331249887	-0.29601482054232764
-0.48081367815624887	-0.3010764259952916
-0.48075264299999887	-0.306120543597629
-0.48069160784374887	-0.3111461542027743
-0.48063057268749887	-0.3161524872449671
-0.48056953753124887	-0.3211391209747063
-0.48050850237499887	-0.3261060072097493
-0.48044746721874887	-0.33105341673103866
-0.48038643206249887	-0.33598182215989114
-0.48032539690624887	-0.34089173724731875
-0.48026436174999887	-0.34578354760569496
-0.48020332659374887	-0.3506573753704472
-0.48014229143749887	-0.35551299940694
-0.48008125628124887	-0.3603498376573601
-0.48002022112499887	-0.3651669993382959
-0.47995918596874887	-0.36996340664300237
-0.47989815081249887	-0.3747379633330201
-0.47983711565624887	-0.37948972112491414
-0.47977608049999887	-0.38421800173984677
-0.47971504534374887	-0.38892247003998864
-0.47965401018749887	-0.39360314716340267
-0.47959297503124887	-0.39826034365114443
-0.47953193987499887	-0.40289453073373066
-0.47947090471874887	-0.4075061802656901
-0.47940986956249887	-0.4120956074752915
-0.47934883440624887	-0.4166628569635579
-0.47928779924999887	-0.42120764463231597
-0.47922676409374887	-0.425729361221788
-0.47916572893749887	-0.43022714619646
-0.47910469378124887	-0.434700014146219
-0.47904365862499887	-0.43914700050977107
-0.47898262346874887	-0.4435672989301001
-0.47892158831249887	-0.44796036719441346
-0.47886055315624887	-0.4523259782871798
-0.47879951799999887	-0.45666420181221057
-0.47873848284374887	-0.4609753235922393
-0.47867744768749887	-0.46525972561536416
-0.47861641253124887	-0.46951775076047236
-0.47855537737499887	-0.4737495771907406
-0.47849434221874887	-0.4779551277851535
-0.47843330706249887	-0.48213403721427633
-0.47837227190624887	-0.48628568452898424
-0.47831123674999887	-0.4904092799299978
-0.47825020159374887	-0.49450398384663696
-0.47818916643749887	-0.4985690311539128
-0.47812813128124887	-0.50260383450484
-0.47806709612499887	-0.5066080469992582
-0.47800606096874887	-0.5105815729420267
-0.47794502581249887	-0.5145245296989315
-0.47788399065624887	-0.5184371672137331
-0.47782295549999887	-0.5223197526615383
-0.47776192034374887	-0.5261724520222684
-0.47770088518749887	-0.5299952481065998
-0.47763985003124887	-0.5337879030746667
-0.47757881487499887	-0.5375499626083379
-0.47751777971874887	-0.54128080845407
-0.47745674456249887	-0.5449797474528639
-0.47739570940624887	-0.5486461116463
-0.47733467424999887	-0.5522793545114333
-0.47727363909374887	-0.5558791249905284
-0.47721260393749887	-0.5594452948536109
-0.47715156878124887	-0.5629779295049084
-0.47709053362499887	-0.5664772124315435
-0.47702949846874887	-0.5699433476389764
-0.47696846331249887	-0.5733764659498595
-0.47690742815624887	-0.5767765490695193
-0.47684639299999887	-0.5801433825713331
-0.47678535784374887	-0.5834765543039495
-0.47672432268749887	-0.5867755032495312
-0.47666328753124887	-0.5900396037315696
-0.47660225237499887	-0.5932682605255246
-0.47654121721874887	-0.5964609954602583
-0.47648018206249887	-0.5996175123936788
-0.47641914690624887	-0.6027377243938343
-0.47635811174999887	-0.605821730741876
-0.47629707659374887	-0.6088697479328484
-0.47623604143749887	-0.6118820128525445
-0.47617500628124887	-0.6148586816559917
-0.47611397112499887	-0.6177997466168357
-0.47605293596874887	-0.6207049901335985
-0.47599190081249887	-0.6235739883656333
-0.47593086565624887	-0.6264061615871518
-0.47586983049999887	-0.6292008606728334
-0.47580879534374887	-0.6319574749318511
-0.47574776018749887	-0.6346755329226778
-0.47568672503124887	-0.6373547714849909
-0.47562568987499887	-0.6399951626917455
-0.47556465471874887	-0.642596890061373
-0.47550361956249887	-0.6451602732100558
-0.47544258440624887	-0.6476856595372874
-0.47538154924999887	-0.6501733098723267
-0.47532051409374887	-0.6526232998554834
-0.47525947893749887	-0.6550354568516791
-0.47519844378124887	-0.6574093515754809
-0.47513740862499887	-0.6597443511288551
-0.47507637346874887	-0.662039720663694
-0.47501533831249887	-0.6642947487930053
-0.47495430315624887	-0.6665088710021376
-0.47489326799999887	-0.6686817670768742
-0.47483223284374887	-0.6708134096975766
-0.47477119768749887	-0.6729040501585493
-0.47471016253124887	-0.6749541421681493
-0.47464912737499887	-0.6769642182741558
-0.47458809221874887	-0.6789347450831019
-0.47452705706249887	-0.6808659893108066
-0.47446602190624887	-0.6827579241759171
-0.47440498674999887	-0.6846101973659099
-0.47434395159374887	-0.686422169028037
-0.47428291643749887	-0.688193013515002
-0.47422188128124887	-0.6899218651832555
-0.47416084612499887	-0.6916079776762903
-0.47409981096874887	-0.6932508615045174
-0.47403877581249887	-0.6948503703538589
-0.47397774065624887	-0.6964067180373134
-0.47391670549999887	-0.697920420737664
-0.47385567034374887	-0.699392174279097
-0.47379463518749887	-0.7008226906086675
-0.47373360003124887	-0.7022125271866484
-0.47367256487499887	-0.7035619454136746
-0.47361152971874887	-0.7048708283948908
-0.47355049456249887	-0.7061386769200124
-0.47348945940624887	-0.7073646870141104
-0.47342842424999887	-0.7085478938606093
-0.47336738909374887	-0.709687351831165
-0.47330635393749887	-0.7107823136433284
-0.47324531878124887	-0.7118323715924628
-0.47318428362499887	-0.7128375301260699
-0.47312324846874887	-0.7137981933781151
-0.47306221331249887	-0.7147150701482526
-0.47300117815624887	-0.7155890161410171
-0.47294014299999887	-0.7164208452600591
-0.47287910784374887	-0.7172111481462611
-0.47281807268749887	-0.7179601563643152
-0.47275703753124887	-0.7186676813863854
-0.47269600237499887	-0.7193331403973148
-0.47263496721874887	-0.7199556628347503
-0.47257393206249887	-0.7205342562516793
-0.47251289690624887	-0.7210679982273418
-0.47245186174999887	-0.7215562146858092
-0.47239082659374887	-0.7219986068062176
-0.47232979143749887	-0.7223953002301403
-0.47226875628124887	-0.7227468082602931
-0.47220772112499887	-0.7230539177595163
-0.47214668596874887	-0.7233175201285399
-0.47208565081249887	-0.7235384222517398
-0.47202461565624887	-0.7237171783756312
-0.47196358049999887	-0.7238539768157558
-0.47190254534374887	-0.7239486019605551
-0.47184151018749887	-0.7240004782518505
-0.47178047503124887	-0.7240087868682948
-0.47171943987499887	-0.7239726322007473
-0.47165840471874887	-0.7238912246370272
-0.47159736956249887	-0.7237640387720239
-0.47153633440624887	-0.7235909134164054
-0.47147529924999887	-0.7233720762009463
-0.47141426409374887	-0.7231080880668825
-0.47135322893749887	-0.7227997206857744
-0.47129219378124887	-0.7224477961585348
-0.47123115862499887	-0.7220530202911629
-0.47117012346874887	-0.7216158419112109
-0.47110908831249887	-0.7211363683110346
-0.47104805315624887	-0.7206143531020582
-0.47098701799999887	-0.7200492576148471
-0.47092598284374887	-0.719440372223805
-0.47086494768749887	-0.7187869708112815
-0.47080391253124887	-0.7180884653358639
-0.47074287737499887	-0.7173445298316922
-0.47068184221874887	-0.7165551702061591
-0.47062080706249887	-0.715720723885094
-0.47055977190624887	-0.714841789580574
-0.47049873674999887	-0.7139191071296461
-0.47043770159374887	-0.7129534123088017
-0.47037666643749887	-0.7119452919551257
-0.47031563128124887	-0.7108950711094466
-0.47025459612499887	-0.7098027586296968
-0.47019356096874887	-0.7086680610259306
-0.47013252581249887	-0.7074904609971995
