Time	Frequency
-0.5000228844374988	0.47366404127292355
-0.49996184928124876	0.4701454443031862
-0.49990081412499876	0.46655182183061705
-0.49983977896874876	0.4628985687146279
-0.49977874381249876	0.45920517640055936
-0.49971770865624876	0.45549230178650296
-0.49965667349999876	0.45177880288026667
-0.49959563834374876	0.4480791685495385
-0.49953460318749876	0.44440169127328283
-0.49947356803124876	0.4407476030111715
-0.49941253287499876	0.43711125225886027
-0.49935149771874876	0.43348125520018654
-0.49929046256249876	0.4298424142783276
-0.49922942740624876	0.42617809579244464
-0.49916839224999876	0.42247271233365813
-0.49910735709374876	0.4187139486562054
-0.49904632193749876	0.4148944137409848
-0.49898528678124876	0.4110125102242421
-0.49892425162499876	0.40707243552156086
-0.49886321646874876	0.40308334860157286
-0.49880218131249876	0.39905785743972966
-0.49874114615624876	0.39501007498737556
-0.49868011099999876	0.39095353851421455
-0.49861907584374876	0.3868992966373986
-0.49855804068749876	0.38285444095580895
-0.49849700553124876	0.37882127954627126
-0.49843597037499876	0.37479723908265244
-0.49837493521874876	0.37077547619125617
-0.49831390006249876	0.3667460815529206
-0.49825286490624876	0.3626976826576372
-0.49819182974999876	0.358619200397843
-0.49813079459374876	0.3545014937674967
-0.49806975943749876	0.35033865431608385
-0.49800872428124876	0.3461287771232998
-0.49794768912499876	0.3418741110679592
-0.49788665396874876	0.33758058908943767
-0.49782561881249876	0.33325684168880415
-0.49776458365624876	0.32891286030283423
-0.49770354849999876	0.3245585074979619
-0.49764251334374876	0.3202020912202619
-0.49758147818749876	0.31584922119703235
-0.49752044303124876	0.31150211188598775
-0.49745940787499876	0.30715941073086667
-0.49739837271874876	0.30281655980642475
-0.49733733756249876	0.2984666218555486
-0.49727630240624876	0.29410142748140305
-0.49721526724999876	0.28971286527656825
-0.49715423209374876	0.2852941253050642
-0.49709319693749876	0.28084071119301973
-0.49703216178124876	0.27635107229834394
-0.49697112662499876	0.2718267757174683
-0.49691009146874876	0.2672722105795162
-0.49684905631249876	0.2626938799328366
-0.49678802115624876	0.2580993989900436
-0.49672698599999876	0.2534963601127229
-0.49666595084374876	0.24889123335710248
-0.49660491568749876	0.24428846384317604
-0.49654388053124876	0.23968989767979265
-0.49648284537499876	0.23509461281076188
-0.49642181021874876	0.23049916481372723
-0.49636077506249876	0.22589819903850827
-0.49629973990624876	0.22128533284918916
-0.49623870474999876	0.21665417349404453
-0.49617766959374876	0.21199931659679114
-0.49611663443749876	0.20731717223524546
-0.49605559928124876	0.20260649927535734
-0.49599456412499876	0.19786857874361335
-0.49593352896874876	0.19310700466778546
-0.49587249381249876	0.18832713248143065
-0.49581145865624876	0.18353528314710738
-0.49575042349999876	0.1787378226082886
-0.49568938834374876	0.17394024499618527
-0.49562835318749876	0.1691464031213767
-0.49556731803124876	0.1643580067475126
-0.49550628287499876	0.1595744440568617
-0.49544524771874876	0.15479294327417853
-0.49538421256249876	0.15000905973566825
-0.49532317740624876	0.14521740760115773
-0.49526214224999876	0.14041251331161295
-0.49520110709374876	0.13558966250403198
-0.49514007193749876	0.13074562139896032
-0.49507903678124876	0.12587913612668686
-0.49501800162499876	0.12099113151661443
-0.49495696646874876	0.11608457464028006
-0.49489593131249876	0.11116404034782924
-0.49483489615624876	0.10623505374478989
-0.49477386099999876	0.10130330309211401
-0.49471282584374876	0.09637384196572146
-0.49465179068749876	0.09145039580191765
-0.49459075553124876	0.08653486840499827
-0.49452972037499876	0.08162712407096681
-0.49446868521874876	0.07672507526127591
-0.49440765006249876	0.07182505610191095
-0.49434661490624876	0.0669224248154885
-0.49428557974999876	0.062012296153912315
-0.49422454459374876	0.05709028621223448
-0.49416350943749876	0.05215317134571492
-0.49410247428124876	0.04719937934470954
-0.49404143912499876	0.04222924092105423
-0.49398040396874876	0.03724495994336927
-0.49391936881249876	0.03225030455883319
-0.49385833365624876	0.027250068101909393
-0.49379729849999876	0.022249393986886506
-0.49373626334374876	0.017253070201918033
-0.49367522818749876	0.012264885211487143
-0.49361419303124876	0.007287134825148016
-0.49355315787499876	0.002320354462076484
-0.49349212271874876	-0.0026366894434962287
-0.49343108756249876	-0.007586753870529634
-0.49337005240624876	-0.01253365573922077
-0.49330901724999876	-0.01748166425301865
-0.49324798209374876	-0.022434846614726115
-0.49318694693749876	-0.027396455585581365
-0.49312591178124876	-0.0323684392164192
-0.49306487662499876	-0.037351145382310214
-0.49300384146874876	-0.04234326509844202
-0.49294280631249876	-0.04734201811313373
-0.49288177115624876	-0.05234354302924997
-0.49282073599999876	-0.05734343223625615
-0.49275970084374876	-0.062337336120350015
-0.49269866568749876	-0.0673215434068214
-0.49263763053124876	-0.07229345419362283
-0.49257659537499876	-0.0772518847485076
-0.49251556021874876	-0.08219716418459691
-0.49245452506249876	-0.08713101296373
-0.49239348990624876	-0.09205622503077372
-0.49233245474999876	-0.09697620665051473
-0.49227141959374876	-0.10189444315552754
-0.49221038443749876	-0.10681396551751152
-0.49214934928124876	-0.11173689086377049
-0.49208831412499876	-0.11666410360705617
-0.49202727896874876	-0.12159512270241955
-0.49196624381249876	-0.12652817359885157
-0.49190520865624876	-0.1314604428324607
-0.49184417349999876	-0.1363884688658319
-0.49178313834374876	-0.14130861574308887
-0.49172210318749876	-0.1462175576060392
-0.49166106803124876	-0.151112701030207
-0.49160003287499876	-0.15599249322495815
-0.49153899771874876	-0.16085657870243572
-0.49147796256249876	-0.16570577941089087
-0.49141692740624876	-0.17054189998742378
-0.49135589224999876	-0.17536739714250443
-0.49129485709374876	-0.180184973290508
-0.49123382193749876	-0.18499715151453783
-0.49117278678124876	-0.1898058845285359
-0.49111175162499876	-0.19461225265717225
-0.49105071646874876	-0.19941629649514067
-0.49098968131249876	-0.2042170035794688
-0.49092864615624876	-0.20901244665725782
-0.49086761099999876	-0.21380005275383832
-0.49080657584374876	-0.21857695857183027
-0.49074554068749876	-0.22334039571635966
-0.49068450553124876	-0.2280880473060882
-0.49062347037499876	-0.23281832474275088
-0.49056243521874876	-0.23753053645613523
-0.49050140006249876	-0.2422249310054307
-0.49044036490624876	-0.24690259866625555
-0.49037932974999876	-0.25156524710193795
-0.49031829459374876	-0.2562148979249609
-0.49025725943749876	-0.2608535518723741
-0.49019622428124876	-0.2654828702802076
-0.49013518912499876	-0.2701039144730798
-0.49007415396874876	-0.27471696790934713
-0.49001311881249876	-0.2793214675609899
-0.48995208365624876	-0.28391606717235013
-0.48989104849999876	-0.28849881895307994
-0.48983001334374876	-0.29306743489260156
-0.48976897818749876	-0.2976195915927779
-0.48970794303124876	-0.30215323588572746
-0.48964690787499876	-0.30666683939623546
-0.48958587271874876	-0.31115956659929495
-0.48952483756249876	-0.31563134125846454
-0.48946380240624876	-0.32008280367098035
-0.48940276724999876	-0.3245151654693826
-0.48934173209374876	-0.3289299891799437
-0.48928069693749876	-0.3333289250849428
-0.48921966178124876	-0.3377134368359836
-0.48915862662499876	-0.3420845558735717
-0.48909759146874876	-0.3464427048449558
-0.48903655631249876	-0.3507876128083609
-0.48897552115624876	-0.3551183314285366
-0.48891448599999876	-0.35943334992067744
-0.48885345084374876	-0.36373078897449185
-0.48879241568749876	-0.36800864474520956
-0.48873138053124876	-0.3722650499494872
-0.48867034537499876	-0.37649851045553373
-0.48860931021874876	-0.38070808041333143
-0.48854827506249876	-0.38489345595929236
-0.48848723990624876	-0.3890549754468967
-0.48842620474999876	-0.3931935253905577
-0.48836516959374876	-0.39731037012640613
-0.48830413443749876	-0.4014069309489709
-0.48824309928124876	-0.4054845417832997
-0.48818206412499876	-0.4095442179071455
-0.48812102896874876	-0.41358648074311183
-0.48805999381249876	-0.41761126290514633
-0.48799895865624876	-0.42161789439580494
-0.48793792349999876	-0.4256051690035209
-0.48787688834374876	-0.4295714871935435
-0.48781585318749876	-0.43351505799411993
-0.48775481803124876	-0.4374341308825472
-0.48769378287499876	-0.441327221790234
-0.48763274771874876	-0.44519329903906574
-0.48757171256249876	-0.44903190225477896
-0.48751067740624876	-0.45284317632163607
-0.48744964224999876	-0.4566278162383504
-0.48738860709374876	-0.4603869328821314
-0.48732757193749876	-0.46412186257907695
-0.48726653678124876	-0.4678339476220168
-0.48720550162499876	-0.4715243113162075
-0.48714446646874876	-0.47519365865902563
-0.48708343131249876	-0.47884213888051086
-0.48702239615624876	-0.4824692904457432
-0.48696136099999876	-0.4860740741273358
-0.48690032584374876	-0.48965498972712823
-0.48683929068749876	-0.4932102579070409
-0.48677825553124876	-0.4967380413340578
-0.48671722037499876	-0.5002366768428577
-0.48665618521874876	-0.5037048870095956
-0.48659515006249876	-0.5071419397843343
-0.48653411490624876	-0.5105477319683178
-0.48647307974999876	-0.5139227842563021
-0.48641204459374876	-0.5172681473190913
-0.48635100943749876	-0.5205852333389327
-0.48628997428124876	-0.5238755981859526
-0.48622893912499876	-0.5271407014571396
-0.48616790396874876	-0.530381676276612
-0.48610686881249876	-0.5335991428619465
-0.48604583365624876	-0.5367930920480163
-0.48598479849999876	-0.5399628547181973
-0.48592376334374876	-0.5431071627065002
-0.48586272818749876	-0.5462242911316126
-0.48580169303124876	-0.5493122598329513
-0.48574065787499876	-0.5523690712702937
-0.48567962271874876	-0.555392957361873
-0.48561858756249876	-0.5583825980432164
-0.48555755240624876	-0.5613372811261951
-0.48549651724999876	-0.5642569836353643
-0.48543548209374876	-0.5671423590052488
-0.48537444693749876	-0.5699946313459954
-0.48531341178124876	-0.572815414101268
-0.48525237662499876	-0.5756064737320645
-0.48519134146874876	-0.5783694690400825
-0.48513030631249876	-0.5811057060065946
-0.48506927115624876	-0.583815942500366
-0.48500823599999876	-0.5865002664534242
-0.48494720084374876	-0.5891580626179045
-0.48488616568749876	-0.591788073864135
-0.48482513053124876	-0.5943885495686674
-0.48476409537499876	-0.5969574591698101
-0.48470306021874876	-0.5994927410481462
-0.48464202506249876	-0.6019925556637328
-0.48458098990624876	-0.6044555092452544
-0.48451995474999876	-0.6068808150905192
-0.48445891959374876	-0.6092683710593181
-0.48439788443749876	-0.6116187453606253
-0.48433684928124876	-0.6139330750689339
-0.48427581412499876	-0.6162128927718223
-0.48421477896874876	-0.618459902998367
-0.48415374381249876	-0.6206757383320428
-0.48409270865624876	-0.6228617311763588
-0.48403167349999876	-0.6250187318729251
-0.48397063834374876	-0.6271469948299323
-0.48390960318749876	-0.6292461448172328
-0.48384856803124876	-0.6313152255290327
-0.48378753287499876	-0.6333528234264647
-0.48372649771874876	-0.6353572483649417
-0.48366546256249876	-0.6373267433761383
-0.48360442740624876	-0.6392596960027002
-0.48354339224999876	-0.6411548263491189
-0.48348235709374876	-0.6430113260978945
-0.48342132193749876	-0.6448289278905843
-0.48336028678124876	-0.6466079003405768
-0.48329925162499876	-0.6483489746205063
-0.48323821646874876	-0.6500532126843593
-0.48317718131249876	-0.6517218366223443
-0.48311614615624876	-0.6533560459023454
-0.48305511099999876	-0.6549568478294121
-0.48299407584374876	-0.6565249229042605
-0.48293304068749876	-0.6580605413517818
-0.48287200553124876	-0.6595635397114855
-0.48281097037499876	-0.6610333591685764
-0.48274993521874876	-0.662469137689571
-0.48268890006249876	-0.6638698390145182
-0.48262786490624876	-0.6652343982387476
-0.48256682974999876	-0.6665618630936226
-0.48250579459374876	-0.6678515109663608
-0.48244475943749876	-0.6691029256356831
-0.48238372428124876	-0.67031602400918
-0.48232268912499876	-0.6714910315298072
-0.48226165396874876	-0.6726284128843277
-0.48220061881249876	-0.673728770148849
-0.48213958365624876	-0.6747927253320123
-0.48207854849999876	-0.6758208067851732
-0.48201751334374876	-0.676813356548889
-0.48195647818749876	-0.6777704717953873
-0.48189544303124876	-0.6786919890185583
-0.48183440787499876	-0.6795775122321336
-0.48177337271874876	-0.6804264789079293
-0.48171233756249876	-0.6812382521483167
-0.48165130240624876	-0.6820122240529677
-0.48159026724999876	-0.6827479136808946
-0.48152923209374876	-0.6834450433535249
-0.48146819693749876	-0.6841035803006323
-0.48140716178124876	-0.6847237374016084
-0.48134612662499876	-0.6853059338080807
-0.48128509146874876	-0.6858507214217934
-0.48122405631249876	-0.6863586881273361
-0.48116302115624876	-0.6868303535180718
-0.48110198599999876	-0.6872660739510001
-0.48104095084374876	-0.6876659712805656
-0.48097991568749876	-0.6880298972358809
-0.48091888053124876	-0.6883574409090041
-0.48085784537499876	-0.6886479786472498
-0.48079681021874876	-0.6889007583745361
-0.48073577506249876	-0.6891150060948965
-0.48067473990624876	-0.6892900392592417
-0.48061370474999876	-0.6894253700476363
-0.48055266959374876	-0.6895207826394183
-0.48049163443749876	-0.6895763713911235
-0.48043059928124876	-0.6895925329785209
-0.48036956412499876	-0.6895699142916686
-0.48030852896874876	-0.6895093236558199
-0.48024749381249876	-0.6894116165743026
-0.48018645865624876	-0.6892775712165741
-0.48012542349999876	-0.689107772293167
-0.48006438834374876	-0.6889025217972475
-0.48000335318749876	-0.6886617894999084
-0.47994231803124876	-0.6883852112929124
-0.47988128287499876	-0.6880721375935663
-0.47982024771874876	-0.6877217238844155
-0.47975921256249876	-0.6873330500013252
-0.47969817740624876	-0.6869052519109705
-0.47963714224999876	-0.6864376472212816
-0.47957610709374876	-0.6859298375853039
-0.47951507193749876	-0.6853817720440805
-0.47945403678124876	-0.6847937588080402
-0.47939300162499876	-0.684166424460557
-0.47933196646874876	-0.6835006275118203
-0.47927093131249876	-0.6827973377457144
-0.47920989615624876	-0.6820574998980014
-0.47914886099999876	-0.6812819006652309
-0.47908782584374876	-0.6804710564627116
-0.47902679068749876	-0.6796251403231428
-0.47896575553124876	-0.6787439592661199
-0.47890472037499876	-0.6778269849312794
-0.47884368521874876	-0.6768734367742079
-0.47878265006249876	-0.6758824061093579
-0.47872161490624876	-0.6748529964400319
-0.47866057974999876	-0.6737844601481334
-0.47859954459374876	-0.6726763169452775
-0.47853850943749876	-0.6715284347174058
-0.47847747428124876	-0.670341059381765
-0.47841643912499876	-0.6691147894489023
-0.47835540396874876	-0.6678504970092474
-0.47829436881249876	-0.6665492076492304
-0.47823333365624876	-0.6652119564836997
-0.47817229849999876	-0.6638396403954998
-0.47811126334374876	-0.6624328917791381
-0.47805022818749876	-0.6609919935455129
-0.47798919303124876	-0.6595168443399125
-0.47792815787499876	-0.6580069792130883
-0.47786712271874876	-0.6564616461466999
-0.47780608756249876	-0.6548799257498005
-0.47774505240624876	-0.6532608745084365
-0.47768401724999876	-0.6516036751999216
-0.47762298209374876	-0.6499077747885221
-0.47756194693749876	-0.6481729829460707
-0.47750091178124876	-0.646399512583236
-0.47743987662499876	-0.6445879607691516
-0.47737884146874876	-0.642739235137088
-0.47731780631249876	-0.6408544358020245
-0.47725677115624876	-0.6389347105944537
-0.47719573599999876	-0.6369811013750589
-0.47713470084374876	-0.6349944026250417
-0.47707366568749876	-0.6329750583491354
-0.47701263053124876	-0.630923112910052
-0.47695159537499876	-0.6288382186318613
-0.47689056021874876	-0.6267196993960652
-0.47682952506249876	-0.6245666641230625
-0.47676848990624876	-0.6223781521085301
-0.47670745474999876	-0.6201532872629358
-0.47664641959374876	-0.6178914203629959
-0.47658538443749876	-0.6155922386871655
-0.47652434928124876	-0.6132558252929705
-0.47646331412499876	-0.6108826579782252
-0.47640227896874876	-0.608473551970286
-0.47634124381249876	-0.6060295589482331
-0.47628020865624876	-0.603551835935777
-0.47621917349999876	-0.6010415006248503
-0.47615813834374876	-0.598499490291174
-0.47609710318749876	-0.5959264440171129
-0.47603606803124876	-0.5933226294514456
-0.47597503287499876	-0.5906879295848464
-0.47591399771874876	-0.5880218900146919
-0.47585296256249876	-0.5853238100612209
-0.47579192740624876	-0.5825928625921264
-0.47573089224999876	-0.5798282319005896
-0.47566985709374876	-0.577029249312369
-0.47560882193749876	-0.5741955020349137
-0.47554778678124876	-0.5713269029664008
-0.47548675162499876	-0.5684237195639067
-0.47542571646874876	-0.5654865532643296
-0.47536468131249876	-0.5625162660585938
-0.47530364615624876	-0.5595138730726332
-0.47524261099999876	-0.5564804205288162
-0.47518157584374876	-0.5534168614695937
-0.47512054068749876	-0.5503239455309832
-0.47505950553124876	-0.5472021414435364
-0.47499847037499876	-0.5440516056996506
-0.47493743521874876	-0.540872193084985
-0.47487640006249876	-0.5376635026100528
-0.47481536490624876	-0.534424961413673
-0.47475432974999876	-0.5311559343492067
-0.47469329459374876	-0.5278558360962935
-0.47463225943749876	-0.5245242317182672
-0.47457122428124876	-0.5211609156815777
-0.47451018912499876	-0.5177659563439571
-0.47444915396874876	-0.5143396980186903
-0.47438811881249876	-0.5108827271965077
-0.47432708365624876	-0.5073958128956635
-0.47426604849999876	-0.5038798254578029
-0.47420501334374876	-0.5003356434125797
-0.47414397818749876	-0.4967640619300523
-0.47408294303124876	-0.49316571405327675
-0.47402190787499876	-0.489541015393857
-0.47396087271874876	-0.48589013868451825
-0.47389983756249876	-0.4822130228061944
-0.47383880240624876	-0.47850941649318957
-0.47377776724999876	-0.4747789468104597
-0.47371673209374876	-0.47102119900974
-0.47365569693749876	-0.46723579515172725
-0.47359466178124876	-0.4634224647144047
-0.47353362662499876	-0.4595811023762693
-0.47347259146874876	-0.45571180308612486
-0.47341155631249876	-0.4518148694898258
-0.47335052115624876	-0.44789079423908845
-0.47328948599999876	-0.44394021737016365
-0.47322845084374876	-0.4399638630035717
-0.47316741568749876	-0.4359624690370034
-0.47310638053124876	-0.43193671996991734
-0.47304534537499876	-0.4278871917228308
-0.47298431021874876	-0.42381431378448936
-0.47292327506249876	-0.41971834413150866
-0.47286223990624876	-0.4155993625970487
-0.47280120474999876	-0.41145729235542183
-0.47274016959374876	-0.40729194482754166
-0.47267913443749876	-0.40310307860289696
-0.47261809928124876	-0.39889046278018425
-0.47255706412499876	-0.39465393504045077
-0.47249602896874876	-0.3903934471246828
-0.47243499381249876	-0.3861090925942749
-0.47237395865624876	-0.38180111653368715
-0.47231292349999876	-0.3774699100623001
-0.47225188834374876	-0.37311598887307773
-0.47219085318749876	-0.36873995421611716
-0.47212981803124876	-0.36434244210550987
-0.47206878287499876	-0.3599240717196285
-0.47200774771874876	-0.3554853982948514
-0.47194671256249876	-0.35102687061969395
-0.47188567740624876	-0.34654880576870456
-0.47182464224999876	-0.34205139119157396
-0.47176360709374876	-0.3375346979353145
-0.47170257193749876	-0.33299869664044945
-0.47164153678124876	-0.3284432935976851
-0.47158050162499876	-0.3238683873533983
-0.47151946646874876	-0.3192739197851898
-0.47145843131249876	-0.31465990849905967
-0.47139739615624876	-0.310026468137389
-0.47133636099999876	-0.3053738215409251
-0.47127532584374876	-0.3007022944123574
-0.47121429068749876	-0.29601229825548403
-0.47115325553124876	-0.2913043074294087
-0.47109222037499876	-0.2865788312784597
-0.47103118521874876	-0.28183638396005417
-0.47097015006249876	-0.2770774495510554
-0.47090911490624876	-0.27230245083233845
-0.47084807974999876	-0.26751173608525947
-0.47078704459374876	-0.2627055773353223
-0.47072600943749876	-0.25788417280143533
-0.47066497428124876	-0.25304765957945835
-0.47060393912499876	-0.24819613762608414
-0.47054290396874876	-0.24332969466234622
-0.47048186881249876	-0.238448426245352
-0.47042083365624876	-0.23355245504285513
