Time	Frequency
-0.5000036100624996	-0.10625294434742819
-0.4999425749062496	-0.10110861257150422
-0.4998815397499996	-0.0959085493704959
-0.4998205045937496	-0.09067104464027817
-0.4997594694374996	-0.08541824753217739
-0.4996984342812496	-0.08017270408737509
-0.4996373991249996	-0.07495398128181108
-0.4995763639687496	-0.06977588585019662
-0.4995153288124996	-0.06464467790595183
-0.4994542936562496	-0.05955850533320711
-0.4993932584999996	-0.05450808913769582
-0.4993322233437496	-0.04947850539696562
-0.4992711881874996	-0.04445174741896052
-0.4992101530312496	-0.039409642694758856
-0.4991491178749996	-0.03433667013067234
-0.4990880827187496	-0.029222257116064076
-0.4990270475624996	-0.024062223334131702
-0.4989660124062496	-0.018859182478429545
-0.4989049772499996	-0.013621885597259874
-0.4988439420937496	-0.008363654050296569
-0.4987829069374996	-0.003100182714269782
-0.4987218717812496	0.0021529256156759655
-0.4986608366249996	0.007382508340656592
-0.4985998014687496	0.012579717233456545
-0.4985387663124996	0.017741149800680145
-0.4984777311562496	0.022869096803845017
-0.4984166959999996	0.027970906041690204
-0.4983556608437496	0.033057591024956305
-0.4982946256874996	0.038141925004098826
-0.4982335905312496	0.04323634230374709
-0.4981725553749996	0.048350982529833476
-0.4981115202187496	0.053492169700414365
-0.4980504850624996	0.058661543629404976
-0.4979894499062496	0.06385595405248885
-0.4979284147499996	0.06906810172721191
-0.4978673795937496	0.07428779562815076
-0.4978063444374996	0.0795036115279654
-0.4977453092812496	0.08470467857434205
-0.4976842741249996	0.08988230579518902
-0.4976232389687496	0.09503120502994744
-0.4975622038124996	0.10015013684989503
-0.4975011686562496	0.10524189830317429
-0.4974401334999996	0.110312680695953
-0.4973790983437496	0.11537092281077947
-0.4973180631874996	0.12042585991636166
-0.4972570280312496	0.1254860040900502
-0.4971959928749996	0.13055779123540687
-0.4971349577187496	0.1356446019586382
-0.4970739225624996	0.1407462979951404
-0.4970128874062496	0.1458593307593376
-0.4969518522499996	0.15097738392627028
-0.4968908170937496	0.156092423492453
-0.4968297819374996	0.1611959765727408
-0.4967687467812496	0.1662804374677248
-0.4967077116249996	0.17134019376864174
-0.4966466764687496	0.17637239341098152
-0.4965856413124996	0.18137724580031306
-0.4965246061562496	0.18635783515964777
-0.4964635709999996	0.19131949237339474
-0.4964025358437496	0.19626883106418175
-0.4963415006874996	0.20121260902233562
-0.4962804655312496	0.20615660831645244
-0.4962194303749996	0.2111047124379678
-0.4961583952187496	0.21605831183925933
-0.4960973600624996	0.22101611965462076
-0.4960363249062496	0.22597441700923626
-0.4959752897499996	0.23092767747094975
-0.4959142545937496	0.2358694597646863
-0.4958532194374996	0.2407934142326173
-0.4957921842812496	0.24569423941827204
-0.4957311491249996	0.2505684444123542
-0.4956701139687496	0.25541480448300324
-0.4956090788124996	0.2602344432538426
-0.4955480436562496	0.26503053808923754
-0.4954870084999996	0.2698077100790359
-0.4954259733437496	0.27457120433661025
-0.4953649381874996	0.2793259936918098
-0.4953039030312496	0.2840759496876867
-0.4952428678749996	0.2888232136653503
-0.4951818327187496	0.2935678653173045
-0.4951207975624996	0.29830792832849085
-0.4950597624062496	0.30303969742097026
-0.4949987272499996	0.307758329059674
-0.4949376920937496	0.31245859867081427
-0.4948766569374996	0.3171356991151759
-0.4948156217812496	0.3217859513523374
-0.4947545866249996	0.3264073168540999
-0.4946935514687496	0.33099963571983293
-0.4946325163124996	0.3355645596314782
-0.4945714811562496	0.3401051998418346
-0.4945104459999996	0.34462555649953697
-0.4944494108437496	0.3491298222298667
-0.4943883756874996	0.3536216682224774
-0.4943273405312496	0.3581036318770859
-0.4942663053749996	0.3625767050401408
-0.4942052702187496	0.3670401763268986
-0.4941442350624996	0.371491741595045
-0.4940831999062496	0.3759278631002062
-0.4940221647499996	0.3803443197416895
-0.4939611295937496	0.3847368534957395
-0.4939000944374996	0.3891018023705795
-0.4938390592812496	0.3934366232168153
-0.4937780241249996	0.3977402283438027
-0.4937169889687496	0.4020130837268871
-0.4936559538124996	0.4062570566426075
-0.4935949186562496	0.4104750477711054
-0.4935338834999996	0.41467047263627643
-0.4934728483437496	0.41884667286995075
-0.4934118131874996	0.4230063505677997
-0.4933507780312496	0.42715111969064484
-0.4932897428749996	0.43128124366714715
-0.4932287077187496	0.4353955887707339
-0.4931676725624996	0.439491794359796
-0.4931066374062496	0.4435666350076571
-0.4930456022499996	0.4476165127162729
-0.4929845670937496	0.4516379940031703
-0.4929235319374996	0.4556283070963822
-0.4928624967812496	0.45958572435228007
-0.4928014616249996	0.463509773099887
-0.4927404264687496	0.4674012458896109
-0.4926793913124996	0.4712620119071963
-0.4926183561562496	0.4750946612709043
-0.4925573209999996	0.478902041952057
-0.4924962858437496	0.48268676951181455
-0.4924352506874996	0.4864507880710307
-0.4923742155312496	0.49019504420081134
-0.4923131803749996	0.4939193242762378
-0.4922521452187496	0.4976222829190237
-0.4921911100624996	0.5013016493604837
-0.4921300749062496	0.5049545706244745
-0.4920690397499996	0.5085780372865466
-0.4920080045937496	0.5121693262437531
-0.4919469694374996	0.5157263914480841
-0.4918859342812496	0.5192481401430078
-0.4918248991249996	0.5227345505397597
-0.4917638639687496	0.5261866180005408
-0.4917028288124996	0.5296061448526262
-0.4916417936562496	0.5329954083992842
-0.4915807584999996	0.5363567604896021
-0.4915197233437496	0.5396922237816849
-0.4914586881874996	0.5430031484170913
-0.4913976530312496	0.5462899809903458
-0.4913366178749996	0.5495521789617447
-0.4912755827187496	0.5527882817970814
-0.4912145475624996	0.5559961269226258
-0.4911535124062496	0.5591731748361023
-0.4910924772499996	0.5623168863050108
-0.4910314420937496	0.5654250893706213
-0.4909704069374996	0.5684962838200592
-0.4909093717812496	0.5715298381502808
-0.4908483366249996	0.5745260471322227
-0.4907873014687496	0.5774860431321658
-0.4907262663124996	0.5804115786881359
-0.4906652311562496	0.5833047175114736
-0.4906041959999996	0.5861674827033218
-0.4905431608437496	0.589001514700881
-0.4904821256874996	0.591807792719802
-0.4904210905312496	0.5945864650761792
-0.4903600553749996	0.5973368119570934
-0.4902990202187496	0.6000573410605604
-0.4902379850624996	0.6027459990979505
-0.4901769499062496	0.6054004675195389
-0.4901159147499996	0.6080184974365734
-0.4900548795937496	0.6105982301633671
-0.4899938444374996	0.6131384529173345
-0.4899328092812496	0.6156387525271644
-0.4898717741249996	0.6180995454399728
-0.4898107389687496	0.6205219815596046
-0.4897497038124996	0.6229077399884584
-0.4896886686562496	0.6252587485423606
-0.4896276334999996	0.6275768692601253
-0.4895665983437496	0.6298635985746848
-0.4895055631874996	0.6321198278303336
-0.4894445280312496	0.6343456981237483
-0.4893834928749996	0.6365405677014788
-0.4893224577187496	0.6387030953408532
-0.4892614225624996	0.6408314273966957
-0.4892003874062496	0.6429234585101328
-0.4891393522499996	0.6449771242000493
-0.4890783170937496	0.6469906814089422
-0.4890172819374996	0.6489629375388876
-0.4889562467812496	0.6508933964375203
-0.4888952116249996	0.6527823008174694
-0.4888341764687496	0.6546305668725064
-0.4887731413124996	0.656439624231395
-0.4887121061562496	0.6582111869493524
-0.4886510709999996	0.6599469896891599
-0.4885900358437496	0.6616485274706384
-0.4885290006874996	0.6633168355093899
-0.4884679655312496	0.6649523388847186
-0.4884069303749996	0.6665547917785198
-0.4883458952187496	0.6681233127564282
-0.4882848600624996	0.6696565076117604
-0.4882238249062496	0.6711526594532393
-0.4881627897499996	0.6726099581063351
-0.4881017545937496	0.6740267361716845
-0.4880407194374996	0.6754016787929008
-0.4879796842812496	0.6767339789866378
-0.4879186491249996	0.6780234194827933
-0.4878576139687496	0.6792703735313644
-0.4877965788124996	0.6804757277721044
-0.4877355436562496	0.6816407395322673
-0.4876745084999996	0.6827668498844026
-0.4876134733437496	0.683855479594454
-0.4875524381874996	0.6849078354882754
-0.4874914030312496	0.6859247517841374
-0.4874303678749996	0.6869065855397334
-0.4873693327187496	0.6878531774869209
-0.4873082975624996	0.6887638804086408
-0.4872472624062496	0.6896376483842306
-0.4871862272499996	0.6904731728860016
-0.4871251920937496	0.6912690466951397
-0.4870641569374996	0.6920239342612422
-0.4870031217812496	0.6927367272598061
-0.4869420866249996	0.6934066667837208
-0.4868810514687496	0.6940334186987978
-0.4868200163124996	0.6946170950824399
-0.4867589811562496	0.6951582216358654
-0.4866979459999996	0.695657657592003
-0.4866369108437496	0.6961164796368359
-0.4865758756874996	0.6965358446563399
-0.4865148405312496	0.6969168473774876
-0.4864538053749996	0.697260388691311
-0.4863927702187496	0.6975670696142984
-0.4863317350624996	0.6978371228342878
-0.4862706999062496	0.6980703888213804
-0.4862096647499996	0.6982663379189488
-0.4861486295937496	0.6984241342444812
-0.4860875944374996	0.6985427339168211
-0.4860265592812496	0.6986210068804771
-0.4859655241249996	0.6986578675684374
-0.4859044889687496	0.698652399706119
-0.4858434538124996	0.6986039620223584
-0.4857824186562496	0.698512261950726
-0.4857213834999996	0.698377388703883
-0.4856603483437496	0.6981998030100514
-0.4855993131874996	0.6979802834713765
-0.4855382780312496	0.697719834023694
-0.4854772428749996	0.6974195641316645
-0.4854162077187496	0.6970805562869945
-0.4853551725624996	0.6967037347190926
-0.4852941374062496	0.6962897497835369
-0.4852331022499996	0.6958388946717331
-0.4851720670937496	0.6953510684154874
-0.4851110319374996	0.6948257881810717
-0.4850499967812496	0.6942622474888476
-0.4849889616249996	0.6936594170456536
-0.4849279264687496	0.693016177459078
-0.4848668913124996	0.6923314656966396
-0.4848058561562496	0.6916044181348466
-0.4847448209999996	0.6908344913252951
-0.4846837858437496	0.6900215402641646
-0.4846227506874996	0.6891658440656797
-0.4845617155312496	0.6882680777561265
-0.4845006803749996	0.6873292299067194
-0.4844396452187496	0.6863504742367154
-0.4843786100624996	0.6853330139826881
-0.4843175749062496	0.6842779209287377
-0.4842565397499996	0.6831859923713163
-0.4841955045937496	0.6820576454042502
-0.4841344694374996	0.6808928628269848
-0.4840734342812496	0.6796912026491507
-0.4840123991249996	0.6784518709078233
-0.4839513639687496	0.6771738436064043
-0.4838903288124996	0.6758560216604816
-0.4838292936562496	0.674497399626199
-0.4837682584999996	0.6730972208747594
-0.4837072233437496	0.6716550954745634
-0.4836461881874996	0.670171066843707
-0.4835851530312496	0.6686456157565184
-0.4835241178749996	0.6670795971577104
-0.4834630827187496	0.6654741204017879
-0.4834020475624996	0.6638303946714509
-0.4833410124062496	0.6621495635699507
-0.4832799772499996	0.6604325507533066
-0.4832189420937496	0.6586799377281258
-0.4831579069374996	0.6568918938924415
-0.4830968717812496	0.6550681715575614
-0.4830358366249996	0.6532081644257033
-0.4829748014687496	0.6513110171643042
-0.4829137663124996	0.6493757706419134
-0.4828527311562496	0.6474015222014764
-0.4827916959999996	0.6453875756935539
-0.4827306608437496	0.6433335589763384
-0.4826696256874996	0.6412394903309291
-0.4826085905312496	0.639105782145005
-0.4825475553749996	0.636933184707006
-0.4824865202187496	0.6347226822722535
-0.4824254850624996	0.6324753557180923
-0.4823644499062496	0.6301922312742411
-0.4823034147499996	0.6278741388232467
-0.4822423795937496	0.6255216023776888
-0.4821813444374996	0.6231347821640095
-0.4821203092812496	0.6207134784552537
-0.4820592741249996	0.6182571930738422
-0.4819982389687496	0.6157652350234917
-0.4819372038124996	0.6132368545391003
-0.4818761686562496	0.6106713864113533
-0.4818151334999996	0.6080683795520325
-0.4817540983437496	0.6054276905551167
-0.4816930631874996	0.6027495244982591
-0.4816320280312496	0.6000344189340662
-0.4815709928749996	0.5972831762197446
-0.4815099577187496	0.5944967528968788
-0.4814489225624996	0.5916761254529526
-0.4813878874062496	0.5888221572262409
-0.4813268522499996	0.5859354846346387
-0.4812658170937496	0.5830164388836311
-0.4812047819374996	0.5800650181468141
-0.4811437467812496	0.5770809146829924
-0.4810827116249996	0.5740635923723252
-0.4810216764687496	0.5710124032058269
-0.4809606413124996	0.5679267211426716
-0.4808996061562496	0.5648060703912335
-0.4808385709999996	0.5616502291726041
-0.4807775358437496	0.5584592921891642
-0.4807165006874996	0.5552336825942676
-0.4806554655312496	0.5519741126523451
-0.4805944303749996	0.5486814979476131
-0.4805333952187496	0.5453568369264856
-0.4804723600624996	0.5420010755474304
-0.4804113249062496	0.5386149824986666
-0.4803502897499996	0.5351990562662432
-0.4802892545937496	0.531753474995565
-0.4802282194374996	0.528278097534717
-0.4801671842812496	0.5247725190586688
-0.4801061491249996	0.521236169395055
-0.4800451139687496	0.5176684363819399
-0.4799840788124996	0.514068795968882
-0.4799230436562496	0.5104369278752655
-0.4798620084999996	0.5067727988066251
-0.4798009733437496	0.503076698882188
-0.4797399381874996	0.4993492241571883
-0.4796789030312496	0.495591210822111
-0.4796178678749996	0.4918036344405824
-0.4795568327187496	0.48798748875042924
-0.4794957975624996	0.48414365995045944
-0.4794347624062496	0.48027281665391997
-0.4793737272499996	0.4763753365248875
-0.4793126920937496	0.4724512825724609
-0.4792516569374996	0.4685004294276816
-0.4791906217812496	0.4645223345448515
-0.4791295866249996	0.46051644709810957
-0.4790685514687496	0.4564822369715491
-0.4790075163124996	0.4524193172259025
-0.4789464811562496	0.44832753965357536
-0.4788854459999996	0.4442070541412033
-0.4788244108437496	0.44005832129401706
-0.4787633756874996	0.4358820713502576
-0.4787023405312496	0.4316792207143764
-0.4786413053749996	0.4274507622996249
-0.4785802702187496	0.4231976413826235
-0.4785192350624996	0.4189206391650492
-0.4784581999062496	0.41462028886904856
-0.4783971647499996	0.4102968321406386
-0.4783361295937496	0.40595021872676756
-0.4782750944374996	0.40158015395928703
-0.4782140592812496	0.397186187452407
-0.4781530241249996	0.3927678269095018
-0.4780919889687496	0.38832465738137995
-0.4780309538124996	0.3838564476224495
-0.4779699186562496	0.37936322659906
-0.4779088834999996	0.3748453154743206
-0.4778478483437496	0.37030331405414724
-0.4777868131874996	0.365738047837751
-0.4777257780312496	0.3611504783308771
-0.4776647428749996	0.3565415868523366
-0.4776037077187496	0.35191225520528674
-0.4775426725624996	0.3472631689362064
-0.4774816374062496	0.34259475577082676
-0.4774206022499996	0.3379071601160052
-0.4773595670937496	0.3332002599912509
-0.4772985319374996	0.32847373072126307
-0.4772374967812496	0.32372714344941694
-0.4771764616249996	0.3189600782456005
-0.4771154264687496	0.31417223235662056
-0.4770543913124996	0.3093635083327999
-0.4769933561562496	0.3045340692735209
-0.4769323209999996	0.2996843534578058
-0.4768712858437496	0.2948150470740786
-0.4768102506874996	0.28992701534502907
-0.4767492155312496	0.2850212042561031
-0.4766881803749996	0.2800985345490635
-0.4766271452187496	0.27515980203749435
-0.4765661100624996	0.2702055986096834
-0.4765050749062496	0.2652362683922644
-0.4764440397499996	0.2602519011271728
-0.4763830045937496	0.255252364290515
-0.4763219694374996	0.25023737557055054
-0.4762609342812496	0.245206597962608
-0.4761998991249996	0.2401597330753904
-0.4761388639687496	0.2350966076804649
-0.4760778288124996	0.23001725040333257
-0.4760167936562496	0.22492193571259053
-0.4759557584999996	0.21981117867863972
-0.4758947233437496	0.21468568941120214
-0.4758336881874996	0.20954630276222103
-0.4757726530312496	0.2043938932486401
-0.4757116178749996	0.19922928450176752
-0.4756505827187496	0.19405316766191827
-0.4755895475624996	0.18886604339853422
-0.4755285124062496	0.18366819252754166
-0.4754674772499996	0.17845967776785193
-0.4754064420937496	0.1732403828289945
-0.4753454069374996	0.16801008540876833
-0.4752843717812496	0.16276854563746465
-0.4752233366249996	0.15751558983999842
-0.4751623014687496	0.15225118100025206
-0.4751012663124996	0.14697547100913777
-0.4750402311562496	0.1416888219866808
-0.4749791959999996	0.13639178976458066
-0.4749181608437496	0.13108507782544998
-0.4748571256874996	0.12576947420055729
-0.4747960905312496	0.12044577983088034
-0.4747350553749996	0.11511473273701266
-0.4746740202187496	0.10977693806430631
-0.4746129850624996	0.10443282099375616
-0.4745519499062496	0.09908261117446587
-0.4744909147499996	0.09372635744574993
-0.4744298795937496	0.08836397110003094
-0.4743688444374996	0.08299529235466914
-0.4743078092812496	0.07762016487564646
-0.4742467741249996	0.07223850518966221
-0.4741857389687496	0.06685036208101625
-0.4741247038124996	0.061455958019726385
-0.4740636686562496	0.056055703936716925
-0.4740026334999996	0.05065018380599003
-0.4739415983437496	0.045240110078391634
-0.4738805631874996	0.03982625903804539
-0.4738195280312496	0.03440939968389484
-0.4737584928749996	0.02899022553764077
-0.4736974577187496	0.023569294835617892
-0.4736364225624996	0.018146988515108025
-0.4735753874062496	0.012723497399372861
-0.4735143522499996	0.007298843282425368
-0.4734533170937496	0.001872929159240976
-0.4733922819374996	-0.0035543960994687475
-0.4733312467812496	-0.008983269810777428
-0.4732702116249996	-0.014413745814234396
-0.4732091764687496	-0.019845733713857956
-0.4731481413124996	-0.02527896299833866
-0.4730871061562496	-0.030712975459673872
-0.4730260709999996	-0.036147145429911876
-0.4729650358437496	-0.04158072918239095
-0.4729040006874996	-0.047012933116447345
-0.4728429655312496	-0.05244298466972708
-0.4727819303749996	-0.057870199857602146
-0.4727208952187496	-0.06329404091193316
-0.4726598600624996	-0.06871415252158561
-0.4725988249062496	-0.07413037150303506
-0.4725377897499996	-0.07954270819954865
-0.4724767545937496	-0.08495129807577569
-0.4724157194374996	-0.09035633049259534
-0.4723546842812496	-0.0957579705945044
-0.4722936491249996	-0.10115628719860625
-0.4722326139687496	-0.10655119228363728
-0.4721715788124996	-0.1119423987318458
-0.4721105436562496	-0.11732940958267683
-0.4720495084999996	-0.12271154651230091
-0.4719884733437496	-0.128088005948474
-0.4719274381874996	-0.13345793139408152
-0.4718664030312496	-0.13882049874551924
-0.4718053678749996	-0.14417499787748256
-0.4717443327187496	-0.1495208944136028
-0.4716832975624996	-0.15485786872376098
-0.4716222624062496	-0.16018582168893097
-0.4715612272499996	-0.1655048397785944
-0.4715001920937496	-0.17081513164000828
-0.4714391569374996	-0.176116949562563
-0.4713781217812496	-0.1814105019936927
-0.4713170866249996	-0.18669586961012638
-0.4712560514687496	-0.1919729443307022
-0.4711950163124996	-0.19724140012176059
-0.4711339811562496	-0.20250069323637487
-0.4710729459999996	-0.20775009401006675
-0.4710119108437496	-0.2129887485022578
-0.4709508756874996	-0.21821575967216653
-0.4708898405312496	-0.22343028071230572
-0.4708288053749996	-0.22863160529189325
-0.4707677702187496	-0.2338192310676089
-0.4707067350624996	-0.23899288736652824
-0.4706456999062496	-0.24415253096107756
-0.4705846647499996	-0.24929831067669567
-0.4705236295937496	-0.25443049939879775
-0.4704625944374996	-0.25954940185367936
-0.4704015592812496	-0.2646552591209946
-0.4703405241249996	-0.26974816652918676
-0.4702794889687496	-0.27482801134523327
-0.4702184538124996	-0.2798944399549424
-0.4701574186562496	-0.2849468629671455
-0.4700963834999996	-0.2899844966070662
-0.4700353483437496	-0.2950064346924909
-0.4699743131874996	-0.30001174235081995
-0.4699132780312496	-0.30499955735226625
-0.4698522428749996	-0.3099691806888759
-0.4697912077187496	-0.31492014016203607
-0.4697301725624996	-0.3198522199866542
-0.4696691374062496	-0.3247654517444404
-0.4696081022499996	-0.3296600639303069
-0.4695470670937496	-0.3345364006306864
-0.4694860319374996	-0.33939482587030434
-0.4694249967812496	-0.3442356247842567
-0.4693639616249996	-0.34905891291869046
-0.4693029264687496	-0.35386457011398853
-0.4692418913124996	-0.3586522127356769
