Time	Frequency
-0.5000469122499993	-0.554510964974963
-0.4999858770937493	-0.5527876132529224
-0.4999248419374993	-0.5510433687598377
-0.4998638067812493	-0.5492773952412029
-0.4998027716249993	-0.5474883302164281
-0.4997417364687493	-0.5456746825874432
-0.4996807013124993	-0.5438352560064369
-0.4996196661562493	-0.5419694894185928
-0.4995586309999993	-0.5400776156951183
-0.4994975958437493	-0.5381605938855877
-0.4994365606874993	-0.5362198459393203
-0.4993755255312493	-0.5342568777121632
-0.4993144903749993	-0.532272892753952
-0.4992534552187493	-0.5302685020163787
-0.4991924200624993	-0.5282435978207797
-0.4991313849062493	-0.5261974285986568
-0.4990703497499993	-0.5241288542383689
-0.4990093145937493	-0.5220366960567585
-0.4989482794374993	-0.5199200772579283
-0.4988872442812493	-0.517778664543974
-0.4988262091249993	-0.5156127512498188
-0.4987651739687493	-0.5134231654311981
-0.4987041388124993	-0.51121103582457
-0.4986431036562493	-0.5089774914798854
-0.4985820684999993	-0.5067233808902567
-0.4985210333437493	-0.5044490836862106
-0.4984599981874993	-0.5021544667399425
-0.4983989630312493	-0.4998389901455651
-0.4983379278749993	-0.497501916766065
-0.4982768927187493	-0.49514255714469285
-0.4982158575624993	-0.49276048060462635
-0.4981548224062493	-0.490355634432424
-0.4980937872499993	-0.4879283445382487
-0.4980327520937493	-0.48547920835552616
-0.4979717169374993	-0.4830089186946366
-0.4979106817812493	-0.48051807871815194
-0.4978496466249993	-0.47800706742956245
-0.4977886114687493	-0.4754759868635174
-0.4977275763124993	-0.472924696491471
-0.4976665411562493	-0.4703529209642296
-0.4976055059999993	-0.46776039323237983
-0.4975444708437493	-0.4651469819673405
-0.4974834356874993	-0.4625127602042361
-0.4974224005312493	-0.4598579941567492
-0.4973613653749993	-0.45718306229712735
-0.4973003302187493	-0.4544883408349726
-0.4972392950624993	-0.45177409578147065
-0.4971782599062493	-0.44904041456306404
-0.4971172247499993	-0.44628720068560085
-0.4970561895937493	-0.44351423978476917
-0.4969951544374993	-0.44072132169448136
-0.4969341192812493	-0.4379083722110694
-0.4968730841249993	-0.4350755403198505
-0.4968120489687493	-0.43222321081309495
-0.4967510138124993	-0.4293519384341574
-0.4966899786562493	-0.42646232123066047
-0.4966289434999993	-0.4235548488747708
-0.4965679083437493	-0.42062977096734483
-0.4965068731874993	-0.4176870290327834
-0.4964458380312493	-0.4147262797248295
-0.4963848028749993	-0.41174700800461833
-0.4963237677187493	-0.40874869951239645
-0.4962627325624993	-0.40573102834605485
-0.4962016974062493	-0.40269400910372644
-0.4961406622499993	-0.3996380569442487
-0.4960796270937493	-0.39656393009228175
-0.4960185919374993	-0.3934725722758817
-0.4959575567812493	-0.39036488883226944
-0.4958965216249993	-0.3872415148239645
-0.4958354864687493	-0.38410265870558624
-0.4957744513124993	-0.38094806881894805
-0.4957134161562493	-0.37777712160202404
-0.4956523809999993	-0.374589017225398
-0.4955913458437493	-0.3713830355258111
-0.4955303106874993	-0.36815877343757014
-0.4954692755312493	-0.3649162993637485
-0.4954082403749993	-0.3616561825579429
-0.4953472052187493	-0.35837938047616175
-0.4952861700624993	-0.35508701186852976
-0.4952251349062493	-0.3517800819360726
-0.4951640997499993	-0.3484592410117197
-0.4951030645937493	-0.34512464990770164
-0.4950420294374993	-0.3417759830795669
-0.4949809942812493	-0.3384125513930866
-0.4949199591249993	-0.3350335160453947
-0.4948589239687493	-0.3316381592680925
-0.4947978888124993	-0.3282261311970241
-0.4947368536562493	-0.32479757995548847
-0.4946758184999993	-0.3213531354627187
-0.4946147833437493	-0.3178937694105597
-0.4945537481874993	-0.3144205625874371
-0.4944927130312493	-0.31093443404175225
-0.4944316778749993	-0.30743591862317804
-0.4943706427187493	-0.30392506603339103
-0.4943096075624993	-0.30040148745174855
-0.4942485724062493	-0.29686452782918016
-0.4941875372499993	-0.29331350594401323
-0.4941265020937493	-0.28974795677882803
-0.4940654669374993	-0.28616781296009586
-0.4940044317812493	-0.28257346795655036
-0.4939433966249993	-0.278965703384501
-0.4938823614687493	-0.27534550415963216
-0.4938213263124993	-0.2717138041092022
-0.4937602911562493	-0.26807123513486714
-0.4936992559999993	-0.26441796743278406
-0.4936382208437493	-0.2607536932411822
-0.4935771856874993	-0.25707775447058245
-0.4935161505312493	-0.2533893759904689
-0.4934551153749993	-0.24968794051323914
-0.4933940802187493	-0.2459732237783872
-0.4933330450624993	-0.2422455206373903
-0.4932720099062493	-0.23850562360622904
-0.4932109747499993	-0.2347546502103957
-0.4931499395937493	-0.230993766497038
-0.4930889044374993	-0.22722389230813705
-0.4930278692812493	-0.22344547860766745
-0.4929668341249993	-0.2196584266808486
-0.4929057989687493	-0.21586216707134087
-0.4928447638124993	-0.2120558619180328
-0.4927837286562493	-0.20823867600936577
-0.4927226934999993	-0.20441005402136397
-0.4926616583437493	-0.20056992400722667
-0.4926006231874993	-0.1967187581319077
-0.4925395880312493	-0.1928574791175749
-0.4924785528749993	-0.18898724860853844
-0.4924175177187493	-0.185109186703081
-0.4923564825624993	-0.18122409799292222
-0.4922954474062493	-0.17733229396954953
-0.4922344122499993	-0.17343356420753078
-0.4921733770937493	-0.1695272929221165
-0.4921123419374993	-0.1656126783510117
-0.4920513067812493	-0.16168900175682419
-0.4919902716249993	-0.15775587730481988
-0.4919292364687493	-0.15381340215156195
-0.4918682013124993	-0.1498621644347051
-0.4918071661562493	-0.1459031172673533
-0.4917461309999993	-0.14193735701323593
-0.4916850958437493	-0.1379658637818576
-0.4916240606874993	-0.13398927441295339
-0.4915630255312493	-0.1300077559640401
-0.4915019903749993	-0.12602101374415103
-0.4914409552187493	-0.12202842907463261
-0.4913799200624993	-0.11802928815643926
-0.4913188849062493	-0.11402302790374226
-0.4912578497499993	-0.11000943347599484
-0.4911968145937493	-0.10598874594023529
-0.4911357794374993	-0.10196163975382751
-0.4910747442812493	-0.09792907169516861
-0.4910137091249993	-0.0938920600916015
-0.4909526739687493	-0.08985145885794364
-0.4908916388124993	-0.08580777576550735
-0.4908306036562493	-0.08176107669193947
-0.4907695684999993	-0.07771101153272511
-0.4907085333437493	-0.07365696541195808
-0.4906474981874993	-0.06959828364535654
-0.4905864630312493	-0.06553449795630345
-0.4905254278749993	-0.06146549797454551
-0.4904643927187493	-0.057391607377888225
-0.4904033575624993	-0.05331353930456326
-0.4903423224062493	-0.049232243167335786
-0.4902812872499993	-0.04514868890414828
-0.4902202520937493	-0.041063647406221024
-0.4901592169374993	-0.036977532038615486
-0.4900981817812493	-0.032890340632730664
-0.4900371466249993	-0.028801703580897835
-0.4899761114687493	-0.024711028670346687
-0.4899150763124993	-0.0206177051290198
-0.4898540411562493	-0.016521314349963165
-0.4897930059999993	-0.012421799599081875
-0.4897319708437493	-0.008319537719408982
-0.4896709356874993	-0.004215274668930833
-0.4896099005312493	-0.00010995590100679013
-0.4895488653749993	0.0039954766772294665
-0.4894878302187493	0.008100274056793949
-0.4894267950624993	0.012204027466835016
-0.4893657599062493	0.01630673379963921
-0.4893047247499993	0.020408750365136823
-0.4892436895937493	0.02451065488301262
-0.4891826544374993	0.02861305267393274
-0.4891216192812493	0.03271636661105503
-0.4890605841249993	0.036820668697771675
-0.4889995489687493	0.04092561967516748
-0.4889385138124993	0.045030520787319006
-0.4888774786562493	0.0491344493763637
-0.4888164434999993	0.05323644911405505
-0.4887554083437493	0.05733572931231655
-0.4886943731874993	0.06143182611755966
-0.4886333380312493	0.06552468260933784
-0.4885723028749993	0.06961461804045226
-0.4885112677187493	0.07370218936581001
-0.4884502325624993	0.07778799124032125
-0.4883891974062493	0.08187246089491801
-0.4883281622499993	0.08595572730399109
-0.4882671270937493	0.09003752963501906
-0.4882060919374993	0.09411723534875786
-0.4881450567812493	0.09819396277120665
-0.4880840216249993	0.10226677414281932
-0.4880229864687493	0.10633488028002935
-0.4879619513124993	0.11039779627268491
-0.4879009161562493	0.11445541257776298
-0.4878398809999993	0.11850796965634149
-0.4877788458437493	0.12255594262006815
-0.4877178106874993	0.12659987029678565
-0.4876567755312493	0.13064017249988572
-0.4875957403749993	0.13467699619032636
-0.4875347052187493	0.1387101311177875
-0.4874736700624993	0.1427390209228506
-0.4874126349062493	0.1467628707190338
-0.4873515997499993	0.15078081884617547
-0.4872905645937493	0.15479211803153525
-0.4872295294374993	0.1587962789941167
-0.4871684942812493	0.1627931515231169
-0.4871074591249993	0.1667829215680155
-0.4870464239687493	0.17076600922255084
-0.4869853888124993	0.17474290249227004
-0.4869243536562493	0.17871398168567015
-0.4868633184999993	0.18267936654870462
-0.4868022833437493	0.1866388309922653
-0.4867412481874993	0.19059182739832953
-0.4866802130312493	0.1945376033945375
-0.4866191778749993	0.1984753603626139
-0.4865581427187493	0.20240441642450938
-0.4864971075624993	0.20632434206388287
-0.4864360724062493	0.21023503254538015
-0.4863750372499993	0.21413669279919556
-0.4863140020937493	0.21802973630395872
-0.4862529669374993	0.22191462311633026
-0.4861919317812493	0.22579167850494483
-0.4861308966249993	0.22966094868545045
-0.4860698614687493	0.23352213896587865
-0.4860088263124993	0.23737464758712948
-0.4859477911562493	0.24121768545241368
-0.4858867559999993	0.24505044796324102
-0.4858257208437493	0.24887229116875348
-0.4857646856874993	0.252682868303822
-0.4857036505312493	0.25648218776393206
-0.4856426153749993	0.2602705726551575
-0.4855815802187493	0.26404853073516404
-0.4855205450624993	0.26781656708253215
-0.4854595099062493	0.2715749925906276
-0.4853984747499993	0.2753237829713399
-0.4853374395937493	0.279062526647273
-0.4852764044374993	0.2827904804691692
-0.4852153692812493	0.2865067252552488
-0.4851543341249993	0.29021037825730256
-0.4850932989687493	0.2939007976341238
-0.4850322638124993	0.29757772102299507
-0.4849712286562493	0.3012413015081944
-0.4849101934999993	0.3048920314479609
-0.4848491583437493	0.30853057443304527
-0.4847881231874993	0.3121575442512852
-0.4847270880312493	0.31577328353109974
-0.4846660528749993	0.3193777082816839
-0.4846050177187493	0.3229702719717821
-0.4845439825624993	0.32655005981431534
-0.4844829474062493	0.330115985726512
-0.4844219122499993	0.333667043473009
-0.4843608770937493	0.337202549059631
-0.4842998419374993	0.34072230144175814
-0.4842388067812493	0.3442266087683346
-0.4841777716249993	0.34771617861967774
-0.4841167364687493	0.35119189526713795
-0.4840557013124993	0.3546545267216117
-0.4839946661562493	0.35810445278491077
-0.4839336309999993	0.36154150706600646
-0.4838725958437493	0.36496497023163693
-0.4838115606874993	0.36837371006674186
-0.4837505255312493	0.37176644252732444
-0.4836894903749993	0.3751420493961164
-0.4836284552187493	0.3784998547807156
-0.4835674200624993	0.38183977979125777
-0.4835063849062493	0.3851623365137449
-0.4834453497499993	0.38846845649054895
-0.4833843145937493	0.3917591925630076
-0.4833232794374993	0.3950353826662546
-0.4832622442812493	0.39829737478768856
-0.4832012091249993	0.4015448825594963
-0.4831401739687493	0.4047770096550201
-0.4830791388124993	0.40799244590169925
-0.4830181036562493	0.41118978786265764
-0.4829570684999993	0.41436789402085544
-0.4828960333437493	0.4175261683735865
-0.4828349981874993	0.42066468986440936
-0.4827739630312493	0.4237841587611064
-0.4827129278749993	0.42688567124271115
-0.4826518927187493	0.42997037477676925
-0.4825908575624993	0.43303910591533906
-0.4825298224062493	0.4360921160438656
-0.4824687872499993	0.43912895911617905
-0.4824077520937493	0.4421485747947998
-0.4823467169374993	0.44514954398408063
-0.4822856817812493	0.4481304419056601
-0.4822246466249993	0.4510901940923313
-0.4821636114687493	0.45402834121428703
-0.4821025763124993	0.4569451325580395
-0.4820415411562493	0.45984141789874167
-0.4819805059999993	0.4627183727356534
-0.4819194708437493	0.46557713513988785
-0.4818584356874993	0.46841845443506347
-0.4817974005312493	0.4712424504442414
-0.4817363653749993	0.4740485488298668
-0.4816753302187493	0.4768356062846437
-0.4816142950624993	0.4796021911324256
-0.4815532599062493	0.48234694636126946
-0.4814922247499993	0.4850689317524611
-0.4814311895937493	0.4877678428292473
-0.4813701544374993	0.49044405176657213
-0.4813091192812493	0.4930984660647086
-0.4812480841249993	0.49573224049579817
-0.4811870489687493	0.49834642287374953
-0.4811260138124993	0.5009416334868537
-0.4810649786562493	0.5035178665441676
-0.4810039434999993	0.5060744699900522
-0.4809429083437493	0.5086103031501246
-0.4808818731874993	0.5111240223656152
-0.4808208380312493	0.5136144184025107
-0.4807598028749993	0.5160807134283198
-0.4806987677187493	0.5185227330713212
-0.4806377325624993	0.5209409095467001
-0.4805766974062493	0.5233361216549562
-0.4805156622499993	0.5257094175996169
-0.4804546270937493	0.5280616969896064
-0.4803935919374993	0.5303934399478224
-0.4803325567812493	0.5327045555378785
-0.4802715216249993	0.5349943878564527
-0.4802104864687493	0.5372618772494668
-0.4801494513124993	0.5395058300900205
-0.4800884161562493	0.5417252171708844
-0.4800273809999993	0.5439194177940337
-0.4799663458437493	0.5460883472695948
-0.4799053106874993	0.5482324378415708
-0.4798442755312493	0.5503524826923183
-0.4797832403749993	0.5524493874331724
-0.4797222052187493	0.5545238975085067
-0.4796611700624993	0.5565763763532477
-0.4796001349062493	0.5586066911251852
-0.4795390997499993	0.5606142328589521
-0.4794780645937493	0.562598064250693
-0.4794170294374993	0.5645571536653237
-0.4793559942812493	0.5664906315428279
-0.4792949591249993	0.5683979974911064
-0.4792339239687493	0.5702792181249784
-0.4791728888124993	0.5721346939970172
-0.4791118536562493	0.5739651149482092
-0.4790508184999993	0.575771246310447
-0.4789897833437493	0.577553700714756
-0.4789287481874993	0.5793127565498761
-0.4788677130312493	0.5810482732562627
-0.4788066778749993	0.5827597229094745
-0.4787456427187493	0.5844463250312593
-0.4786846075624993	0.5861072447834721
-0.4786235724062493	0.5877417955476569
-0.4785625372499993	0.589349589751222
-0.4785015020937493	0.5909306021916426
-0.4784404669374993	0.5924851335425314
-0.4783794317812493	0.5940136886519317
-0.4783183966249993	0.5955168087814521
-0.4782573614687493	0.5969949066129878
-0.4781963263124993	0.5984481483534204
-0.4781352911562493	0.5998764131679072
-0.4780742559999993	0.6012793364556505
-0.4780132208437493	0.6026564165097106
-0.4779521856874993	0.6040071470966648
-0.4778911505312493	0.6053311360861999
-0.4778301153749993	0.6066281773242327
-0.4777690802187493	0.6078982589178372
-0.4777080450624993	0.6091415131855723
-0.4776470099062493	0.610358130926595
-0.4775859747499993	0.6115482700881631
-0.4775249395937493	0.6127119888105982
-0.4774639044374993	0.6138492251370026
-0.4774028692812493	0.614959827616766
-0.4773418341249993	0.6160436200676813
-0.4772807989687493	0.6171004724216251
-0.4772197638124993	0.6181303500508148
-0.4771587286562493	0.6191333219266031
-0.4770976934999993	0.6201095211489289
-0.4770366583437493	0.6210590693137967
-0.4769756231874993	0.6219819925019908
-0.4769145880312493	0.622878161263663
-0.4768535528749993	0.6237472793964468
-0.4767925177187493	0.624588932010531
-0.4767314825624993	0.6254026844037782
-0.4766704474062493	0.6261882044880706
-0.4766094122499993	0.6269453710997162
-0.4765483770937493	0.6276743317585448
-0.4764873419374993	0.6283754856394762
-0.4764263067812493	0.6290493884532465
-0.4763652716249993	0.6296965998319911
-0.4763042364687493	0.6303175132861077
-0.4762432013124993	0.6309122173870686
-0.4761821661562493	0.6314804310884747
-0.4761211309999993	0.632021537633289
-0.4760600958437493	0.6325347150427388
-0.4759990606874993	0.6330191340697635
-0.4759380255312493	0.6334741741833928
-0.4758769903749993	0.6338995991767826
-0.4758159552187493	0.6342956408494336
-0.4757549200624993	0.6346629617758145
-0.4756938849062493	0.6350024997454912
-0.4756328497499993	0.6353152284492464
-0.4755718145937493	0.635601893115806
-0.4755107794374993	0.6358627907377146
-0.4754497442812493	0.6360976572829031
-0.4753887091249993	0.636305698210827
-0.4753276739687493	0.636485762117812
-0.4752666388124993	0.6366366205868201
-0.4752056036562493	0.6367572870847129
-0.4751445684999993	0.6368472921485506
-0.4750835333437493	0.6369068384800741
-0.4750224981874993	0.6369367854881283
-0.4749614630312493	0.6369384547921152
-0.4749004278749993	0.6369132986885677
-0.4748393927187493	0.6368625134663415
-0.4747783575624993	0.6367866972763002
-0.4747173224062493	0.6366856470682527
-0.4746562872499993	0.6365583601193395
-0.4745952520937493	0.6364032550793611
-0.4745342169374993	0.6362185678514809
-0.4744731817812493	0.6360028266652457
-0.4744121466249993	0.6357552800296029
-0.4743511114687493	0.6354761532368686
-0.4742900763124993	0.6351666491364456
-0.4742290411562493	0.6348286748451419
-0.4741680059999993	0.6344643518618129
-0.4741069708437493	0.6340754324003155
-0.4740459356874993	0.633662779153286
-0.4739849005312493	0.6332260620553098
-0.4739238653749993	0.6327637784351174
-0.4738628302187493	0.632273615647678
-0.4738017950624993	0.6317530738733113
-0.4737407599062493	0.6312001830431114
-0.4736797247499993	0.6306141094883254
-0.4736186895937493	0.6299954687165432
-0.4735576544374993	0.6293462345459131
-0.4734966192812493	0.6286692449037483
-0.4734355841249993	0.6279674259410197
-0.4733745489687493	0.6272429486502145
-0.4733135138124993	0.626496560035217
-0.4732524786562493	0.6257272922502334
-0.4731914434999993	0.6249326585192093
-0.4731304083437493	0.6241093097919935
-0.4730693731874993	0.6232539859486692
-0.4730083380312493	0.6223644911633822
-0.4729473028749993	0.6214403999869047
-0.4728862677187493	0.6204832752277784
-0.4728252325624993	0.6194963162863467
-0.4727641974062493	0.6184835127820619
-0.4727031622499993	0.6174485221995858
-0.4726421270937493	0.616393588386568
-0.4725810919374993	0.6153188253806228
-0.4725200567812493	0.614222095503334
-0.4724590216249993	0.6130995449997952
-0.4723979864687493	0.6119466673620757
-0.4723369513124993	0.6107596028308117
-0.4722759161562493	0.6095363072352024
-0.4722148809999993	0.6082772452413184
-0.4721538458437493	0.60698537754401
-0.4720928106874993	0.605665410316693
-0.4720317755312493	0.6043225047576246
-0.4719707403749993	0.6029608097526266
-0.4719097052187493	0.601582233000929
-0.4718486700624993	0.6001858155207613
-0.4717876349062493	0.5987679185634204
-0.4717265997499993	0.5973231945126141
-0.4716655645937493	0.5958460836401536
-0.4716045294374993	0.5943324286405819
-0.4715434942812493	0.592780746502675
-0.4714824591249993	0.5911927670574342
-0.4714214239687493	0.5895730542320218
-0.4713603888124993	0.5879277988106726
-0.4712993536562493	0.5862631091534212
-0.4712383184999993	0.584583272106529
-0.4711772833437493	0.5828894810932752
-0.4711162481874993	0.5811794155732123
-0.4710552130312493	0.5794478216091474
-0.4709941778749993	0.5776879556009572
-0.4709331427187493	0.5758934985695529
-0.4708721075624993	0.5740604009995084
-0.4708110724062493	0.572188125304595
-0.4707500372499993	0.5702799132831857
-0.4706890020937493	0.5683419797035126
-0.4706279669374993	0.5663818369907273
-0.4705669317812493	0.5644062029446787
-0.4705058966249993	0.562419079219176
-0.4704448614687493	0.5604205583824342
-0.4703838263124993	0.5584067172791399
-0.4703227911562493	0.5563706592542655
-0.4702617559999993	0.5543044440388233
-0.4702007208437493	0.5522013656440109
-0.4701396856874993	0.5500579244194376
-0.4700786505312493	0.5478749276823228
-0.4700176153749993	0.5456573840760492
-0.4699565802187493	0.5434131865343319
-0.4698955450624993	0.5411509355847072
-0.4698345099062493	0.5388775137035626
-0.4697734747499993	0.53659610409265
-0.4697124395937493	0.5343052318247727
-0.4696514044374993	0.5319991219011196
-0.4695903692812493	0.5296692996251434
-0.4695293341249993	0.5273069998193785
-0.4694682989687493	0.5249057057408715
-0.4694072638124993	0.5224630853172529
-0.4693462286562493	0.5199817553204844
