Time	Frequency
-0.500061031031251	1.6468722934425866e-22
-0.499999995875001	1.6256367192506188e-22
-0.499938960718751	1.6039934270996342e-22
-0.499877925562501	1.582024144332433e-22
-0.499816890406251	1.5598339584562612e-22
-0.499755855250001	1.537538713490405e-22
-0.499694820093751	1.5152516932836649e-22
-0.499633784937501	1.4930711066596158e-22
-0.499572749781251	1.4710697465012877e-22
-0.499511714625001	1.449287920138166e-22
-0.499450679468751	1.4277303106428912e-22
-0.499389644312501	1.406366948907053e-22
-0.499328609156251	1.3851380589208685e-22
-0.499267574000001	1.3639621177904309e-22
-0.499206538843751	1.3427460787823368e-22
-0.499145503687501	1.3213964931680653e-22
-0.499084468531251	1.2998302603195364e-22
-0.499023433375001	1.277983847421357e-22
-0.498962398218751	1.2558199921964822e-22
-0.498901363062501	1.2333311616887986e-22
-0.498840327906251	1.210539467424537e-22
-0.498779292750001	1.18749321177736e-22
-0.498718257593751	1.1642605869389662e-22
-0.498657222437501	1.1409213287494788e-22
-0.498596187281251	1.1175573351379638e-22
-0.498535152125001	1.0942433325507324e-22
-0.498474116968751	1.0710386642726085e-22
-0.498413081812501	1.0479811280313767e-22
-0.498352046656251	1.0250834948613936e-22
-0.498291011500001	1.002333001115082e-22
-0.498229976343751	9.796937660060396e-23
-0.498168941187501	9.571117790843592e-23
-0.498107906031251	9.345218226715264e-23
-0.498046870875001	9.118554786301351e-23
-0.497985835718751	8.890492618213633e-23
-0.497924800562501	8.660519199663613e-23
-0.497863765406251	8.428300908989347e-23
-0.497802730250001	8.193717472730103e-23
-0.497741695093751	7.956870965581183e-23
-0.497680659937501	7.718068795797182e-23
-0.497619624781251	7.477783359293728e-23
-0.497558589625001	7.236593969955027e-23
-0.497497554468751	6.99511825828513e-23
-0.497436519312501	6.753941027352433e-23
-0.497375484156251	6.513548957472131e-23
-0.497314449000001	6.274278688381138e-23
-0.497253413843751	6.036283715138241e-23
-0.497192378687501	5.79952316064199e-23
-0.497131343531251	5.563773206387695e-23
-0.497070308375001	5.328659381338908e-23
-0.497009273218751	5.093705497207627e-23
-0.496948238062501	4.8583931385156176e-23
-0.496887202906251	4.622224418905667e-23
-0.496826167750001	4.3847807366029163e-23
-0.496765132593751	4.145770821243846e-23
-0.496704097437501	3.9050626730923447e-23
-0.496643062281251	3.6626962311409453e-23
-0.496582027125001	3.4188758011565494e-23
-0.496520991968751	3.1739436371000037e-23
-0.496459956812501	2.928338260185701e-23
-0.496398921656251	2.682542721333572e-23
-0.496337886500001	2.4370290281544423e-23
-0.496276851343751	2.1922050170133153e-23
-0.496215816187501	1.9483697000664413e-23
-0.496154781031251	1.7056823541367228e-23
-0.496093745875001	1.4641487297694777e-23
-0.496032710718751	1.2236253941927029e-23
-0.495971675562501	9.838411686398312e-24
-0.495910640406251	7.444330484491236e-24
-0.495849605250001	5.0499218041692984e-24
-0.495788570093751	2.6511396777895493e-24
-0.495727534937501	2.444643162383538e-25
-0.495666499781251	-2.172684332773458e-24
-0.495605464625001	-4.601649750894983e-24
-0.495544429468751	-7.04239213697119e-24
-0.495483394312501	-9.493506882156475e-24
-0.495422359156251	-1.1952402188167485e-23
-0.495361324000001	-1.4415610010007e-23
-0.495300288843751	-1.6879192112882334e-23
-0.495239253687501	-1.9339192990843635e-23
-0.495178218531251	-2.179208497942962e-23
-0.495117183375001	-2.423515469596833e-23
-0.495056148218751	-2.6666788587368106e-23
-0.494995113062501	-2.908662594602708e-23
-0.494934077906251	-3.149556306641333e-23
-0.494873042750001	-3.389561112977453e-23
-0.494812007593751	-3.6289626783266914e-23
-0.494750972437501	-3.868094813235312e-23
-0.494689937281251	-4.107298302836818e-23
-0.494628902125001	-4.346879932464854e-23
-0.494567866968751	-4.5870760288556153e-23
-0.494506831812501	-4.828024608891948e-23
-0.494445796656251	-5.0697494680763255e-23
-0.494384761500001	-5.31215776474942e-23
-0.494323726343751	-5.555051140857764e-23
-0.494262691187501	-5.798149054182214e-23
-0.494201656031251	-6.041121249298272e-23
-0.494140620875001	-6.283625328241038e-23
-0.494079585718751	-6.525345121821291e-23
-0.494018550562501	-6.766025364607979e-23
-0.493957515406251	-7.005498766861848e-23
-0.493896480250001	-7.243702593380016e-23
-0.493835445093751	-7.480682942448326e-23
-0.493774409937501	-7.716586344961174e-23
-0.493713374781251	-7.951639749872297e-23
-0.493652339625001	-8.186121473081972e-23
-0.493591304468751	-8.420326780904654e-23
-0.493530269312501	-8.654532088257009e-23
-0.493469234156251	-8.888961897980207e-23
-0.493408199000001	-9.12376227168415e-23
-0.493347163843751	-9.358983702133149e-23
-0.493286128687501	-9.594575226533162e-23
-0.493225093531251	-9.830390361403104e-23
-0.493164058375001	-1.0066204011174264e-22
-0.493103023218751	-1.030173823404274e-22
-0.493041988062501	-1.0536693683980364e-22
-0.492980952906251	-1.0770782818064498e-22
-0.492919917750001	-1.1003761181523393e-22
-0.492858882593751	-1.1235453530835777e-22
-0.492797847437501	-1.146577156651381e-22
-0.492736812281251	-1.1694721140938943e-22
-0.492675777125001	-1.1922398638119721e-22
-0.492614741968751	-1.21489771710446e-22
-0.492553706812501	-1.237468410631478e-22
-0.492492671656251	-1.259977267270006e-22
-0.492431636500001	-1.2824491130693829e-22
-0.492370601343751	-1.304905304266394e-22
-0.492309566187501	-1.3273611928312021e-22
-0.492248531031251	-1.3498243135473513e-22
-0.492187495875001	-1.372293493634609e-22
-0.492126460718751	-1.3947589717608989e-22
-0.492065425562501	-1.4172035137919798e-22
-0.492004390406251	-1.4396043922821742e-22
-0.491943355250001	-1.4619359616724496e-22
-0.491882320093751	-1.4841725071854714e-22
-0.491821284937501	-1.5062910531279769e-22
-0.491760249781251	-1.5282738290006518e-22
-0.491699214625001	-1.5501101029976212e-22
-0.491638179468751	-1.5717971663577196e-22
-0.491577144312501	-1.593340384300121e-22
-0.491516109156251	-1.6147523173845434e-22
-0.491455074000001	-1.6360510111573065e-22
-0.491394038843751	-1.6572576764795662e-22
-0.491333003687501	-1.678394050041616e-22
-0.491271968531251	-1.6994797413136702e-22
-0.491210933375001	-1.7205298695461174e-22
-0.491149898218751	-1.7415532580846996e-22
-0.491088863062501	-1.762551377741163e-22
-0.491027827906251	-1.7835181498630396e-22
-0.490966792750001	-1.8044406353102102e-22
-0.490905757593751	-1.825300511703081e-22
-0.490844722437501	-1.846076138532456e-22
-0.490783687281251	-1.866744980729134e-22
-0.490722652125001	-1.8872861256045507e-22
-0.490661616968751	-1.9076825774408247e-22
-0.490600581812501	-1.9279230521579399e-22
-0.490539546656251	-1.9480030925091125e-22
-0.490478511500001	-1.9679253822841093e-22
-0.490417476343751	-1.9876992072736334e-22
-0.490356441187501	-2.0073391456263076e-22
-0.490295406031251	-2.026863177404324e-22
-0.490234370875001	-2.046290431448902e-22
-0.490173335718751	-2.065638808490074e-22
-0.490112300562501	-2.084922759437714e-22
-0.490051265406251	-2.104151493937638e-22
-0.489990230250001	-2.1233278310053104e-22
-0.489929195093751	-2.1424478094817525e-22
-0.489868159937501	-2.161501079972003e-22
-0.489807124781251	-2.180472036858501e-22
-0.489746089625001	-2.199341565536425e-22
-0.489685054468751	-2.2180891875647646e-22
-0.489624019312501	-2.2366953551918358e-22
-0.489562984156251	-2.2551436184502687e-22
-0.489501949000001	-2.2734224023919103e-22
-0.489440913843751	-2.291526214794447e-22
-0.489379878687501	-2.3094561480012713e-22
-0.489318843531251	-2.327219603940376e-22
-0.489257808375001	-2.344829288988922e-22
-0.489196773218751	-2.362301597294095e-22
-0.489135738062501	-2.37965456550845e-22
-0.489074702906251	-2.3969056575862377e-22
-0.489013667750001	-2.414069647058494e-22
-0.488952632593751	-2.4311568134480563e-22
-0.488891597437501	-2.4481716417085844e-22
-0.488830562281251	-2.465112196229708e-22
-0.488769527125001	-2.481970250864107e-22
-0.488708491968751	-2.498732138941498e-22
-0.488647456812501	-2.515380213237961e-22
-0.488586421656251	-2.5318947613807503e-22
-0.488525386500001	-2.5482561691110764e-22
-0.488464351343751	-2.5644470651593957e-22
-0.488403316187501	-2.580454193400699e-22
-0.488342281031251	-2.596269810479948e-22
-0.488281245875001	-2.6118924479685837e-22
-0.488220210718751	-2.6273269574922496e-22
-0.488159175562501	-2.6425838479437135e-22
-0.488098140406251	-2.657677989383175e-22
-0.488037105250001	-2.6726268324952656e-22
-0.487976070093751	-2.687448355167801e-22
-0.487915034937501	-2.702158963729381e-22
-0.487853999781251	-2.716771578657571e-22
-0.487792964625001	-2.7312941199620565e-22
-0.487731929468751	-2.7457285563015294e-22
-0.487670894312501	-2.7600706233033083e-22
-0.487609859156251	-2.774310237491863e-22
-0.487548824000001	-2.7884325457973056e-22
-0.487487788843751	-2.802419500183648e-22
-0.487426753687501	-2.816251785167395e-22
-0.487365718531251	-2.829910859132468e-22
-0.487304683375001	-2.8433808764265613e-22
-0.487243648218751	-2.8566502982694044e-22
-0.487182613062501	-2.8697130248719416e-22
-0.487121577906251	-2.8825689225603945e-22
-0.487060542750001	-2.8952236908439773e-22
-0.486999507593751	-2.907688098628108e-22
-0.486938472437501	-2.919976690747835e-22
-0.486877437281251	-2.932106106092373e-22
-0.486816402125001	-2.944093188919913e-22
-0.486755366968751	-2.955953112019718e-22
-0.486694331812501	-2.9676977174264737e-22
-0.486633296656251	-2.9793342392357693e-22
-0.486572261500001	-2.9908645357738317e-22
-0.486511226343751	-3.00228490880921e-22
-0.486450191187501	-3.013586519522496e-22
-0.486389156031251	-3.024756348143491e-22
-0.486328120875001	-3.0357785857184854e-22
-0.486267085718751	-3.0466362896380414e-22
-0.486206050562501	-3.0573131152157033e-22
-0.486145015406251	-3.0677949441572665e-22
-0.486083980250001	-3.0780712424207965e-22
-0.486022945093751	-3.088136011996159e-22
-0.485961909937501	-3.09798824342785e-22
-0.485900874781251	-3.1076318285506457e-22
-0.485839839625001	-3.117074965125988e-22
-0.485778804468751	-3.1263291370818844e-22
-0.485717769312501	-3.135407782981266e-22
-0.485656734156251	-3.1443247961938465e-22
-0.485595699000001	-3.153093019176538e-22
-0.485534663843751	-3.161722895666416e-22
-0.485473628687501	-3.170221421380527e-22
-0.485412593531251	-3.178591484510636e-22
-0.485351558375001	-3.186831647293892e-22
-0.485290523218751	-3.1949363859902082e-22
-0.485229488062501	-3.2028967527514847e-22
-0.485168452906251	-3.2107013698799384e-22
-0.485107417750001	-3.218337637585598e-22
-0.485046382593751	-3.2257930239927567e-22
-0.484985347437501	-3.2330563004947697e-22
-0.484924312281251	-3.2401185927376045e-22
-0.484863277125001	-3.2469741428066553e-22
-0.484802241968751	-3.2536207133020276e-22
-0.484741206812501	-3.2600596054202626e-22
-0.484680171656251	-3.2662953083178084e-22
-0.484619136500001	-3.272334835630383e-22
-0.484558101343751	-3.2781868353882194e-22
-0.484497066187501	-3.2838605815536014e-22
-0.484436031031251	-3.289364960433759e-22
-0.484374995875001	-3.294707558895218e-22
-0.484313960718751	-3.2998939473141233e-22
-0.484252925562501	-3.3049272217010607e-22
-0.484191890406251	-3.309807835770966e-22
-0.484130855250001	-3.3145337225463923e-22
-0.484069820093751	-3.3191006727419157e-22
-0.484008784937501	-3.3235029082018736e-22
-0.483947749781251	-3.3277337716829672e-22
-0.483886714625001	-3.3317864491140296e-22
-0.483825679468751	-3.3356546418318377e-22
-0.483764644312501	-3.3393331163264955e-22
-0.483703609156251	-3.3428180807394857e-22
-0.483642574000001	-3.3461073639159015e-22
-0.483581538843751	-3.349200397531099e-22
-0.483520503687501	-3.352098024585742e-22
-0.483459468531251	-3.3548021773183497e-22
-0.483398433375001	-3.3573154795047635e-22
-0.483337398218751	-3.359640832287445e-22
-0.483276363062501	-3.361781040602512e-22
-0.483215327906251	-3.363738525011757e-22
-0.483154292750001	-3.3655151447551686e-22
-0.483093257593751	-3.3671121399758387e-22
-0.483032222437501	-3.36853018351927e-22
-0.482971187281251	-3.369769518245953e-22
-0.482910152125001	-3.3708301463397656e-22
-0.482849116968751	-3.3717120264030474e-22
-0.482788081812501	-3.37241523274677e-22
-0.482727046656251	-3.372940046535137e-22
-0.482666011500001	-3.3732869623099114e-22
-0.482604976343751	-3.3734566044064216e-22
-0.482543941187501	-3.373449563973737e-22
-0.482482906031251	-3.3732661835457307e-22
-0.482421870875001	-3.3729063304571174e-22
-0.482360835718751	-3.37236920269647e-22
-0.482299800562501	-3.371653203838418e-22
-0.482238765406251	-3.3707559229429454e-22
-0.482177730250001	-3.3696742434891073e-22
-0.482116695093751	-3.3684045802982553e-22
-0.482055659937501	-3.3669432266745064e-22
-0.481994624781251	-3.3652867760311972e-22
-0.481933589625001	-3.363432562553198e-22
-0.481872554468751	-3.361379062038531e-22
-0.481811519312501	-3.3591262036248626e-22
-0.481750484156251	-3.3566755522210795e-22
-0.481689449000001	-3.3540303193889724e-22
-0.481628413843751	-3.351195169906687e-22
-0.481567378687501	-3.3481758343116223e-22
-0.481506343531251	-3.3449785723786823e-22
-0.481445308375001	-3.3416095393508805e-22
-0.481384273218751	-3.3380741201787096e-22
-0.481323238062501	-3.334376311611867e-22
-0.481262202906251	-3.330518223660038e-22
-0.481201167750001	-3.3264997583773115e-22
-0.481140132593751	-3.3223185183089763e-22
-0.481079097437501	-3.3179699746485207e-22
-0.481018062281251	-3.3134478815168497e-22
-0.480957027125001	-3.3087448898492127e-22
-0.480895991968751	-3.3038533063099974e-22
-0.480834956812501	-3.2987659362472754e-22
-0.480773921656251	-3.293476913400481e-22
-0.480712886500001	-3.2879823951784207e-22
-0.480651851343751	-3.2822810445658087e-22
-0.480590816187501	-3.27637425959537e-22
-0.480529781031251	-3.2702661162302507e-22
-0.480468745875001	-3.263963013909862e-22
-0.480407710718751	-3.2574730511172593e-22
-0.480346675562501	-3.2508052018627367e-22
-0.480285640406251	-3.243968395053614e-22
-0.480224605250001	-3.236970591832703e-22
-0.480163570093751	-3.229817949936664e-22
-0.480102534937501	-3.2225141725047595e-22
-0.480041499781251	-3.2150601285014113e-22
-0.479980464625001	-3.2074537893124854e-22
-0.479919429468751	-3.1996904767084293e-22
-0.479858394312501	-3.1917633992906094e-22
-0.479797359156251	-3.1836644385996296e-22
-0.479736324000001	-3.175385092443667e-22
-0.479675288843751	-3.166917444595977e-22
-0.479614253687501	-3.158255056266859e-22
-0.479553218531251	-3.1493936993231555e-22
-0.479492183375001	-3.140331845788651e-22
-0.479431148218751	-3.1310708569324047e-22
-0.479370113062501	-3.121614848549998e-22
-0.479309077906251	-3.1119702396334842e-22
-0.479248042750001	-3.102145058827196e-22
-0.479187007593751	-3.0921480994116416e-22
-0.479125972437501	-3.0819879885739367e-22
-0.479064937281251	-3.0716722786821774e-22
-0.479003902125001	-3.0612066894998347e-22
-0.478942866968751	-3.0505945702424064e-22
-0.478881831812501	-3.0398366209780025e-22
-0.478820796656251	-3.0289309111581806e-22
-0.478759761500001	-3.0178732023135996e-22
-0.478698726343751	-3.00665754254303e-22
-0.478637691187501	-2.9952770548407227e-22
-0.478576656031251	-2.983724806393391e-22
-0.478515620875001	-2.971994655252071e-22
-0.478454585718751	-2.9600819931522157e-22
-0.478393550562501	-2.947984303954219e-22
-0.478332515406251	-2.9357014756065837e-22
-0.478271480250001	-2.9232358355455723e-22
-0.478210445093751	-2.9105918991826527e-22
-0.478149409937501	-2.8977758639289166e-22
-0.478088374781251	-2.8847949258946393e-22
-0.478027339625001	-2.8716565030146366e-22
-0.477966304468751	-2.8583674354156476e-22
-0.477905269312501	-2.8449332550200285e-22
-0.477844234156251	-2.8313576410620305e-22
-0.477783199000001	-2.8176421267311156e-22
-0.477722163843751	-2.8037860598239413e-22
-0.477661128687501	-2.7897867900746494e-22
-0.477600093531251	-2.775640068687751e-22
-0.477539058375001	-2.761340665417759e-22
-0.477478023218751	-2.7468831150023225e-22
-0.477416988062501	-2.7322624467087215e-22
-0.477355952906251	-2.717474831335594e-22
-0.477294917750001	-2.702518112317308e-22
-0.477233882593751	-2.687392156599709e-22
-0.477172847437501	-2.672098957447168e-22
-0.477111812281251	-2.6566424638032383e-22
-0.477050777125001	-2.6410281760862638e-22
-0.476989741968751	-2.6252625658926977e-22
-0.476928706812501	-2.6093523898342326e-22
-0.476867671656251	-2.5933039869795255e-22
-0.476806636500001	-2.5771226182573333e-22
-0.476745601343751	-2.560811923823615e-22
-0.476684566187501	-2.544373602851738e-22
-0.476623531031251	-2.527807333282802e-22
-0.476562495875001	-2.5111109025360975e-22
-0.476501460718751	-2.494280563879019e-22
-0.476440425562501	-2.4773115928538726e-22
-0.476379390406251	-2.4601989448862097e-22
-0.476318355250001	-2.4429379401740683e-22
-0.476257320093751	-2.4255249333724245e-22
-0.476196284937501	-2.4079578697572233e-22
-0.476135249781251	-2.3902366209577164e-22
-0.476074214625001	-2.3723630960472493e-22
-0.476013179468751	-2.354341145475049e-22
-0.475952144312501	-2.3361762351141706e-22
-0.475891109156251	-2.3178749189761696e-22
-0.475830074000001	-2.299444187907115e-22
-0.475769038843751	-2.280890774782014e-22
-0.475708003687501	-2.262220491356226e-22
-0.475646968531251	-2.243437646878565e-22
-0.475585933375001	-2.2245446136759402e-22
-0.475524898218751	-2.205541639429418e-22
-0.475463863062501	-2.1864269435227885e-22
-0.475402827906251	-2.167197042731426e-22
-0.475341792750001	-2.147847255328616e-22
-0.475280757593751	-2.128372350917474e-22
-0.475219722437501	-2.108767283373609e-22
-0.475158687281251	-2.0890279149414223e-22
-0.475097652125001	-2.0691516305121582e-22
-0.475036616968751	-2.0491377711041674e-22
-0.474975581812501	-2.0289878460616083e-22
-0.474914546656251	-2.0087054880576501e-22
-0.474853511500001	-1.9882961513558497e-22
-0.474792476343751	-1.9677666029865812e-22
-0.474731441187501	-1.947124271692894e-22
-0.474670406031251	-1.9263765185907633e-22
-0.474609370875001	-1.9055298948211904e-22
-0.474548335718751	-1.884589475119567e-22
-0.474487300562501	-1.8635583647141804e-22
-0.474426265406251	-1.8424374410607643e-22
-0.474365230250001	-1.8212253715675586e-22
-0.474304195093751	-1.7999189094401788e-22
-0.474243159937501	-1.7785134092767378e-22
-0.474182124781251	-1.7570034986860127e-22
-0.474121089625001	-1.7353838432608536e-22
-0.474060054468751	-1.713649916806273e-22
-0.473999019312501	-1.69179867548279e-22
-0.473937984156251	-1.669829060692005e-22
-0.473876949000001	-1.6477422823894957e-22
-0.473815913843751	-1.6255418388959063e-22
-0.473754878687501	-1.6032332638856793e-22
-0.473693843531251	-1.580823619787219e-22
-0.473632808375001	-1.5583207899246375e-22
-0.473571773218751	-1.5357326832490102e-22
-0.473510738062501	-1.5130664457328484e-22
-0.473449702906251	-1.4903277334393593e-22
-0.473388667750001	-1.467520148227645e-22
-0.473327632593751	-1.4446449382342885e-22
-0.473266597437501	-1.4217009819652565e-22
-0.473205562281251	-1.3986850411629e-22
-0.473144527125001	-1.3755922725264923e-22
-0.473083491968751	-1.3524169426210328e-22
-0.473022456812501	-1.329153260365547e-22
-0.472961421656251	-1.3057962381222355e-22
-0.472900386500001	-1.2823424508945926e-22
-0.472839351343751	-1.2587905851872432e-22
-0.472778316187501	-1.2351417523125548e-22
-0.472717281031251	-1.2113995476511714e-22
-0.472656245875001	-1.187569817658883e-22
-0.472595210718751	-1.1636601394508636e-22
-0.472534175562501	-1.139679081951102e-22
-0.472473140406251	-1.11563533980868e-22
-0.472412105250001	-1.0915368353578517e-22
-0.472351070093751	-1.0673899012687344e-22
-0.472290034937501	-1.0431986481881444e-22
-0.472228999781251	-1.0189645976705178e-22
-0.472167964625001	-9.946866255709903e-23
-0.472106929468751	-9.70361216028719e-23
-0.472045894312501	-9.459830153870895e-23
-0.471984859156251	-9.215456210959774e-23
-0.471923824000001	-8.970424751028363e-23
-0.471862788843751	-8.724677816358403e-23
-0.471801753687501	-8.47817387680008e-23
-0.471740718531251	-8.23089493556118e-23
-0.471679683375001	-7.982850678396551e-23
-0.471618648218751	-7.734079216513899e-23
-0.471557613062501	-7.484644563692851e-23
-0.471496577906251	-7.234631158853792e-23
-0.471435542750001	-6.984135753473349e-23
-0.471374507593751	-6.733257422641696e-23
