Time	Frequency
-0.5000478064062506	-0.6810019586195661
-0.4999867712500006	-0.6821769248590096
-0.4999257360937506	-0.6834050622116788
-0.4998647009375006	-0.6846877745712112
-0.4998036657812506	-0.6860153034994724
-0.4997426306250006	-0.6873678317801095
-0.4996815954687506	-0.688717733539035
-0.4996205603125006	-0.6900327092324161
-0.4995595251562506	-0.6912794434088699
-0.4994984900000006	-0.6924273638255389
-0.4994374548437506	-0.6934520697654541
-0.4993764196875006	-0.6943380381987773
-0.4993153845312506	-0.6950803023187586
-0.4992543493750006	-0.6956849183611582
-0.4991933142187506	-0.6961681782191645
-0.4991322790625006	-0.6965546693518547
-0.4990712439062506	-0.6968744151141232
-0.4990102087500006	-0.6971594323580348
-0.4989491735937506	-0.6974401053299158
-0.4988881384375006	-0.6977417906526981
-0.4988271032812506	-0.6980820370805128
-0.4987660681250006	-0.698468727514113
-0.4987050329687506	-0.698899340254113
-0.4986439978125006	-0.6993613965648835
-0.4985829626562506	-0.6998340250544958
-0.4985219275000006	-0.7002904459049417
-0.4984608923437506	-0.7007010769364701
-0.4983998571875006	-0.7010368988833824
-0.4983388220312506	-0.7012726933542341
-0.4982777868750006	-0.7013897881636729
-0.4982167517187506	-0.701378007823163
-0.4981557165625006	-0.701236623787209
-0.4980946814062506	-0.7009742207926591
-0.4980336462500006	-0.7006075198533926
-0.4979726110937506	-0.700159311746855
-0.4979115759375006	-0.6996557548327291
-0.4978505407812506	-0.6991233592608137
-0.4977895056250006	-0.6985860062388137
-0.4977284704687506	-0.698062338402938
-0.4976674353125006	-0.6975638070096108
-0.4976064001562506	-0.6970935813045719
-0.4975453650000006	-0.6966464230848314
-0.4974843298437506	-0.6962095155597112
-0.4974232946875006	-0.6957641244927888
-0.4973622595312506	-0.6952878784857031
-0.4973012243750006	-0.6947573947038774
-0.4972401892187506	-0.6941509449951841
-0.4971791540625006	-0.6934508584589368
-0.4971181189062506	-0.6926453950131528
-0.4970570837500006	-0.6917298932859084
-0.4969960485937506	-0.6907070827448508
-0.4969350134375006	-0.6895865475530428
-0.4968739782812506	-0.6883834303184414
-0.4968129431250006	-0.6871165485369976
-0.4967519079687506	-0.6858061530688706
-0.4966908728125006	-0.6844715915014751
-0.4966298376562506	-0.6831291479909606
-0.4965688025000006	-0.681790304795938
-0.4965077673437506	-0.6804606074104554
-0.4964467321875006	-0.6791392370973169
-0.4963856970312506	-0.6778193212268078
-0.4963246618750006	-0.6764889276374711
-0.4962636267187506	-0.6751326046059075
-0.4962025915625006	-0.673733271698027
-0.4961415564062506	-0.6722742343825245
-0.4960805212500006	-0.6707410890044485
-0.4960194860937506	-0.6691233042980868
-0.4959584509375006	-0.6674153052379828
-0.4958974157812506	-0.665616952135318
-0.4958363806250006	-0.6637333849966942
-0.4957753454687506	-0.6617742684162379
-0.4957143103125006	-0.6597525380224479
-0.4956532751562506	-0.6576828136100797
-0.4955922400000006	-0.6555796770805034
-0.4955312048437506	-0.6534560145363368
-0.4954701696875006	-0.6513216050252096
-0.4954091345312506	-0.6491821079430433
-0.4953480993750006	-0.6470385599697941
-0.4952870642187506	-0.6448874304081248
-0.4952260290625006	-0.6427212043184497
-0.4951649939062506	-0.6405293964191948
-0.4951039587500006	-0.6382998668698722
-0.4950429235937506	-0.636020293109487
-0.4949818884375006	-0.6336796240252102
-0.4949208532812506	-0.6312693353969892
-0.4948598181250006	-0.6287843474883786
-0.4947987829687506	-0.6262235183784829
-0.4947377478125006	-0.6235896658531704
-0.4946767126562506	-0.6208891276629064
-0.4946156775000006	-0.6181309338240337
-0.4945546423437506	-0.6153256930695031
-0.4944936071875006	-0.6124843240070106
-0.4944325720312506	-0.6096167979427741
-0.4943715368750006	-0.6067310399977655
-0.4943105017187506	-0.603832092544595
-0.4942494665625006	-0.6009216321688424
-0.4941884314062506	-0.5979978972499157
-0.4941273962500006	-0.5950560224020279
-0.4940663610937506	-0.5920887269826063
-0.4940053259375006	-0.5890872618939705
-0.4939442907812506	-0.5860424926167828
-0.4938832556250006	-0.5829459933895169
-0.4938222204687506	-0.5797910286251767
-0.4937611853125006	-0.5765733098187164
-0.4937001501562506	-0.5732914448971783
-0.4936391150000006	-0.5699470336363718
-0.4935780798437506	-0.5665444111328315
-0.4935170446875006	-0.5630900864952515
-0.4934560095312506	-0.5595919490990515
-0.4933949743750006	-0.5560583374459428
-0.4933339392187506	-0.5524970802074876
-0.4932729040625006	-0.5489146188429966
-0.4932118689062506	-0.5453153190271979
-0.4931508337500006	-0.5417010522009528
-0.4930897985937506	-0.538071081194053
-0.4930287634375006	-0.5344222476329565
-0.4929677282812506	-0.5307494322373847
-0.4929066931250006	-0.5270462315696133
-0.4928456579687506	-0.523305770078497
-0.4927846228125006	-0.5195215483028196
-0.4927235876562506	-0.5156882172216409
-0.4926625525000006	-0.5118021847207115
-0.4926015173437506	-0.5078620038496119
-0.4925404821875006	-0.5038685152829593
-0.4924794470312506	-0.4998247231307854
-0.4924184118750006	-0.4957354180208402
-0.4923573767187506	-0.49160659665503714
-0.4922963415625006	-0.48744474939116667
-0.4922353064062506	-0.4832561204881052
-0.4921742712500006	-0.4790460352170372
-0.4921132360937506	-0.47481833985769134
-0.4920522009375006	-0.47057501131922214
-0.4919911657812506	-0.4663160068025906
-0.4919301306250006	-0.4620393656599389
-0.4918690954687506	-0.45774152669191076
-0.4918080603125006	-0.45341781545796644
-0.4917470251562506	-0.4490630432615384
-0.4916859900000006	-0.4446721506352595
-0.4916249548437506	-0.4402408262000211
-0.4915639196875006	-0.4357660245141977
-0.4915028845312506	-0.43124631755822396
-0.4914418493750006	-0.4266820459588532
-0.4913808142187506	-0.4220752606757976
-0.4913197790625006	-0.4174294702422487
-0.4912587439062506	-0.4127492325784266
-0.4911977087500006	-0.40803963876776866
-0.4911366735937506	-0.40330574584887924
-0.4910756384375006	-0.39855202255650574
-0.4910146032812506	-0.39378187394519365
-0.4909535681250006	-0.388997307202663
-0.4908925329687506	-0.3841987738760025
-0.4908314978125006	-0.3793851995598091
-0.4907704626562506	-0.3745541913918479
-0.4907094275000006	-0.36970238671554934
-0.4906483923437506	-0.36482589986921793
-0.4905873571875006	-0.35992082200811804
-0.4905263220312506	-0.3549837136920934
-0.4904652868750006	-0.35001203028548883
-0.4904042517187506	-0.3450044332479027
-0.4903432165625006	-0.33996094681822125
-0.4902821814062506	-0.3348829458536771
-0.4902211462500006	-0.3297729935720064
-0.4901601110937506	-0.32463455170604283
-0.4900990759375006	-0.3194715927224315
-0.4900380407812506	-0.31428816626482065
-0.4899770056250006	-0.30908797391911585
-0.4899159704687506	-0.30387399063715603
-0.4898549353125006	-0.2986481712624435
-0.4897939001562506	-0.2934112863280645
-0.4897328650000006	-0.2881629092503879
-0.4896718298437506	-0.2829015424454543
-0.4896107946875006	-0.277624859596151
-0.4895497595312506	-0.2723300396230425
-0.4894887243750006	-0.26701414764932246
-0.4894276892187506	-0.2616745129010943
-0.4893666540625006	-0.2563090644626159
-0.4893056189062506	-0.25091658766274444
-0.4892445837500006	-0.24549687998213598
-0.4891835485937506	-0.2400507966255352
-0.4891225134375006	-0.23458016827851516
-0.4890614782812506	-0.22908759691883052
-0.4890004431250006	-0.22357616893067153
-0.4889394079687506	-0.2180491258113805
-0.4888783728125006	-0.21250952876583593
-0.4888173376562506	-0.20695995314074087
-0.4887563025000006	-0.2014022445385166
-0.4886952673437506	-0.19583736403739527
-0.4886342321875006	-0.19026534392919356
-0.4885731970312506	-0.1846853593263044
-0.4885121618750006	-0.1790958970544871
-0.4884511267187506	-0.17349499484261852
-0.4883900915625006	-0.16788052289886113
-0.4883290564062506	-0.16225047510279444
-0.4882680212500006	-0.15660323298694964
-0.4882069860937506	-0.15093777274548836
-0.4881459509375006	-0.14525380637083393
-0.4880849157812506	-0.13955184366402634
-0.4880238806250006	-0.13383315146566307
-0.4879628454687506	-0.12809961948766868
-0.4879018103125006	-0.1223535666356154
-0.4878407751562506	-0.11659750687019589
-0.4877797400000006	-0.1108338987147658
-0.4877187048437506	-0.10506491460894749
-0.4876576696875006	-0.0992922465743203
-0.4875966345312506	-0.09351696187749647
-0.4875355993750006	-0.0877394342689533
-0.4874745642187506	-0.08195936551336284
-0.4874135290625006	-0.07617589543024525
-0.4873524939062506	-0.07038777633857021
-0.4872914587500006	-0.0645935721517848
-0.4872304235937506	-0.058791861050081634
-0.4871693884375006	-0.05298143671758168
-0.4871083532812506	-0.04716148605403907
-0.4870473181250006	-0.04133171614871451
-0.4869862829687506	-0.0354924174769831
-0.4869252478125006	-0.029644452971537356
-0.4868642126562506	-0.023789179442492307
-0.4868031775000006	-0.017928320189710623
-0.4867421423437506	-0.012063793904519818
-0.4866811071875006	-0.0061975207541207136
-0.4866200720312506	-0.00033124438623435506
-0.4865590368750006	0.005533611341899524
-0.4864980017187506	0.011396043836708409
-0.4864369665625006	0.017255528642952944
-0.4863759314062506	0.023112028489461874
-0.4863148962500006	0.028965936965307262
-0.4862538610937506	0.03481795862442359
-0.4861928259375006	0.04066896201903336
-0.4861317907812506	0.046519828514974305
-0.4860707556250006	0.05237130127121132
-0.4860097204687506	0.05822385874483157
-0.4859486853125006	0.06407763413134296
-0.4858876501562506	0.06993237233095892
-0.4858266150000006	0.07578742598741704
-0.4857655798437506	0.08164180511441
-0.4857045446875006	0.08749426609670115
-0.4856435095312506	0.09334341776774346
-0.4855824743750006	0.09918784664762968
-0.4855214392187506	0.10502625191918652
-0.4854604040625006	0.11085755326384353
-0.4853993689062506	0.11668095735646099
-0.4853383337500006	0.1224959937363799
-0.4852772985937506	0.12830251515710667
-0.4852162634375006	0.13410065551500214
-0.4851552282812506	0.13989075157340328
-0.4850941931250006	0.14567323729869766
-0.4850331579687506	0.15144853020097804
-0.4849721228125006	0.15721693231007575
-0.4849110876562506	0.16297855362671138
-0.4848500525000006	0.1687332615061424
-0.4847890173437506	0.17448066144311053
-0.4847279821875006	0.18022011006067917
-0.4846669470312506	0.18595076049830878
-0.4846059118750006	0.19167163673312884
-0.4845448767187506	0.19738172008508387
-0.4844838415625006	0.20308002955713284
-0.4844228064062506	0.20876569114349172
-0.4843617712500006	0.21443799953876885
-0.4843007360937506	0.22009646747851105
-0.4842397009375006	0.22574084438642916
-0.4841786657812506	0.2313710904103171
-0.4841176306250006	0.23698731117573277
-0.4840565954687506	0.24258967707832182
-0.4839955603125006	0.24817835034096172
-0.4839345251562506	0.25375341862673856
-0.4838734900000006	0.25931483167756175
-0.4838124548437506	0.2648623566302289
-0.4837514196875006	0.27039556080569427
-0.4836903845312506	0.27591381957990446
-0.4836293493750006	0.2814163514001135
-0.4835683142187506	0.28690227989513806
-0.4835072790625006	0.2923707115765714
-0.4834462439062506	0.29782081095120494
-0.4833852087500006	0.303251863585681
-0.4833241735937506	0.3086633249269146
-0.4832631384375006	0.31405485010620465
-0.4832021032812506	0.31942629809381984
-0.4831410681250006	0.32477770123613103
-0.4830800329687506	0.3301092055592397
-0.4830189978125006	0.33542100486861043
-0.4829579626562506	0.3407132747425994
-0.4828969275000006	0.3459861005491653
-0.4828358923437506	0.3512394114033415
-0.4827748571875006	0.3564729331536255
-0.4827138220312506	0.3616861674863721
-0.4826527868750006	0.366878409122447
-0.4825917517187506	0.3720487938040813
-0.4825307165625006	0.37719635684692776
-0.4824696814062506	0.38232010640868863
-0.4824086462500006	0.38741911540560336
-0.4823476110937506	0.39249260551683113
-0.4822865759375006	0.39754000181678995
-0.4822255407812506	0.4025609637956347
-0.4821645056250006	0.4075553957967425
-0.4821034704687506	0.4125234244377317
-0.4820424353125006	0.4174653395708246
-0.4819814001562506	0.4223815167185608
-0.4819203650000006	0.42727233640017
-0.4818593298437506	0.4321380995760696
-0.4817982946875006	0.4369789425365707
-0.4817372595312506	0.4417947693698508
-0.4816762243750006	0.4465852201999202
-0.4816151892187506	0.45134967723565694
-0.4815541540625006	0.4560873002302322
-0.4814931189062506	0.4607970874822804
-0.4814320837500006	0.46547795889850735
-0.4813710485937506	0.4701288494688584
-0.4813100134375006	0.47474879756159394
-0.4812489782812506	0.47933701834741455
-0.4811879431250006	0.48389296001946164
-0.4811269079687506	0.48841633494126074
-0.4810658728125006	0.4929071166183428
-0.4810048376562506	0.49736550585752193
-0.4809438025000006	0.5017918708121861
-0.4808827673437506	0.5061866641572683
-0.4808217321875006	0.510550328343702
-0.4807606970312506	0.5148832032956062
-0.4806996618750006	0.5191854514174277
-0.4806386267187506	0.5234570084526065
-0.4805775915625006	0.5276975570066295
-0.4805165564062506	0.5319065241504582
-0.4804555212500006	0.5360831156013971
-0.4803944860937506	0.5402263870883468
-0.4803334509375006	0.5443353325382916
-0.4802724157812506	0.5484089719812991
-0.4802113806250006	0.5524464365108301
-0.4801503454687506	0.5564470446846953
-0.4800893103125006	0.5604103537874487
-0.4800282751562506	0.5643361744058157
-0.4799672400000006	0.5682245532292592
-0.4799062048437506	0.5720757304697636
-0.4798451696875006	0.5758900723995797
-0.4797841345312506	0.5796679902276166
-0.4797230993750006	0.5834098595578573
-0.4796620642187506	0.5871159381887024
-0.4796010290625006	0.5907862911093875
-0.4795399939062506	0.594420750198651
-0.4794789587500006	0.5980189097341462
-0.4794179235937506	0.6015801453215442
-0.4793568884375006	0.6051036621476403
-0.4792958532812506	0.6085885708256078
-0.4792348181250006	0.6120339737027032
-0.4791737829687506	0.6154390480937209
-0.4791127478125006	0.6188031211260767
-0.4790517126562506	0.6221257305191455
-0.4789906775000006	0.625406658140097
-0.4789296423437506	0.6286459285561353
-0.4788686071875006	0.6318437765785505
-0.4788075720312506	0.6350005906602642
-0.4787465368750006	0.6381168381430643
-0.4786855017187506	0.6411929768380014
-0.4786244665625006	0.6442293634575501
-0.4785634314062506	0.6472261762620274
-0.4785023962500006	0.6501833605676414
-0.4784413610937506	0.6531005995669833
-0.4783803259375006	0.6559773188033786
-0.4783192907812506	0.6588127276628726
-0.4782582556250006	0.6616058893570397
-0.4781972204687506	0.6643558099688079
-0.4781361853125006	0.6670615385898103
-0.4780751501562506	0.6697222657980522
-0.4780141150000006	0.672337405218544
-0.4779530798437506	0.6749066499707894
-0.4778920446875006	0.677430000274377
-0.4778310095312506	0.6799077547191452
-0.4777699743750006	0.6823404608461597
-0.4777089392187506	0.6847288314247832
-0.4776479040625006	0.6870736395152623
-0.4775868689062506	0.689375606057927
-0.4775258337500006	0.6916352910311143
-0.4774647985937506	0.6938529980827438
-0.4774037634375006	0.6960287061015435
-0.4773427282812506	0.6981620398802716
-0.4772816931250006	0.7002522829415111
-0.4772206579687506	0.7022984312551809
-0.4771596228125006	0.7042992852677628
-0.4770985876562506	0.7062535702085755
-0.4770375525000006	0.7081600683172036
-0.4769765173437506	0.7100177477547829
-0.4769154821875006	0.7118258743247634
-0.4768544470312506	0.7135840919570248
-0.4767934118750006	0.715292461637576
-0.4767323767187506	0.71695145388224
-0.4766713415625006	0.7185618926357936
-0.4766103064062506	0.7201248536844639
-0.4765492712500006	0.7216415301470279
-0.4764882360937506	0.7231130822874579
-0.4764272009375006	0.7245404881247399
-0.4763661657812506	0.7259244114647536
-0.4763051306250006	0.7272651033223824
-0.4762440954687506	0.7285623490921717
-0.4761830603125006	0.7298154691295973
-0.4761220251562506	0.7310233743833797
-0.4760609900000006	0.7321846715481444
-0.4759999548437506	0.7332978062183524
-0.4759389196875006	0.7343612281016418
-0.4758778845312506	0.7353735597784704
-0.4758168493750006	0.7363337497962756
-0.4757558142187506	0.7372411915566189
-0.4756947790625006	0.7380957932196525
-0.4756337439062506	0.7388979895634111
-0.4755727087500006	0.7396486926389404
-0.4755116735937506	0.740349185659135
-0.4754506384375006	0.7410009722348798
-0.4753896032812506	0.7416055982986354
-0.4753285681250006	0.7421644673837672
-0.4752675329687506	0.742678670747995
-0.4752064978125006	0.743148851804467
-0.4751454626562506	0.7435751211685077
-0.4750844275000006	0.7439570333756629
-0.4750233923437506	0.7442936282412217
-0.4749623571875006	0.744583531523935
-0.4749013220312506	0.7448251043270823
-0.4748402868750006	0.7450166267715167
-0.4747792517187506	0.7451564942738199
-0.4747182165625006	0.7452434008497724
-0.4746571814062506	0.7452764886537299
-0.4745961462500006	0.7452554477819398
-0.4745351110937506	0.7451805534508875
-0.4744740759375006	0.7450526348637927
-0.4744130407812506	0.7448729793703113
-0.4743520056250006	0.7446431839319391
-0.4742909704687506	0.7443649706625343
-0.4742299353125006	0.7440399851265894
-0.4741689001562506	0.7436696018966221
-0.4741078650000006	0.7432547641499355
-0.4740468298437506	0.7427958755258219
-0.4739857946875006	0.7422927543623837
-0.4739247595312506	0.7417446560233051
-0.4738637243750006	0.741150362240458
-0.4738026892187506	0.7405083275644719
-0.4737416540625006	0.7398168643213668
-0.4736806189062506	0.7390743442308779
-0.4736195837500006	0.7382793950045601
-0.4735585485937506	0.7374310676161554
-0.4734975134375006	0.7365289518551055
-0.4734364782812506	0.7355732276520646
-0.4733754431250006	0.7345646489784706
-0.4733144079687506	0.733504460610478
-0.4732533728125006	0.7323942533940004
-0.4731923376562506	0.7312357773118833
-0.4731313025000006	0.7300307397382385
-0.4730702673437506	0.7287806110515578
-0.4730092321875006	0.7274864565017576
-0.4729481970312506	0.7261488163255556
-0.4728871618750006	0.7247676520080804
-0.4728261267187506	0.723342363426164
-0.4727650915625006	0.7218718711275491
-0.4727040564062506	0.7203547542025411
-0.4726430212500006	0.7187894305760775
-0.4725819860937506	0.7171743597550568
-0.4725209509375006	0.715508241175165
-0.4724599157812506	0.7137901823105531
-0.4723988806250006	0.7120198187076368
-0.4723378454687506	0.7101973703292981
-0.4722768103125006	0.7083236243170994
-0.4722157751562506	0.7063998496570824
-0.4721547400000006	0.7044276570729451
-0.4720937048437506	0.7024088190899833
-0.4720326696875006	0.7003450677526905
-0.4719716345312506	0.6982378941356499
-0.4719105993750006	0.696088380883067
-0.4718495642187506	0.6938970903541264
-0.4717885290625006	0.6916640159933196
-0.4717274939062506	0.6893886000017173
-0.4716664587500006	0.6870698175505979
-0.4716054235937506	0.6847063188225772
-0.4715443884375006	0.6822966094735335
-0.4714833532812506	0.6798392455466309
-0.4714223181250006	0.6773330235552935
-0.4713612829687506	0.674777146131645
-0.4713002478125006	0.6721713394515375
-0.4712392126562506	0.6695159075787388
-0.4711781775000006	0.6668117149037277
-0.4711171423437506	0.6640600963728536
-0.4710561071875006	0.6612627172439037
-0.4709950720312506	0.6584213995269469
-0.4709340368750006	0.6555379217387847
-0.4708730017187506	0.6526138196814193
-0.4708119665625006	0.6496502214544586
-0.4707509314062506	0.6466477328971726
-0.4706898962500006	0.6436063849124862
-0.4706288610937506	0.6405256501933562
-0.4705678259375006	0.6374045276246673
-0.4705067907812506	0.6342416865073174
-0.4704457556250006	0.6310356537488412
-0.4703847204687506	0.6277850170090894
-0.4703236853125006	0.6244886165663509
-0.4702626501562506	0.6211457084665765
-0.4702016150000006	0.6177560849245872
-0.4701405798437506	0.6143201314173625
-0.4700795446875006	0.6108388073455843
-0.4700185095312506	0.6073135566303507
-0.4699574743750006	0.6037461599810505
-0.4698964392187506	0.6001385440972462
-0.4698354040625006	0.5964925749097474
-0.4697743689062506	0.5928098574685494
-0.4697133337500006	0.5890915630570736
-0.4696522985937506	0.5853383162116911
-0.4695912634375006	0.5815501521977199
-0.4695302282812506	0.5777265331533651
-0.4694691931250006	0.5738664348343508
-0.4694081579687506	0.5699685078690477
-0.4693471228125006	0.5660312750164371
