Time	Frequency
-0.5000305137812511	-0.4490799661313107
-0.4999694786250011	-0.4453931604368538
-0.4999084434687511	-0.4415897959851363
-0.4998474083125011	-0.4376698403605882
-0.4997863731562511	-0.43364272958808125
-0.4997253380000011	-0.4295261350938342
-0.4996643028437511	-0.4253439091244691
-0.4996032676875011	-0.42112344024272064
-0.4995422325312511	-0.4168927118086435
-0.4994811973750011	-0.41267738153092115
-0.4994201622187511	-0.4084981956867201
-0.4993591270625011	-0.40436900456761293
-0.4992980919062511	-0.40029555960499097
-0.4992370567500011	-0.3962751858366339
-0.4991760215937511	-0.39229734433452657
-0.4991149864375011	-0.3883450090782799
-0.4990539512812511	-0.3843966885097004
-0.4989929161250011	-0.3804288505649085
-0.4989318809687511	-0.37641848091891456
-0.4988708458125011	-0.3723455077915648
-0.4988098106562511	-0.36819484446228573
-0.4987487755000011	-0.3639578421796207
-0.4986877403437511	-0.35963301407955245
-0.4986267051875011	-0.35522597752920965
-0.4985656700312511	-0.35074865111219095
-0.4985046348750011	-0.3462178109263136
-0.4984435997187511	-0.34165317583575916
-0.4983825645625011	-0.33707524721758475
-0.4983215294062511	-0.3325031414066755
-0.4982604942500011	-0.32795263886266185
-0.4981994590937511	-0.32343464722728005
-0.4981384239375011	-0.3189542268337556
-0.4980773887812511	-0.3145102707819362
-0.4980163536250011	-0.31009585845093995
-0.4979553184687511	-0.305699214035877
-0.4978942833125011	-0.3013051471701626
-0.4978332481562511	-0.2968968140416104
-0.4977722130000011	-0.29245759624163564
-0.4977111778437511	-0.2879728916133982
-0.4976501426875011	-0.2834316357890139
-0.4975891075312511	-0.278827399669267
-0.4975280723750011	-0.2741589525351891
-0.4974670372187511	-0.2694302450072584
-0.4974060020625011	-0.26464983754750726
-0.4973449669062511	-0.2598298586074048
-0.4972839317500011	-0.25498461446483156
-0.4972228965937511	-0.25012900571510105
-0.4971618614375011	-0.2452769296909957
-0.4971008262812511	-0.24043984543759933
-0.4970397911250011	-0.23562564819482495
-0.4969787559687511	-0.23083796334684248
-0.4969177208125011	-0.22607592559743925
-0.4968566856562511	-0.22133444883534736
-0.4967956505000011	-0.2166049391467865
-0.4967346153437511	-0.21187636649722863
-0.4966735801875011	-0.20713656872175573
-0.4966125450312511	-0.20237363154096263
-0.4965515098750011	-0.1975771951679975
-0.4964904747187511	-0.19273955513936883
-0.4964294395625011	-0.18785644511181976
-0.4963684044062511	-0.1829274234330499
-0.4963073692500011	-0.17795582940644664
-0.4962463340937511	-0.17294832834945167
-0.4961852989375011	-0.16791411050621546
-0.4961242637812511	-0.1628638429627889
-0.4960632286250011	-0.15780849430548188
-0.4960021934687511	-0.15275815882432575
-0.4959411583125011	-0.1477210093055953
-0.4958801231562511	-0.14270249097342178
-0.4958190880000011	-0.13770484184067697
-0.4957580528437511	-0.1327269858766528
-0.4956970176875011	-0.12776478630112512
-0.4956359825312511	-0.12281161304763019
-0.4955749473750011	-0.11785916541536813
-0.4955139122187511	-0.11289846090788784
-0.4954528770625011	-0.10792087488124756
-0.4953918419062511	-0.10291910945234477
-0.4953308067500011	-0.0978879859108625
-0.4952697715937511	-0.09282498061998343
-0.4952087364375011	-0.08773045358993431
-0.4951477012812511	-0.08260755529805333
-0.4950866661250011	-0.07746183109746863
-0.4950256309687511	-0.0723005777239832
-0.4949645958125011	-0.06713202862177076
-0.4949035606562511	-0.061964451831703515
-0.4948425255000011	-0.056805264500710356
-0.4947814903437511	-0.05166027217519424
-0.4947204551875011	-0.046533106175311555
-0.4946594200312511	-0.04142490785133178
-0.4945983848750011	-0.03633429990809696
-0.4945373497187511	-0.03125764410822828
-0.4944763145625011	-0.026189537856989804
-0.4944152794062511	-0.021123487130118447
-0.4943542442500011	-0.016052680016954805
-0.4942932090937511	-0.010970772733428405
-0.4942321739375011	-0.005872605737576141
-0.4941711387812511	-0.0007547794728071861
-0.4941101036250011	0.004383973801547361
-0.4940490684687511	0.009542670319988067
-0.4939880333125011	0.014718212628623648
-0.4939269981562511	0.019905751775388513
-0.4938659630000011	0.025099231341234346
-0.4938049278437511	0.030292055973724193
-0.4937438926875011	0.03547780360968542
-0.4936828575312511	0.04065089965181953
-0.4936218223750011	0.04580718394178052
-0.4935607872187511	0.05094430807008736
-0.4934997520625011	0.056061919259230514
-0.4934387169062511	0.06116161946873694
-0.4933776817500011	0.06624670964027106
-0.4933166465937511	0.07132175257820028
-0.4932556114375011	0.07639201287536253
-0.4931945762812511	0.08146283074348723
-0.4931335411250011	0.08653899239178067
-0.4930725059687511	0.09162417949232281
-0.4930114708125011	0.09672056071338118
-0.4929504356562511	0.10182855457220774
-0.4928894005000011	0.10694678507512562
-0.4928283653437511	0.11207223779184346
-0.4927673301875011	0.11720059593722938
-0.4927062950312511	0.12232671518283145
-0.4926452598750011	0.1274451801041312
-0.4925842247187511	0.13255087482581526
-0.4925231895625011	0.13763950699491193
-0.4924621544062511	0.14270803548737448
-0.4924011192500011	0.14775495281291381
-0.4923400840937511	0.1527803851642275
-0.4922790489375011	0.15778600833800058
-0.4922180137812511	0.16277480141161696
-0.4921569786250011	0.16775066344717224
-0.4920959434687511	0.172717931922583
-0.4920349083125011	0.17768086219000248
-0.4919738731562511	0.1826431291953767
-0.4919128380000011	0.187607401783924
-0.4918518028437511	0.1925750366995062
-0.4917907676875011	0.19754592766491635
-0.4917297325312511	0.20251851991948933
-0.4916686973750011	0.20748998164457194
-0.4916076622187511	0.21245650861987242
-0.4915466270625011	0.21741372985272647
-0.4914855919062511	0.2223571722531746
-0.4914245567500011	0.227282726617207
-0.4913635215937511	0.2321870602659469
-0.4913024864375011	0.23706793700044032
-0.4912414512812511	0.24192441024560185
-0.4911804161250011	0.24675686857889192
-0.4911193809687511	0.25156693312987366
-0.4910583458125011	0.25635722096296165
-0.4909973106562511	0.261131007151798
-0.4909362755000011	0.2658918223750036
-0.4908752403437511	0.27064302562388903
-0.4908142051875011	0.2753874067265544
-0.4907531700312511	0.28012686232101036
-0.4906921348750011	0.2848621744496921
-0.4906310997187511	0.2895929193886247
-0.4905700645625011	0.2943175135376833
-0.4905090294062511	0.29903338428293735
-0.4904479942500011	0.3037372467383383
-0.4903869590937511	0.3084254525231442
-0.4903259239375011	0.31309436889636033
-0.4902648887812511	0.31774075017341286
-0.4902038536250011	0.3223620607538195
-0.4901428184687511	0.32695670937179055
-0.4900817833125011	0.3315241699278701
-0.4900207481562511	0.336064983336794
-0.4899597130000011	0.3405806475306952
-0.4898986778437511	0.3450734068229018
-0.4898376426875011	0.3495459575394896
-0.4897766075312511	0.3540011069618432
-0.4897155723750011	0.35844143124827577
-0.4896545372187511	0.36286896613030684
-0.4895935020625011	0.367284963135744
-0.4895324669062511	0.37168974184876585
-0.4894714317500011	0.3760826513092635
-0.4894103965937511	0.3804621397141987
-0.4893493614375011	0.38482591814598854
-0.4892883262812511	0.3891711973281246
-0.4892272911250011	0.39349497800640326
-0.4891662559687511	0.39779436495134085
-0.4891052208125011	0.40206686393179153
-0.4890441856562511	0.4063106232385807
-0.4889831505000011	0.4105245931682776
-0.4889221153437511	0.41470859557753714
-0.4888610801875011	0.4188633011870547
-0.4888000450312511	0.4229901085424543
-0.4887390098750011	0.4270909389571125
-0.4886779747187511	0.43116798596564104
-0.4886169395625011	0.43522344499112425
-0.4885559044062511	0.43925924076432143
-0.4884948692500011	0.4432767906909525
-0.4884338340937511	0.4472768360017977
-0.4883727989375011	0.4512593480696929
-0.4883117637812511	0.45522351806826944
-0.4882507286250011	0.4591678372447805
-0.4881896934687511	0.4630902571068539
-0.4881286583125011	0.4669884048969126
-0.4880676231562511	0.4708598259936092
-0.4880065880000011	0.4747022291785682
-0.4879455528437511	0.47851371315924524
-0.4878845176875011	0.48229294802646594
-0.4878234825312511	0.48603928752983455
-0.4877624473750011	0.48975280065591376
-0.4877014122187511	0.4934342234748039
-0.4876403770625011	0.4970848401329347
-0.4875793419062511	0.5007063067014547
-0.4875183067500011	0.5043004369334595
-0.4874572715937511	0.5078689755559497
-0.4873962364375011	0.511413386991738
-0.4873352012812511	0.5149346788829195
-0.4872741661250011	0.5184332737464737
-0.4872131309687511	0.521908947347143
-0.4871520958125011	0.5253608443120189
-0.4870910606562511	0.528787562170627
-0.4870300255000011	0.5321872923463934
-0.4869689903437511	0.5355580065605466
-0.4869079551875011	0.5388976656466846
-0.4868469200312511	0.5422044222425284
-0.4867858848750011	0.5454767932561798
-0.4867248497187511	0.5487137895094318
-0.4866638145625011	0.5519149971082213
-0.4866027794062511	0.5550805971936825
-0.4865417442500011	0.5582113131446924
-0.4864807090937511	0.5613082960222696
-0.4864196739375011	0.5643729699810267
-0.4863586387812511	0.5674068534349198
-0.4862976036250011	0.570411370821904
-0.4862365684687511	0.5733876775255787
-0.4861755333125011	0.5763365205836597
-0.4861144981562511	0.5792581478002601
-0.4860534630000011	0.5821522710710637
-0.4859924278437511	0.5850180877191916
-0.4859313926875011	0.5878543588442183
-0.4858703575312511	0.5906595350751598
-0.4858093223750011	0.5934319128254242
-0.4857482872187511	0.5961698025294188
-0.4856872520625011	0.5988716914505772
-0.4856262169062511	0.6015363863329513
-0.4855651817500011	0.6041631220848048
-0.4855041465937511	0.6067516201694582
-0.4854431114375011	0.6093020886919406
-0.4853820762812511	0.6118151711524451
-0.4853210411250011	0.6142918529713977
-0.4852600059687511	0.6167333330731258
-0.4851989708125011	0.6191408740051939
-0.4851379356562511	0.6215156484655467
-0.4850769005000011	0.6238585994475333
-0.4850158653437511	0.6261703284056043
-0.4849548301875011	0.6284510215196564
-0.4848937950312511	0.6307004225452421
-0.4848327598750011	0.6329178559742247
-0.4847717247187511	0.6351022941709719
-0.4847106895625011	0.6372524594001585
-0.4846496544062511	0.639366952388174
-0.4845886192500011	0.6414443931811843
-0.4845275840937511	0.643483556099711
-0.4844665489375011	0.6454834832942804
-0.4844055137812511	0.647443566378411
-0.4843444786250011	0.6493635898538442
-0.4842834434687511	0.6512437329645964
-0.4842224083125011	0.6530845302595105
-0.4841613731562511	0.654886794900157
-0.4841003380000011	0.6566515136004977
-0.4840393028437511	0.6583797254756973
-0.4839782676875011	0.6600723972634658
-0.4839172325312511	0.6617303090049246
-0.4838561973750011	0.6633539628084311
-0.4837951622187511	0.664943522571412
-0.4837341270625011	0.666498790251287
-0.4836730919062511	0.6680192210884832
-0.4836120567500011	0.6695039759507623
-0.4835510215937511	0.6709520048314631
-0.4834899864375011	0.6723621515233522
-0.4834289512812511	0.6737332685356573
-0.4833679161250011	0.6750643305680274
-0.4833068809687511	0.6763545337555692
-0.4832458458125011	0.6776033705807545
-0.4831848106562511	0.6788106738333101
-0.4831237755000011	0.6799766248519515
-0.4830627403437511	0.6811017246671981
-0.4830017051875011	0.6821867313542475
-0.4829406700312511	0.683232570564047
-0.4828796348750011	0.6842402288980677
-0.4828185997187511	0.6852106415509223
-0.4827575645625011	0.6861445860505191
-0.4826965294062511	0.6870425931137719
-0.4826354942500011	0.687904883966843
-0.4825744590937511	0.6887313406879876
-0.4825134239375011	0.6895215121741688
-0.4824523887812511	0.6902746547638655
-0.4823913536250011	0.6909898032445227
-0.4823303184687511	0.6916658643555914
-0.4822692833125011	0.6923017231377433
-0.4822082481562511	0.692896352140322
-0.4821472130000011	0.6934489123516296
-0.4820861778437511	0.6939588349257505
-0.4820251426875011	0.6944258756357304
-0.4819641075312511	0.694850136547475
-0.4819030723750011	0.6952320520296379
-0.4818420372187511	0.6955723406279456
-0.4817810020625011	0.6958719282909329
-0.4817199669062511	0.6961318513387439
-0.4816589317500011	0.6963531496578882
-0.4815978965937511	0.6965367599710213
-0.4815368614375011	0.6966834184139984
-0.4814758262812511	0.6967935833309384
-0.4814147911250011	0.6968673879593914
-0.4813537559687511	0.6969046271421585
-0.4812927208125011	0.6969047777954499
-0.4812316856562511	0.6968670514352459
-0.4811706505000011	0.6967904741604366
-0.4811096153437511	0.6966739847280705
-0.4810485801875011	0.6965165402738177
-0.4809875450312511	0.6963172200843837
-0.4809265098750011	0.6960753168831088
-0.4808654747187511	0.6957904059473672
-0.4808044395625011	0.6954623852684909
-0.4807434044062511	0.6950914821013217
-0.4806823692500011	0.6946782257313266
-0.4806213340937511	0.6942233908692206
-0.4805602989375011	0.693727916759061
-0.4804992637812511	0.6931928101236381
-0.4804382286250011	0.6926190441347873
-0.4803771934687511	0.6920074644583865
-0.4803161583125011	0.691358710344943
-0.4802551231562511	0.6906731571423655
-0.4801940880000011	0.6899508854662704
-0.4801330528437511	0.6891916808079867
-0.4800720176875011	0.688395066048253
-0.4800109825312511	0.6875603626525515
-0.4799499473750011	0.6866867691668682
-0.4798889122187511	0.6857734494270229
-0.4798278770625011	0.6848196242241108
-0.4797668419062511	0.6838246541485902
-0.4797058067500011	0.682788103358145
-0.4796447715937511	0.6817097811794081
-0.4795837364375011	0.6805897586900103
-0.4795227012812511	0.6794283562187688
-0.4794616661250011	0.6782261035430925
-0.4794006309687511	0.6769836791825017
-0.4793395958125011	0.6757018364744238
-0.4792785606562511	0.6743813259233418
-0.4792175255000011	0.673022822986778
-0.4791564903437511	0.6716268684186343
-0.4790954551875011	0.6701938253694986
-0.4790344200312511	0.6687238577926966
-0.4789733848750011	0.6672169334498392
-0.4789123497187511	0.6656728473424737
-0.4788513145625011	0.6640912623385087
-0.4787902794062511	0.6624717657740304
-0.4787292442500011	0.660813933163905
-0.4786682090937511	0.6591173891627609
-0.4786071739375011	0.6573818579217169
-0.4785461387812511	0.6556071963568787
-0.4784851036250011	0.6537934101282539
-0.4784240684687511	0.6519406525151943
-0.4783630333125011	0.6500492053474359
-0.4783019981562511	0.648119445208071
-0.4782409630000011	0.6461517999649178
-0.4781799278437511	0.644146700113579
-0.4781188926875011	0.6421045308351392
-0.4780578575312511	0.640025592728391
-0.4779968223750011	0.6379100773165195
-0.4779357872187511	0.6357580609830391
-0.4778747520625011	0.6335695175741984
-0.4778137169062511	0.6313443451186909
-0.4777526817500011	0.6290824025398507
-0.4776916465937511	0.6267835519696746
-0.4776306114375011	0.6244477003868621
-0.4775695762812511	0.6220748352005687
-0.4775085411250011	0.6196650485964177
-0.4774475059687511	0.6172185475909817
-0.4773864708125011	0.6147356483637806
-0.4773254356562511	0.6122167531674223
-0.4772644005000011	0.6096623131731509
-0.4772033653437511	0.6070727858516899
-0.4771423301875011	0.6044485896660374
-0.4770812950312511	0.6017900576716558
-0.4770202598750011	0.5990974039056207
-0.4769592247187511	0.596370709518062
-0.4768981895625011	0.5936099214318818
-0.4768371544062511	0.5908148637837609
-0.4767761192500011	0.587985266672748
-0.4767150840937511	0.5851208136596142
-0.4766540489375011	0.5822212022871911
-0.4765930137812511	0.5792862017830815
-0.4765319786250011	0.5763157009234263
-0.4764709434687511	0.5733097480191823
-0.4764099083125011	0.5702685754955344
-0.4763488731562511	0.5671925988631712
-0.4762878380000011	0.5640823937620104
-0.4762268028437511	0.5609386607189477
-0.4761657676875011	0.5577621729704133
-0.4761047325312511	0.554553704036783
-0.4760436973750011	0.5513139529151078
-0.4759826622187511	0.5480434818250551
-0.4759216270625011	0.5447426698701117
-0.4758605919062511	0.5414116861427487
-0.4757995567500011	0.5380504831110642
-0.4757385215937511	0.534658811552678
-0.4756774864375011	0.5312362588222396
-0.4756164512812511	0.5277823109501154
-0.4755554161250011	0.5242964331232738
-0.4754943809687511	0.520778151911659
-0.4754333458125011	0.5172271282960714
-0.4753723106562511	0.5136432190926857
-0.4753112755000011	0.5100265206547002
-0.4752502403437511	0.5063773880059398
-0.4751892051875011	0.5026964246547636
-0.4751281700312511	0.4989844420681613
-0.4750671348750011	0.4952423939349164
-0.4750060997187511	0.4914712933646867
-0.4749450645625011	0.48767212356432715
-0.4748840294062511	0.4838457559678943
-0.4748229942500011	0.47999288221865577
-0.4747619590937511	0.47611395717367705
-0.4747009239375011	0.47220916040735583
-0.4746398887812511	0.4682783905926532
-0.4745788536250011	0.46432129480309464
-0.4745178184687511	0.46033732816495937
-0.4744567833125011	0.45632583806636273
-0.4743957481562511	0.4522861591133971
-0.4743347130000011	0.4482177073503798
-0.4742736778437511	0.4441200688125273
-0.4742126426875011	0.43999307253470954
-0.4741516075312511	0.4358368384816043
-0.4740905723750011	0.4316517961088047
-0.4740295372187511	0.4274386690789844
-0.4739685020625011	0.4231984249275121
-0.4739074669062511	0.41893219821668914
-0.4738464317500011	0.4146411988236165
-0.4737853965937511	0.41032660851264774
-0.4737243614375011	0.4059894722412109
-0.4736633262812511	0.40163060501199077
-0.4736022911250011	0.3972505280762809
-0.4735412559687511	0.39284943395865196
-0.4734802208125011	0.3884271856185231
-0.4734191856562511	0.383983354184303
-0.4733581505000011	0.3795172837275134
-0.4732971153437511	0.3750281779357781
-0.4732360801875011	0.3705152108587233
-0.4731750450312511	0.3659776457221117
-0.4731140098750011	0.36141494686223213
-0.4730529747187511	0.3568268782886159
-0.4729919395625011	0.3522135682561824
-0.4729309044062511	0.3475755252403731
-0.4728698692500011	0.3429136122421644
-0.4728088340937511	0.3382289873866666
-0.4727477989375011	0.33352301502580356
-0.4726867637812511	0.328797153304771
-0.4726257286250011	0.324052825190646
-0.4725646934687511	0.31929128610627866
-0.4725036583125011	0.3145135100624218
-0.4724426231562511	0.3097201099466345
-0.4723815880000011	0.30491129352510765
-0.4723205528437511	0.3000868581080527
-0.4722595176875011	0.2952462321564956
-0.4721984825312511	0.29038856314672745
-0.4721374473750011	0.285512837089221
-0.4720764122187511	0.28061801181570073
-0.4720153770625011	0.27570315635925
-0.4719543419062511	0.2707675886048679
-0.4718933067500011	0.26581098767989453
-0.4718322715937511	0.2608334639143956
-0.4717712364375011	0.25583558529939704
-0.4717102012812511	0.2508183567270719
-0.4716491661250011	0.24578315317584212
-0.4715881309687511	0.24073161382148844
-0.4715270958125011	0.23566549880808782
-0.4714660606562511	0.23058652425670534
-0.4714050255000011	0.22549620405336906
-0.4713439903437511	0.220395713623822
-0.4712829551875011	0.21528578478651092
-0.4712219200312511	0.21016664775292462
-0.4711608848750011	0.20503803111485702
-0.4710998497187511	0.19989921601869542
-0.4710388145625011	0.19474913513489592
-0.4709777794062511	0.18958650933627505
-0.4709167442500011	0.18441001224496012
-0.4708557090937511	0.17921844633989972
-0.4707946739375011	0.1740109092990873
-0.4707336387812511	0.16878693060028105
-0.4706726036250011	0.16354656257504518
-0.4706115684687511	0.15829041291903456
-0.4705505333125011	0.15301961869389016
-0.4704894981562511	0.14773577137335372
-0.4704284630000011	0.14244079229436965
-0.4703674278437511	0.1371367594068391
-0.4703063926875011	0.13182571095341694
-0.4702453575312511	0.12650945929110005
-0.4701843223750011	0.1211894295171917
-0.4701232872187511	0.1158665309677467
-0.4700622520625011	0.11054107779700285
-0.4700012169062511	0.10521277180834687
-0.4699401817500011	0.09988075357526524
-0.4698791465937511	0.09454372185207006
-0.4698181114375011	0.08920010564752588
-0.4697570762812511	0.08384826180631696
-0.4696960411250011	0.07848667989584818
-0.4696350059687511	0.07311418331918218
-0.4695739708125011	0.06773010012267948
-0.4695129356562511	0.062334376433446886
-0.4694519005000011	0.0569276277740103
-0.4693908653437511	0.051511122069439426
-0.4693298301875011	0.04608668443733058
-0.4692687950312511	0.040656536074050356
