Time	Frequency
-0.5000534025312504	-0.4985592401521723
-0.4999923673750004	-0.502677325190804
-0.4999313322187504	-0.5067535179413117
-0.4998702970625004	-0.5107772303840865
-0.4998092619062504	-0.514758164351235
-0.4997482267500004	-0.5187135042660401
-0.4996871915937504	-0.5226501883283171
-0.4996261564375004	-0.5265599903973183
-0.4995651212812504	-0.530429927328129
-0.4995040861250004	-0.5342552673668741
-0.4994430509687504	-0.5380421321544891
-0.4993820158125004	-0.5417991234193044
-0.4993209806562504	-0.5455281933498509
-0.4992599455000004	-0.5492238909374065
-0.4991989103437504	-0.5528801792105437
-0.4991378751875004	-0.5564965107595841
-0.4990768400312504	-0.560077059216798
-0.4990158048750004	-0.5636251046655697
-0.4989547697187504	-0.5671392577878005
-0.4988937345625004	-0.5706152965592951
-0.4988326994062504	-0.5740509368144961
-0.4987716642500004	-0.5774480054279297
-0.4987106290937504	-0.5808099026527094
-0.4986495939375004	-0.5841375597700178
-0.4985885587812504	-0.5874283682425037
-0.4985275236250004	-0.5906789220101243
-0.4984664884687504	-0.5938883438740696
-0.4984054533125004	-0.5970587080902006
-0.4983444181562504	-0.600192408725678
-0.4982833830000004	-0.6032894973840084
-0.4982223478437504	-0.6063477379211332
-0.4981613126875004	-0.6093649788103587
-0.4981002775312504	-0.612341087186444
-0.4980392423750004	-0.6152775325662592
-0.4979782072187504	-0.6181754134526632
-0.4979171720625004	-0.6210341921476038
-0.4978561369062504	-0.623852318720514
-0.4977951017500004	-0.6266288123283397
-0.4977340665937504	-0.629364017970177
-0.4976730314375004	-0.6320588448734938
-0.4976119962812504	-0.6347134894212153
-0.4975509611250004	-0.6373270876332219
-0.4974899259687504	-0.639898585256781
-0.4974288908125004	-0.6424277581374199
-0.4973678556562504	-0.6449152165375758
-0.4973068205000004	-0.6473614508549699
-0.4972457853437504	-0.649766065365383
-0.4971847501875004	-0.6521280471413162
-0.4971237150312504	-0.6544467217354194
-0.4970626798750004	-0.656722321099474
-0.4970016447187504	-0.6589555512511442
-0.4969406095625004	-0.6611466577799403
-0.4968795744062504	-0.6632950151112501
-0.4968185392500004	-0.6653996522005224
-0.4967575040937504	-0.6674600988818258
-0.4966964689375004	-0.6694766586742308
-0.4966354337812504	-0.671449899245863
-0.4965743986250004	-0.6733799427443292
-0.4965133634687504	-0.6752662710721691
-0.4964523283125004	-0.6771081866142111
-0.4963912931562504	-0.6789053793675958
-0.4963302580000004	-0.6806580147040417
-0.4962692228437504	-0.682366345621188
-0.4962081876875004	-0.6840303184977102
-0.4961471525312504	-0.68564957408191
-0.4960861173750004	-0.6872237934257522
-0.4960250822187504	-0.688752948537882
-0.4959640470625004	-0.6902371515448104
-0.4959030119062504	-0.6916763219559751
-0.4958419767500004	-0.6930701189654163
-0.4957809415937504	-0.6944182201385217
-0.4957199064375004	-0.6957205962949305
-0.4956588712812504	-0.6969774629085932
-0.4955978361250004	-0.6981889567937696
-0.4955368009687504	-0.699354887798106
-0.4954757658125004	-0.700474847960178
-0.4954147306562504	-0.7015485545703137
-0.4953536955000004	-0.7025760373299464
-0.4952926603437504	-0.7035574784003614
-0.4952316251875004	-0.7044928988628055
-0.4951705900312504	-0.7053820457120332
-0.4951095548750004	-0.7062246236243263
-0.4950485197187504	-0.7070206032389492
-0.4949874845625004	-0.7077702142188254
-0.4949264494062504	-0.7084736202189825
-0.4948654142500004	-0.7091306579392572
-0.4948043790937504	-0.7097409191301735
-0.4947433439375004	-0.7103040784785243
-0.4946823087812504	-0.7108201512003018
-0.4946212736250004	-0.7112894387579398
-0.4945602384687504	-0.7117122030230397
-0.4944992033125004	-0.7120883803735631
-0.4944381681562504	-0.7124176287165815
-0.4943771330000004	-0.7126996593510161
-0.4943160978437504	-0.7129344979619631
-0.4942550626875004	-0.7131223975313105
-0.4941940275312504	-0.713263498960433
-0.4941329923750004	-0.713357610823307
-0.4940719572187504	-0.7134043778180867
-0.4940109220625004	-0.7134036745500737
-0.4939498869062504	-0.7133557747166991
-0.4938888517500004	-0.7132610972730736
-0.4938278165937504	-0.7131197913315166
-0.4937667814375004	-0.7129315656945043
-0.4937057462812504	-0.71269592759679
-0.4936447111250004	-0.7124126161086314
-0.4935836759687504	-0.7120818307581965
-0.4935226408125004	-0.7117040523369529
-0.4934616056562504	-0.7112796268141869
-0.4934005705000004	-0.7108084882904889
-0.4933395353437504	-0.7102902660407343
-0.4932785001875004	-0.7097246492214868
-0.4932174650312504	-0.7091116678082988
-0.4931564298750004	-0.7084516697520604
-0.4930953947187504	-0.7077450147056711
-0.4930343595625004	-0.7069917490746092
-0.4929733244062504	-0.7061915938857463
-0.4929122892500004	-0.7053442619578211
-0.4928512540937504	-0.7044497722949156
-0.4927902189375004	-0.703508465745095
-0.4927291837812504	-0.7025207351519206
-0.4926681486250004	-0.7014867272338449
-0.4926071134687504	-0.7004062611198953
-0.4925460783125004	-0.6992790275257414
-0.4924850431562504	-0.6981049145396799
-0.4924240080000004	-0.6968841643485149
-0.4923629728437504	-0.6956171930934857
-0.4923019376875004	-0.6943042493498249
-0.4922409025312504	-0.6929452545484619
-0.4921798673750004	-0.6915399732959945
-0.4921188322187504	-0.6900883505130414
-0.4920577970625004	-0.6885906696533625
-0.4919967619062504	-0.6870473364410781
-0.4919357267500004	-0.6854585228100005
-0.4918746915937504	-0.6838240632230936
-0.4918136564375004	-0.6821437101788607
-0.4917526212812504	-0.6804174947575615
-0.4916915861250004	-0.6786458114282532
-0.4916305509687504	-0.6768291182590143
-0.4915695158125004	-0.6749675658731639
-0.4915084806562504	-0.6730609519714206
-0.4914474455000004	-0.6711090539211859
-0.4913864103437504	-0.669111983589002
-0.4913253751875004	-0.6670701857564947
-0.4912643400312504	-0.6649840960783601
-0.4912033048750004	-0.6628538233465336
-0.4911422697187504	-0.6606791669199497
-0.4910812345625004	-0.6584599455667253
-0.4910201994062504	-0.656196315460528
-0.4909591642500004	-0.6538887429482805
-0.4908981290937504	-0.6515376533295043
-0.4908370939375004	-0.649143141690147
-0.4907760587812504	-0.646705061636526
-0.4907150236250004	-0.6442233724591014
-0.4906539884687504	-0.6416983178606758
-0.4905929533125004	-0.6391302666666501
-0.4905319181562504	-0.6365194787789195
-0.4904708830000004	-0.633866030822875
-0.4904098478437504	-0.6311699186780929
-0.4903488126875004	-0.6284312375534207
-0.4902877775312504	-0.6256502388669973
-0.4902267423750004	-0.6228272005038841
-0.4901657072187504	-0.619962313252495
-0.4901046720625004	-0.6170557094372914
-0.4900436369062504	-0.614107533860157
-0.4899826017500004	-0.6111179738043548
-0.4899215665937504	-0.608087233068534
-0.4898605314375004	-0.605015459324978
-0.4897994962812504	-0.6019027591041978
-0.4897384611250004	-0.5987493591095276
-0.4896774259687504	-0.5955556551032657
-0.4896163908125004	-0.5923219905941804
-0.4895553556562504	-0.5890484502726089
-0.4894943205000004	-0.5857349514118776
-0.4894332853437504	-0.5823815323113023
-0.4893722501875004	-0.5789885425409593
-0.4893112150312504	-0.5755565446960319
-0.4892501798750004	-0.5720859867982026
-0.4891891447187504	-0.5685769435768024
-0.4891281095625004	-0.5650292188688145
-0.4890670744062504	-0.5614427484079161
-0.4890060392500004	-0.5578179033518484
-0.4889450040937504	-0.5541553700607873
-0.4888839689375004	-0.5504556981947965
-0.4888229337812504	-0.5467189714727694
-0.4887618986250004	-0.542944960460429
-0.4887008634687504	-0.539133591278685
-0.4886398283125004	-0.535285233237281
-0.4885787931562504	-0.5314005552451666
-0.4885177580000004	-0.5274801264552096
-0.4884567228437504	-0.5235241393152694
-0.4883956876875004	-0.5195325086191157
-0.4883346525312504	-0.5155052037929274
-0.4882736173750004	-0.5114424517204205
-0.4882125822187504	-0.5073446710379889
-0.4881515470625004	-0.5032123047319784
-0.4880905119062504	-0.4990457328387225
-0.4880294767500004	-0.4948452610144424
-0.4879684415937504	-0.49061110937353636
-0.4879074064375004	-0.4863433990335192
-0.4878463712812504	-0.48204219485602695
-0.4877853361250004	-0.47770766391942576
-0.4877243009687504	-0.4733402376727659
-0.4876632658125004	-0.4689405284587066
-0.4876022306562504	-0.4645090328319385
-0.4875411955000004	-0.46004591800580147
-0.4874801603437504	-0.4555510794431221
-0.4874191251875004	-0.45102447408882773
-0.4873580900312504	-0.4464664546539916
-0.4872970548750004	-0.4418777221981089
-0.4872360197187504	-0.4372589282784323
-0.4871749845625004	-0.4326103391818461
-0.4871139494062504	-0.4279318956972753
-0.4870529142500004	-0.42322360847338875
-0.4869918790937504	-0.41848585521933557
-0.4869308439375004	-0.4137192408649166
-0.4868698087812504	-0.4089242071812582
-0.4868087736250004	-0.4041008870011142
-0.4867477384687504	-0.3992493804414422
-0.4866867033125004	-0.3943700713525299
-0.4866256681562504	-0.38946353966644054
-0.4865646330000004	-0.3845301859082561
-0.4865035978437504	-0.37957007140860816
-0.4864425626875004	-0.3745831749530715
-0.4863815275312504	-0.3695697948723531
-0.4863204923750004	-0.36453067567606484
-0.4862594572187504	-0.35946665242771786
-0.4861984220625004	-0.35437810990074514
-0.4861373869062504	-0.34926484950989894
-0.4860763517500004	-0.3441265694247413
-0.4860153165937504	-0.3389634905610639
-0.4859542814375004	-0.3337764635033061
-0.4858932462812504	-0.3285664394099463
-0.4858322111250004	-0.32333389166858534
-0.4857711759687504	-0.31807874707564876
-0.4857101408125004	-0.312800815613746
-0.4856491056562504	-0.3075002927073066
-0.4855880705000004	-0.30217786470611346
-0.4855270353437504	-0.2968343352311223
-0.4854660001875004	-0.2914701650473546
-0.4854049650312504	-0.28608540746845235
-0.4853439298750004	-0.28068008885401086
-0.4852828947187504	-0.27525454713887976
-0.4852218595625004	-0.2698093662739428
-0.4851608244062504	-0.2643450827248468
-0.4850997892500004	-0.2588619912654364
-0.4850387540937504	-0.2533602180707654
-0.4849777189375004	-0.24784000340840548
-0.4849166837812504	-0.24230186075854296
-0.4848556486250004	-0.2367463897433881
-0.4847946134687504	-0.2311739997979684
-0.4847335783125004	-0.2255848785332524
-0.4846725431562504	-0.21997920625522527
-0.4846115080000004	-0.21435736971785557
-0.4845504728437504	-0.20871992355190727
-0.4844894376875004	-0.20306736061019073
-0.4844284025312504	-0.19739997392689237
-0.4843673673750004	-0.1917179408291956
-0.4843063322187504	-0.1860215599278946
-0.4842452970625004	-0.1803113733988112
-0.4841842619062504	-0.17458796348577715
-0.4841232267500004	-0.16885168344928053
-0.4840621915937504	-0.16310269147885367
-0.4840011564375004	-0.157341216259187
-0.4839401212812504	-0.1515677218789376
-0.4838790861250004	-0.1457828006543835
-0.4838180509687504	-0.13998692760342385
-0.4837570158125004	-0.13418035621545138
-0.4836959806562504	-0.12836325371796525
-0.4836349455000004	-0.12253591523421288
-0.4835739103437504	-0.11669887049775379
-0.4835128751875004	-0.11085276049295481
-0.4834518400312504	-0.10499805632205049
-0.4833908048750004	-0.09913494601719088
-0.4833297697187504	-0.09326354332847857
-0.4832687345625004	-0.08738420396771522
-0.4832076994062504	-0.08149759944013409
-0.4831466642500004	-0.07560440833439726
-0.4830856290937504	-0.0697049650974247
-0.4830245939375004	-0.06379928662080542
-0.4829635587812504	-0.05788743356150265
-0.4829025236250004	-0.051969840752543725
-0.4828414884687504	-0.04604730457502225
-0.4827804533125004	-0.040120621668922885
-0.4827194181562504	-0.03419021537022733
-0.4826583830000004	-0.028256104670817683
-0.4825973478437504	-0.022318260845100708
-0.4825363126875004	-0.01637703209468965
-0.4824752775312504	-0.010433196694444872
-0.4824142423750004	-0.0044875676561994225
-0.4823532072187504	0.0014594473222749693
-0.4822921720625004	0.007407866346856598
-0.4822311369062504	0.013357693180162196
-0.4821701017500004	0.019308505414185807
-0.4821090665937504	0.02525950323579258
-0.4820480314375004	0.031209919511963235
-0.4819869962812504	0.03715939615042822
-0.4819259611250004	0.04310796732197514
-0.4818649259687504	0.04905563346562916
-0.4818038908125004	0.05500195864142989
-0.4817428556562504	0.06094610681228197
-0.4816818205000004	0.0668872778602548
-0.4816207853437504	0.07282511937372237
-0.4815597501875004	0.07875968154257566
-0.4814987150312504	0.08469094566301295
-0.4814376798750004	0.09061843381367664
-0.4813766447187504	0.09654131133867362
-0.4813156095625004	0.10245885446295502
-0.4812545744062504	0.10837077641364451
-0.4811935392500004	0.11427710456920878
-0.4811325040937504	0.12017774600148676
-0.4810714689375004	0.1260721597054804
-0.4810104337812504	0.13195950356491032
-0.4809493986250004	0.13783911163080378
-0.4808883634687504	0.1437107663667955
-0.4808273283125004	0.1495744926778251
-0.4807662931562504	0.15543012218542074
-0.4807052580000004	0.16127708413924877
-0.4806442228437504	0.1671146263634928
-0.4805831876875004	0.1729422216528616
-0.4805221525312504	0.1787596958209868
-0.4804611173750004	0.1845669259480225
-0.4804000822187504	0.19036350306386804
-0.4803390470625004	0.19614878996011714
-0.4802780119062504	0.20192225822831775
-0.4802169767500004	0.20768365831852995
-0.4801559415937504	0.21343285964680125
-0.4800949064375004	0.21916955989213124
-0.4800338712812504	0.22489316182746488
-0.4799728361250004	0.23060299782114374
-0.4799118009687504	0.23629867557338097
-0.4798507658125004	0.2419800867397949
-0.4797897306562504	0.24764707337710679
-0.4797286955000004	0.2532991886209529
-0.4796676603437504	0.2589357788683287
-0.4796066251875004	0.26455626088373624
-0.4795455900312504	0.27016033466306916
-0.4794845548750004	0.2757479159984393
-0.4794235197187504	0.28131884027310183
-0.4793624845625004	0.2868726441372157
-0.4793014494062504	0.2924086540749873
-0.4792404142500004	0.2979262884459047
-0.4791793790937504	0.303425261184007
-0.4791183439375004	0.30890548446163857
-0.4790573087812504	0.31436677891604586
-0.4789962736250004	0.3198086937562137
-0.4789352384687504	0.32523059227201645
-0.4788742033125004	0.33063189898063505
-0.4788131681562504	0.33601230963918455
-0.4787521330000004	0.3413717378002405
-0.4786910978437504	0.34670999996489765
-0.4786300626875004	0.35202661996498863
-0.4785690275312504	0.35732098726553996
-0.4785079923750004	0.3625926463133643
-0.4784469572187504	0.36784138262034183
-0.4783859220625004	0.3730670324633537
-0.4783248869062504	0.37826926541718514
-0.4782638517500004	0.3834475730395794
-0.4782028165937504	0.3886014415721672
-0.4781417814375004	0.39373054527401247
-0.4780807462812504	0.39883473646407297
-0.4780197111250004	0.4039138069766965
-0.4779586759687504	0.4089673329854266
-0.4778976408125004	0.41399478669669787
-0.4778366056562504	0.41899572959433984
-0.4777755705000004	0.42396988320986095
-0.4777145353437504	0.42891706285716186
-0.4776535001875004	0.4338370364008423
-0.4775924650312504	0.4387294151749355
-0.4775314298750004	0.4435936962702798
-0.4774703947187504	0.44842942143518044
-0.4774093595625004	0.45323629375805213
-0.4773483244062504	0.45801414081018976
-0.4772872892500004	0.4627627568021756
-0.4772262540937504	0.46748179730619066
-0.4771652189375004	0.4721708316011027
-0.4771041837812504	0.47682945834035895
-0.4770431486250004	0.48145734963584347
-0.4769821134687504	0.4860542213420544
-0.4769210783125004	0.4906198057423373
-0.4768600431562504	0.4951538215540733
-0.4767990080000004	0.49965593281942616
-0.4767379728437504	0.5041257721040008
-0.4766769376875004	0.5085630221055306
-0.4766159025312504	0.5129674336999006
-0.4765548673750004	0.5173387420646448
-0.4764938322187504	0.5216766022747876
-0.4764327970625004	0.5259806464144805
-0.4763717619062504	0.5302505822134451
-0.4763107267500004	0.5344861972584629
-0.4762496915937504	0.5386872730544451
-0.4761886564375004	0.5428535073365487
-0.4761276212812504	0.5469845122329308
-0.4760665861250004	0.5510798980448146
-0.4760055509687504	0.5551393797217061
-0.4759445158125004	0.559162783314026
-0.4758834806562504	0.5631499265211817
-0.4758224455000004	0.5671005207893781
-0.4757614103437504	0.5710142076567013
-0.4757003751875004	0.574890660359721
-0.4756393400312504	0.5787296184809089
-0.4755783048750004	0.5825308464122012
-0.4755172697187504	0.5862941044043263
-0.4754562345625004	0.5900191345410173
-0.4753951994062504	0.5937056411029938
-0.4753341642500004	0.597353326405286
-0.4752731290937504	0.600961958961147
-0.4752120939375004	0.6045313559236294
-0.4751510587812504	0.6080612849195668
-0.4750900236250004	0.6115514185792897
-0.4750289884687504	0.6150014182682565
-0.4749679533125004	0.6184110478541655
-0.4749069181562504	0.6217801632787717
-0.4748458830000004	0.6251086070287485
-0.4747848478437504	0.6283961400662099
-0.4747238126875004	0.6316424602760488
-0.4746627775312504	0.6348472812293555
-0.4746017423750004	0.6380103880055819
-0.4745407072187504	0.6411316134226711
-0.4744796720625004	0.644210779591182
-0.4744186369062504	0.647247662247991
-0.4743576017500004	0.6502419994468066
-0.4742965665937504	0.6531935404553706
-0.4742355314375004	0.6561020837352343
-0.4741744962812504	0.6589674633023908
-0.4741134611250004	0.661789509345227
-0.4740524259687504	0.6645680201512353
-0.4739913908125004	0.6673027591756182
-0.4739303556562504	0.6699934898585234
-0.4738693205000004	0.6726400254250671
-0.4738082853437504	0.675242223138455
-0.4737472501875004	0.6777999205152478
-0.4736862150312504	0.6803129028700141
-0.4736251798750004	0.6827809410522767
-0.4735641447187504	0.685203845298462
-0.4735031095625004	0.6875814741630195
-0.4734420744062504	0.6899136836135441
-0.4733810392500004	0.6922002731679249
-0.4733200040937504	0.694441015376515
-0.4732589689375004	0.69663574372773
-0.4731979337812504	0.6987843753109044
-0.4731368986250004	0.7008868300142208
-0.4730758634687504	0.7029429370109046
-0.4730148283125004	0.7049524375186955
-0.4729537931562504	0.7069150961321758
-0.4728927580000004	0.7088307983077641
-0.4728317228437504	0.7106995155985053
-0.4727706876875004	0.7125211798079468
-0.4727096525312504	0.7142956099005412
-0.4726486173750004	0.7160225707118578
-0.4725875822187504	0.7177018900431158
-0.4725265470625004	0.7193334942650377
-0.4724655119062504	0.7209173351013406
-0.4724044767500004	0.7224533143599801
-0.4723434415937504	0.7239412799844643
-0.4722824064375004	0.725381064982592
-0.4722213712812504	0.7267725334823496
-0.4721603361250004	0.7281156081981423
-0.4720993009687504	0.7294102379202353
-0.4720382658125004	0.7306563310383857
-0.4719772306562504	0.7318537473598912
-0.4719161955000004	0.7330023559631899
-0.4718551603437504	0.7341020780053021
-0.4717941251875004	0.7351528681518785
-0.4717330900312504	0.7361546589431482
-0.4716720548750004	0.7371073412838557
-0.4716110197187504	0.7380108097642614
-0.4715499845625004	0.738864997551226
-0.4714889494062504	0.7396698588037214
-0.4714279142500004	0.7404253403181082
-0.4713668790937504	0.7411313593762783
-0.4713058439375004	0.7417878077752802
-0.4712448087812504	0.7423946024043401
-0.4711837736250004	0.7429517240821918
-0.4711227384687504	0.7434591903064424
-0.4710617033125004	0.7439169828405354
-0.4710006681562504	0.7443250029246645
-0.4709396330000004	0.7446831181009913
-0.4708785978437504	0.7449912648572233
-0.4708175626875004	0.7452494881007786
-0.4707565275312504	0.7454578558402376
-0.4706954923750004	0.7456163423020005
-0.4706344572187504	0.7457248215382765
-0.4705734220625004	0.745783177606742
-0.4705123869062504	0.7457914005475269
-0.4704513517500004	0.7457495677315716
-0.4703903165937504	0.7456577463554538
-0.4703292814375004	0.7455159202195601
-0.4702682462812504	0.745324003723706
-0.4702072111250004	0.7450819303606939
-0.4701461759687504	0.7447897219731474
-0.4700851408125004	0.7444474529170833
-0.4700241056562504	0.7440551651081527
-0.4699630705000004	0.7436128444658106
-0.4699020353437504	0.7431204671861774
-0.4698410001875004	0.7425780448233839
-0.4697799650312504	0.7419856143220398
-0.4697189298750004	0.7413432011066731
-0.4696578947187504	0.7406508161942694
-0.4695968595625004	0.7399084852718669
-0.4695358244062504	0.7391162634536583
-0.4694747892500004	0.7382742257053891
-0.4694137540937504	0.737382445955868
