Time	Frequency
-0.5000152554062467	-0.45386979339163414
-0.4999542202499967	-0.4581558701027944
-0.4998931850937467	-0.4623648003131351
-0.4998321499374967	-0.4665069353346111
-0.4997711147812467	-0.47060269566148233
-0.4997100796249967	-0.4746763339688076
-0.4996490444687467	-0.4787489865127029
-0.4995880093124967	-0.4828329587068358
-0.4995269741562467	-0.4869287555664239
-0.4994659389999967	-0.49102554076989197
-0.4994049038437467	-0.4951047172632517
-0.4993438686874967	-0.49914546236697127
-0.4992828335312467	-0.5031305731971941
-0.4992217983749967	-0.5070509816877133
-0.4991607632187467	-0.5109077443089904
-0.4990997280624967	-0.5147110822790383
-0.4990386929062467	-0.5184769100892276
-0.4989776577499967	-0.5222219684230196
-0.4989166225937467	-0.5259590041200971
-0.4988555874374967	-0.529693349990757
-0.4987945522812467	-0.533421786542422
-0.4987335171249967	-0.5371338778613377
-0.4986724819687467	-0.5408152718276367
-0.4986114468124967	-0.5444519249232247
-0.4985504116562467	-0.5480340044557744
-0.4984893764999967	-0.5515583824983983
-0.4984283413437467	-0.5550290872608934
-0.4983673061874967	-0.558455690670265
-0.4983062710312467	-0.5618502047080292
-0.4982452358749967	-0.5652234471036369
-0.4981842007187467	-0.5685819394412525
-0.4981231655624967	-0.5719262027731807
-0.4980621304062467	-0.5752508669067589
-0.4980010952499967	-0.5785464649961198
-0.4979400600937467	-0.581802313063512
-0.4978790249374967	-0.5850095947985866
-0.4978179897812467	-0.5881637557135013
-0.4977569546249967	-0.5912655503658204
-0.4976959194687467	-0.5943205032882449
-0.4976348843124967	-0.597337014562805
-0.4975738491562467	-0.6003237240837889
-0.4975128139999967	-0.603286933695
-0.4974517788437467	-0.6062288282353386
-0.4973907436874967	-0.6091469722127231
-0.4973297085312467	-0.6120351734243935
-0.4972686733749967	-0.6148854021311919
-0.4972076382187467	-0.6176901605045294
-0.4971466030624967	-0.6204445973730512
-0.4970855679062467	-0.6231477642592458
-0.4970245327499967	-0.6258026788615254
-0.4969634975937467	-0.62841522393412
-0.4969024624374967	-0.6309922514603562
-0.4968414272812467	-0.6335394852940701
-0.4967803921249967	-0.6360598437296503
-0.4967193569687467	-0.6385526453989683
-0.4966583218124967	-0.6410138943919558
-0.4965972866562467	-0.6434375273929042
-0.4965362514999967	-0.6458172254204994
-0.4964752163437467	-0.6481482357319435
-0.4964141811874967	-0.6504286667821818
-0.4963531460312467	-0.6526598973677765
-0.4962921108749967	-0.6548460137884528
-0.4962310757187467	-0.6569924747467875
-0.4961700405624967	-0.6591044199821037
-0.4961090054062467	-0.6611851277629438
-0.4960479702499967	-0.6632350690873069
-0.4959869350937467	-0.6652518169371692
-0.4959258999374967	-0.6672308082761902
-0.4958648647812467	-0.6691667087735348
-0.4958038296249967	-0.6710549642517744
-0.4957427944687467	-0.672893078933713
-0.4956817593124967	-0.6746812525046381
-0.4956207241562467	-0.6764222098188009
-0.4955596889999967	-0.6781202973854724
-0.4954986538437467	-0.6797801297670307
-0.4954376186874967	-0.6814051947092603
-0.4953765835312467	-0.6829968274728315
-0.4953155483749967	-0.6845538432645828
-0.4952545132187467	-0.6860729160591367
-0.4951934780624967	-0.6875495734810828
-0.4951324429062467	-0.6889795014213066
-0.4950714077499967	-0.6903597697124721
-0.4950103725937467	-0.6916896252225592
-0.4949493374374967	-0.6929706332435029
-0.4948883022812467	-0.6942061416636622
-0.4948272671249967	-0.6954002408492495
-0.4947662319687467	-0.6965565343504011
-0.4947051968124967	-0.6976770811861601
-0.4946441616562467	-0.6987618104105029
-0.4945831264999967	-0.6998085650126684
-0.4945220913437467	-0.7008137475416669
-0.4944610561874967	-0.7017733659874809
-0.4944000210312467	-0.7026841688392607
-0.4943389858749967	-0.7035445426746839
-0.4942779507187467	-0.704354921184782
-0.4942169155624967	-0.7051175993329207
-0.4941558804062467	-0.7058360207882886
-0.4940948452499967	-0.7065137563741314
-0.4940338100937467	-0.7071534714867096
-0.4939727749374967	-0.7077561747829616
-0.4939117397812467	-0.7083209538369284
-0.4938507046249967	-0.708845260426934
-0.4937896694687467	-0.7093256517710007
-0.4937286343124967	-0.7097587673944192
-0.4936675991562467	-0.7101422589315549
-0.4936065639999967	-0.7104754119732378
-0.4935455288437467	-0.7107592956094884
-0.4934844936874967	-0.7109964134639837
-0.4934234585312467	-0.7111899686082288
-0.4933624233749967	-0.7113429557728991
-0.4933013882187467	-0.7114573347030791
-0.4932403530624967	-0.7115335113499239
-0.4931793179062467	-0.7115702633264449
-0.4931182827499967	-0.7115651161615386
-0.4930572475937467	-0.7115150497645415
-0.4929962124374967	-0.7114173291578743
-0.4929351772812467	-0.7112702301191381
-0.4928741421249967	-0.71107346942189
-0.4928131069687467	-0.710828235206877
-0.4927520718124967	-0.7105368229733758
-0.4926910366562467	-0.7102019893252834
-0.4926300014999967	-0.7098262077884626
-0.4925689663437467	-0.7094110292563692
-0.4925079311874967	-0.7089567137915974
-0.4924468960312467	-0.7084622198254763
-0.4923858608749967	-0.707925534080483
-0.4923248257187467	-0.7073442374062031
-0.4922637905624967	-0.7067161483757103
-0.4922027554062467	-0.7060398751366236
-0.4921417202499967	-0.7053151408826648
-0.4920806850937467	-0.7045428123402222
-0.4920196499374967	-0.7037246371947209
-0.4919586147812467	-0.7028627733924584
-0.4918975796249967	-0.7019592427872977
-0.4918365444687467	-0.7010154503118367
-0.4917755093124967	-0.7000318840704837
-0.4917144741562467	-0.699008056480196
-0.4916534389999967	-0.6979426824704339
-0.4915924038437467	-0.6968340390515133
-0.4915313686874967	-0.6956804122188552
-0.4914703335312467	-0.6944805182970316
-0.4914092983749967	-0.6932337987182047
-0.4913482632187467	-0.6919405277643011
-0.4912872280624967	-0.6906017226271829
-0.4912261929062467	-0.6892188890527604
-0.4911651577499967	-0.6877936711283008
-0.4911041225937467	-0.6863274903433036
-0.4910430874374967	-0.6848212542501184
-0.4909820522812467	-0.6832751941047784
-0.4909210171249967	-0.681688858213618
-0.4908599819687467	-0.6800612523595305
-0.4907989468124967	-0.6783910907183681
-0.4907379116562467	-0.6766771047418322
-0.4906768764999967	-0.6749183443975656
-0.4906158413437467	-0.6731144049988975
-0.4905548061874967	-0.6712655337149072
-0.4904937710312467	-0.6693725942263721
-0.4904327358749967	-0.6674368956709161
-0.4903717007187467	-0.6654599237339052
-0.4903106655624967	-0.6634430330083622
-0.4902496304062467	-0.6613871668464025
-0.4901885952499967	-0.6592926618412903
-0.4901275600937467	-0.65715918174988
-0.4900665249374967	-0.654985808802016
-0.4900054897812467	-0.6527712790672626
-0.4899444546249967	-0.650514306971846
-0.4898834194687467	-0.6482139241228287
-0.4898223843124967	-0.6458697531971876
-0.4897613491562467	-0.6434821480358316
-0.4897003139999967	-0.6410521566261014
-0.4896392788437467	-0.6385813089870589
-0.4895782436874967	-0.6360712800720487
-0.4895172085312467	-0.6335235080455047
-0.4894561733749967	-0.6309388651996873
-0.4893951382187467	-0.6283174710214342
-0.4893341030624967	-0.6256586944361199
-0.4892730679062467	-0.6229613412831686
-0.4892120327499967	-0.620223985434157
-0.4891509975937467	-0.6174453720544444
-0.4890899624374967	-0.6146247913657765
-0.4890289272812467	-0.6117623103066847
-0.4889678921249967	-0.6088587959603886
-0.4889068569687467	-0.6059157367995407
-0.4888458218124967	-0.6029349056223022
-0.4887847866562467	-0.5999179401279684
-0.4887237514999967	-0.5968659557173993
-0.4886627163437467	-0.5937792999902441
-0.4886016811874967	-0.5906575111564956
-0.4885406460312467	-0.5874994902746206
-0.4884796108749967	-0.5843038469394319
-0.4884185757187467	-0.5810693275437823
-0.4883575405624967	-0.5777952041542502
-0.4882965054062467	-0.5744815158686949
-0.4882354702499967	-0.5711291029352629
-0.4881744350937467	-0.5677394265811148
-0.4881133999374967	-0.5643142177069236
-0.4880523647812467	-0.5608550479909612
-0.4879913296249967	-0.5573629525656565
-0.4879302944687467	-0.5538382176883166
-0.4878692593124967	-0.5502803803459128
-0.4878082241562467	-0.5466884289204786
-0.4877471889999967	-0.5430611531110222
-0.4876861538437467	-0.5393975427780743
-0.4876251186874967	-0.5356971244451145
-0.4875640835312467	-0.5319601504280609
-0.4875030483749967	-0.5281875791782635
-0.4874420132187467	-0.5243808485285985
-0.4873809780624967	-0.5205415202383942
-0.4873199429062467	-0.5166708976577578
-0.4872589077499967	-0.512769718503928
-0.4871978725937467	-0.508838015967991
-0.4871368374374967	-0.5048751952785505
-0.4870758022812467	-0.500880295368439
-0.4870147671249967	-0.4968523473519729
-0.4869537319687467	-0.4927907286705295
-0.4868926968124967	-0.48869541497260793
-0.4868316616562467	-0.4845670508708618
-0.4867706264999967	-0.4804068196625707
-0.4867095913437467	-0.47621615968727654
-0.4866485561874967	-0.471996409060487
-0.4865875210312467	-0.4677484767566929
-0.4865264858749967	-0.4634726446134949
-0.4864654507187467	-0.4591685665484651
-0.4864044155624967	-0.45483545798543773
-0.4863433804062467	-0.45047241281398537
-0.4862823452499967	-0.44607875740797254
-0.4862213100937467	-0.441654337033785
-0.4861602749374967	-0.4371996430501624
-0.4860992397812467	-0.43271574429086046
-0.4860382046249967	-0.4282040534575771
-0.4859771694687467	-0.42366599742009076
-0.4859161343124967	-0.4191026737736583
-0.4858550991562467	-0.41451459346089503
-0.4857940639999967	-0.4099016028706529
-0.4857330288437467	-0.4052630146015605
-0.4856719936874967	-0.40059789487422015
-0.4856109585312467	-0.39590541381729255
-0.4855499233749967	-0.3911851682519965
-0.4854888882187467	-0.3864373916920614
-0.4854278530624967	-0.38166298107018576
-0.4853668179062467	-0.37686332951034457
-0.4853057827499967	-0.37204001330812264
-0.4852447475937467	-0.36719441526717767
-0.4851837124374967	-0.3623273955897077
-0.4851226772812467	-0.3574391185527051
-0.4850616421249967	-0.35252909176645986
-0.4850006069687467	-0.347596403770409
-0.4849395718124967	-0.34264008030145393
-0.4848785366562467	-0.3376594499682725
-0.4848175014999967	-0.33265442735350564
-0.4847564663437467	-0.32762563700070196
-0.4846954311874967	-0.32257432394172647
-0.4846343960312467	-0.31750207506683614
-0.4845733608749967	-0.31241044594672424
-0.4845123257187467	-0.30730060269362436
-0.4844512905624967	-0.30217307782902175
-0.4843902554062467	-0.2970277059605769
-0.4843292202499967	-0.29186375954996635
-0.4842681850937467	-0.2866802502611491
-0.4842071499374967	-0.281476308333762
-0.4841461147812467	-0.27625152897120414
-0.4840850796249967	-0.27100618376802726
-0.4840240444687467	-0.2657412385689219
-0.4839630093124967	-0.26045817589472314
-0.4839019741562467	-0.25515866723720615
-0.4838409389999967	-0.24984418618697124
-0.4837799038437467	-0.24451567802207552
-0.4837188686874967	-0.2391733784217925
-0.4836578335312467	-0.23381682864430614
-0.4835967983749967	-0.22844509080103945
-0.4835357632187467	-0.22305710841035026
-0.4834747280624967	-0.21765210352940784
-0.4834136929062467	-0.21222989339064854
-0.4833526577499967	-0.20679103608295624
-0.4832916225937467	-0.20133676988338461
-0.4832305874374967	-0.19586877387922816
-0.4831695522812467	-0.19038880594286042
-0.4831085171249967	-0.18489830236547275
-0.4830474819687467	-0.17939806404289918
-0.4829864468124967	-0.17388813042607212
-0.4829254116562467	-0.1683678693870634
-0.4828643764999967	-0.16283625449974526
-0.4828033413437467	-0.1572922486565331
-0.4827423061874967	-0.1517351852534385
-0.4826812710312467	-0.1461650505417846
-0.4826202358749967	-0.14058258833453388
-0.4825592007187467	-0.13498918809802227
-0.4824981655624967	-0.12938658345662427
-0.4824371304062467	-0.12377644764371311
-0.4823760952499967	-0.1181600127490207
-0.4823150600937467	-0.11253782870887034
-0.4822540249374967	-0.10690971548773806
-0.4821929897812467	-0.1012749120297557
-0.4821319546249967	-0.09563239171738816
-0.4820709194687467	-0.08998126235004983
-0.4820098843124967	-0.08432112993226161
-0.4819488491562467	-0.07865231338398751
-0.4818878139999967	-0.07297584744545133
-0.4818267788437467	-0.06729328319787088
-0.4817657436874967	-0.06160634906116389
-0.4817047085312467	-0.05591656138307297
-0.4816436733749967	-0.050224888972541515
-0.4815826382187467	-0.04453156879965545
-0.4815216030624967	-0.03883614064168179
-0.4814605679062467	-0.0331376975398698
-0.4813995327499967	-0.02743525893468917
-0.4813384975937467	-0.021728151272297352
-0.4812774624374967	-0.01601629970876847
-0.4812164272812467	-0.010300349720925295
-0.4811553921249967	-0.004581582442696908
-0.4810943569687467	0.0011383531737648458
-0.4810333218124967	0.006857818089488536
-0.4809722866562467	0.012575552877854692
-0.4809112514999967	0.018290924049146826
-0.4808502163437467	0.024003991236168958
-0.4807891811874967	0.029715385283795952
-0.4807281460312467	0.035426021120227545
-0.4806671108749967	0.041136729315635355
-0.4806060757187467	0.0468479194571616
-0.4805450405624967	0.05255936614905553
-0.4804840054062467	0.058270174733202965
-0.4804229702499967	0.06397893902662921
-0.4803619350937467	0.06968404718137092
-0.4803008999374967	0.0753840458761193
-0.4802398647812467	0.08107795237446024
-0.4801788296249967	0.08676542103735661
-0.4801177944687467	0.09244672811102693
-0.4800567593124967	0.09812258669606058
-0.4799957241562467	0.10379382910467083
-0.4799346889999967	0.1094610516194118
-0.4798736538437467	0.11512434870864774
-0.4798126186874967	0.12078320251697114
-0.4797515835312467	0.12643653789033127
-0.4796905483749967	0.13208293330508528
-0.4796295132187467	0.13772093211512668
-0.4795684780624967	0.14334935942367608
-0.4795074429062467	0.1489675507795956
-0.4794464077499967	0.15457542869615443
-0.4793853725937467	0.16017340715510914
-0.4793243374374967	0.1657621525156631
-0.4792633022812467	0.17134228280459154
-0.4792022671249967	0.17691409932618749
-0.4791412319687467	0.18247740658856706
-0.4790801968124967	0.18803146821284694
-0.4790191616562467	0.1935751321006704
-0.4789581264999967	0.19910707890768098
-0.4788970913437467	0.20462610306449944
-0.4788360561874967	0.21013135397567378
-0.4787750210312467	0.21562247281538366
-0.4787139858749967	0.22109958145058797
-0.4786529507187467	0.22656313199382339
-0.4785919155624967	0.23201366259604358
-0.4785308804062467	0.23745153127876864
-0.4784698452499967	0.2428767137831397
-0.4784088100937467	0.24828872700258986
-0.4783477749374967	0.2536866883054882
-0.4782867397812467	0.2590694809799273
-0.4782257046249967	0.26443598135201635
-0.4781646694687467	0.2697852876150156
-0.4781036343124967	0.27511688005590845
-0.4780425991562467	0.2804306639590691
-0.4779815639999967	0.2857268833142484
-0.4779205288437467	0.2910059321044375
-0.4778594936874967	0.29626812795459334
-0.4777984585312467	0.3015135215615009
-0.4777374233749967	0.30674179198072743
-0.4776763882187467	0.31195225246835506
-0.4776153530624967	0.3171439639636647
-0.4775543179062467	0.3223159226438888
-0.4774932827499967	0.3274672642312901
-0.4774322475937467	0.33259742095666656
-0.4773712124374967	0.33770618819926035
-0.4773101772812467	0.3427936812719038
-0.4772491421249967	0.34786019169964455
-0.4771881069687467	0.35290599472969403
-0.4771270718124967	0.35793116531883096
-0.4770660366562467	0.36293545112801856
-0.4770050014999967	0.36791825378487514
-0.4769439663437467	0.37287872630305774
-0.4768829311874967	0.37781593785461504
-0.4768218960312467	0.3827290559509883
-0.4767608608749967	0.38761750639935666
-0.4766998257187467	0.3924810591946065
-0.4766387905624967	0.3973198014901708
-0.4765777554062467	0.402134005811054
-0.4765167202499967	0.4069239421717728
-0.4764556850937467	0.4116896982074293
-0.4763946499374967	0.4164310599410644
-0.4763336147812467	0.42114748204097224
-0.4762725796249967	0.4258381546406309
-0.4762115444687467	0.4305021522149939
-0.4761505093124967	0.4351386246445745
-0.4760894741562467	0.4397469688669242
-0.4760284389999967	0.44432692435727994
-0.4759674038437467	0.44887856372547713
-0.4759063686874967	0.4534021833067079
-0.4758453335312467	0.4578981262522431
-0.4757842983749967	0.4623665881778575
-0.4757232632187467	0.4668074660822808
-0.4756622280624967	0.47122029851257785
-0.4756011929062467	0.4756043140111679
-0.4755401577499967	0.47995857381386237
-0.4754791225937467	0.48428216434140864
-0.4754180874374967	0.4885743811736332
-0.4753570522812467	0.49283485356575557
-0.4752960171249967	0.4970635752360386
-0.4752349819687467	0.501260829304011
-0.4751739468124967	0.505427024344312
-0.4751129116562467	0.5095624942284404
-0.4750518764999967	0.5136673249454077
-0.4749908413437467	0.5177412496831985
-0.4749298061874967	0.5217836429303173
-0.4748687710312467	0.5257936267432234
-0.4748077358749967	0.5297702527549519
-0.4747467007187467	0.5337126992676035
-0.4746856655624967	0.537620432364878
-0.4746246304062467	0.5414932829941622
-0.4745635952499967	0.5453314129204231
-0.4745025600937467	0.5491351872133406
-0.4744415249374967	0.5529049968166778
-0.4743804897812467	0.556641078903535
-0.4743194546249967	0.5603433805660164
-0.4742584194687467	0.5640115043587258
-0.4741973843124967	0.5676447559394955
-0.4741363491562467	0.5712422805432376
-0.4740753139999967	0.5748032434546663
-0.4740142788437467	0.578327000848113
-0.4739532436874967	0.5818132131992743
-0.4738922085312467	0.5852618669277914
-0.4738311733749967	0.5886732002806743
-0.4737701382187467	0.5920475587356375
-0.4737091030624967	0.5953852231632095
-0.4736480679062467	0.5986862639084884
-0.4735870327499967	0.6019504631826659
-0.4735259975937467	0.6051773255202709
-0.4734649624374967	0.6083661719460601
-0.4734039272812467	0.6115162866743813
-0.4733428921249967	0.6146270678149489
-0.4732818569687467	0.6176981369347072
-0.4732208218124967	0.6207293783830324
-0.4731597866562467	0.623720899173694
-0.4730987514999967	0.626672924770528
-0.4730377163437467	0.6295856651282804
-0.4729766811874967	0.632459191371213
-0.4729156460312467	0.6352933584918836
-0.4728546108749967	0.6380877973477659
-0.4727935757187467	0.640841979557093
-0.4727325405624967	0.6435553318087651
-0.4726715054062467	0.6462273604039598
-0.4726104702499967	0.6488577481956815
-0.4725494350937467	0.6514463933813932
-0.4724883999374967	0.6539933772468678
-0.4724273647812467	0.6564988741223543
-0.4723663296249967	0.6589630340568463
-0.4723052944687467	0.6613858762696645
-0.4722442593124967	0.6637672295734981
-0.4721832241562467	0.6661067367783542
-0.4721221889999967	0.6684039189538674
-0.4720611538437467	0.6706582807715868
-0.4720001186874967	0.6728694226388158
-0.4719390835312467	0.6750371218282353
-0.4718780483749967	0.6771613577768304
-0.4718170132187467	0.6792422736406027
-0.4717559780624967	0.6812800847390428
-0.4716949429062467	0.6832749614766558
-0.4716339077499967	0.6852269238963209
-0.4715728725937467	0.6871357842813984
-0.4715118374374967	0.6890011583981442
-0.4714508022812467	0.6908225416040924
-0.4713897671249967	0.6925994261735277
-0.4713287319687467	0.6943314232786767
-0.4712676968124967	0.6960183499491049
-0.4712066616562467	0.6976602531582212
-0.4711456264999967	0.6992573633290576
-0.4710845913437467	0.7008099896674931
-0.4710235561874967	0.7023183882158768
-0.4709625210312467	0.7037826442571211
-0.4709014858749967	0.7052026069978867
-0.4708404507187467	0.7065778976228242
-0.4707794155624967	0.7079079887599751
-0.4707183804062467	0.7091923325720155
-0.4706573452499967	0.7104304998024028
-0.4705963100937467	0.711622286353608
-0.4705352749374967	0.7127677530914465
-0.4704742397812467	0.7138671851183064
-0.4704132046249967	0.7149209807297828
-0.4703521694687467	0.7159295033158073
-0.4702911343124967	0.7168929429498501
-0.4702300991562467	0.7178112306769615
-0.4701690639999967	0.7186840316824539
-0.4701080288437467	0.7195108213798826
-0.4700469936874967	0.7202910235102161
-0.4699859585312467	0.721024167360388
-0.4699249233749967	0.7217100141868587
-0.4698638882187467	0.7223486143562282
-0.4698028530624967	0.7229402779134992
-0.4697418179062467	0.7234854658561302
-0.4696807827499967	0.723984634774533
-0.4696197475937467	0.7244380826677431
-0.4695587124374967	0.7248458416504066
-0.4694976772812467	0.7252076505925108
