Time	Frequency
-0.5000478064062506	-2.2901376724207194e-22
-0.4999867712500006	-2.294088959806479e-22
-0.4999257360937506	-2.2982190560311007e-22
-0.4998647009375006	-2.3025326822406325e-22
-0.4998036657812506	-2.3069970218381287e-22
-0.4997426306250006	-2.3115454316177123e-22
-0.4996815954687506	-2.3160850086821416e-22
-0.4996205603125006	-2.3205071330763705e-22
-0.4995595251562506	-2.3246997684555373e-22
-0.4994984900000006	-2.3285601035953697e-22
-0.4994374548437506	-2.33200608146144e-22
-0.4993764196875006	-2.3349854997436456e-22
-0.4993153845312506	-2.337481655595388e-22
-0.4992543493750006	-2.3395149154979834e-22
-0.4991933142187506	-2.341140067367787e-22
-0.4991322790625006	-2.3424397962332155e-22
-0.4990712439062506	-2.343515067466288e-22
-0.4990102087500006	-2.344473550359489e-22
-0.4989491735937506	-2.345417423924611e-22
-0.4988881384375006	-2.3464319598068926e-22
-0.4988271032812506	-2.34757617261331e-22
-0.4987660681250006	-2.348876571706656e-22
-0.4987050329687506	-2.350324676878189e-22
-0.4986439978125006	-2.351878523457755e-22
-0.4985829626562506	-2.353467923158333e-22
-0.4985219275000006	-2.355002818279935e-22
-0.4984608923437506	-2.3563837270759635e-22
-0.4983998571875006	-2.357513060820334e-22
-0.4983388220312506	-2.358306012725704e-22
-0.4982777868750006	-2.358699790204533e-22
-0.4982167517187506	-2.3586601741634175e-22
-0.4981557165625006	-2.3581847145807896e-22
-0.4980946814062506	-2.3573022810201146e-22
-0.4980336462500006	-2.3560691044853146e-22
-0.4979726110937506	-2.3545618279542124e-22
-0.4979115759375006	-2.3528684192280737e-22
-0.4978505407812506	-2.3510780291411748e-22
-0.4977895056250006	-2.3492709676731516e-22
-0.4977284704687506	-2.3475099280408976e-22
-0.4976674353125006	-2.345833419610504e-22
-0.4976064001562506	-2.344252100220717e-22
-0.4975453650000006	-2.3427483543480423e-22
-0.4974843298437506	-2.3412790804788923e-22
-0.4974232946875006	-2.3397812773545306e-22
-0.4973622595312506	-2.3381797123247106e-22
-0.4973012243750006	-2.336395751385997e-22
-0.4972401892187506	-2.334356325057298e-22
-0.4971791540625006	-2.332002007965667e-22
-0.4971181189062506	-2.3292933194551587e-22
-0.4970570837500006	-2.3262145838242406e-22
-0.4969960485937506	-2.322774979984376e-22
-0.4969350134375006	-2.3190067384638487e-22
-0.4968739782812506	-2.314960782254145e-22
-0.4968129431250006	-2.3107003926070027e-22
-0.4967519079687506	-2.306293671026629e-22
-0.4966908728125006	-2.301805681406377e-22
-0.4966298376562506	-2.2972911856437576e-22
-0.4965688025000006	-2.292788797361939e-22
-0.4965077673437506	-2.2883171654717973e-22
-0.4964467321875006	-2.2838735366466017e-22
-0.4963856970312506	-2.279434798958378e-22
-0.4963246618750006	-2.2749608258081933e-22
-0.4962636267187506	-2.2703996546819704e-22
-0.4962025915625006	-2.2656938458835764e-22
-0.4961415564062506	-2.2607872574671885e-22
-0.4960805212500006	-2.255631451462244e-22
-0.4960194860937506	-2.250191012334264e-22
-0.4959584509375006	-2.2444471918613657e-22
-0.4958974157812506	-2.2383995202848033e-22
-0.4958363806250006	-2.2320652829039886e-22
-0.4957753454687506	-2.22547698072838e-22
-0.4957143103125006	-2.218678114910606e-22
-0.4956532751562506	-2.2117178502765656e-22
-0.4955922400000006	-2.2046452242207037e-22
-0.4955312048437506	-2.1975035713453405e-22
-0.4954701696875006	-2.190325777554976e-22
-0.4954091345312506	-2.18313087480046e-22
-0.4953480993750006	-2.1759223493270084e-22
-0.4952870642187506	-2.168688327772323e-22
-0.4952260290625006	-2.1614035381881604e-22
-0.4951649939062506	-2.1540327196798436e-22
-0.4951039587500006	-2.146535047245789e-22
-0.4950429235937506	-2.138869081414646e-22
-0.4949818884375006	-2.130997658460977e-22
-0.4949208532812506	-2.122892112332909e-22
-0.4948598181250006	-2.1145353604132035e-22
-0.4947987829687506	-2.105923562542476e-22
-0.4947377478125006	-2.0970661946370394e-22
-0.4946767126562506	-2.0879845698824365e-22
-0.4946156775000006	-2.0787090552700513e-22
-0.4945546423437506	-2.0692753268485045e-22
-0.4944936071875006	-2.0597201027424646e-22
-0.4944325720312506	-2.050076915401763e-22
-0.4943715368750006	-2.0403724161713264e-22
-0.4943105017187506	-2.0306235620177664e-22
-0.4942494665625006	-2.0208359911213372e-22
-0.4941884314062506	-2.0110037793380167e-22
-0.4941273962500006	-2.0011105648891925e-22
-0.4940663610937506	-1.9911318637427363e-22
-0.4940053259375006	-1.9810382536070595e-22
-0.4939442907812506	-1.9707990160582436e-22
-0.4938832556250006	-1.960385816150043e-22
-0.4938222204687506	-1.9497760028146746e-22
-0.4937611853125006	-1.9389551542625395e-22
-0.4937001501562506	-1.9279185890992861e-22
-0.4936391150000006	-1.9166716872020227e-22
-0.4935780798437506	-1.905229027042605e-22
-0.4935170446875006	-1.8936124980662025e-22
-0.4934560095312506	-1.881848631409228e-22
-0.4933949743750006	-1.869965468572383e-22
-0.4933339392187506	-1.857989336551416e-22
-0.4932729040625006	-1.845941897293766e-22
-0.4932118689062506	-1.833837832102523e-22
-0.4931508337500006	-1.821683434435678e-22
-0.4930897985937506	-1.809476225267667e-22
-0.4930287634375006	-1.7972055833217949e-22
-0.4929677282812506	-1.7848542929990856e-22
-0.4929066931250006	-1.7724008202146809e-22
-0.4928456579687506	-1.759822043216144e-22
-0.4927846228125006	-1.747096105001753e-22
-0.4927235876562506	-1.7342050173789474e-22
-0.4926625525000006	-1.721136700446836e-22
-0.4926015173437506	-1.7078862882639601e-22
-0.4925404821875006	-1.6944566079302796e-22
-0.4924794470312506	-1.6808577619505953e-22
-0.4924184118750006	-1.6671058607001359e-22
-0.4923573767187506	-1.6532210704541785e-22
-0.4922963415625006	-1.6392252176005842e-22
-0.4922353064062506	-1.625139300922556e-22
-0.4921742712500006	-1.6109812287447334e-22
-0.4921132360937506	-1.5967639356996737e-22
-0.4920522009375006	-1.5824940699240993e-22
-0.4919911657812506	-1.5681714874893625e-22
-0.4919301306250006	-1.553789594943764e-22
-0.4918690954687506	-1.5393364163499335e-22
-0.4918080603125006	-1.524796232057962e-22
-0.4917470251562506	-1.5101515930292238e-22
-0.4916859900000006	-1.4953854848092474e-22
-0.4916249548437506	-1.480483408685375e-22
-0.4915639196875006	-1.4654351231590215e-22
-0.4915028845312506	-1.450235825951189e-22
-0.4914418493750006	-1.4348866625536784e-22
-0.4913808142187506	-1.4193945301274192e-22
-0.4913197790625006	-1.4037712274990296e-22
-0.4912587439062506	-1.3880320824728897e-22
-0.4911977087500006	-1.372194215824976e-22
-0.4911366735937506	-1.3562746338420876e-22
-0.4910756384375006	-1.3402883644072777e-22
-0.4910146032812506	-1.3242468583594056e-22
-0.4909535681250006	-1.3081568656588133e-22
-0.4908925329687506	-1.2920199048106761e-22
-0.4908314978125006	-1.2758323627030823e-22
-0.4907704626562506	-1.2595861923930229e-22
-0.4907094275000006	-1.243270085621554e-22
-0.4906483923437506	-1.2268709753187242e-22
-0.4905873571875006	-1.2103757164524642e-22
-0.4905263220312506	-1.1937727425487367e-22
-0.4904652868750006	-1.177053496266549e-22
-0.4904042517187506	-1.1602134762358815e-22
-0.4903432165625006	-1.14325276396955e-22
-0.4902821814062506	-1.1261759829672409e-22
-0.4902211462500006	-1.1089917530595225e-22
-0.4901601110937506	-1.091711715688353e-22
-0.4900990759375006	-1.074349229839564e-22
-0.4900380407812506	-1.0569179140370971e-22
-0.4899770056250006	-1.0394302163234625e-22
-0.4899159704687506	-1.0218961411475381e-22
-0.4898549353125006	-1.004322262441589e-22
-0.4897939001562506	-9.86711171427014e-23
-0.4897328650000006	-9.690614335481091e-23
-0.4896718298437506	-9.513680125881657e-23
-0.4896107946875006	-9.336230853883949e-23
-0.4895497595312506	-9.158171649565631e-23
-0.4894887243750006	-8.979403816118975e-23
-0.4894276892187506	-8.799837538238192e-23
-0.4893666540625006	-8.619403173213791e-23
-0.4893056189062506	-8.43805987293793e-23
-0.4892445837500006	-8.255800826898934e-23
-0.4891835485937506	-8.072654794729266e-23
-0.4891225134375006	-7.888683340451532e-23
-0.4890614782812506	-7.703973965829907e-23
-0.4890004431250006	-7.518630462705466e-23
-0.4889394079687506	-7.332761839210776e-23
-0.4888783728125006	-7.14647104043324e-23
-0.4888173376562506	-6.959844672562887e-23
-0.4887563025000006	-6.77294480126018e-23
-0.4886952673437506	-6.585803746571156e-23
-0.4886342321875006	-6.398422594435505e-23
-0.4885731970312506	-6.210773604754098e-23
-0.4885121618750006	-6.022805891075136e-23
-0.4884511267187506	-5.834453464292933e-23
-0.4883900915625006	-5.645644701757076e-23
-0.4883290564062506	-5.456312139756295e-23
-0.4882680212500006	-5.2664013509387367e-23
-0.4882069860937506	-5.075877905795204e-23
-0.4881459509375006	-4.884732118935035e-23
-0.4880849157812506	-4.69298113442884e-23
-0.4880238806250006	-4.500667554788112e-23
-0.4879628454687506	-4.307854929029322e-23
-0.4879018103125006	-4.114621239498086e-23
-0.4878407751562506	-3.921051028037728e-23
-0.4877797400000006	-3.7272269721924824e-23
-0.4877187048437506	-3.5332221288127303e-23
-0.4876576696875006	-3.3390933987974e-23
-0.4875966345312506	-3.1448766731956163e-23
-0.4875355993750006	-2.950584520841248e-23
-0.4874745642187506	-2.7562069123951514e-23
-0.4874135290625006	-2.5617149208961554e-23
-0.4873524939062506	-2.3670665881487706e-23
-0.4872914587500006	-2.1722136200787385e-23
-0.4872304235937506	-1.977108202387394e-23
-0.4871693884375006	-1.7817097679456024e-23
-0.4871083532812506	-1.5859909730507428e-23
-0.4870473181250006	-1.3899419674239654e-23
-0.4869862829687506	-1.1935725194453916e-23
-0.4869252478125006	-9.969116486302006e-24
-0.4868642126562506	-8.000049830697523e-24
-0.4868031775000006	-6.0291047551862195e-24
-0.4867421423437506	-4.056926495399896e-24
-0.4866811071875006	-2.084160783291122e-24
-0.4866200720312506	-1.113939891752655e-25
-0.4865590368750006	1.86089505879396e-24
-0.4864980017187506	3.832369198985655e-24
-0.4864369665625006	5.8028520626411055e-24
-0.4863759314062506	7.772331115858934e-24
-0.4863148962500006	9.740938718487795e-24
-0.4862538610937506	1.1708911804575732e-23
-0.4861928259375006	1.3676542459063177e-23
-0.4861317907812506	1.564412707597397e-23
-0.4860707556250006	1.7611915571820132e-23
-0.4860097204687506	1.9580068846667533e-23
-0.4859486853125006	2.1548631692759014e-23
-0.4858876501562506	2.351751832273002e-23
-0.4858266150000006	2.5486511037505678e-23
-0.4857655798437506	2.745527691514529e-23
-0.4857045446875006	2.9423397740977484e-23
-0.4856435095312506	3.139040568038335e-23
-0.4855824743750006	3.335582539499653e-23
-0.4855214392187506	3.5319219433738457e-23
-0.4854604040625006	3.7280224496882096e-23
-0.4853993689062506	3.9238573797560553e-23
-0.4853383337500006	4.119410912482224e-23
-0.4852772985937506	4.3146780961226406e-23
-0.4852162634375006	4.509663433470522e-23
-0.4851552282812506	4.7043782495212577e-23
-0.4850941931250006	4.898837138106196e-23
-0.4850331579687506	5.0930541396488666e-23
-0.4849721228125006	5.287039411093546e-23
-0.4849110876562506	5.480796651648309e-23
-0.4848500525000006	5.674321400610534e-23
-0.4847890173437506	5.867600391184992e-23
-0.4847279821875006	6.060611987284719e-23
-0.4846669470312506	6.253327709884058e-23
-0.4846059118750006	6.445714736364561e-23
-0.4845448767187506	6.637738809591694e-23
-0.4844838415625006	6.829366939670912e-23
-0.4844228064062506	7.020569734710661e-23
-0.4843617712500006	7.211323476035424e-23
-0.4843007360937506	7.401611777456196e-23
-0.4842397009375006	7.591426212356979e-23
-0.4841786657812506	7.780765440550161e-23
-0.4841176306250006	7.969633014111717e-23
-0.4840565954687506	8.158034663267268e-23
-0.4839955603125006	8.345975843400874e-23
-0.4839345251562506	8.533459502529557e-23
-0.4838734900000006	8.720483950526792e-23
-0.4838124548437506	8.907041356448981e-23
-0.4837514196875006	9.093117169756728e-23
-0.4836903845312506	9.278690385002725e-23
-0.4836293493750006	9.463734719393444e-23
-0.4835683142187506	9.648220701491464e-23
-0.4835072790625006	9.832118284225202e-23
-0.4834462439062506	1.0015399370840341e-22
-0.4833852087500006	1.0198039935697518e-22
-0.4833241735937506	1.0380021666051526e-22
-0.4832631384375006	1.0561332964332126e-22
-0.4832021032812506	1.074196908785838e-22
-0.4831410681250006	1.0921931124404602e-22
-0.4830800329687506	1.110122398467438e-22
-0.4830189978125006	1.127985418614083e-22
-0.4829579626562506	1.1457827633318648e-22
-0.4828969275000006	1.1635147197042134e-22
-0.4828358923437506	1.1811810493524716e-22
-0.4827748571875006	1.198780830334087e-22
-0.4827138220312506	1.216312386872893e-22
-0.4826527868750006	1.2337733471896396e-22
-0.4825917517187506	1.2511608048767164e-22
-0.4825307165625006	1.268471515802536e-22
-0.4824696814062506	1.285702144506189e-22
-0.4824086462500006	1.3028495733028899e-22
-0.4823476110937506	1.319911184781842e-22
-0.4822865759375006	1.336885045529027e-22
-0.4822255407812506	1.3537700104457927e-22
-0.4821645056250006	1.3705657578490177e-22
-0.4821034704687506	1.387272713540384e-22
-0.4820424353125006	1.4038918522623038e-22
-0.4819814001562506	1.420424436857423e-22
-0.4819203650000006	1.4368717469717281e-22
-0.4818593298437506	1.453234794703321e-22
-0.4817982946875006	1.4695140383821253e-22
-0.4817372595312506	1.4857091554668107e-22
-0.4816762243750006	1.5018189357324266e-22
-0.4816151892187506	1.5178413016126706e-22
-0.4815541540625006	1.5337734274461873e-22
-0.4814931189062506	1.5496119446170649e-22
-0.4814320837500006	1.565353220885615e-22
-0.4813710485937506	1.5809936747354896e-22
-0.4813100134375006	1.5965300723006971e-22
-0.4812489782812506	1.6119597742831815e-22
-0.4811879431250006	1.6272809250147492e-22
-0.4811269079687506	1.6424925572043105e-22
-0.4810658728125006	1.6575945817537656e-22
-0.4810048376562506	1.672587673955224e-22
-0.4809438025000006	1.687473071869653e-22
-0.4808827673437506	1.7022522977950468e-22
-0.4808217321875006	1.716926839647172e-22
-0.4807606970312506	1.731497840554946e-22
-0.4806996618750006	1.7459658466673713e-22
-0.4806386267187506	1.7603306418964242e-22
-0.4805775915625006	1.7745911588778739e-22
-0.4805165564062506	1.788745470911865e-22
-0.4804555212500006	1.8027909069095694e-22
-0.4803944860937506	1.816724291386997e-22
-0.4803334509375006	1.830542241026837e-22
-0.4802724157812506	1.8442414602936933e-22
-0.4802113806250006	1.8578190271466333e-22
-0.4801503454687506	1.8712726499675334e-22
-0.4800893103125006	1.8846008399511e-22
-0.4800282751562506	1.8978029601204932e-22
-0.4799672400000006	1.9108791674874447e-22
-0.4799062048437506	1.9238302698594924e-22
-0.4798451696875006	1.9366574989715367e-22
-0.4797841345312506	1.9493622376757156e-22
-0.4797230993750006	1.9619457490885578e-22
-0.4796620642187506	1.9744089001588624e-22
-0.4796010290625006	1.986751909438565e-22
-0.4795399939062506	1.9989742115536169e-22
-0.4794789587500006	2.0110744421026108e-22
-0.4794179235937506	2.0230505013133577e-22
-0.4793568884375006	2.0348997163129814e-22
-0.4792958532812506	2.046619096187504e-22
-0.4792348181250006	2.0582056222255408e-22
-0.4791737829687506	2.0696565278236229e-22
-0.4791127478125006	2.0809695501823052e-22
-0.4790517126562506	2.0921431347006631e-22
-0.4789906775000006	2.1031765478210227e-22
-0.4789296423437506	2.1140698721602968e-22
-0.4788686071875006	2.1248238973640575e-22
-0.4788075720312506	2.135439929758458e-22
-0.4787465368750006	2.1459195409645816e-22
-0.4786855017187506	2.1562642705526443e-22
-0.4786244665625006	2.166475318109032e-22
-0.4785634314062506	2.176553283104364e-22
-0.4785023962500006	2.1864979816428233e-22
-0.4784413610937506	2.1963083483345493e-22
-0.4783803259375006	2.20598245134241e-22
-0.4783192907812506	2.2155176319151653e-22
-0.4782582556250006	2.2249107397322654e-22
-0.4781972204687506	2.234158432355555e-22
-0.4781361853125006	2.2432575119806123e-22
-0.4780751501562506	2.252205256606746e-22
-0.4780141150000006	2.260999694316788e-22
-0.4779530798437506	2.2696397931040345e-22
-0.4778920446875006	2.2781255537069395e-22
-0.4778310095312506	2.286457980251598e-22
-0.4777699743750006	2.294638914060794e-22
-0.4777089392187506	2.302670752102624e-22
-0.4776479040625006	2.310556094097062e-22
-0.4775868689062506	2.3182973644903063e-22
-0.4775258337500006	2.3258964464303687e-22
-0.4774647985937506	2.333354361053139e-22
-0.4774037634375006	2.3406710373636373e-22
-0.4773427282812506	2.347845213579532e-22
-0.4772816931250006	2.354874480262932e-22
-0.4772206579687506	2.3617554609666987e-22
-0.4771596228125006	2.3684841217190254e-22
-0.4770985876562506	2.3750561756007296e-22
-0.4770375525000006	2.3814675274121306e-22
-0.4769765173437506	2.3877147071880903e-22
-0.4769154821875006	2.3937952459031423e-22
-0.4768544470312506	2.3997079461310735e-22
-0.4767934118750006	2.4054530129613923e-22
-0.4767323767187506	2.4110320286891238e-22
-0.4766713415625006	2.416447764153545e-22
-0.4766103064062506	2.4217038371101316e-22
-0.4765492712500006	2.4268042598913366e-22
-0.4764882360937506	2.4317529343423726e-22
-0.4764272009375006	2.4365531494378116e-22
-0.4763661657812506	2.441207137486727e-22
-0.4763051306250006	2.445715742625665e-22
-0.4762440954687506	2.450078243159144e-22
-0.4761830603125006	2.4542923535144004e-22
-0.4761220251562506	2.458354411326986e-22
-0.4760609900000006	2.462259731058059e-22
-0.4759999548437506	2.4660030854059404e-22
-0.4759389196875006	2.46957926090113e-22
-0.4758778845312506	2.472983625427162e-22
-0.4758168493750006	2.4762126430601063e-22
-0.4757558142187506	2.4792642738734683e-22
-0.4756947790625006	2.4821382090195386e-22
-0.4756337439062506	2.4848359106109344e-22
-0.4755727087500006	2.48736044577901e-22
-0.4755116735937506	2.4897161298332207e-22
-0.4754506384375006	2.491908019258191e-22
-0.4753896032812506	2.493941312861534e-22
-0.4753285681250006	2.495820730577743e-22
-0.4752675329687506	2.4975499421912926e-22
-0.4752064978125006	2.4991311114326542e-22
-0.4751454626562506	2.500564610289485e-22
-0.4750844275000006	2.5018489407118653e-22
-0.4750233923437506	2.5029808737000095e-22
-0.4749623571875006	2.5039557878257177e-22
-0.4749013220312506	2.5047681716523885e-22
-0.4748402868750006	2.5054122414080703e-22
-0.4747792517187506	2.505882601048174e-22
-0.4747182165625006	2.506174858685681e-22
-0.4746571814062506	2.506286129476279e-22
-0.4745961462500006	2.5062153712463756e-22
-0.4745351110937506	2.5059635095199475e-22
-0.4744740759375006	2.5055333328198567e-22
-0.4744130407812506	2.5049291703670526e-22
-0.4743520056250006	2.504156392574404e-22
-0.4742909704687506	2.503220790728959e-22
-0.4742299353125006	2.5021278986903325e-22
-0.4741689001562506	2.500882339000745e-22
-0.4741078650000006	2.4994872834658683e-22
-0.4740468298437506	2.4979440894820176e-22
-0.4739857946875006	2.496252146139414e-22
-0.4739247595312506	2.494408949304762e-22
-0.4738637243750006	2.4924104020709983e-22
-0.4738026892187506	2.4902513072550895e-22
-0.4737416540625006	2.487925989387661e-22
-0.4736806189062506	2.48542897273413e-22
-0.4736195837500006	2.48275564243337e-22
-0.4735585485937506	2.479902807010293e-22
-0.4734975134375006	2.4768690869701104e-22
-0.4734364782812506	2.473655087400611e-22
-0.4733754431250006	2.470263343828122e-22
-0.4733144079687506	2.466698042303401e-22
-0.4732533728125006	2.4629645326732596e-22
-0.4731923376562506	2.459068699945207e-22
-0.4731313025000006	2.4550162858380834e-22
-0.4730702673437506	2.450812235079481e-22
-0.4730092321875006	2.446460129992379e-22
-0.4729481970312506	2.4419617873358084e-22
-0.4728871618750006	2.4373170775883236e-22
-0.4728261267187506	2.432523982599085e-22
-0.4727650915625006	2.4275788722841424e-22
-0.4727040564062506	2.4224769682742416e-22
-0.4726430212500006	2.4172129502180164e-22
-0.4725819860937506	2.4117816375998455e-22
-0.4725209509375006	2.4061786567592805e-22
-0.4724599157812506	2.4004010062261433e-22
-0.4723988806250006	2.3944474603815147e-22
-0.4723378454687506	2.3883187589373396e-22
-0.4722768103125006	2.3820175489675685e-22
-0.4722157751562506	2.375548097938254e-22
-0.4721547400000006	2.3689158225431003e-22
-0.4720937048437506	2.362126683597496e-22
-0.4720326696875006	2.3551865057841665e-22
-0.4719716345312506	2.3481003034294777e-22
-0.4719105993750006	2.3408717173515633e-22
-0.4718495642187506	2.333502638704975e-22
-0.4717885290625006	2.3259930454442316e-22
-0.4717274939062506	2.318341061750437e-22
