Time	Frequency
-0.5000457722500009	-0.5618726629430582
-0.4999847370937509	-0.5600871681173762
-0.4999237019375009	-0.5582828665968919
-0.4998626667812509	-0.5564590747773052
-0.4998016316250009	-0.5546143607805074
-0.4997405964687509	-0.5527467038829397
-0.4996795613125009	-0.5508537494814122
-0.4996185261562509	-0.5489331295984274
-0.4995574910000009	-0.546982802737559
-0.4994964558437509	-0.5450013621023816
-0.4994354206875009	-0.5429882663647796
-0.4993743855312509	-0.5409439607110594
-0.4993133503750009	-0.538869863557623
-0.4992523152187509	-0.5367682114645781
-0.4991912800625009	-0.534641781707462
-0.4991302449062509	-0.5324935271388901
-0.4990692097500009	-0.5303261708531097
-0.4990081745937509	-0.5281418233561227
-0.4989471394375009	-0.525941681266828
-0.4988861042812509	-0.5237258474367399
-0.4988250691250009	-0.5214933014688047
-0.4987640339687509	-0.5192420375268609
-0.4987029988125009	-0.5169693545487344
-0.4986419636562509	-0.5146722524044742
-0.4985809285000009	-0.5123478769135322
-0.4985198933437509	-0.5099939500201002
-0.4984588581875009	-0.5076091178740589
-0.4983978230312509	-0.505193166648901
-0.4983367878750009	-0.5027470743085908
-0.4982757527187509	-0.5002728840949121
-0.4982147175625009	-0.49777341730577895
-0.4981536824062509	-0.49525186918333075
-0.4980926472500009	-0.49271135051049203
-0.4980316120937509	-0.490154448246418
-0.4979705769375009	-0.4875828662239204
-0.4979095417812509	-0.4849971941465115
-0.4978485066250009	-0.48239684566553465
-0.4977874714687509	-0.47978017853426963
-0.4977264363125009	-0.47714477199871796
-0.4976654011562509	-0.4744878168707536
-0.4976043660000009	-0.47180656407306915
-0.4975433308437509	-0.4690987595457909
-0.4974822956875009	-0.46636299136674497
-0.4974212605312509	-0.46359889780145164
-0.4973602253750009	-0.46080720916731416
-0.4972991902187509	-0.457989624811509
-0.4972381550625009	-0.4551485500359883
-0.4971771199062509	-0.4522867285604577
-0.4971160847500009	-0.449406828187734
-0.4970550495937509	-0.446511050849414
-0.4969940144375009	-0.44360082345298923
-0.4969329792812509	-0.4406766163013072
-0.4968719441250009	-0.43773792326894945
-0.4968109089687509	-0.4347834004440135
-0.4967498738125009	-0.4318111280683808
-0.4966888386562509	-0.4288189537803944
-0.4966278035000009	-0.42580486886206637
-0.4965667683437509	-0.42276735009004474
-0.4965057331875009	-0.4197056044044772
-0.4964446980312509	-0.41661968454796106
-0.4963836628750009	-0.4135104644539896
-0.4963226277187509	-0.4103794810109678
-0.4962615925625009	-0.4072286714724631
-0.4962005574062509	-0.4040600540819611
-0.4961395222500009	-0.40087540937715865
-0.4960784870937509	-0.3976760143680652
-0.4960174519375009	-0.39446246951854413
-0.4959564167812509	-0.3912346443490651
-0.4958953816250009	-0.3879917494112693
-0.4958343464687509	-0.3847325234271873
-0.4957733113125009	-0.3814554984841361
-0.4957122761562509	-0.37815928770877133
-0.4956512410000009	-0.3748428491484296
-0.4955902058437509	-0.3715056893406636
-0.4955291706875009	-0.3681479664732203
-0.4954681355312509	-0.3647704695143549
-0.4954071003750009	-0.3613744841477095
-0.4953460652187509	-0.35796157806038553
-0.4952850300625009	-0.3545333432628016
-0.4952239949062509	-0.35109113438203376
-0.4951629597500009	-0.347635849889099
-0.4951019245937509	-0.3441677991312959
-0.4950408894375009	-0.3406866739680637
-0.4949798542812509	-0.33719163017969533
-0.4949188191250009	-0.3336814722130518
-0.4948577839687509	-0.33015490220775645
-0.4947967488125009	-0.3266107771769298
-0.4947357136562509	-0.32304833498985885
-0.4946746785000009	-0.31946735901415035
-0.4946136433437509	-0.315868253506704
-0.4945526081875009	-0.31225201387129514
-0.4944915730312509	-0.30862008506570243
-0.4944305378750009	-0.3049741293416151
-0.4943695027187509	-0.30131575749393663
-0.4943084675625009	-0.2976462743616791
-0.4942474324062509	-0.29396647681186183
-0.4941863972500009	-0.2902765354913495
-0.4941253620937509	-0.28657598350439367
-0.4940643269375009	-0.2828638238773622
-0.4940032917812509	-0.2791387349106721
-0.4939422566250009	-0.27539932384462057
-0.4938812214687509	-0.27164438588589834
-0.4938201863125009	-0.2678731377334908
-0.4937591511562509	-0.26408538504159673
-0.4936981160000009	-0.26028158569554405
-0.4936370808437509	-0.2564628003947356
-0.4935760456875009	-0.2526305434721128
-0.4935150105312509	-0.24878655873197406
-0.4934539753750009	-0.24493255228966335
-0.4933929402187509	-0.24106992461007518
-0.4933319050625009	-0.23719955783938085
-0.4932708699062509	-0.2333216979259628
-0.4932098347500009	-0.2294359443459531
-0.4931487995937509	-0.22554134822400784
-0.4930877644375009	-0.22163660156632856
-0.4930267292812509	-0.21772028340580432
-0.4929656941250009	-0.21379112583170765
-0.4929046589687509	-0.2098482622983904
-0.4928436238125009	-0.2058914107304087
-0.4927825886562509	-0.20192094845226036
-0.4927215535000009	-0.1979378703406937
-0.4926605183437509	-0.19394364440188863
-0.4925994831875009	-0.1899399887266259
-0.4925384480312509	-0.18592860951365053
-0.4924774128750009	-0.1819109428202695
-0.4924163777187509	-0.17788794222264015
-0.4923553425625009	-0.173859948784287
-0.4922943074062509	-0.16982666444269673
-0.4922332722500009	-0.16578723695508985
-0.4921722370937509	-0.1617404427521183
-0.4921112019375009	-0.15768493235666892
-0.4920501667812509	-0.15361949163781916
-0.4919891316250009	-0.14954327528959238
-0.4919280964687509	-0.14545598083336325
-0.4918670613125009	-0.1413579279467554
-0.4918060261562509	-0.13725001987982385
-0.4917449910000009	-0.13313360421241435
-0.4916839558437509	-0.1290102636561808
-0.4916229206875009	-0.1248815659583732
-0.4915618855312509	-0.12074881923955277
-0.4915008503750009	-0.11661288283313331
-0.4914398152187509	-0.11247406291371581
-0.4913787800625009	-0.10833210177483668
-0.4913177449062509	-0.10418626516953935
-0.4912567097500009	-0.10003552182104493
-0.4911956745937509	-0.09587877501900294
-0.4911346394375009	-0.09171509447401321
-0.4910736042812509	-0.08754391360526691
-0.4910125691250009	-0.08336516126705051
-0.4909515339687509	-0.07917930263000549
-0.4908904988125009	-0.07498728182096348
-0.4908294636562509	-0.07079037807751608
-0.4907684285000009	-0.06659000601373978
-0.4907073933437509	-0.06238749060880174
-0.4906463581875009	-0.05818385054378108
-0.4905853230312509	-0.05397964002853593
-0.4905242878750009	-0.04977487868000961
-0.4904632527187509	-0.04556906857763326
-0.4904022175625009	-0.04136130360061173
-0.4903411824062509	-0.03715046522334182
-0.4902801472500009	-0.03293545972134318
-0.4902191120937509	-0.028715445020093374
-0.4901580769375009	-0.02449001440081558
-0.4900970417812509	-0.02025931024514568
-0.4900360066250009	-0.01602404634561975
-0.4899749714687509	-0.011785432468652803
-0.4899139363125009	-0.00754501020213027
-0.4898529011562509	-0.0033044267459243263
-0.4897918660000009	0.000934813244363365
-0.4897308308437509	0.005171575620851835
-0.4896697956875009	0.009405265568941761
-0.4896087605312509	0.013635908422974413
-0.4895477253750009	0.01786412701281649
-0.4894866902187509	0.02209101372860682
-0.4894256550625009	0.02631791744312434
-0.4893646199062509	0.03054618657224793
-0.4893035847500009	0.03477691319028712
-0.4892425495937509	0.039010718154700495
-0.4891815144375009	0.043247614638698674
-0.4891204792812509	0.04748697349764158
-0.4890594441250009	0.05172759078138648
-0.4889984089687509	0.05596784537903919
-0.4889373738125009	0.06020592737147928
-0.4888763386562509	0.06444010179132374
-0.4888153035000009	0.06866896347759319
-0.4887542683437509	0.07289164286635733
-0.4886932331875009	0.07710792274339796
-0.4886321980312509	0.08131824036037141
-0.4885711628750009	0.08552358251923144
-0.4885101277187509	0.08972529451895159
-0.4884490925625009	0.0939248272607227
-0.4883880574062509	0.09812346678727599
-0.4883270222500009	0.10232209731030897
-0.4882659870937509	0.10652103282151519
-0.4882049519375009	0.11071994321738704
-0.4881439167812509	0.11491788485111251
-0.4880828816250009	0.11911342334792804
-0.4880218464687509	0.12330483559171546
-0.4879608113125009	0.12749036514130324
-0.4878997761562509	0.1316684812830098
-0.4878387410000009	0.13583809738347807
-0.4877777058437509	0.13999871388226212
-0.4877166706875009	0.14415045724149123
-0.4876556355312509	0.14829401393947897
-0.4875946003750009	0.15243047750243258
-0.4875335652187509	0.15656112996414515
-0.4874725300625009	0.16068719646486837
-0.4874114949062509	0.16480961574234804
-0.4873504597500009	0.16892885674629157
-0.4872894245937509	0.17304481638080788
-0.4872283894375009	0.17715682434898875
-0.4871673542812509	0.18126374239468312
-0.4871063191250009	0.18536413188458756
-0.4870452839687509	0.1894564712233872
-0.4869842488125009	0.19353938709550406
-0.4869232136562509	0.1976118489224984
-0.4868621785000009	0.2016732950209714
-0.4868011433437509	0.2057236816074598
-0.4867401081875009	0.20976344779250872
-0.4866790730312509	0.2137933952778494
-0.4866180378750009	0.2178145063439035
-0.4865570027187509	0.22182774046275594
-0.4864959675625009	0.22583384403045623
-0.4864349324062509	0.22983319795057267
-0.4863738972500009	0.2338257256315373
-0.4863128620937509	0.2378108811933135
-0.4862518269375009	0.24178772805115814
-0.4861907917812509	0.2457550904393837
-0.4861297566250009	0.2497117378121609
-0.4860687214687509	0.2536565691276692
-0.4860076863125009	0.25758876484596677
-0.4859466511562509	0.26150788466787867
-0.4858856160000009	0.26541391074845727
-0.4858245808437509	0.2693072215795792
-0.4857635456875009	0.2731884838964248
-0.4857025105312509	0.2770584905706013
-0.4856414753750009	0.28091798543527685
-0.4855804402187509	0.28476750348660945
-0.4855194050625009	0.2886072485578411
-0.4854583699062509	0.292437028278255
-0.4853973347500009	0.29625625923614296
-0.4853362995937509	0.3000640403510751
-0.4852752644375009	0.3038592815418196
-0.4852142292812509	0.3076408686312562
-0.4851531941250009	0.3114078321850647
-0.4850921589687509	0.31515948562762136
-0.4850311238125009	0.3188955140129251
-0.4849700886562509	0.3226160013062958
-0.4849090535000009	0.3263213883710601
-0.4848480183437509	0.3300123691120052
-0.4847869831875009	0.33368973979793487
-0.4847259480312509	0.33735422910108204
-0.4846649128750009	0.3410063447412519
-0.4846038777187509	0.3446462563482299
-0.4845428425625009	0.34827373204483847
-0.4844818074062509	0.35188814722270473
-0.4844207722500009	0.35548856123791683
-0.4843597370937509	0.35907384644443047
-0.4842987019375009	0.3626428509523661
-0.4842376667812509	0.3661945658691978
-0.4841766316250009	0.36972826659774594
-0.4841155964687509	0.3732436090611268
-0.4840545613125009	0.37674066670436573
-0.4839935261562509	0.3802198921616496
-0.4839324910000009	0.3836820085883374
-0.4838714558437509	0.3871278598602581
-0.4838104206875009	0.39055824544290424
-0.4837493855312509	0.3939737634050056
-0.4836883503750009	0.39737468853674307
-0.4836273152187509	0.40076090368542727
-0.4835662800625009	0.4041318927346524
-0.4835052449062509	0.40748680028533657
-0.4834442097500009	0.4108245508731339
-0.4833831745937509	0.4141440025350389
-0.4833221394375009	0.41744410617377087
-0.4832611042812509	0.42072404807158925
-0.4832000691250009	0.423983355477683
-0.4831390339687509	0.42722194486120807
-0.4830779988125009	0.430440101586526
-0.4830169636562509	0.43363840103904994
-0.4829559285000009	0.43681758857625486
-0.4828948933437509	0.43997843457807095
-0.4828338581875009	0.4431215877660076
-0.4827728230312509	0.4462474497538333
-0.4827117878750009	0.4493560908636541
-0.4826507527187509	0.45244722274712484
-0.4825897175625009	0.4555202300311291
-0.4825286824062509	0.458574253091399
-0.4824676472500009	0.46160830762232935
-0.4824066120937509	0.46462142163301845
-0.4823455769375009	0.46761276899944626
-0.4822845417812509	0.47058177761791314
-0.4822235066250009	0.47352819243736033
-0.4821624714687509	0.4764520835320022
-0.4821014363125009	0.47935380148067663
-0.4820404011562509	0.48223388997696254
-0.4819793660000009	0.4850929712435977
-0.4819183308437509	0.487931621669187
-0.4818572956875009	0.49075025651832205
-0.4817962605312509	0.4935490465374038
-0.4817352253750009	0.49632787895356695
-0.4816741902187509	0.4990863611306875
-0.4816131550625009	0.5018238670308233
-0.4815521199062509	0.5045396247768712
-0.4814910847500009	0.5072328298863439
-0.4814300495937509	0.5099027603358697
-0.4813690144375009	0.512548871849762
-0.4813079792812509	0.5151708606721672
-0.4812469441250009	0.5177686869179734
-0.4811859089687509	0.5203425532474907
-0.4811248738125009	0.5228928434147152
-0.4810638386562509	0.5254200346951136
-0.4810028035000009	0.5279245957329836
-0.4809417683437509	0.5304068846271458
-0.4808807331875009	0.532867069175738
-0.4808196980312509	0.535305082160794
-0.4807586628750009	0.5377206154013049
-0.4806976277187509	0.5401131560287452
-0.4806365925625009	0.5424820596281472
-0.4805755574062509	0.5448266441668851
-0.4805145222500009	0.5471462882903436
-0.4804534870937509	0.5494405188079484
-0.4803924519375009	0.5517090730516945
-0.4803314167812509	0.5539519247457224
-0.4802703816250009	0.5561692657207806
-0.4802093464687509	0.5583614478174195
-0.4801483113125009	0.56052889996768
-0.4800872761562509	0.5626720338027408
-0.4800262410000009	0.5647911538029122
-0.4799652058437509	0.5668863890053913
-0.4799041706875009	0.5689576539301022
-0.4798431355312509	0.5710046456723168
-0.4797821003750009	0.5730268818626306
-0.4797210652187509	0.5750237713052512
-0.4796600300625009	0.5769947035406336
-0.4795989949062509	0.578939140775558
-0.4795379597500009	0.5808566931838902
-0.4794769245937509	0.5827471655863914
-0.4794158894375009	0.5846105712974966
-0.4793548542812509	0.5864471110508657
-0.4792938191250009	0.5882571179604379
-0.4792327839687509	0.5900409781853987
-0.4791717488125009	0.5917990442040016
-0.4791107136562509	0.5935315570501618
-0.4790496785000009	0.5952385912185599
-0.4789886433437509	0.596920031409842
-0.4789276081875009	0.5985755832254139
-0.4788665730312509	0.6002048156717097
-0.4788055378750009	0.6018072287459387
-0.4787445027187509	0.6033823315670066
-0.4786834675625009	0.604929714185467
-0.4786224324062509	0.6064491025969692
-0.4785613972500009	0.6079403897816621
-0.4785003620937509	0.6094036358242626
-0.4784393269375009	0.6108390370759117
-0.4783782917812509	0.6122468716811896
-0.4783172566250009	0.6136274324440028
-0.4782562214687509	0.6149809603538947
-0.4781951863125009	0.6163075911325611
-0.4781341511562509	0.6176073239041489
-0.4780731160000009	0.6188800159835889
-0.4780120808437509	0.6201254028400145
-0.4779510456875009	0.6213431393802425
-0.4778900105312509	0.6225328546315628
-0.4778289753750009	0.6236942085097372
-0.4777679402187509	0.6248269396393629
-0.4777069050625009	0.6259308964734961
-0.4776458699062509	0.6270060480426314
-0.4775848347500009	0.628052473192192
-0.4775237995937509	0.6290703303125121
-0.4774627644375009	0.6300598145272525
-0.4774017292812509	0.6310211115841579
-0.4773406941250009	0.631954356613146
-0.4772796589687509	0.6328596045186123
-0.4772186238125009	0.6337368164463826
-0.4771575886562509	0.6345858633231892
-0.4770965535000009	0.6354065444670671
-0.4770355183437509	0.6361986170439483
-0.4769744831875009	0.6369618307665904
-0.4769134480312509	0.6376959617817238
-0.4768524128750009	0.6384008401885352
-0.4767913777187509	0.6390763673029985
-0.4767303425625009	0.6397225208985841
-0.4766693074062509	0.6403393486632741
-0.4766082722500009	0.6409269521434413
-0.4765472370937509	0.6414854645524922
-0.4764862019375009	0.6420150258270753
-0.4764251667812509	0.6425157582219267
-0.4763641316250009	0.6429877456162384
-0.4763030964687509	0.6434310185245631
-0.4762420613125009	0.643845545747926
-0.4761810261562509	0.6442312336205431
-0.4761199910000009	0.6445879327942915
-0.4760589558437509	0.6449154515712904
-0.4759979206875009	0.6452135747407882
-0.4759368855312509	0.645482086777372
-0.4758758503750009	0.645720797861052
-0.4758148152187509	0.6459295694044593
-0.4757537800625009	0.6461083359063544
-0.4756927449062509	0.6462571209953023
-0.4756317097500009	0.6463760435209679
-0.4755706745937509	0.6464653100742579
-0.4755096394375009	0.646525193356023
-0.4754486042812509	0.6465559971317288
-0.4753875691250009	0.6465580112290826
-0.4753265339687509	0.6465314627120102
-0.4752654988125009	0.646476469676364
-0.4752044636562509	0.646393004546854
-0.4751434285000009	0.6462808746130438
-0.4750823933437509	0.6461397273811762
-0.4750213581875009	0.6459690849826579
-0.4749603230312509	0.6457684057214134
-0.4748992878750009	0.6455371651870639
-0.4748382527187509	0.6452749447702707
-0.4747772175625009	0.6449815127666129
-0.4747161824062509	0.6446568847622075
-0.4746551472500009	0.6443013529646444
-0.4745941120937509	0.6439154748083866
-0.4745330769375009	0.6435000146038867
-0.4744720417812509	0.6430558427022823
-0.4744110066250009	0.6425838052500206
-0.4743499714687509	0.6420845836167156
-0.4742889363125009	0.641558567772754
-0.4742279011562509	0.6410057650599614
-0.4741668660000009	0.6404257626325451
-0.4741058308437509	0.6398177566356679
-0.4740447956875009	0.6391806485966768
-0.4739837605312509	0.6385131983105027
-0.4739227253750009	0.6378142136342371
-0.4738616902187509	0.63708275108965
-0.4738006550625009	0.6363182952281711
-0.4737396199062509	0.6355208827063152
-0.4736785847500009	0.6346911443972699
-0.4736175495937509	0.633830251062793
-0.4735565144375009	0.6329397662676894
-0.4734954792812509	0.6320214272851273
-0.4734344441250009	0.6310768838909295
-0.4733734089687509	0.6301074334201837
-0.4733123738125009	0.6291137945191101
-0.4732513386562509	0.6280959593838883
-0.4731903035000009	0.627053155831409
-0.4731292683437509	0.6259839319590627
-0.4730682331875009	0.6248863562432265
-0.4730071980312509	0.6237583090374851
-0.4729461628750009	0.6225978214950673
-0.4728851277187509	0.6214034066929035
-0.4728240925625009	0.6201743306137639
-0.4727630574062509	0.6189107749176944
-0.4727020222500009	0.6176138578371135
-0.4726409870937509	0.6162855051502304
-0.4725799519375009	0.6149281845599296
-0.4725189167812509	0.6135445392061076
-0.4724578816250009	0.6121369759445494
-0.4723968464687509	0.6107072736006116
-0.4723358113125009	0.6092562789017171
-0.4722747761562509	0.6077837455567583
-0.4722137410000009	0.6062883456385113
-0.4721527058437509	0.6047678562371401
-0.4720916706875009	0.6032194988733454
-0.4720306355312509	0.6016403800061954
-0.4719696003750009	0.600027962618446
-0.4719085652187509	0.5983804963516464
-0.4718475300625009	0.5966973356633847
-0.4717864949062509	0.5949790885242054
-0.4717254597500009	0.5932275632153344
-0.4716644245937509	0.5914455144955352
-0.4716033894375009	0.5896362301881504
-0.4715423542812509	0.5878030226787102
-0.4714813191250009	0.5859487021139466
-0.4714202839687509	0.5840751224921918
-0.4713592488125009	0.582182881549228
-0.4712982136562509	0.5802712174992075
-0.4712371785000009	0.5783381166484479
-0.4711761433437509	0.576380627327243
-0.4711151081875009	0.5743953375986942
-0.4710540730312509	0.5723789334064976
-0.4709930378750009	0.5703287458385103
-0.4709320027187509	0.5682432056172347
-0.4708709675625009	0.5661221296862406
-0.4708099324062509	0.5639667839601052
-0.4707488972500009	0.5617797092255774
-0.4706878620937509	0.559564339026042
-0.4706268269375009	0.5573244662745651
-0.4705657917812509	0.5550636449312808
-0.4705047566250009	0.55278462676969
-0.4704437214687509	0.5504889205595727
-0.4703826863125009	0.5481765461227531
-0.4703216511562509	0.5458460327501184
-0.4702606160000009	0.54349466488451
-0.4701995808437509	0.5411189327374105
-0.4701385456875009	0.538715117454148
-0.4700775105312509	0.5362799161339536
-0.4700164753750009	0.5338110043346572
-0.4699554402187509	0.5313074446446837
-0.4698944050625009	0.5287698671485592
-0.4698333699062509	0.5262003894048125
-0.4697723347500009	0.5236022922147086
-0.4697112995937509	0.5209795005116902
-0.4696502644375009	0.5183359542834307
-0.4695892292812509	0.515674975871248
-0.4695281941250009	0.5129987340972253
-0.4694671589687509	0.5103078950917722
-0.4694061238125009	0.5076015252749981
-0.4693450886562509	0.5048772629369954
