Time	Frequency
-0.5000541847499989	0.6225077821495906
-0.49999314959374885	0.6206452835290469
-0.49993211443749885	0.618742096437767
-0.49987107928124885	0.6167937858668757
-0.49981004412499885	0.6147995878203256
-0.49974900896874885	0.6127624099256992
-0.49968797381249885	0.6106877190905309
-0.49962693865624885	0.6085817264410329
-0.49956590349999885	0.6064494685403322
-0.49950486834374885	0.6042933745254916
-0.49944383318749885	0.6021127182145312
-0.49938279803124885	0.5999040687887058
-0.49932176287499885	0.5976625481956124
-0.49926072771874885	0.5953834620373089
-0.49919969256249885	0.5930637793781836
-0.49913865740624885	0.5907030148918725
-0.49907762224999885	0.5883032765697592
-0.49901658709374885	0.5858685166985026
-0.49895555193749885	0.5834032584377613
-0.49889451678124885	0.5809112009361532
-0.49883348162499885	0.5783941353700413
-0.49877244646874885	0.5758515030910025
-0.49871141131249885	0.5732807080641318
-0.49865037615624885	0.5706780537647492
-0.49858934099999885	0.5680399819358773
-0.49852830584374885	0.5653642131082565
-0.49846727068749885	0.562650449404569
-0.49840623553124885	0.5599004476212374
-0.49834520037499885	0.5571174571346271
-0.49828416521874885	0.5543052096906748
-0.49822313006249885	0.551466787912219
-0.49816209490624885	0.548603728855173
-0.49810105974999885	0.5457156362175457
-0.49804002459374885	0.5428004033603692
-0.49797898943749885	0.5398549514541716
-0.49791795428124885	0.53687624575415
-0.49785691912499885	0.5338622810780707
-0.49779588396874885	0.5308127284608681
-0.49773484881249885	0.5277290453995939
-0.49767381365624885	0.524614034620403
-0.49761277849999885	0.5214710021014489
-0.49755174334374885	0.518302782271218
-0.49749070818749885	0.5151109306582333
-0.49742967303124885	0.5118953217501588
-0.49736863787499885	0.5086542739161974
-0.49730760271874885	0.5053851525853761
-0.49724656756249885	0.5020852457490965
-0.49718553240624885	0.4987526428632174
-0.49712449724999885	0.49538685059666715
-0.49706346209374885	0.4919889636977954
-0.49700242693749885	0.4885613590347273
-0.49694139178124885	0.4851070055907363
-0.49688035662499885	0.4816285966423347
-0.49681932146874885	0.4781277892794866
-0.49675828631249885	0.47460478727552674
-0.49669725115624885	0.47105836880376767
-0.49663621599999885	0.4674863379607952
-0.49657518084374885	0.4638862654379725
-0.49651414568749885	0.4602562866020631
-0.49645311053124885	0.45659571196005644
-0.49639207537499885	0.45290526692843275
-0.49633104021874885	0.44918689170490045
-0.49627000506249885	0.44544318237984293
-0.49620896990624885	0.4416766547723697
-0.49614793474999885	0.4378890485675459
-0.49608689959374885	0.4340808889368325
-0.49602586443749885	0.4302514335513639
-0.49596482928124885	0.4263989933828247
-0.49590379412499885	0.42252152024375933
-0.49584275896874885	0.41861728552983146
-0.49578172381249885	0.41468543943067143
-0.49572068865624885	0.4107262876824762
-0.49565965349999885	0.4067412207930487
-0.49559861834374885	0.40273232817609905
-0.49553758318749885	0.39870182309413293
-0.49547654803124885	0.39465145955700875
-0.49541551287499885	0.39058211030792395
-0.49535447771874885	0.3864936219644848
-0.49529344256249885	0.3823849737944176
-0.49523240740624885	0.3782546712086109
-0.49517137224999885	0.37410125473436373
-0.49511033709374885	0.3699237813949064
-0.49504930193749885	0.36572212865040993
-0.49498826678124885	0.36149702685122914
-0.49492723162499885	0.3572498374272054
-0.49486619646874885	0.35298217759312955
-0.49480516131249885	0.3486955186995981
-0.49474412615624885	0.344390871933275
-0.49468309099999885	0.3400686311673728
-0.49462205584374885	0.33572860104032193
-0.49456102068749885	0.33137019614687824
-0.49449998553124885	0.32699273177900606
-0.49443895037499885	0.32259568750632456
-0.49437791521874885	0.3181788655697061
-0.49431688006249885	0.31374242467059904
-0.49425584490624885	0.3092867933608536
-0.49419480974999885	0.30481251450342906
-0.49413377459374885	0.30032011356135496
-0.49407273943749885	0.2958100385657658
-0.49401170428124885	0.2912826654606976
-0.49395066912499885	0.28673836180065937
-0.49388963396874885	0.2821775752898718
-0.49382859881249885	0.2776008732664566
-0.49376756365624885	0.2730088971919359
-0.49370652849999885	0.26840224880895674
-0.49364549334374885	0.26378132865623877
-0.49358445818749885	0.2591461745455805
-0.49352342303124885	0.25449639044024164
-0.49346238787499885	0.2498312266076158
-0.49340135271874885	0.24514979922870908
-0.49334031756249885	0.2404514056474234
-0.49327928240624885	0.23573586475501584
-0.49321824724999885	0.23100376013649251
-0.49315721209374885	0.22625646714185235
-0.49309617693749885	0.22149593244600768
-0.49303514178124885	0.2167242634595574
-0.49297410662499885	0.2119432259086658
-0.49291307146874885	0.2071537763234994
-0.49285203631249885	0.2023557712042401
-0.49279100115624885	0.19754796554995827
-0.49272996599999885	0.1927283383603341
-0.49266893084374885	0.18789467727219242
-0.49260789568749885	0.18304525800635116
-0.49254686053124885	0.17817941435783072
-0.49248582537499885	0.17329784343564936
-0.49242479021874885	0.16840256669777032
-0.49236375506249885	0.16349652565010409
-0.49230271990624885	0.15858289405600154
-0.49224168474999885	0.15366430032770342
-0.49218064959374885	0.1487421799617137
-0.49211961443749885	0.14381642815970674
-0.49205857928124885	0.1388854534717482
-0.49199754412499885	0.13394664336646958
-0.49193650896874885	0.1289971262190247
-0.49187547381249885	0.12403461107160652
-0.49181443865624885	0.1190580678715484
-0.49175340349999885	0.11406806662536359
-0.49169236834374885	0.10906668776694263
-0.49163133318749885	0.10405703164443773
-0.49157029803124885	0.099042464543922
-0.49150926287499885	0.09402580247438795
-0.49144822771874885	0.08900865178290751
-0.49138719256249885	0.08399108927668168
-0.49132615740624885	0.07897175802725727
-0.49126512224999885	0.07394833872485598
-0.49120408709374885	0.06891827152919397
-0.49114305193749885	0.06387952170253848
-0.49108201678124885	0.05883116410235355
-0.49102098162499885	0.05377364050912927
-0.49095994646874885	0.04870863961536678
-0.49089891131249885	0.04363865139580937
-0.49083787615624885	0.038566335457635346
-0.49077684099999885	0.033493880399947204
-0.49071580584374885	0.02842252732255256
-0.49065477068749885	0.0233523716519862
-0.49059373553124885	0.01828248627358381
-0.49053270037499885	0.013211331703364861
-0.49047166521874885	0.008137313520071052
-0.49041063006249885	0.0030593060474602436
-0.49034959490624885	-0.002022995329810161
-0.49028855974999885	-0.0071089758333912215
-0.49022752459374885	-0.012197277347536312
-0.49016648943749885	-0.01728618243907489
-0.49010545428124885	-0.022374070559057352
-0.49004441912499885	-0.027459804744274414
-0.48998338396874885	-0.03254294647454127
-0.48992234881249885	-0.037623748622606375
-0.48986131365624885	-0.04270293816424086
-0.48980027849999885	-0.047781366583313056
-0.48973924334374885	-0.05285964344575478
-0.48967820818749885	-0.05793786511329732
-0.48961717303124885	-0.06301552274587831
-0.48955613787499885	-0.06809160592181308
-0.48949510271874885	-0.07316484778101243
-0.48943406756249885	-0.07823403997637508
-0.48937303240624885	-0.08329833596402245
-0.48931199724999885	-0.08835743904202506
-0.48925096209374885	-0.09341159865066632
-0.48918992693749885	-0.09846143040283761
-0.48912889178124885	-0.10350763635748673
-0.48906785662499885	-0.10855070523837608
-0.48900682146874885	-0.11359068183249635
-0.48894578631249885	-0.11862707258700009
-0.48888475115624885	-0.1236589007580396
-0.48882371599999885	-0.12868490405066466
-0.48876268084374885	-0.13370383595974536
-0.48870164568749885	-0.13871476679191289
-0.48864061053124885	-0.1437172667675016
-0.48857957537499885	-0.1487114263255254
-0.48851854021874885	-0.15369773713256168
-0.48845750506249885	-0.15867686977458256
-0.48839646990624885	-0.16364939805087866
-0.48833543474999885	-0.16861555181766796
-0.48827439959374885	-0.17357508374006084
-0.48821336443749885	-0.17852728592635417
-0.48815232928124885	-0.18347113652125815
-0.48809129412499885	-0.18840552636425117
-0.48803025896874885	-0.19332949650643488
-0.48796922381249885	-0.19824242341251938
-0.48790818865624885	-0.20314410701690055
-0.48784715349999885	-0.20803473368064493
-0.48778611834374885	-0.21291472056561891
-0.48772508318749885	-0.2177844915325221
-0.48766404803124885	-0.22264426526334105
-0.48760301287499885	-0.227493926864234
-0.48754197771874885	-0.23233301032462358
-0.48748094256249885	-0.23716077664778784
-0.48741990740624885	-0.24197635878123197
-0.48735887224999885	-0.24677894383613178
-0.48729783709374885	-0.2515679381751296
-0.48723680193749885	-0.25634306091735537
-0.48717576678124885	-0.26110434451965187
-0.48711473162499885	-0.2658520310337971
-0.48705369646874885	-0.27058639332894086
-0.48699266131249885	-0.27530756018954805
-0.48693162615624885	-0.2800154002142209
-0.48687059099999885	-0.2847094877829083
-0.48680955584374885	-0.2893891629421022
-0.48674852068749885	-0.2940536659191888
-0.48668748553124885	-0.2987022942364564
-0.48662645037499885	-0.3033345316052527
-0.48656541521874885	-0.3079501232764487
-0.48650438006249885	-0.3125490803149944
-0.48644334490624885	-0.31713159628386683
-0.48638230974999885	-0.32169789263487186
-0.48632127459374885	-0.32624805732935236
-0.48626023943749885	-0.3307819404587069
-0.48619920428124885	-0.3352991283307887
-0.48613816912499885	-0.33979899730120616
-0.48607713396874885	-0.34428083467489895
-0.48601609881249885	-0.34874398939205414
-0.48595506365624885	-0.353188002273927
-0.48589402849999885	-0.35761266902971983
-0.48583299334374885	-0.3620180164844423
-0.48577195818749885	-0.36640420500415416
-0.48571092303124885	-0.37077138812616056
-0.48564988787499885	-0.3751195768693267
-0.48558885271874885	-0.37944855519378223
-0.48552781756249885	-0.383757871549845
-0.48546678240624885	-0.3880469083834468
-0.48540574724999885	-0.3923150092684546
-0.48534471209374885	-0.3965616251977467
-0.48528367693749885	-0.4007864280796539
-0.48522264178124885	-0.40498935070888986
-0.48516160662499885	-0.40917054133198016
-0.48510057146874885	-0.413330239904229
-0.48503953631249885	-0.4174686100874101
-0.48497850115624885	-0.4215855873056828
-0.48491746599999885	-0.4256807968519303
-0.48485643084374885	-0.4297535758040622
-0.48479539568749885	-0.43380310166476294
-0.48473436053124885	-0.43782858300001437
-0.48467332537499885	-0.44182944667783386
-0.48461229021874885	-0.4458054643937232
-0.48455125506249885	-0.4497567727262472
-0.48449021990624885	-0.45368377527905157
-0.48442918474999885	-0.45758696067146726
-0.48436814959374885	-0.46146668810694264
-0.48430711443749885	-0.46532300074704247
-0.48424607928124885	-0.4691555347201377
-0.48418504412499885	-0.47296356003696133
-0.48412400896874885	-0.47674613503338553
-0.48406297381249885	-0.48050232583513386
-0.48400193865624885	-0.48423142558538357
-0.48394090349999885	-0.4879330963971878
-0.48387986834374885	-0.49160738807031984
-0.48381883318749885	-0.49525464357617127
-0.48375779803124885	-0.4988753240518656
-0.48369676287499885	-0.5024697978795563
-0.48363572771874885	-0.5060381614456351
-0.48357469256249885	-0.5095801540771583
-0.48351365740624885	-0.5130951945427332
-0.48345262224999885	-0.516582518961377
-0.48339158709374885	-0.5200413635264101
-0.48333055193749885	-0.5234711364286124
-0.48326951678124885	-0.5268715330580571
-0.48320848162499885	-0.5302425586818118
-0.48314744646874885	-0.5335844496534216
-0.48308641131249885	-0.5368975217688257
-0.48302537615624885	-0.5401820030538407
-0.48296434099999885	-0.5434379024801727
-0.48290330584374885	-0.5466649520551936
-0.48284227068749885	-0.5498626488886771
-0.48278123553124885	-0.5530303848915783
-0.48272020037499885	-0.5561676056774773
-0.48265916521874885	-0.5592739343391981
-0.48259813006249885	-0.5623492259375295
-0.48253709490624885	-0.5653935427741742
-0.48247605974999885	-0.5684070586844575
-0.48241502459374885	-0.5713899244444939
-0.48235398943749885	-0.5743421387659999
-0.48229295428124885	-0.5772634726617409
-0.48223191912499885	-0.5801534848325244
-0.48217088396874885	-0.5830116245475511
-0.48210984881249885	-0.5858373756190597
-0.48204881365624885	-0.5886303900274217
-0.48198777849999885	-0.5913905697896938
-0.48192674334374885	-0.5941180613250546
-0.48186570818749885	-0.5968131573131493
-0.48180467303124885	-0.5994761413997272
-0.48174363787499885	-0.6021071260800914
-0.48168260271874885	-0.6047059375261266
-0.48162156756249885	-0.6072720946695249
-0.48156053240624885	-0.6098048986754927
-0.48149949724999885	-0.6123036043805841
-0.48143846209374885	-0.6147676162819946
-0.48137742693749885	-0.6171966493474282
-0.48131639178124885	-0.6195908001877927
-0.48125535662499885	-0.6219504936505931
-0.48119432146874885	-0.624276317269301
-0.48113328631249885	-0.6265687976568476
-0.48107225115624885	-0.6288281864256408
-0.48101121599999885	-0.6310543198641053
-0.48095018084374885	-0.6332466019530645
-0.48088914568749885	-0.6354041262729248
-0.48082811053124885	-0.6375259033740094
-0.48076707537499885	-0.6396111231220466
-0.48070604021874885	-0.6416593710997198
-0.48064500506249885	-0.6436707314353034
-0.48058396990624885	-0.6456457413998862
-0.48052293474999885	-0.6475852066369803
-0.48046189959374885	-0.6494899283030254
-0.48040086443749885	-0.6513604234160253
-0.48033982928124885	-0.6531967260230123
-0.48027879412499885	-0.6549983327605667
-0.48021775896874885	-0.6567643089959484
-0.48015672381249885	-0.6584935247653099
-0.48009568865624885	-0.6601849554787294
-0.48003465349999885	-0.6618379603612456
-0.47997361834374885	-0.6634524516583044
-0.47991258318749885	-0.6650288977645653
-0.47985154803124885	-0.666568156672319
-0.47979051287499885	-0.668071190394551
-0.47972947771874885	-0.6695387464820344
-0.47966844256249885	-0.670971102713058
-0.47960740740624885	-0.6723679523185889
-0.47954637224999885	-0.6737284647244562
-0.47948533709374885	-0.6750515053301906
-0.47942430193749885	-0.6763359506877582
-0.47936326678124885	-0.6775810043480195
-0.47930223162499885	-0.678786415723162
-0.47924119646874885	-0.6799525333803681
-0.47918016131249885	-0.6810801758813062
-0.47911912615624885	-0.6821703601702899
-0.47905809099999885	-0.6832239702585599
-0.47899705584374885	-0.6842414661458047
-0.47893602068749885	-0.6852227216051496
-0.47887498553124885	-0.6861670404473723
-0.47881395037499885	-0.6870733463762592
-0.47875291521874885	-0.6879404894257679
-0.47869188006249885	-0.6887675759282149
-0.47863084490624885	-0.6895542210886466
-0.47856980974999885	-0.6903006477925527
-0.47850877459374885	-0.6910076030478206
-0.47844773943749885	-0.6916761174600476
-0.47838670428124885	-0.6923071794912911
-0.47832566912499885	-0.6929014233559013
-0.47826463396874885	-0.6934589245751246
-0.47820359881249885	-0.6939791628693243
-0.47814256365624885	-0.6944611634905944
-0.47808152849999885	-0.6949037763528585
-0.47802049334374885	-0.695306009692703
-0.47795945818749885	-0.6956673164665714
-0.47789842303124885	-0.6959877462934726
-0.47783738787499885	-0.6962679184081463
-0.47777635271874885	-0.6965088248853556
-0.47771531756249885	-0.6967115235930931
-0.47765428240624885	-0.6968768137936941
-0.47759324724999885	-0.6970049928945511
-0.47753221209374885	-0.6970957664783609
-0.47747117693749885	-0.697148335951228
-0.47741014178124885	-0.6971616381424438
-0.47734910662499885	-0.6971346645655414
-0.47728807146874885	-0.6970667587348528
-0.47722703631249885	-0.696957801399738
-0.47716600115624885	-0.6968082330227107
-0.47710496599999885	-0.6966189085231734
-0.47704393084374885	-0.6963908296822414
-0.47698289568749885	-0.6961248390805517
-0.47692186053124885	-0.6958213694144982
-0.47686082537499885	-0.6954803236773216
-0.47679979021874885	-0.6951011194811192
-0.47673875506249885	-0.6946828822869893
-0.47667771990624885	-0.6942247266666446
-0.47661668474999885	-0.6937260327778865
-0.47655564959374885	-0.6931866315521082
-0.47649461443749885	-0.6926068479135554
-0.47643357928124885	-0.6919873920528689
-0.47637254412499885	-0.6913291321555249
-0.47631150896874885	-0.6906328231204173
-0.47625047381249885	-0.6898988802617032
-0.47618943865624885	-0.6891272667124367
-0.47612840349999885	-0.6883175251883323
-0.47606736834374885	-0.6874689405773164
-0.47600633318749885	-0.6865807824367717
-0.47594529803124885	-0.6856525539771392
-0.47588426287499885	-0.684684165387021
-0.47582322771874885	-0.6836759698498481
-0.47576219256249885	-0.6826286552285935
-0.47570115740624885	-0.6815430340104933
-0.47564012224999885	-0.6804197940155563
-0.47557908709374885	-0.6792592858971438
-0.47551805193749885	-0.6780614233818348
-0.47545701678124885	-0.6768257293686522
-0.47539598162499885	-0.6755515082910285
-0.47533494646874885	-0.6742380906040754
-0.47527391131249885	-0.6728850706762312
-0.47521287615624885	-0.6714924603128397
-0.47515184099999885	-0.6700607084063157
-0.47509080584374885	-0.6685905814470363
-0.47502977068749885	-0.6670829439475273
-0.47496873553124885	-0.6655385053508991
-0.47490770037499885	-0.6639576139300405
-0.47484666521874885	-0.6623401635141658
-0.47478563006249885	-0.6606856426050317
-0.47472459490624885	-0.658993315943556
-0.47466355974999885	-0.6572624820479837
-0.47460252459374885	-0.6554927231345183
-0.47454148943749885	-0.6536840674986634
-0.47448045428124885	-0.6518370103327316
-0.47441941912499885	-0.6499523889686777
-0.47435838396874885	-0.6480311556179378
-0.47429734881249885	-0.6460741136940469
-0.47423631365624885	-0.6440816943357417
-0.47417527849999885	-0.642053845675785
-0.47411424334374885	-0.639990075911158
-0.47405320818749885	-0.6378896383486226
-0.47399217303124885	-0.6357517959606319
-0.47393113787499885	-0.6335760832300189
-0.47387010271874885	-0.6313624886232659
-0.47380906756249885	-0.62911149614894
-0.47374803240624885	-0.6268239667282557
-0.47368699724999885	-0.624500904019286
-0.47362596209374885	-0.6221431875470218
-0.47356492693749885	-0.6197513437846102
-0.47350389178124885	-0.6173254130867938
-0.47344285662499885	-0.6148649698205356
-0.47338182146874885	-0.6123692984197332
-0.47332078631249885	-0.6098376525348375
-0.47325975115624885	-0.6072695121283358
-0.47319871599999885	-0.6046647781600698
-0.47313768084374885	-0.6020238489689804
-0.47307664568749885	-0.5993475424741557
-0.47301561053124885	-0.5966368885156172
-0.47295457537499885	-0.5938928571622666
-0.47289354021874885	-0.591116105082364
-0.47283250506249885	-0.5883068250971586
-0.47277146990624885	-0.585464742575019
-0.47271043474999885	-0.5825892445885603
-0.47264939959374885	-0.5796796023607566
-0.47258836443749885	-0.5767352291485477
-0.47252732928124885	-0.5737558958475738
-0.47246629412499885	-0.5707418388839127
-0.47240525896874885	-0.5676937308252533
-0.47234422381249885	-0.5646125273012434
-0.47228318865624885	-0.5614992385620076
-0.47222215349999885	-0.5583546839380746
-0.47216111834374885	-0.5551792977821599
-0.47210008318749885	-0.5519730589950115
-0.47203904803124885	-0.5487355629990703
-0.47197801287499885	-0.5454661904355825
-0.47191697771874885	-0.542164322026009
-0.47185594256249885	-0.5388295587767398
-0.47179490740624885	-0.5354618942329306
-0.47173387224999885	-0.5320617757514078
-0.47167283709374885	-0.5286300219428478
-0.47161180193749885	-0.5251676296856459
-0.47155076678124885	-0.5216755371452775
-0.47148973162499885	-0.5181544093235415
-0.47142869646874885	-0.5146045069178291
-0.47136766131249885	-0.5110256728198467
-0.47130662615624885	-0.5074174330162152
-0.47124559099999885	-0.5037791793914168
-0.47118455584374885	-0.5001103919504938
-0.47112352068749885	-0.49641084658437046
-0.47106248553124885	-0.4926807427685701
-0.47100145037499885	-0.48892070694318024
-0.47094041521874885	-0.4851316682202773
-0.47087938006249885	-0.48131464876175806
-0.47081834490624885	-0.47747053864672073
-0.47075730974999885	-0.47359990749745634
-0.47069627459374885	-0.4697028898309686
-0.47063523943749885	-0.46577918841389715
-0.47057420428124885	-0.46182821385230116
-0.47051316912499885	-0.45784931685924746
-0.47045213396874885	-0.45384203490110947
-0.47039109881249885	-0.4498062867070428
-0.47033006365624885	-0.44574246751685664
