Time	Frequency
-0.5000076254687507	-3.919409583060746e-22
-0.49994659031250066	-3.9198447394666945e-22
-0.49988555515625066	-3.92007989999006e-22
-0.49982452000000066	-3.9201601104831843e-22
-0.49976348484375066	-3.920125013118127e-22
-0.49970244968750066	-3.920003860471942e-22
-0.49964141453125066	-3.9198120525262944e-22
-0.49958037937500066	-3.919549600818703e-22
-0.49951934421875066	-3.919201660998778e-22
-0.49945830906250066	-3.9187409955743e-22
-0.49939727390625066	-3.918131975747352e-22
-0.49933623875000066	-3.917335540829836e-22
-0.49927520359375066	-3.9163144278588604e-22
-0.49921416843750066	-3.9150379801661703e-22
-0.49915313328125066	-3.913485921319477e-22
-0.49909209812500066	-3.911650619754825e-22
-0.49903106296875066	-3.9095375920250734e-22
-0.49897002781250066	-3.9071642500936054e-22
-0.49890899265625066	-3.904557118002613e-22
-0.49884795750000066	-3.901747941656228e-22
-0.49878692234375066	-3.8987692624194014e-22
-0.49872588718750066	-3.8956500622930083e-22
-0.49866485203125066	-3.8924120515340934e-22
-0.49860381687500066	-3.889067078111255e-22
-0.49854278171875066	-3.8856159752439137e-22
-0.49848174656250066	-3.8820489542407523e-22
-0.49842071140625066	-3.878347432610957e-22
-0.49835967625000066	-3.8744869898111722e-22
-0.49829864109375066	-3.8704409960325867e-22
-0.49823760593750066	-3.8661843913483437e-22
-0.49817657078125066	-3.8616970950800667e-22
-0.49811553562500066	-3.856966587404417e-22
-0.49805450046875066	-3.8519893378153177e-22
-0.49799346531250066	-3.8467709289202214e-22
-0.49793243015625066	-3.8413248986408333e-22
-0.49787139500000066	-3.835670495330182e-22
-0.49781035984375066	-3.8298296879643776e-22
-0.49774932468750066	-3.823823885657075e-22
-0.49768828953125066	-3.81767087245069e-22
-0.49762725437500066	-3.811382387669583e-22
-0.49756621921875066	-3.8049626581462507e-22
-0.49750518406250066	-3.798408075568415e-22
-0.49744414890625066	-3.7917080300185763e-22
-0.49738311375000066	-3.7848467356080573e-22
-0.49732207859375066	-3.7778057830448246e-22
-0.49726104343750066	-3.7705670545289553e-22
-0.49720000828125066	-3.763115550102056e-22
-0.49713897312500066	-3.755441684370018e-22
-0.49707793796875066	-3.747542727353194e-22
-0.49701690281250066	-3.7394232051364135e-22
-0.49695586765625066	-3.7310942134463823e-22
-0.49689483250000066	-3.7225717435581555e-22
-0.49683379734375066	-3.7138742703451707e-22
-0.49677276218750066	-3.70501997137536e-22
-0.49671172703125066	-3.6960239867978134e-22
-0.49665069187500066	-3.686896116320026e-22
-0.49658965671875066	-3.6776392867967075e-22
-0.49652862156250066	-3.6682490155720976e-22
-0.49646758640625066	-3.6587139857445443e-22
-0.49640655125000066	-3.649017681825737e-22
-0.49634551609375066	-3.6391408221040623e-22
-0.49628448093750066	-3.6290642094823563e-22
-0.49622344578125066	-3.618771613126404e-22
-0.49616241062500066	-3.608252301370261e-22
-0.49610137546875066	-3.5975028610556224e-22
-0.49604034031250066	-3.586528006641247e-22
-0.49597930515625066	-3.575340217715987e-22
-0.49591827000000066	-3.5639582377095413e-22
-0.49585723484375066	-3.552404655543394e-22
-0.49579619968750066	-3.5407028945894524e-22
-0.49573516453125066	-3.5288740140539995e-22
-0.49567412937500066	-3.5169337764425656e-22
-0.49561309421875066	-3.504890364888852e-22
-0.49555205906250066	-3.492743074286631e-22
-0.49549102390625066	-3.4804822195349456e-22
-0.49542998875000066	-3.4680902854919626e-22
-0.49536895359375066	-3.455544157037088e-22
-0.49530791843750066	-3.4428181537073526e-22
-0.49524688328125066	-3.4298874847981135e-22
-0.49518584812500066	-3.4167316790441545e-22
-0.49512481296875066	-3.4033375217722286e-22
-0.49506377781250066	-3.389701072685862e-22
-0.49500274265625066	-3.3758284766154464e-22
-0.49494170750000066	-3.361735455784249e-22
-0.49488067234375066	-3.3474455332567603e-22
-0.49481963718750066	-3.3329872079933486e-22
-0.49475860203125066	-3.3183904417149973e-22
-0.49469756687500066	-3.3036828829764744e-22
-0.49463653171875066	-3.2888863004719417e-22
-0.49457549656250066	-3.274013719236387e-22
-0.49451446140625066	-3.25906767978281e-22
-0.49445342625000066	-3.244039847673833e-22
-0.49439239109375066	-3.2289119870361015e-22
-0.49433135593750066	-3.2136581942152063e-22
-0.49427032078125066	-3.198248165091653e-22
-0.49420928562500066	-3.1826510927851427e-22
-0.49414825046875066	-3.1668396825432695e-22
-0.49408721531250066	-3.1507937398870186e-22
-0.49402618015625066	-3.134502855234011e-22
-0.49396514500000066	-3.1179678811953405e-22
-0.49390410984375066	-3.1012010483370842e-22
-0.49384307468750066	-3.0842246575346466e-22
-0.49378203953125066	-3.0670684720684744e-22
-0.49372100437500066	-3.04976616507784e-22
-0.49365996921875066	-3.032351258128711e-22
-0.49359893406250066	-3.0148530295936474e-22
-0.49353789890625066	-2.9972929305284933e-22
-0.49347686375000066	-2.9796819772931235e-22
-0.49341582859375066	-2.962019457259715e-22
-0.49335479343750066	-2.9442930996660232e-22
-0.49329375828125066	-2.9264806546566543e-22
-0.49323272312500066	-2.9085526875799345e-22
-0.49317168796875066	-2.8904762712693364e-22
-0.49311065281250066	-2.872219134927514e-22
-0.49304961765625066	-2.853753728426064e-22
-0.49298858250000066	-2.835060653915074e-22
-0.49292754734375066	-2.8161310751284167e-22
-0.49286651218750066	-2.7969678725206924e-22
-0.49280547703125066	-2.7775853891766724e-22
-0.49274444187500066	-2.7580077561329074e-22
-0.49268340671875066	-2.738266007649398e-22
-0.49262237156250066	-2.71839438050912e-22
-0.49256133640625066	-2.6984262751133543e-22
-0.49250030125000066	-2.6783903737541016e-22
-0.49243926609375066	-2.658307381949486e-22
-0.49237823093750066	-2.6381877508868443e-22
-0.49231719578125066	-2.6180306271330976e-22
-0.49225616062500066	-2.5978241723374667e-22
-0.49219512546875066	-2.577547215803361e-22
-0.49213409031250066	-2.557172015298295e-22
-0.49207305515625066	-2.536667766721635e-22
-0.49201202000000066	-2.516004399380928e-22
-0.49195098484375066	-2.495156201115454e-22
-0.49188994968750066	-2.474104887384318e-22
-0.49182891453125066	-2.452841735750108e-22
-0.49176787937500066	-2.431368526796252e-22
-0.49170684421875066	-2.4096972570499336e-22
-0.49164580906250066	-2.387848655996019e-22
-0.49158477390625066	-2.3658496461123183e-22
-0.49152373875000066	-2.343730156708807e-22
-0.49146270359375066	-2.3215197373700395e-22
-0.49140166843750066	-2.2992442719634733e-22
-0.49134063328125066	-2.2769231716452277e-22
-0.49127959812500066	-2.254567458804772e-22
-0.49121856296875066	-2.2321788940340337e-22
-0.49115752781250066	-2.2097501344905433e-22
-0.49109649265625066	-2.1872659210182733e-22
-0.49103545750000066	-2.1647051974306553e-22
-0.49097442234375066	-2.1420438746873595e-22
-0.49091338718750066	-2.119257825628878e-22
-0.49085235203125066	-2.096325737266691e-22
-0.49079131687500066	-2.0732315410310158e-22
-0.49073028171875066	-2.049966156879483e-22
-0.49066924656250066	-2.0265283448114725e-22
-0.49060821140625066	-2.0029246225440652e-22
-0.49054717625000066	-1.9791683323450093e-22
-0.49048614109375066	-1.9552779795236986e-22
-0.49042510593750066	-1.9312750496118637e-22
-0.49036407078125066	-1.9071815951232517e-22
-0.49030303562500066	-1.8830178737081106e-22
-0.49024200046875066	-1.8588002917660596e-22
-0.49018096531250066	-1.8345398936796199e-22
-0.49011993015625066	-1.8102415676723629e-22
-0.49005889500000066	-1.7859039918296452e-22
-0.48999785984375066	-1.7615202439541912e-22
-0.48993682468750066	-1.7370789707591624e-22
-0.48987578953125066	-1.7125659884549737e-22
-0.48981475437500066	-1.687966154749723e-22
-0.48975371921875066	-1.6632652532855247e-22
-0.48969268406250066	-1.638451617530433e-22
-0.48963164890625066	-1.613517344871875e-22
-0.48957061375000066	-1.5884590025676278e-22
-0.48950957859375066	-1.5632777857885638e-22
-0.48944854343750066	-1.5379791967595068e-22
-0.48938750828125066	-1.5125723145896931e-22
-0.48932647312500066	-1.4870687058544408e-22
-0.48926543796875066	-1.461481101600038e-22
-0.48920440281250066	-1.4358220414090534e-22
-0.48914336765625066	-1.4101026763579392e-22
-0.48908233250000066	-1.3843318492853565e-22
-0.48902129734375066	-1.3585154941932535e-22
-0.48896026218750066	-1.3326563760707524e-22
-0.48889922703125066	-1.306754181697805e-22
-0.48883819187500066	-1.2808059312332478e-22
-0.48877715671875066	-1.254806658101226e-22
-0.48871612156250066	-1.2287502540960223e-22
-0.48865508640625066	-1.2026303429995364e-22
-0.48859405125000066	-1.1764411042152965e-22
-0.48853301609375066	-1.1501779769722226e-22
-0.48847198093750066	-1.1238381565469773e-22
-0.48841094578125066	-1.097420848390403e-22
-0.48834991062500066	-1.0709272972266556e-22
-0.48828887546875066	-1.0443606136747104e-22
-0.48822784031250066	-1.0177254010731433e-22
-0.48816680515625066	-9.910272142880363e-23
-0.48810577000000066	-9.642719598939552e-23
-0.48804473484375066	-9.374653362884841e-23
-0.48798369968750066	-9.106123514949627e-23
-0.48792266453125066	-8.837169689019202e-23
-0.48786162937500066	-8.567819294397731e-23
-0.48780059421875066	-8.298087184945378e-23
-0.48773955906250066	-8.027976479754752e-23
-0.48767852390625066	-7.757480907434649e-23
-0.48761748875000066	-7.486588353751775e-23
-0.48755645359375066	-7.215284661105579e-23
-0.48749541843750066	-6.943557296975187e-23
-0.48743438328125066	-6.671398681491434e-23
-0.48737334812500066	-6.398808754058568e-23
-0.48731231296875066	-6.12579636189346e-23
-0.48725127781250066	-5.85237928783097e-23
-0.48719024265625066	-5.578582813752196e-23
-0.48712920750000066	-5.304436921805259e-23
-0.48706817234375066	-5.029973005914009e-23
-0.48700713718750066	-4.75522075914409e-23
-0.48694610203125066	-4.480205340625179e-23
-0.48688506687500066	-4.2049452893157606e-23
-0.48682403171875066	-3.9294516704919896e-23
-0.48676299656250066	-3.6537286047630837e-23
-0.48670196140625066	-3.377775020256101e-23
-0.48664092625000066	-3.1015871786752637e-23
-0.48657989109375066	-2.8251614617738956e-23
-0.48651885593750066	-2.5484969709286217e-23
-0.48645782078125066	-2.271597775338247e-23
-0.48639678562500066	-1.9944745707129468e-23
-0.48633575046875066	-1.7171453623772587e-23
-0.48627471531250066	-1.4396353438114558e-23
-0.48621368015625066	-1.161976002528443e-23
-0.48615264500000066	-8.842027499812549e-24
-0.48609160984375066	-6.0635133034635554e-24
-0.48603057468750066	-3.2845440156233234e-24
-0.48596953953125066	-5.053878604569747e-25
-0.48590850437500066	2.2737692542724035e-24
-0.48584746921875066	5.0528397214993336e-24
-0.48578643406250066	7.831833411003335e-24
-0.48572539890625066	1.0610840770911772e-23
-0.48566436375000066	1.3390005707438865e-23
-0.48560332859375066	1.6169490954725138e-23
-0.48554229343750066	1.8949439728423615e-23
-0.48548125828125066	2.1729938189144306e-23
-0.48542022312500066	2.4510983057812708e-23
-0.48535918796875066	2.7292459367210185e-23
-0.48529815281250066	3.007413260024724e-23
-0.48523711765625066	3.285565850830223e-23
-0.48517608250000066	3.5636608786999466e-23
-0.48511504734375066	3.8416506419678866e-23
-0.48505401218750066	4.119486603468875e-23
-0.48499297703125066	4.397123684232111e-23
-0.48493194187500066	4.6745244523200095e-23
-0.48487090671875066	4.951662500254681e-23
-0.48480987156250066	5.2285244859131375e-23
-0.48474883640625066	5.505110562035944e-23
-0.48468780125000066	5.781432895575216e-23
-0.48462676609375066	6.057512378402844e-23
-0.48456573093750066	6.333374222292832e-23
-0.48450469578125066	6.609043252684757e-23
-0.48444366062500066	6.884539182510704e-23
-0.48438262546875066	7.159872118097044e-23
-0.48432159031250066	7.435039289541105e-23
-0.48426055515625066	7.710023813851365e-23
-0.48419952000000066	7.984795277492401e-23
-0.48413848484375066	8.259311674474361e-23
-0.48407744968750066	8.533522686324526e-23
-0.48401641453125066	8.807374366007715e-23
-0.48395537937500066	9.080814646213858e-23
-0.48389434421875066	9.353798574078749e-23
-0.48383330906250066	9.626292526877738e-23
-0.48377227390625066	9.898276961033032e-23
-0.48371123875000066	1.0169747300944916e-22
-0.48365020359375066	1.0440713017264519e-22
-0.48358916843750066	1.0711194969964e-22
-0.48352813328125066	1.0981221048646996e-22
-0.48346709812500066	1.1250820853735152e-22
-0.48340606296875066	1.1520020349511069e-22
-0.48334502781250066	1.1788836748054948e-22
-0.48328399265625066	1.2057273873167519e-22
-0.48322295750000066	1.232531922815683e-22
-0.48316192234375066	1.259294376172544e-22
-0.48310088718750066	1.2860103918482646e-22
-0.48303985203125066	1.3126745324134017e-22
-0.48297881687500066	1.3392807681080892e-22
-0.48291778171875066	1.3658230695890496e-22
-0.48285674656250066	1.3922960811198385e-22
-0.48279571140625066	1.4186957193447117e-22
-0.48273467625000066	1.4450195532913324e-22
-0.48267364109375066	1.4712669711614368e-22
-0.48261260593750066	1.4974391271535393e-22
-0.48255157078125066	1.5235386484410452e-22
-0.48249053562500066	1.549569155195341e-22
-0.48242950046875066	1.5755346534242935e-22
-0.48236846531250066	1.6014388715093457e-22
-0.48230743015625066	1.62728463319116e-22
-0.48224639500000066	1.6530733206352357e-22
-0.48218535984375066	1.6788044791312313e-22
-0.48212432468750066	1.7044756511258051e-22
-0.48206328953125066	1.730082485621811e-22
-0.48200225437500066	1.7556190981684935e-22
-0.48194121921875066	1.781078632830506e-22
-0.48188018406250066	1.806453959193102e-22
-0.48181914890625066	1.8317384144310226e-22
-0.48175811375000066	1.8569265000112052e-22
-0.48169707859375066	1.8820144455641998e-22
-0.48163604343750066	1.907000561427095e-22
-0.48157500828125066	1.931885327141383e-22
-0.48151397312500066	1.9566712059435818e-22
-0.48145293796875066	1.9813622160146573e-22
-0.48139190281250066	2.0059632918984229e-22
-0.48133086765625066	2.0304795113734592e-22
-0.48126983250000066	2.0549153140754015e-22
-0.48120879734375066	2.0792737969275257e-22
-0.48114776218750066	2.1035561545987727e-22
-0.48108672703125066	2.1277613455707213e-22
-0.48102569187500066	2.151886038695346e-22
-0.48096465671875066	2.175924865461218e-22
-0.48090362156250066	2.1998709384993722e-22
-0.48084258640625066	2.2237165484509654e-22
-0.48078155125000066	2.247453963388723e-22
-0.48072051609375066	2.2710762562666657e-22
-0.48065948093750066	2.2945780522539696e-22
-0.48059844578125066	2.317956068355296e-22
-0.48053741062500066	2.3412093657165377e-22
-0.48047637546875066	2.3643393081917373e-22
-0.48041534031250066	2.387349259936916e-22
-0.48035430515625066	2.4102440531362675e-22
-0.48029327000000066	2.4330292560952287e-22
-0.48023223484375066	2.4557103206329473e-22
-0.48017119968750066	2.478291740366318e-22
-0.48011016453125066	2.5007763518682453e-22
-0.48004912937500066	2.523164849606178e-22
-0.47998809421875066	2.545455545609016e-22
-0.47992705906250066	2.5676444252277692e-22
-0.47986602390625066	2.589725513145119e-22
-0.47980498875000066	2.6116914931595275e-22
-0.47974395359375066	2.633534496561514e-22
-0.47968291843750066	2.6552469647431535e-22
-0.47962188328125066	2.676822485663855e-22
-0.47956084812500066	2.6982564726838797e-22
-0.47949981296875066	2.719546576132174e-22
-0.47943877781250066	2.740692814181442e-22
-0.47937774265625066	2.761697434958093e-22
-0.47931670750000066	2.782564497813951e-22
-0.47925567234375066	2.8032992099183385e-22
-0.47919463718750066	2.8239071237668743e-22
-0.47913360203125066	2.8443933054580546e-22
-0.47907256687500066	2.8647615585179356e-22
-0.47901153171875066	2.8850138018760036e-22
-0.47895049656250066	2.905149706245033e-22
-0.47888946140625066	2.9251666257254373e-22
-0.47882842625000066	2.945059809004879e-22
-0.47876739109375066	2.964822882786204e-22
-0.47870635593750066	2.984448566105516e-22
-0.47864532078125066	3.003929495459989e-22
-0.47858428562500066	3.023259046335868e-22
-0.47852325046875066	3.0424320681836367e-22
-0.47846221531250066	3.0614454116915627e-22
-0.47840118015625066	3.080298170026483e-22
-0.47834014500000066	3.09899165279522e-22
-0.47827910984375066	3.11752910487278e-22
-0.47821807468750066	3.1359151654977377e-22
-0.47815703953125066	3.154155121696689e-22
-0.47809600437500066	3.172254078785526e-22
-0.47803496921875066	3.190216167989605e-22
-0.47797393406250066	3.208043881720135e-22
-0.47791289890625066	3.2257376318032393e-22
-0.47785186375000066	3.243295594230211e-22
-0.47779082859375066	3.2607138481485424e-22
-0.47772979343750066	3.277986785513051e-22
-0.47766875828125066	3.2951077369168745e-22
-0.47760772312500066	3.312069738640541e-22
-0.47754668796875066	3.328866349485525e-22
-0.47748565281250066	3.3454923994245434e-22
-0.47742461765625066	3.3619445604014246e-22
-0.47736358250000066	3.3782216780306143e-22
-0.47730254734375066	3.3943248209207527e-22
-0.47724151218750066	3.4102570097150815e-22
-0.47718047703125066	3.426022666835544e-22
-0.47711944187500066	3.4416269031812653e-22
-0.47705840671875066	3.4570747326214047e-22
-0.47699737156250066	3.472370282323795e-22
-0.47693633640625066	3.487516103593804e-22
-0.47687530125000066	3.502512701838077e-22
-0.47681426609375066	3.5173583597882936e-22
-0.47675323093750066	3.5320492716199867e-22
-0.47669219578125066	3.546579973325595e-22
-0.47663116062500066	3.5609440075620707e-22
-0.47657012546875066	3.575134717547996e-22
-0.47650909031250066	3.589146067091189e-22
-0.47644805515625066	3.6029733795662146e-22
-0.47638702000000066	3.616613883036705e-22
-0.47632598484375066	3.6300669851365277e-22
-0.47626494968750066	3.643334245836919e-22
-0.47620391453125066	3.656419053988927e-22
-0.47614287937500066	3.6693260552288607e-22
-0.47608184421875066	3.682060403870858e-22
-0.47602080906250066	3.694626934768202e-22
-0.47595977390625066	3.7070293878880232e-22
-0.47589873875000066	3.71926980526373e-22
-0.47583770359375066	3.7313481605869127e-22
-0.47577666843750066	3.7432622659432696e-22
-0.47571563328125066	3.7550079935371816e-22
-0.47565459812500066	3.7665797826407485e-22
-0.47559356296875066	3.77797133986734e-22
-0.47553252781250066	3.7891764337244833e-22
-0.47547149265625066	3.8001896883555266e-22
-0.47541045750000066	3.811007264324619e-22
-0.47534942234375066	3.8216273134699084e-22
-0.47528838718750066	3.832050146796335e-22
-0.47522735203125066	3.842278104368404e-22
-0.47516631687500066	3.8523151403419094e-22
-0.47510528171875066	3.8621661776201447e-22
-0.47504424656250066	3.871836330407512e-22
-0.47498321140625066	3.8813301099118796e-22
-0.47492217625000066	3.8906507243854295e-22
-0.47486114109375066	3.899799567562626e-22
-0.47480010593750066	3.908775962443735e-22
-0.47473907078125066	3.9175771955280997e-22
-0.47467803562500066	3.92619883852812e-22
-0.47461700046875066	3.9346353050789716e-22
-0.47455596531250066	3.9428805579167143e-22
-0.47449493015625066	3.9509288745349016e-22
-0.47443389500000066	3.9587755643948223e-22
-0.47437285984375066	3.966417533644746e-22
-0.47431182468750066	3.9738536290483864e-22
-0.47425078953125066	3.981084719164053e-22
-0.47418975437500066	3.9881134982778797e-22
-0.47412871921875066	3.994944046090911e-22
-0.47406768406250066	4.0015812114466147e-22
-0.47400664890625066	4.0080299076339467e-22
-0.47394561375000066	4.014294418035228e-22
-0.47388457859375066	4.0203778020024866e-22
-0.47382354343750066	4.02628147294646e-22
-0.47376250828125066	4.032004999686383e-22
-0.47370147312500066	4.0375461511117335e-22
-0.47364043796875066	4.042901171859939e-22
-0.47357940281250066	4.0480652474130294e-22
-0.47351836765625066	4.053033092356128e-22
-0.47345733250000066	4.0577995803222865e-22
-0.47339629734375066	4.0623603330276135e-22
-0.47333526218750066	4.0667121997632886e-22
-0.47327422703125066	4.0708535761506766e-22
-0.47321319187500066	4.074784526192865e-22
-0.47315215671875066	4.078506696566047e-22
-0.47309112156250066	4.082023048223593e-22
-0.47303008640625066	4.0853374529822097e-22
-0.47296905125000066	4.0884542040056533e-22
-0.47290801609375066	4.091377490596715e-22
-0.47284698093750066	4.094110895386885e-22
-0.47278594578125066	4.0966569772645523e-22
-0.47272491062500066	4.0990169904499794e-22
-0.47266387546875066	4.101190755486615e-22
-0.47260284031250066	4.1031766804748023e-22
-0.47254180515625066	4.104971934945583e-22
-0.47248077000000066	4.106572759394901e-22
-0.47241973484375066	4.1079748660403964e-22
-0.47235869968750066	4.10917388545019e-22
