Time	Frequency
-0.5000419284374971	-0.7172300113631204
-0.49998089328124706	-0.7179651005252116
-0.49991985812499706	-0.7186638302854241
-0.49985882296874706	-0.7192928115614214
-0.49979778781249706	-0.719820671342036
-0.49973675265624706	-0.7202219334141982
-0.49967571749999706	-0.7204801881177519
-0.49961468234374706	-0.7205901499121512
-0.49955364718749706	-0.7205583401103797
-0.49949261203124706	-0.720402304667357
-0.49943157687499706	-0.720148463434936
-0.49937054171874706	-0.7198288610451249
-0.49930950656249706	-0.7194772266537176
-0.49924847140624706	-0.7191248355717244
-0.49918743624999706	-0.718796690721364
-0.49912640109374706	-0.7185084994574257
-0.49906536593749706	-0.7182648169027521
-0.49900433078124706	-0.7180585780544532
-0.49894329562499706	-0.7178720666422025
-0.49888226046874706	-0.7176791875429
-0.49882122531249706	-0.7174487446819849
-0.49876019015624706	-0.717148304943454
-0.49869915499999706	-0.7167481646083049
-0.49863811984374706	-0.7162249272887378
-0.49857708468749706	-0.715564254067897
-0.49851604953124706	-0.7147624566296807
-0.49845501437499706	-0.7138267564035331
-0.49839397921874706	-0.712774203158028
-0.49833294406249706	-0.7116294116410034
-0.49827190890624706	-0.7104214181418094
-0.49821087374999706	-0.7091800635945453
-0.49814983859374706	-0.7079323594111337
-0.49808880343749706	-0.7066992833321318
-0.49802776828124706	-0.705493390304648
-0.49796673312499706	-0.7043175142725708
-0.49790569796874706	-0.7031646939041457
-0.49784466281249706	-0.7020192981429061
-0.49778362765624706	-0.7008591807180148
-0.49772259249999706	-0.6996585735719308
-0.49766155734374706	-0.6983913426747986
-0.49760052218749706	-0.6970341916442393
-0.49753948703124706	-0.6955694203653865
-0.49747845187499706	-0.6939869149065825
-0.49741741671874706	-0.6922851468205734
-0.49735638156249706	-0.6904710853322644
-0.49729534640624706	-0.6885590668388988
-0.49723431124999706	-0.6865687997138299
-0.49717327609374706	-0.684522779001634
-0.49711224093749706	-0.6824434459748391
-0.49705120578124706	-0.6803504532575426
-0.49699017062499706	-0.6782583710586302
-0.49692913546874706	-0.6761751008287078
-0.49686810031249706	-0.6741011682858061
-0.49680706515624706	-0.6720299558856796
-0.49674602999999706	-0.6699488133191851
-0.49668499484374706	-0.6678408728213976
-0.49662395968749706	-0.6656873161630491
-0.49656292453124706	-0.6634697963784184
-0.49650188937499706	-0.6611727088879168
-0.49644085421874706	-0.6587850372467076
-0.49637981906249706	-0.6563015597359623
-0.49631878390624706	-0.6537232859313705
-0.49625774874999706	-0.6510570957853581
-0.49619671359374706	-0.6483146606277309
-0.49613567843749706	-0.645510811008244
-0.49607464328124706	-0.6426615754863136
-0.49601360812499706	-0.6397821484850068
-0.49595257296874706	-0.636885045120956
-0.49589153781249706	-0.6339786669915001
-0.49583050265624706	-0.6310664433069746
-0.49576946749999706	-0.6281466320962678
-0.49570843234374706	-0.6252127802862607
-0.49564739718749706	-0.6222547601192007
-0.49558636203124706	-0.6192602280053016
-0.49552532687499706	-0.6162163028049166
-0.49546429171874706	-0.6131112429484892
-0.49540325656249706	-0.6099359122636907
-0.49534222140624706	-0.6066848566869457
-0.49528118624999706	-0.6033568698527093
-0.49522015109374706	-0.5999549976968377
-0.49515911593749706	-0.5964860022677415
-0.49509808078124706	-0.592959371982778
-0.49503704562499706	-0.5893860267835358
-0.49497601046874706	-0.5857768979848089
-0.49491497531249706	-0.5821415632396534
-0.49485394015624706	-0.5784871071082541
-0.49479290499999706	-0.5748173485498282
-0.49473186984374706	-0.5711325196644048
-0.49467083468749706	-0.567429417408107
-0.49460979953124706	-0.563701990437282
-0.49454876437499706	-0.5599422678074523
-0.49448772921874706	-0.5561414965952033
-0.49442669406249706	-0.5522913338216571
-0.49436565890624706	-0.5483849377673958
-0.49430462374999706	-0.5444178247090395
-0.49424358859374706	-0.540388389775343
-0.49418255343749706	-0.5362980346130046
-0.49412151828124706	-0.5321508992717168
-0.49406048312499706	-0.5279532507553327
-0.49399944796874706	-0.5237126235355206
-0.49393841281249706	-0.5194368303409519
-0.49387737765624706	-0.515132973082665
-0.49381634249999706	-0.510806584388839
-0.49375530734374706	-0.5064610082728382
-0.49369427218749706	-0.5020970914317044
-0.49363323703124706	-0.49771321105250915
-0.49357220187499706	-0.49330562057831834
-0.49351116671874706	-0.4888690608394268
-0.49345013156249706	-0.484397548120303
-0.49338909640624706	-0.4798852253891859
-0.49332806124999706	-0.47532716283143134
-0.49326702609374706	-0.4707200063582945
-0.49320599093749706	-0.46606239604298666
-0.49314495578124706	-0.4613551116757744
-0.49308392062499706	-0.4566009373427143
-0.49302288546874706	-0.45180426739249707
-0.49296185031249706	-0.4469705122791802
-0.49290081515624706	-0.4421053927003575
-0.49283977999999706	-0.4372142198641795
-0.49277874484374706	-0.43230125678727765
-0.49271770968749706	-0.42736924172229684
-0.49265667453124706	-0.42241912780883134
-0.49259563937499706	-0.41745006426580256
-0.49253460421874706	-0.412459618402586
-0.49247356906249706	-0.40744420097989564
-0.49241253390624706	-0.4023996264765394
-0.49235149874999706	-0.3973217322324633
-0.49229046359374706	-0.39220697532185633
-0.49222942843749706	-0.38705292655184687
-0.49216839328124706	-0.38185859919195964
-0.49210735812499706	-0.37662457467839167
-0.49204632296874706	-0.37135291853324026
-0.49198528781249706	-0.3660469079721871
-0.49192425265624706	-0.36071060697017227
-0.49186321749999706	-0.3553483486360207
-0.49180218234374706	-0.34996420561157976
-0.49174114718749706	-0.3445615143818633
-0.49168011203124706	-0.33914250510957633
-0.49161907687499706	-0.3337080882128383
-0.49155804171874706	-0.32825782789313485
-0.49149700656249706	-0.32279009971034867
-0.49143597140624706	-0.317302401016461
-0.49137493624999706	-0.31179176224947625
-0.49131390109374706	-0.3062552028299731
-0.49125286593749706	-0.3006901764918892
-0.49119183078124706	-0.2950949480530944
-0.49113079562499706	-0.2894688494022804
-0.49106976046874706	-0.2838123840397052
-0.49100872531249706	-0.2781271762907055
-0.49094769015624706	-0.2724157762613585
-0.49088665499999706	-0.26668134380824704
-0.49082561984374706	-0.26092725801581135
-0.49076458468749706	-0.2551567122419875
-0.49070354953124706	-0.24937234988087398
-0.49064251437499706	-0.24357598787769452
-0.49058147921874706	-0.2377684595052072
-0.49052044406249706	-0.23194958826853418
-0.49045940890624706	-0.22611829433459504
-0.49039837374999706	-0.2202728223539097
-0.49033733859374706	-0.2144110578479734
-0.49027630343749706	-0.20853088087989627
-0.49021526828124706	-0.2026305037687373
-0.49015423312499706	-0.1967087512688925
-0.49009319796874706	-0.1907652520919917
-0.49003216281249706	-0.18480051990287205
-0.48997112765624706	-0.17881591371770755
-0.48991009249999706	-0.1728134835434372
-0.48984905734374706	-0.16679572865980374
-0.48978802218749706	-0.16076530721082619
-0.48972698703124706	-0.15472473565346154
-0.48966595187499706	-0.1486761141279718
-0.48960491671874706	-0.1426209109985042
-0.48954388156249706	-0.13655984126862208
-0.48948284640624706	-0.13049285701755897
-0.48942181124999706	-0.12441923712444045
-0.48936077609374706	-0.11833775835527968
-0.48929974093749706	-0.11224693243703186
-0.48923870578124706	-0.10614527639114198
-0.48917767062499706	-0.10003157374074613
-0.48911663546874706	-0.09390509146479185
-0.48905560031249706	-0.08776572544517983
-0.48899456515624706	-0.0816140548576021
-0.48893352999999706	-0.07545129786352335
-0.48887249484374706	-0.06927918316104728
-0.48881145968749706	-0.06309976474959858
-0.48875042453124706	-0.056915198382180884
-0.48868938937499706	-0.05072750252104704
-0.48862835421874706	-0.044538343549068916
-0.48856731906249706	-0.03834887856888383
-0.48850628390624706	-0.03215967257014366
-0.48844524874999706	-0.025970699814071824
-0.48838421359374706	-0.01978142697909232
-0.48832317843749706	-0.013590961822940464
-0.48826214328124706	-0.0073982450038446446
-0.48820110812499706	-0.001202257347683563
-0.48814007296874706	0.004997784516123086
-0.48807903781249706	0.011202266589151019
-0.48801800265624706	0.017411072266894943
-0.48795696749999706	0.023623550253687575
-0.48789593234374706	0.029838556448945265
-0.48783489718749706	0.03605455840712387
-0.48777386203124706	0.04226978967811161
-0.48771282687499706	0.04848243500147051
-0.48765179171874706	0.05469081826184811
-0.48759075656249706	0.06089356908678715
-0.48752972140624706	0.06708974517214052
-0.48746868624999706	0.07327888825894717
-0.48740765109374706	0.07946101046635139
-0.48734661593749706	0.08563652223853598
-0.48728558078124706	0.09180611270222626
-0.48722454562499706	0.09797059333597107
-0.48716351046874706	0.10413072298566182
-0.48710247531249706	0.11028704299227274
-0.48704144015624706	0.11643975014751498
-0.48698040499999706	0.12258861957059837
-0.48691936984374706	0.12873298056906793
-0.48685833468749706	0.13487175245491761
-0.48679729953124706	0.14100354003474788
-0.48673626437499706	0.14712676874988118
-0.48667522921874706	0.1532398374884062
-0.48661419406249706	0.15934127564072303
-0.48655315890624706	0.16542988261711072
-0.48649212374999706	0.17150482225772035
-0.48643108859374706	0.17756566436540147
-0.48637005343749706	0.18361237860016383
-0.48630901828124706	0.18964527623662722
-0.48624798312499706	0.19566490173950374
-0.48618694796874706	0.2016718961802546
-0.48612591281249706	0.20766685242324323
-0.48606487765624706	0.2136501759657343
-0.48600384249999706	0.21962197377662074
-0.48594280734374706	0.22558199179776034
-0.48588177218749706	0.23152960322427302
-0.48582073703124706	0.23746384098399018
-0.48575970187499706	0.24338347454871548
-0.48569866671874706	0.24928712306254033
-0.48563763156249706	0.255173382294088
-0.48557659640624706	0.2610409509793039
-0.48551556124999706	0.26688874652288336
-0.48545452609374706	0.2727159902589613
-0.48539349093749706	0.2785222455916639
-0.48533245578124706	0.2843074068638342
-0.48527142062499706	0.29007164904557403
-0.48521038546874706	0.2958153467889487
-0.48514935031249706	0.3015389649791128
-0.48508831515624706	0.3072429355240711
-0.48502727999999706	0.31292754461185796
-0.48496624484374706	0.3185928453697022
-0.48490520968749706	0.32423860422580264
-0.48484417453124706	0.3298642853055389
-0.48478313937499706	0.33546907343850657
-0.48472210421874706	0.3410519340301002
-0.48466106906249706	0.346611702977747
-0.48460003390624706	0.3521471936871072
-0.48453899874999706	0.3576573019925217
-0.48447796359374706	0.3631410939222933
-0.48441692843749706	0.36859786966366337
-0.48435589328124706	0.3740271961348111
-0.48429485812499706	0.3794289034195042
-0.48423382296874706	0.3848030456592257
-0.48417278781249706	0.39014983190362185
-0.48411175265624706	0.39546954159522985
-0.48405071749999706	0.40076243642785586
-0.48398968234374706	0.40602867233876266
-0.48392864718749706	0.4112682253010016
-0.48386761203124706	0.41648085062501305
-0.48380657687499706	0.42166607786626803
-0.48374554171874706	0.4268232318536147
-0.48368450656249706	0.43195147643480825
-0.48362347140624706	0.43704987818557034
-0.48356243624999706	0.4421174830140762
-0.48350140109374706	0.44715339604189025
-0.48344036593749706	0.4521568504569727
-0.48337933078124706	0.4571272549376847
-0.48331829562499706	0.4620642162073798
-0.48325726046874706	0.4669675333578404
-0.48319622531249706	0.4718371671388064
-0.48313519015624706	0.47667319066493535
-0.48307415499999706	0.48147572535580396
-0.48301311984374706	0.4862448724112992
-0.48295208468749706	0.49098065272118685
-0.48289104953124706	0.4956829628172022
-0.48283001437499706	0.5003515507949173
-0.48276897921874706	0.5049860133056993
-0.48270794406249706	0.5095858122037029
-0.48264690890624706	0.5141503081704882
-0.48258587374999706	0.5186788073331063
-0.48252483859374706	0.5231706140530246
-0.48246380343749706	0.5276250819125903
-0.48240276828124706	0.53204165447904
-0.48234173312499706	0.536419888108215
-0.48228069796874706	0.5407594550112671
-0.48221966281249706	0.5450601301137533
-0.48215862765624706	0.5493217661898993
-0.48209759249999706	0.5535442602636912
-0.48203655734374706	0.5577275148486137
-0.48197552218749706	0.5618714021247706
-0.48191448703124706	0.5659757377205724
-0.48185345187499706	0.5700402656811164
-0.48179241671874706	0.5740646567793505
-0.48173138156249706	0.5780485216082041
-0.48167034640624706	0.5819914360876729
-0.48160931124999706	0.5858929726900723
-0.48154827609374706	0.5897527282446978
-0.48148724093749706	0.5935703456954277
-0.48142620578124706	0.5973455311262983
-0.48136517062499706	0.6010780616903487
-0.48130413546874706	0.6047677796171068
-0.48124310031249706	0.6084145724689848
-0.48118206515624706	0.6120183434775948
-0.48112102999999706	0.6155789786055522
-0.48105999484374706	0.6190963149826139
-0.48099895968749706	0.6225701137153454
-0.48093792453124706	0.6260000440118023
-0.48087688937499706	0.6293856838845507
-0.48081585421874706	0.632726535624152
-0.48075481906249706	0.6360220526926953
-0.48069378390624706	0.6392716765660821
-0.48063274874999706	0.6424748809363316
-0.48057171359374706	0.6456312165906272
-0.48051067843749706	0.6487403481546272
-0.48044964328124706	0.6518020764275767
-0.48038860812499706	0.6548163435716323
-0.48032757296874706	0.6577832194364768
-0.48026653781249706	0.6607028693821435
-0.48020550265624706	0.6635755082430903
-0.48014446749999706	0.6664013451844972
-0.48008343234374706	0.6691805240012761
-0.48002239718749706	0.6719130681832546
-0.47996136203124706	0.6745988413485996
-0.47990032687499706	0.6772375289279015
-0.47983929171874706	0.6798286426619093
-0.47977825656249706	0.6823715473511925
-0.47971722140624706	0.6848655083598492
-0.47965618624999706	0.687309756119771
-0.47959515109374706	0.689703559526616
-0.47953411593749706	0.6920462978994494
-0.47947308078124706	0.6943375220021228
-0.47941204562499706	0.6965769956863687
-0.47935101046874706	0.6987647116122011
-0.47928997531249706	0.7009008782316206
-0.47922894015624706	0.7029858790413444
-0.47916790499999706	0.7050202083981829
-0.47910686984374706	0.707004391912721
-0.47904583468749706	0.7089389015939778
-0.47898479953124706	0.7108240755673909
-0.47892376437499706	0.7126600521861798
-0.47886272921874706	0.7144467279364674
-0.47880169406249706	0.7161837453898467
-0.47874065890624706	0.7178705130585284
-0.47867962374999706	0.7195062554335381
-0.47861858859374706	0.721090087861547
-0.47855755343749706	0.7226211068639639
-0.47849651828124706	0.7240984845449981
-0.47843548312499706	0.7255215558850147
-0.47837444796874706	0.7268898880125125
-0.47831341281249706	0.7282033218988715
-0.47825237765624706	0.7294619808306666
-0.47819134249999706	0.7306662447497194
-0.47813030734374706	0.7318166932975436
-0.47806927218749706	0.7329140241184329
-0.47800823703124706	0.7339589565937257
-0.47794720187499706	0.7349521331146125
-0.47788616671874706	0.7358940300598857
-0.47782513156249706	0.7367848893055948
-0.47776409640624706	0.73762467867128
-0.47770306124999706	0.7384130862125038
-0.47764202609374706	0.739149549031031
-0.47758099093749706	0.739833313303778
-0.47751995578124706	0.7404635180081927
-0.47745892062499706	0.741039291211568
-0.47739788546874706	0.7415598471653373
-0.47733685031249706	0.7420245731093257
-0.47727581515624706	0.7424330950242887
-0.47721477999999706	0.742785313774198
-0.47715374484374706	0.743081407699125
-0.47709270968749706	0.743321802133819
-0.47703167453124706	0.743507110117828
-0.47697063937499706	0.7436380520309186
-0.47690960421874706	0.7437153639277949
-0.47684856906249706	0.7437397057646064
-0.47678753390624706	0.7437115808539383
-0.47672649874999706	0.743631276247731
-0.47666546359374706	0.7434988317304114
-0.47660442843749706	0.7433140411196526
-0.47654339328124706	0.7430764838900502
-0.47648235812499706	0.7427855811694561
-0.47642132296874706	0.7424406692752388
-0.47636028781249706	0.7420410832561247
-0.47629925265624706	0.7415862390452789
-0.47623821749999706	0.7410757024408665
-0.47617718234374706	0.7405092385300222
-0.47611614718749706	0.7398868367913508
-0.47605511203124706	0.7392087076489163
-0.47599407687499706	0.7384752514883831
-0.47593304171874706	0.7376870055943174
-0.47587200656249706	0.73684457705894
-0.47581097140624706	0.7359485710464841
-0.47574993624999706	0.7349995224871404
-0.47568890109374706	0.7339978390589443
-0.47562786593749706	0.7329437627722145
-0.47556683078124706	0.7318373540086681
-0.47550579562499706	0.7306784998682558
-0.47544476046874706	0.7294669456826075
-0.47538372531249706	0.7282023437599254
-0.47532269015624706	0.7268843120543824
-0.47526165499999706	0.7255124953264298
-0.47520061984374706	0.7240866205150563
-0.47513958468749706	0.7226065382388708
-0.47507854953124706	0.7210722463370961
-0.47501751437499706	0.7194838954096213
-0.47495647921874706	0.7178417746258802
-0.47489544406249706	0.7161462778710878
-0.47483440890624706	0.7143978577555193
-0.47477337374999706	0.7125969760843698
-0.47471233859374706	0.7107440561837078
-0.47465130343749706	0.7088394425661343
-0.47459026828124706	0.7068833730111858
-0.47452923312499706	0.70487596641288
-0.47446819796874706	0.7028172292003347
-0.47440716281249706	0.7007070794373373
-0.47434612765624706	0.6985453823812858
-0.47428509249999706	0.696331991571049
-0.47422405734374706	0.6940667915746538
-0.47416302218749706	0.6917497368153745
-0.47410198703124706	0.6893808793473687
-0.47404095187499706	0.6869603803809633
-0.47397991671874706	0.6844885056249731
-0.47391888156249706	0.6819656082547232
-0.47385784640624706	0.6793921002529093
-0.47379681124999706	0.6767684126481207
-0.47373577609374706	0.6740949542397193
-0.47367474093749706	0.671372080521732
-0.47361370578124706	0.6686000725033265
-0.47355267062499706	0.6657791203069273
-0.47349163546874706	0.66290931653833
-0.47343060031249706	0.6599906692874568
-0.47336956515624706	0.6570231342066092
-0.47330852999999706	0.6540066523746849
-0.47324749484374706	0.6509411857770078
-0.47318645968749706	0.6478267524504491
-0.47312542453124706	0.6446634550867976
-0.47306438937499706	0.6414514953856193
-0.47300335421874706	0.638191178084708
-0.47294231906249706	0.6348829029746819
-0.47288128390624706	0.6315271388385197
-0.47282024874999706	0.628124386050041
-0.47275921359374706	0.6246751389120542
-0.47269817843749706	0.6211798517266381
-0.47263714328124706	0.6176389085573258
-0.47257610812499706	0.6140526008806012
-0.47251507296874706	0.6104211196391718
-0.47245403781249706	0.6067445628061147
-0.47239300265624706	0.6030229564808384
-0.47233196749999706	0.5992562858010617
-0.47227093234374706	0.5954445312637132
-0.47220989718749706	0.5915877080823375
-0.47214886203124706	0.5876859024671741
-0.47208782687499706	0.5837392964097671
-0.47202679171874706	0.5797481790470181
-0.47196575656249706	0.5757129448369496
-0.47190472140624706	0.571634076639419
-0.47184368624999706	0.5675121176710495
-0.47178265109374706	0.5633476399827613
-0.47172161593749706	0.5591412067833033
-0.47166058078124706	0.5548933286973202
-0.47159954562499706	0.5506044305046456
-0.47153851046874706	0.5462748354341485
-0.47147747531249706	0.5419047611823978
-0.47141644015624706	0.5374943317537865
-0.47135540499999706	0.5330436080805704
-0.47129436984374706	0.5285526248862924
-0.47123333468749706	0.524021424798176
-0.47117229953124706	0.5194500943743409
-0.47111126437499706	0.5148387979447598
-0.47105022921874706	0.5101877986995923
-0.47098919406249706	0.50549746899592
-0.47092815890624706	0.5007682876390523
-0.47086712374999706	0.49600081791697587
-0.47080608859374706	0.49119567443002765
-0.47074505343749706	0.4863534848883923
-0.47068401828124706	0.4814748478686404
-0.47062298312499706	0.47656029629646296
-0.47056194796874706	0.47161027233305997
-0.47050091281249706	0.4666251123935329
-0.47043987765624706	0.46160504657375967
-0.47037884249999706	0.45655021496255527
-0.47031780734374706	0.4514606968188394
-0.47025677218749706	0.44633654878728346
-0.47019573703124706	0.4411778487376958
-0.47013470187499706	0.4359847383412825
-0.47007366671874706	0.43075745609508953
