Time	Frequency
-0.5000569928749989	9.091854328353482e-23
-0.49999595771874894	8.851084679632624e-23
-0.49993492256249894	8.606983950716869e-23
-0.49987388740624894	8.360340290992772e-23
-0.49981285224999894	8.112142363405433e-23
-0.49975181709374894	7.863460735622322e-23
-0.49969078193749894	7.615325001648165e-23
-0.49962974678124894	7.368610441318557e-23
-0.49956871162499894	7.123946185997519e-23
-0.49950767646874894	6.881654614855285e-23
-0.49944664131249894	6.641728030926809e-23
-0.49938560615624894	6.403843749941425e-23
-0.49932457099999894	6.167414222482676e-23
-0.49926353584374894	5.93166525962023e-23
-0.49920250068749894	5.695732651382993e-23
-0.49914146553124894	5.458765666533996e-23
-0.49908043037499894	5.220025262580742e-23
-0.49901939521874894	4.978965795662168e-23
-0.49895836006249894	4.735291657959947e-23
-0.49889732490624894	4.488983444689915e-23
-0.49883628974999894	4.2402915976997514e-23
-0.49877525459374894	3.989699462071283e-23
-0.49871421943749894	3.7378612141443646e-23
-0.49865318428124894	3.4855224479481223e-23
-0.49859214912499894	3.233432878204072e-23
-0.49853111396874894	2.982261415826529e-23
-0.49847007881249894	2.7325235011915117e-23
-0.49840904365624894	2.4845286906220038e-23
-0.49834800849999894	2.2383536609661872e-23
-0.49828697334374894	1.993842974009662e-23
-0.49822593818749894	1.750636453402413e-23
-0.49816490303124894	1.5082187176599853e-23
-0.49810386787499894	1.2659848373175393e-23
-0.49804283271874894	1.0233145723622018e-23
-0.49798179756249894	7.796459579026928e-24
-0.49792076240624894	5.345395523569313e-24
-0.49785972724999894	2.87726558150685e-24
-0.49779869209374894	3.913582978944054e-25
-0.49773765693749894	-2.1110275016685223e-24
-0.49767662178124894	-4.6267821442793685e-24
-0.49761558662499894	-7.151387551372899e-24
-0.49755455146874894	-9.679468562237286e-24
-0.49749351631249894	-1.2205425778486447e-23
-0.49743248115624894	-1.4724076049217963e-23
-0.49737144599999894	-1.723122411448309e-23
-0.49731041084374894	-1.9724101023260073e-23
-0.49724937568749894	-2.2201624686519218e-23
-0.49718834053124894	-2.466445800209497e-23
-0.49712730537499894	-2.7114865435352244e-23
-0.49706627021874894	-2.955639017324587e-23
-0.49700523506249894	-3.199339109653146e-23
-0.49694419990624894	-3.4430497574282996e-23
-0.49688316474999894	-3.687204969827709e-23
-0.49682212959374894	-3.932159030507158e-23
-0.49676109443749894	-4.1781464865986473e-23
-0.49670005928124894	-4.425256966666353e-23
-0.49663902412499894	-4.6734274428247043e-23
-0.49657798896874894	-4.922452524053487e-23
-0.49651695381249894	-5.1720109062883036e-23
-0.49645591865624894	-5.421704287352498e-23
-0.49639488349999894	-5.671104093214141e-23
-0.49633384834374894	-5.919800688519577e-23
-0.49627281318749894	-6.167449039224055e-23
-0.49621177803124894	-6.413805213455922e-23
-0.49615074287499894	-6.658749936469112e-23
-0.49608970771874894	-6.90229731698766e-23
-0.49602867256249894	-7.144588128212388e-23
-0.49596763740624894	-7.385868449130982e-23
-0.49590660224999894	-7.626456575763412e-23
-0.49584556709374894	-7.86670265508124e-23
-0.49578453193749894	-8.106945865622344e-23
-0.49572349678124894	-8.34747407307792e-23
-0.49566246162499894	-8.588490623934247e-23
-0.49560142646874894	-8.830091766925375e-23
-0.49554039131249894	-9.072256897232928e-23
-0.49547935615624894	-9.314852690104204e-23
-0.49541832099999894	-9.557650455904728e-23
-0.49535728584374894	-9.800354077721004e-23
-0.49529625068749894	-1.0042634757580325e-22
-0.49523521553124894	-1.0284168553513443e-22
-0.49517418037499894	-1.0524672498527976e-22
-0.49511314521874894	-1.0763934838343453e-22
-0.49505211006249894	-1.1001835801379587e-22
-0.49499107490624894	-1.123835714662848e-22
-0.49493003974999894	-1.1473579936686406e-22
-0.49486900459374894	-1.1707670842732689e-22
-0.49480796943749894	-1.1940858807715037e-22
-0.49474693428124894	-1.217340510248464e-22
-0.49468589912499894	-1.2405570331003365e-22
-0.49462486396874894	-1.2637582525278032e-22
-0.49456382881249894	-1.2869610220147427e-22
-0.49450279365624894	-1.3101743339933866e-22
-0.49444175849999894	-1.3333983775602768e-22
-0.49438072334374894	-1.3566246396045224e-22
-0.49431968818749894	-1.379837024007302e-22
-0.49425865303124894	-1.4030138444958524e-22
-0.49419761787499894	-1.4261304034166015e-22
-0.49413658271874894	-1.4491618310879875e-22
-0.49407554756249894	-1.4720858694757736e-22
-0.49401451240624894	-1.4948852697194948e-22
-0.49395347724999894	-1.5175495187058492e-22
-0.49389244209374894	-1.5400757166806912e-22
-0.49383140693749894	-1.5624685433876763e-22
-0.49377037178124894	-1.5847393417483184e-22
-0.49370933662499894	-1.6069044268000301e-22
-0.49364830146874894	-1.6289828381416622e-22
-0.49358726631249894	-1.6509938433571083e-22
-0.49352623115624894	-1.6729544944012764e-22
-0.49346519599999894	-1.6948775004568129e-22
-0.49340416084374894	-1.7167696760418488e-22
-0.49334312568749894	-1.7386311590060194e-22
-0.49328209053124894	-1.7604554590976233e-22
-0.49322105537499894	-1.7822303015542274e-22
-0.49316002021874894	-1.8039391454498e-22
-0.49309898506249894	-1.8255631721249807e-22
-0.49303794990624894	-1.8470834965144243e-22
-0.49297691474999894	-1.8684833353807937e-22
-0.49291587959374894	-1.8897498706200432e-22
-0.49285484443749894	-1.9108755958658258e-22
-0.49279380928124894	-1.9318589939629265e-22
-0.49273277412499894	-1.9527044474242235e-22
-0.49267173896874894	-1.9734214051372954e-22
-0.49261070381249894	-1.9940229618014774e-22
-0.49254966865624894	-2.014524034456641e-22
-0.49248863349999894	-2.0349393311215583e-22
-0.49242759834374894	-2.055281378694307e-22
-0.49236656318749894	-2.0755588689429002e-22
-0.49230552803124894	-2.095775494852217e-22
-0.49224449287499894	-2.115929408937705e-22
-0.49218345771874894	-2.1360133681910053e-22
-0.49212242256249894	-2.1560155402191023e-22
-0.49206138740624894	-2.1759208868095726e-22
-0.49200035224999894	-2.195712953345963e-22
-0.49193931709374894	-2.2153758182591623e-22
-0.49187828193749894	-2.234895953522192e-22
-0.49181724678124894	-2.2542637767091934e-22
-0.49175621162499894	-2.2734747112544563e-22
-0.49169517646874894	-2.292529624185431e-22
-0.49163414131249894	-2.3114345987729697e-22
-0.49157310615624894	-2.3302000779901543e-22
-0.49151207099999894	-2.3488394664246293e-22
-0.49145103584374894	-2.3673673620235285e-22
-0.49139000068749894	-2.38579764229269e-22
-0.49132896553124894	-2.404141615586774e-22
-0.49126793037499894	-2.4224064690224257e-22
-0.49120689521874894	-2.44059423747966e-22
-0.49114586006249894	-2.45870140152413e-22
-0.49108482490624894	-2.476719130864398e-22
-0.49102378974999894	-2.4946341623974624e-22
-0.49096275459374894	-2.512430232803314e-22
-0.49090171943749894	-2.530089884436717e-22
-0.49084068428124894	-2.54759641745692e-22
-0.49077964912499894	-2.5649357718129165e-22
-0.49071861396874894	-2.5820981296254303e-22
-0.49065757881249894	-2.599079038320116e-22
-0.49059654365624894	-2.6158799018232746e-22
-0.49053550849999894	-2.6325077786409545e-22
-0.49047447334374894	-2.6489745240686806e-22
-0.49041343818749894	-2.6652953636308555e-22
-0.49035240303124894	-2.681487051801936e-22
-0.49029136787499894	-2.697565852318795e-22
-0.49023033271874894	-2.7135455634049593e-22
-0.49016929756249894	-2.729435789419096e-22
-0.49010826240624894	-2.745240680583759e-22
-0.49004722724999894	-2.7609583007240944e-22
-0.48998619209374894	-2.7765806755865876e-22
-0.48992515693749894	-2.792094523935733e-22
-0.48986412178124894	-2.807482610324326e-22
-0.48980308662499894	-2.822725558697102e-22
-0.48974205146874894	-2.8378039196204948e-22
-0.48968101631249894	-2.852700263655687e-22
-0.48961998115624894	-2.8674010556371046e-22
-0.48955894599999894	-2.88189809468526e-22
-0.48949791084374894	-2.896189366441836e-22
-0.48943687568749894	-2.9102792264932125e-22
-0.48937584053124894	-2.9241778860852405e-22
-0.48931480537499894	-2.937900230070093e-22
-0.48925377021874894	-2.951464109940846e-22
-0.48919273506249894	-2.964888321000788e-22
-0.48913169990624894	-2.9781904744646237e-22
-0.48907066474999894	-2.9913849934116603e-22
-0.48900962959374894	-3.004481456858237e-22
-0.48894859443749894	-3.0174834717353145e-22
-0.48888755928124894	-3.0303881954363326e-22
-0.48882652412499894	-3.043186556413725e-22
-0.48876548896874894	-3.0558641449053234e-22
-0.48870445381249894	-3.0684026824011013e-22
-0.48864341865624894	-3.080781911560121e-22
-0.48858238349999894	-3.0929816884171926e-22
-0.48852134834374894	-3.1049840466384465e-22
-0.48846031318749894	-3.116775022153126e-22
-0.48839927803124894	-3.1283460450473286e-22
-0.48833824287499894	-3.1396947538656926e-22
-0.48827720771874894	-3.1508251526073696e-22
-0.48821617256249894	-3.1617470912104554e-22
-0.48815513740624894	-3.1724751281494e-22
-0.48809410224999894	-3.1830269077067407e-22
-0.48803306709374894	-3.1934212308303596e-22
-0.48797203193749894	-3.203676027000976e-22
-0.48791099678124894	-3.2138064396241964e-22
-0.48784996162499894	-3.223823220209157e-22
-0.48778892646874894	-3.233731597712561e-22
-0.48772789131249894	-3.2435307381147873e-22
-0.48766685615624894	-3.253213838446385e-22
-0.48760582099999894	-3.2627688333935935e-22
-0.48754478584374894	-3.272179636597144e-22
-0.48748375068749894	-3.2814277849198156e-22
-0.48742271553124894	-3.2904943054177004e-22
-0.48736168037499894	-3.299361599670684e-22
-0.48730064521874894	-3.3080151515878636e-22
-0.48723961006249894	-3.3164448982638643e-22
-0.48717857490624894	-3.324646133974798e-22
-0.48711753974999894	-3.3326198530987634e-22
-0.48705650459374894	-3.3403725025928625e-22
-0.48699546943749894	-3.347915190297108e-22
-0.48693443428124894	-3.355262445268861e-22
-0.48687339912499894	-3.3624306567249773e-22
-0.48681236396874894	-3.3694363538746834e-22
-0.48675132881249894	-3.376294511392741e-22
-0.48669029365624894	-3.3830170501111765e-22
-0.48662925849999894	-3.389611673205338e-22
-0.48656822334374894	-3.3960811492284485e-22
-0.48650718818749894	-3.402423105726647e-22
-0.48644615303124894	-3.4086303373920336e-22
-0.48638511787499894	-3.4146915856075753e-22
-0.48632408271874894	-3.4205927045715914e-22
-0.48626304756249894	-3.4263180873899885e-22
-0.48620201240624894	-3.431852201148136e-22
-0.48614097724999894	-3.43718107623048e-22
-0.48607994209374894	-3.442293605270631e-22
-0.48601890693749894	-3.4471825280267667e-22
-0.48595787178124894	-3.4518450112360475e-22
-0.48589683662499894	-3.456282777250626e-22
-0.48583580146874894	-3.4605017820063746e-22
-0.48577476631249894	-3.464511485708124e-22
-0.48571373115624894	-3.4683237990676075e-22
-0.48565269599999894	-3.471951819026723e-22
-0.48559166084374894	-3.4754084870786444e-22
-0.48553062568749894	-3.478705308495109e-22
-0.48546959053124894	-3.4818512579233056e-22
-0.48540855537499894	-3.4848519719104537e-22
-0.48534752021874894	-3.4877092986586556e-22
-0.48528648506249894	-3.4904212358055525e-22
-0.48522544990624894	-3.4929822447205617e-22
-0.48516441474999894	-3.49538389580334e-22
-0.48510337959374894	-3.4976157699367817e-22
-0.48504234443749894	-3.4996665158395757e-22
-0.48498130928124894	-3.501524951581241e-22
-0.48492027412499894	-3.503181103598063e-22
-0.48485923896874894	-3.504627087164935e-22
-0.48479820381249894	-3.5058577478997596e-22
-0.48473716865624894	-3.506871013833972e-22
-0.48467613349999894	-3.5076679433908845e-22
-0.48461509834374894	-3.50825248202546e-22
-0.48455406318749894	-3.50863096185166e-22
-0.48449302803124894	-3.5088114027543424e-22
-0.48443199287499894	-3.5088026947206967e-22
-0.48437095771874894	-3.508613748095798e-22
-0.48430992256249894	-3.508252688997507e-22
-0.48424888740624894	-3.5077261656779496e-22
-0.48418785224999894	-3.5070388243707813e-22
-0.48412681709374894	-3.506192995081152e-22
-0.48406578193749894	-3.505188600679427e-22
-0.48400474678124894	-3.5040232782427105e-22
-0.48394371162499894	-3.502692687642507e-22
-0.48388267646874894	-3.5011909752821253e-22
-0.48382164131249894	-3.4995113403010932e-22
-0.48376060615624894	-3.497646640800319e-22
-0.48369957099999894	-3.495589998613043e-22
-0.48363853584374894	-3.4933353616274056e-22
-0.48357750068749894	-3.490877968152105e-22
-0.48351646553124894	-3.4882146794326135e-22
-0.48345543037499894	-3.4853441729304962e-22
-0.48339439521874894	-3.4822669878766534e-22
-0.48333336006249894	-3.4789854224849377e-22
-0.48327232490624894	-3.4755033029517435e-22
-0.48321128974999894	-3.4718256453510216e-22
-0.48315025459374894	-3.4679582370831514e-22
-0.48308921943749894	-3.463907182132751e-22
-0.48302818428124894	-3.459678440210562e-22
-0.48296714912499894	-3.455277376466256e-22
-0.48290611396874894	-3.4507083658333534e-22
-0.48284507881249894	-3.4459744915899924e-22
-0.48278404365624894	-3.4410773387036233e-22
-0.48272300849999894	-3.4360168947105253e-22
-0.48266197334374894	-3.430791583753735e-22
-0.48260093818749894	-3.425398419807677e-22
-0.48253990303124894	-3.4198332558166915e-22
-0.48247886787499894	-3.41409112839676e-22
-0.48241783271874894	-3.4081666786455925e-22
-0.48235679756249894	-3.402054610038411e-22
-0.48229576240624894	-3.3957501504011624e-22
-0.48223472724999894	-3.3892494760852806e-22
-0.48217369209374894	-3.382550061477252e-22
-0.48211265693749894	-3.3756509271435865e-22
-0.48205162178124894	-3.3685527579698396e-22
-0.48199058662499894	-3.361257881192733e-22
-0.48192955146874894	-3.3537701072829633e-22
-0.48186851631249894	-3.346094442385491e-22
-0.48180748115624894	-3.338236689418033e-22
-0.48174644599999894	-3.330202958860749e-22
-0.48168541084374894	-3.3219991367200724e-22
-0.48162437568749894	-3.3136303753914872e-22
-0.48156334053124894	-3.3051006573364026e-22
-0.48150230537499894	-3.2964124666855923e-22
-0.48144127021874894	-3.2875665929618685e-22
-0.48138023506249894	-3.2785620867830467e-22
-0.48131919990624894	-3.269396385062813e-22
-0.48125816474999894	-3.2600655929410507e-22
-0.48119712959374894	-3.2505648870013333e-22
-0.48113609443749894	-3.2408890136496855e-22
-0.48107505928124894	-3.2310328462702916e-22
-0.48101402412499894	-3.220991934158825e-22
-0.48095298896874894	-3.2107629762369664e-22
-0.48089195381249894	-3.2003441828733586e-22
-0.48083091865624894	-3.1897354954051654e-22
-0.48076988349999894	-3.1789386285699495e-22
-0.48070884834374894	-3.1679569325829842e-22
-0.48064781318749894	-3.1567950981582392e-22
-0.48058677803124894	-3.1454587331595074e-22
-0.48052574287499894	-3.133953843571065e-22
-0.48046470771874894	-3.1222862638514244e-22
-0.48040367256249894	-3.110461111331795e-22
-0.48034263740624894	-3.098482334035933e-22
-0.48028160224999894	-3.086352384547815e-22
-0.48022056709374894	-3.0740720556870326e-22
-0.48015953193749894	-3.061640499912679e-22
-0.48009849678124894	-3.0490554023327944e-22
-0.48003746162499894	-3.036313293411936e-22
-0.47997642646874894	-3.0234100095975705e-22
-0.47991539131249894	-3.0103412440154824e-22
-0.47985435615624894	-2.9971030861637745e-22
-0.47979332099999894	-2.9836924868809587e-22
-0.47973228584374894	-2.9701076211974195e-22
-0.47967125068749894	-2.9563481266444017e-22
-0.47961021553124894	-2.942415184835167e-22
-0.47954918037499894	-2.9283114243703194e-22
-0.47948814521874894	-2.91404066773706e-22
-0.47942711006249894	-2.899607555770295e-22
-0.47936607490624894	-2.8850170815311874e-22
-0.47930503974999894	-2.8702740977829875e-22
-0.47924400459374894	-2.855382860463678e-22
-0.47918296943749894	-2.8403466477529373e-22
-0.47912193428124894	-2.825167500753143e-22
-0.47906089912499894	-2.809846119080901e-22
-0.47899986396874894	-2.7943819063588727e-22
-0.47893882881249894	-2.778773153333821e-22
-0.47887779365624894	-2.7630173488506613e-22
-0.47881675849999894	-2.7471115918368714e-22
-0.47875572334374894	-2.731053047171137e-22
-0.47869468818749894	-2.7148393715666745e-22
-0.47863365303124894	-2.6984690738087816e-22
-0.47857261787499894	-2.6819417846935074e-22
-0.47851158271874894	-2.665258376793899e-22
-0.47845054756249894	-2.6484209065978476e-22
-0.47838951240624894	-2.6314324198859965e-22
-0.47832847724999894	-2.6142966686660794e-22
-0.47826744209374894	-2.5970177613722977e-22
-0.47820640693749894	-2.5795997708683e-22
-0.47814537178124894	-2.562046345396316e-22
-0.47808433662499894	-2.5443603776764675e-22
-0.47802330146874894	-2.526543779301799e-22
-0.47796226631249894	-2.5085973771077104e-22
-0.47790123115624894	-2.490520927508565e-22
-0.47784019599999894	-2.472313258827675e-22
-0.47777916084374894	-2.453972537901818e-22
-0.47771812568749894	-2.435496612519851e-22
-0.47765709053124894	-2.416883389654414e-22
-0.47759605537499894	-2.398131209342729e-22
-0.47753502021874894	-2.379239149119965e-22
-0.47747398506249894	-2.360207241236505e-22
-0.47741294990624894	-2.3410366010282115e-22
-0.47735191474999894	-2.3217294109240644e-22
-0.47729087959374894	-2.3022887452079794e-22
-0.47722984443749894	-2.2827183055912344e-22
-0.47716880928124894	-2.263022107607331e-22
-0.47710777412499894	-2.2432041242639137e-22
-0.47704673896874894	-2.2232679486983137e-22
-0.47698570381249894	-2.2032165171956475e-22
-0.47692466865624894	-2.1830518796478763e-22
-0.47686363349999894	-2.1627750526477855e-22
-0.47680259834374894	-2.1423860074126606e-22
-0.47674156318749894	-2.1218837914356213e-22
-0.47668052803124894	-2.1012667560647406e-22
-0.47661949287499894	-2.080532867095015e-22
-0.47655845771874894	-2.0596800689099232e-22
-0.47649742256249894	-2.0387066504975659e-22
-0.47643638740624894	-2.0176115607209375e-22
-0.47637535224999894	-1.9963946423419095e-22
-0.47631431709374894	-1.9750567767572269e-22
-0.47625328193749894	-1.9535999217888355e-22
-0.47619224678124894	-1.932027017195673e-22
-0.47613121162499894	-1.9103417800790861e-22
-0.47607017646874894	-1.8885484294538683e-22
-0.47600914131249894	-1.8666513478296431e-22
-0.47594810615624894	-1.8446547071770506e-22
-0.47588707099999894	-1.822562120781859e-22
-0.47582603584374894	-1.800376366434264e-22
-0.47576500068749894	-1.7780992040697626e-22
-0.47570396553124894	-1.7557313046545012e-22
-0.47564293037499894	-1.7332722928659825e-22
-0.47558189521874894	-1.7107208850736762e-22
-0.47552086006249894	-1.6880751134412394e-22
-0.47545982490624894	-1.6653326549219035e-22
-0.47539878974999894	-1.6424912400292233e-22
-0.47533775459374894	-1.6195490523342268e-22
-0.47527671943749894	-1.5965050667466741e-22
-0.47521568428124894	-1.573359308709901e-22
-0.47515464912499894	-1.550112999327262e-22
-0.47509361396874894	-1.5267685822828285e-22
-0.47503257881249894	-1.5033296369970055e-22
-0.47497154365624894	-1.4798006546059657e-22
-0.47491050849999894	-1.4561866915539323e-22
-0.47484947334374894	-1.4324929477025512e-22
-0.47478843818749894	-1.4087243130927068e-22
-0.47472740303124894	-1.3848849443607598e-22
-0.47466636787499894	-1.36097792325141e-22
-0.47460533271874894	-1.3370050268250278e-22
-0.47454429756249894	-1.3129666368579792e-22
-0.47448326240624894	-1.288861803568886e-22
-0.47442222724999894	-1.264688444013921e-22
-0.47436119209374894	-1.2404436573152654e-22
-0.47430015693749894	-1.2161241615103052e-22
-0.47423912178124894	-1.1917268024483906e-22
-0.47417808662499894	-1.1672490514696372e-22
-0.47411705146874894	-1.142689450096098e-22
-0.47405601631249894	-1.1180479611666664e-22
-0.47399498115624894	-1.0933261737690089e-22
-0.47393394599999894	-1.068527327852808e-22
-0.47387291084374894	-1.0436561354823727e-22
-0.47381187568749894	-1.018718416252737e-22
-0.47375084053124894	-9.937206183860324e-23
-0.47368980537499894	-9.686692782531132e-23
-0.47362877021874894	-9.43570452959039e-23
-0.47356773506249894	-9.184291809134032e-23
-0.47350669990624894	-8.932490231244738e-23
-0.47344566474999894	-8.680317482865346e-23
-0.47338462959374894	-8.427772328179006e-23
-0.47332359443749894	-8.174835928761317e-23
-0.47326255928124894	-7.921475036658632e-23
-0.47320152412499894	-7.667646722634496e-23
-0.47314048896874894	-7.413304462896131e-23
-0.47307945381249894	-7.158404865458261e-23
-0.47301841865624894	-6.90291407158235e-23
-0.47295738349999894	-6.646813272045608e-23
-0.47289634834374894	-6.390102742113236e-23
-0.47283531318749894	-6.132803742023688e-23
-0.47277427803124894	-5.87495810589045e-23
-0.47271324287499894	-5.616625458972167e-23
-0.47265220771874894	-5.357878219297209e-23
