Time	Frequency
-0.5000610272812498	0.5523577775962027
-0.4999999921249998	0.5545513109540133
-0.4999389569687498	0.5567294640418593
-0.4998779218124998	0.5588927240468224
-0.4998168866562498	0.5610416204332974
-0.4997558514999998	0.5631766733237382
-0.4996948163437498	0.5652983427436616
-0.4996337811874998	0.5674069838061404
-0.4995727460312498	0.5695028114946614
-0.4995117108749998	0.57158587757075
-0.4994506757187498	0.5736560621552204
-0.4993896405624998	0.5757130808209238
-0.4993286054062498	0.5777565057468134
-0.4992675702499998	0.5797857990342107
-0.4992065350937498	0.5818003557030926
-0.4991454999374998	0.583799552368032
-0.4990844647812498	0.5857827969294594
-0.4990234296249998	0.587749574988763
-0.4989623944687498	0.5896994891580399
-0.4989013593124998	0.5916322876355639
-0.4988403241562498	0.593547879584952
-0.4987792889999998	0.5954463366207761
-0.4987182538437498	0.5973278800687339
-0.4986572186874998	0.5991928546298342
-0.4985961835312498	0.6010416913145831
-0.4985351483749998	0.6028748635235848
-0.4984741132187498	0.6046928399911669
-0.4984130780624998	0.6064960383685624
-0.4983520429062498	0.6082847838884691
-0.4982910077499998	0.6100592771723041
-0.4982299725937498	0.6118195738085016
-0.4981689374374998	0.6135655772102624
-0.4981079022812498	0.6152970448250006
-0.4980468671249998	0.6170136070939917
-0.4979858319687498	0.618714798143323
-0.4979247968124998	0.6204000948002423
-0.4978637616562498	0.6220689596412371
-0.4978027264999998	0.6237208852864717
-0.4977416913437498	0.6253554361366058
-0.4976806561874998	0.6269722824664236
-0.4976196210312498	0.6285712240099484
-0.4975585858749998	0.630152201881294
-0.4974975507187498	0.6317152978441822
-0.4974365155624998	0.6332607209052762
-0.4973754804062498	0.6347887823731122
-0.4973144452499998	0.6362998617329078
-0.4972534100937498	0.6377943665573369
-0.4971923749374998	0.639272690157865
-0.4971313397812498	0.6407351713016847
-0.4970703046249998	0.6421820597795024
-0.4970092694687498	0.6436134904047498
-0.4969482343124998	0.6450294676422916
-0.4968871991562498	0.6464298625786016
-0.4968261639999998	0.6478144225435878
-0.4967651288437498	0.6491827921032328
-0.4967040936874998	0.6505345431851698
-0.4966430585312498	0.65186921173877
-0.4965820233749998	0.6531863378414063
-0.4965209882187498	0.6544855053600129
-0.4964599530624998	0.6557663771819526
-0.4963989179062498	0.6570287228599407
-0.4963378827499998	0.6582724362628555
-0.4962768475937498	0.6594975416025732
-0.4962158124374998	0.6607041873585696
-0.4961547772812498	0.6618926287162785
-0.4960937421249998	0.6630632000632144
-0.4960327069687498	0.6642162799904745
-0.4959716718124998	0.665352252171177
-0.4959106366562498	0.6664714658733689
-0.4958496014999998	0.6675741996329992
-0.4957885663437498	0.668660631407995
-0.4957275311874998	0.6697308180670465
-0.4956664960312498	0.6707846861197135
-0.4956054608749998	0.6718220346332111
-0.4955444257187498	0.672842550338766
-0.4954833905624998	0.673845833677381
-0.4954223554062498	0.6748314331976384
-0.4953613202499998	0.675798884988645
-0.4953002850937498	0.6767477535916916
-0.4952392499374998	0.677677670650194
-0.4951782147812498	0.6785883676896182
-0.4951171796249998	0.6794796999559848
-0.4950561444687498	0.6803516590487876
-0.4949951093124998	0.6812043730989106
-0.4949340741562498	0.6820380942448167
-0.4948730389999998	0.6828531743032701
-0.4948120038437498	0.6836500308060649
-0.4947509686874998	0.6844291065128245
-0.4946899335312498	0.6851908260422199
-0.4946288983749998	0.6859355535346845
-0.4945678632187498	0.6866635552602255
-0.4945068280624998	0.6873749706205042
-0.4944457929062498	0.6880697942650063
-0.4943847577499998	0.6887478712627089
-0.4943237225937498	0.689408905991481
-0.4942626874374998	0.690052484077753
-0.4942016522812498	0.6906781057516738
-0.4941406171249998	0.6912852277998586
-0.4940795819687498	0.6918733103579702
-0.4940185468124998	0.6924418643915722
-0.4939575116562498	0.69299049543972
-0.4938964764999998	0.6935189395435195
-0.4938354413437498	0.6940270881867935
-0.4937744061874998	0.6945149998238261
-0.4937133710312498	0.6949828965877924
-0.4936523358749998	0.6954311462299918
-0.4935913007187498	0.6958602306667979
-0.4935302655624998	0.6962707037454675
-0.4934692304062498	0.6966631418503368
-0.4934081952499998	0.6970380915562071
-0.4933471600937498	0.6973960190411281
-0.4932861249374998	0.6977372658719169
-0.4932250897812498	0.6980620149594203
-0.4931640546249998	0.6983702700220207
-0.4931030194687498	0.6986618509704259
-0.4930419843124998	0.6989364054998771
-0.4929809491562498	0.6991934357679912
-0.4929199139999998	0.6994323385368416
-0.4928588788437498	0.6996524556150661
-0.4927978436874998	0.6998531297314717
-0.4927368085312498	0.7000337609397826
-0.4926757733749998	0.7001938589759807
-0.4926147382187498	0.7003330868476875
-0.4925537030624998	0.700451291529923
-0.4924926679062498	0.7005485187949396
-0.4924316327499998	0.7006250106609577
-0.4923705975937498	0.7006811857415487
-0.4923095624374998	0.7007176040486714
-0.4922485272812498	0.7007349190580329
-0.4921874921249998	0.7007338212299522
-0.4921264569687498	0.7007149775668015
-0.4920654218124998	0.7006789722987452
-0.4920043866562498	0.7006262545940065
-0.4919433514999998	0.7005570981681434
-0.4918823163437498	0.700471575930541
-0.4918212811874998	0.7003695520070482
-0.4917602460312498	0.7002506921152494
-0.4916992108749998	0.7001144914752354
-0.4916381757187498	0.6999603182960329
-0.4915771405624998	0.6997874690538016
-0.4915161054062498	0.6995952302074303
-0.4914550702499998	0.6993829411718632
-0.4913940350937498	0.6991500530233765
-0.4913329999374998	0.6988961772510478
-0.4912719647812498	0.6986211206729519
-0.4912109296249998	0.6983249037389534
-0.4911498944687498	0.6980077599467555
-0.4910888593124998	0.6976701161499576
-0.4910278241562498	0.697312555581056
-0.4909667889999998	0.6969357666780576
-0.4909057538437498	0.6965404823445073
-0.4908447186874998	0.6961274153441005
-0.4907836835312498	0.6956971953203576
-0.4907226483749998	0.6952503125713939
-0.4906616132187498	0.6947870740333542
-0.4906005780624998	0.6943075762532243
-0.4905395429062498	0.6938116974432798
-0.4904785077499998	0.6932991086046223
-0.4904174725937498	0.6927693030624825
-0.4903564374374998	0.6922216423879823
-0.4902954022812498	0.691655414319468
-0.4902343671249998	0.6910698967198141
-0.4901733319687498	0.6904644222188058
-0.4901122968124998	0.6898384389398307
-0.4900512616562498	0.6891915615653184
-0.4899902264999998	0.6885236073892791
-0.4899291913437498	0.6878346144624802
-0.4898681561874998	0.6871248397331094
-0.4898071210312498	0.6863947368079282
-0.4897460858749998	0.6856449165949164
-0.4896850507187498	0.6848760948309822
-0.4896240155624998	0.6840890299382267
-0.4895629804062498	0.6832844562067243
-0.4895019452499998	0.6824630188922866
-0.4894409100937498	0.681625217670381
-0.4893798749374998	0.6807713635840452
-0.4893188397812498	0.6799015527720397
-0.4892578046249998	0.6790156589837719
-0.4891967694687498	0.6781133461354875
-0.4891357343124998	0.6771941000622385
-0.4890746991562498	0.6762572760362594
-0.4890136639999998	0.6753021577280682
-0.4889526288437498	0.6743280229649462
-0.4888915936874998	0.6733342102974403
-0.4888305585312498	0.6723201798088019
-0.4887695233749998	0.6712855627881243
-0.4887084882187498	0.6702301964305596
-0.4886474530624998	0.6691541406656628
-0.4885864179062498	0.6680576752284972
-0.4885253827499998	0.6669412771568741
-0.4884643475937498	0.66580558042784
-0.4884033124374998	0.6646513208631181
-0.4883422772812498	0.6634792720122555
-0.4882812421249998	0.6622901789796906
-0.4882202069687498	0.6610846958042688
-0.4881591718124998	0.6598633303448296
-0.4880981366562498	0.6586264012459305
-0.4880371014999998	0.6573740119156402
-0.4879760663437498	0.6561060441967524
-0.4879150311874998	0.6548221723384711
-0.4878539960312498	0.6535218954832355
-0.4877929608749998	0.6522045848983636
-0.4877319257187498	0.6508695425683669
-0.4876708905624998	0.6495160663747759
-0.4876098554062498	0.6481435155282764
-0.4875488202499998	0.6467513709848192
-0.4874877850937498	0.6453392848874184
-0.4874267499374998	0.6439071133033579
-0.4873657147812498	0.6424549304633529
-0.4873046796249998	0.6409830241676786
-0.4872436444687498	0.6394918720664333
-0.4871826093124998	0.637982101218937
-0.4871215741562498	0.6364544347319324
-0.4870605389999998	0.6349096291127589
-0.4869995038437498	0.6333484082023831
-0.4869384686874998	0.6317714014382079
-0.4868774335312498	0.6301790919074977
-0.4868163983749998	0.6285717777423213
-0.4867553632187498	0.6269495505830951
-0.4866943280624998	0.6253122925611231
-0.4866332929062498	0.6236596912177516
-0.4865722577499998	0.6219912720073371
-0.4865112225937498	0.6203064462371246
-0.4864501874374998	0.6186045693664249
-0.4863891522812498	0.6168850036276843
-0.4863281171249998	0.6151471793982657
-0.4862670819687498	0.6133906505587844
-0.4862060468124998	0.6116151383368381
-0.4861450116562498	0.6098205584172258
-0.4860839764999998	0.6080070304022812
-0.4860229413437498	0.6061748700745309
-0.4859619061874998	0.6043245635394455
-0.4859008710312498	0.6024567247469998
-0.4858398358749998	0.6005720411191678
-0.4857788007187498	0.5986712140232358
-0.4857177655624998	0.596754900056078
-0.4856567304062498	0.5948236558732088
-0.4855956952499998	0.5928778909965788
-0.4855346600937498	0.5909178351891825
-0.4854736249374998	0.5889435230031236
-0.4854125897812498	0.5869547960025042
-0.4853515546249998	0.5849513233433753
-0.4852905194687498	0.5829326385135462
-0.4852294843124998	0.5808981873928759
-0.4851684491562498	0.5788473833816776
-0.4851074139999998	0.5767796664320735
-0.4850463788437498	0.5746945608040414
-0.4849853436874998	0.572591724581016
-0.4849243085312498	0.5704709854222328
-0.4848632733749998	0.5683323601096151
-0.4848022382187498	0.5661760575269694
-0.4847412030624998	0.5640024640518624
-0.4846801679062498	0.5618121122424092
-0.4846191327499998	0.5596056369778617
-0.4845580975937498	0.5573837216428472
-0.4844970624374998	0.5551470383492443
-0.4844360272812498	0.5528961901548901
-0.4843749921249998	0.550631660553508
-0.4843139569687498	0.5483537736325559
-0.4842529218124998	0.5460626691880724
-0.4841918866562498	0.5437582949889036
-0.4841308514999998	0.5414404165504406
-0.4840698163437498	0.5391086436996453
-0.4840087811874998	0.5367624717297802
-0.4839477460312498	0.5344013337615634
-0.4838867108749998	0.532024659449752
-0.4838256757187498	0.529631933551855
-0.4837646405624998	0.527222748592258
-0.4837036054062498	0.5247968484008191
-0.4836425702499998	0.5223541588285016
-0.4835815350937498	0.5198948011318236
-0.4835204999374998	0.5174190865700107
-0.4834594647812498	0.5149274938705071
-0.4833984296249998	0.5124206321081316
-0.4833373944687498	0.5098991915823662
-0.4832763593124998	0.5073638864963035
-0.4832153241562498	0.5048153949567817
-0.4831542889999998	0.5022543018930924
-0.4830932538437498	0.4996810505726158
-0.4830322186874998	0.4970959071272806
-0.4829711835312498	0.4944989407291521
-0.4829101483749998	0.49189002250572356
-0.4828491132187498	0.4892688428293734
-0.4827880780624998	0.4866349433249035
-0.4827270429062498	0.4839877631763881
-0.4826660077499998	0.4813266975835024
-0.4826049725937498	0.4786511603315551
-0.4825439374374998	0.4759606432302897
-0.4824829022812498	0.4732547680247737
-0.4824218671249998	0.4705333275512788
-0.4823608319687498	0.46779631266505284
-0.4822997968124998	0.4650439201793579
-0.4822387616562498	0.46227654110893257
-0.4821777264999998	0.4594947329663616
-0.4821166913437498	0.4566991775353568
-0.4820556561874998	0.4538906260923971
-0.4819946210312498	0.45106983795731337
-0.4819335858749998	0.448237517847949
-0.4818725507187498	0.4453942573809085
-0.4818115155624998	0.4425404871645858
-0.4817504804062498	0.4396764444210024
-0.4816894452499998	0.43680215897484864
-0.4816284100937498	0.4339174576883216
-0.4815673749374998	0.43102198587577417
-0.4815063397812498	0.4281152448549988
-0.4814453046249998	0.4251966426263342
-0.4813842694687498	0.42226555302512847
-0.4813232343124998	0.4193213787899279
-0.4812621991562498	0.416363612144113
-0.4812011639999998	0.41339188716696407
-0.4811401288437498	0.4104060201650093
-0.4810790936874998	0.4074060336776244
-0.4810180585312498	0.404392161083404
-0.4809570233749998	0.4013648317389469
-0.4808959882187498	0.398324638663387
-0.4808349530624998	0.39527229218489573
-0.4807739179062498	0.392208563602101
-0.4807128827499998	0.38913422379676593
-0.4806518475937498	0.3860499823834446
-0.4805908124374998	0.3829564328716892
-0.4805297772812498	0.37985400798647556
-0.4804687421249998	0.3767429482897282
-0.4804077069687498	0.3736232877062705
-0.4803466718124998	0.37049485807575966
-0.4802856366562498	0.36735731218992185
-0.4802246014999998	0.3642101624802534
-0.4801635663437498	0.36105283121455084
-0.4801025311874998	0.35788470863018035
-0.4800414960312498	0.35470521491795465
-0.4799804608749998	0.35151386018885694
-0.4799194257187498	0.34831029530927243
-0.4798583905624998	0.3450943482882157
-0.4797973554062498	0.34186604579754604
-0.4797363202499998	0.3386256197308991
-0.4796752850937498	0.33537349500504005
-0.4796142499374998	0.33211025815296824
-0.4795532147812498	0.32883661235458217
-0.4794921796249998	0.32555332293081346
-0.4794311444687498	0.3222611564139689
-0.4793701093124998	0.31896081964880996
-0.4793090741562498	0.31565290543014946
-0.4792480389999998	0.31233784887886606
-0.4791870038437498	0.30901589686307723
-0.4791259686874998	0.3056870930413348
-0.4790649335312498	0.30235128154464797
-0.4790038983749998	0.2990081297735019
-0.4789428632187498	0.29565716724663754
-0.4788818280624998	0.2922978344132365
-0.4788207929062498	0.28892953695093565
-0.4787597577499998	0.2855517045588341
-0.4786987225937498	0.2821638497286513
-0.4786376874374998	0.27876561827229457
-0.4785766522812498	0.2753568265688127
-0.4785156171249998	0.2719374833527324
-0.4784545819687498	0.2685077940155775
-0.4783935468124998	0.26506814806313256
-0.4783325116562498	0.2616190928577175
-0.4782714764999998	0.2581612947850158
-0.4782104413437498	0.2546954893082933
-0.4781494061874998	0.25122242577993104
-0.4780883710312498	0.24774281316886615
-0.4780273358749998	0.2442572697557459
-0.4779663007187498	0.24076628080247253
-0.4779052655624998	0.23727017039735637
-0.4778442304062498	0.2337690893500926
-0.4777831952499998	0.23026301663865842
-0.4777221600937498	0.22675177502753377
-0.4776611249374998	0.22323506114796673
-0.4776000897812498	0.21971248401553928
-0.4775390546249998	0.21618360710049633
-0.4774780194687498	0.2126479918323753
-0.4774169843124998	0.20910523720079913
-0.4773559491562498	0.20555501202617732
-0.4772949139999998	0.20199707949177792
-0.4772338788437498	0.19843131183054266
-0.4771728436874998	0.19485769440370945
-0.4771118085312498	0.19127632023332852
-0.4770507733749998	0.18768737733480156
-0.4769897382187498	0.18409113097975918
-0.4769287030624998	0.18048790111410748
-0.4768676679062498	0.1768780394802398
-0.4768066327499998	0.17326191117266015
-0.4767455975937498	0.16963987852844917
-0.4766845624374998	0.16601228741345675
-0.4766235272812498	0.162379459831492
-0.4765624921249998	0.1587416918126059
-0.4765014569687498	0.15509925190787568
-0.4764404218124998	0.1514523802072622
-0.4763793866562498	0.14780129099957973
-0.4763183514999998	0.14414617691620407
-0.4762573163437498	0.14048721063841585
-0.4761962811874998	0.1368245449084565
-0.4761352460312498	0.13315831176002477
-0.4760742108749998	0.12948862020445362
-0.4760131757187498	0.12581555209065962
-0.4759521405624998	0.12213915672824495
-0.4758911054062498	0.11845944693963623
-0.4758300702499998	0.11477639816742105
-0.4757690350937498	0.11108994817444359
-0.4757079999374998	0.10739999801301371
-0.4756469647812498	0.10370641884007094
-0.4755859296249998	0.10000906443485422
-0.4755248944687498	0.09630778571638947
-0.4754638593124998	0.09260244555058664
-0.4754028241562498	0.08889293499209239
-0.4753417889999998	0.08517919059827428
-0.4752807538437498	0.08146120912997555
-0.4752197186874998	0.07773905765742022
-0.4751586835312498	0.07401287889945712
-0.4750976483749998	0.0702828906721465
-0.4750366132187498	0.06654937943934533
-0.4749755780624998	0.06281268910931756
-0.4749145429062498	0.05907320390094072
-0.4748535077499998	0.0553313252932456
-0.4747924725937498	0.0515874474651803
-0.4747314374374998	0.0478419338788369
-0.4746704022812498	0.04409509564260755
-0.4746093671249998	0.04034717421763457
-0.4745483319687498	0.03659832913724557
-0.4744872968124998	0.03284863019675683
-0.4744262616562498	0.02909805786802924
-0.4743652264999998	0.02534651406650954
-0.4743041913437498	0.021593838959524315
-0.4742431561874998	0.01783983160589256
-0.4741821210312498	0.014084276102257199
-0.4741210858749998	0.010326971549452245
-0.4740600507187498	0.006567761470685886
-0.4739990155624998	0.0028065589020177858
-0.4739379804062498	-0.0009566358486986318
-0.4738769452499998	-0.004721724950749729
-0.4738159100937498	-0.008488509305564596
-0.4737548749374998	-0.012256693358594131
-0.4736938397812498	-0.016025900501513438
-0.4736328046249998	-0.01979569714086351
-0.4735717694687498	-0.023565621975009148
-0.4735107343124998	-0.02733521784565489
-0.4734496991562498	-0.031104063477205766
-0.4733886639999998	-0.03487180271607239
-0.4733276288437498	-0.0386381705474292
-0.4732665936874998	-0.042403013656415384
-0.4732055585312498	-0.04616630023470942
-0.4731445233749998	-0.04992811643079563
-0.4730834882187498	-0.05368865101712895
-0.4730224530624998	-0.05744817014706719
-0.4729614179062498	-0.0612069852721266
-0.4729003827499998	-0.0649654186137394
-0.4728393475937498	-0.0687237674008569
-0.4727783124374998	-0.07248226692071337
-0.4727172772812498	-0.07624105678169325
-0.4726562421249998	-0.08000015534132973
-0.4725952069687498	-0.08375944371901468
-0.4725341718124998	-0.08751866191003563
-0.4724731366562498	-0.09127741960530357
-0.4724121014999998	-0.09503521907436803
-0.4723510663437498	-0.09879148736162958
-0.4722900311874998	-0.10254561662952766
-0.4722289960312498	-0.10629700852609947
-0.4721679608749998	-0.11004511766540621
-0.4721069257187498	-0.11378949018405907
-0.4720458905624998	-0.11752979537952635
-0.4719848554062498	-0.12126585007855219
-0.4719238202499998	-0.12499763170979007
-0.4718627850937498	-0.12872527530031144
-0.4718017499374998	-0.1324490559128691
-0.4717407147812498	-0.136169359678179
-0.4716796796249998	-0.13988664435777595
-0.4716186444687498	-0.14360139328349855
-0.4715576093124998	-0.14731406749714354
-0.4714965741562498	-0.15102505837943175
-0.4714355389999998	-0.15473464410866067
-0.4713745038437498	-0.15844295469727596
-0.4713134686874998	-0.16214994903027907
-0.4712524335312498	-0.16585540681225383
-0.4711913983749998	-0.16955893738838124
-0.4711303632187498	-0.17326000207684342
-0.4710693280624998	-0.17695794607769977
-0.4710082929062498	-0.18065204068887053
-0.4709472577499998	-0.18434153340455206
-0.4708862225937498	-0.18802570074786074
-0.4708251874374998	-0.19170390045916053
-0.4707641522812498	-0.19537561759847277
-0.4707031171249998	-0.19904049977811347
-0.4706420819687498	-0.20269837914079766
-0.4705810468124998	-0.20634927943842749
-0.4705200116562498	-0.20999340926592816
-0.4704589764999998	-0.21363114158847632
-0.4703979413437498	-0.21726297726340163
-0.4703369061874998	-0.2208894948374488
-0.4702758710312498	-0.2245112945084807
-0.4702148358749998	-0.2281289422428669
-0.4701538007187498	-0.23174291587732218
-0.4700927655624998	-0.23535355572907501
-0.4700317304062498	-0.23896102518671336
-0.4699706952499998	-0.24256528670328353
-0.4699096600937498	-0.2461660953218572
-0.4698486249374998	-0.2497630097104747
-0.4697875897812498	-0.2533554193776796
-0.4697265546249998	-0.2569425850328886
-0.4696655194687498	-0.260523689120863
-0.4696044843124998	-0.2640978935159686
-0.4695434491562498	-0.2676644005538374
-0.4694824139999998	-0.2712225121252936
-0.4694213788437498	-0.27477168080403336
-0.4693603436874998	-0.2783115483423571
-0.4692993085312498	-0.2818419678768707
-0.4692382733749998	-0.2853630087953918
-0.4691772382187498	-0.2888749450264696
