Time	Frequency
-0.5000457686562498	-9.370763916678793e-22
-0.49998473349999983	-9.355357032133219e-22
-0.49992369834374983	-9.33974851455425e-22
-0.49986266318749983	-9.323944472775077e-22
-0.49980162803124983	-9.307948927401072e-22
-0.49974059287499983	-9.29176346513383e-22
-0.49967955771874983	-9.27538712361398e-22
-0.49961852256249983	-9.258816529094941e-22
-0.49955748740624983	-9.24204627315831e-22
-0.49949645224999983	-9.22506946384958e-22
-0.49943541709374983	-9.207878405498541e-22
-0.49937438193749983	-9.190465363805438e-22
-0.49931334678124983	-9.172823326179534e-22
-0.49925231162499983	-9.154946674706915e-22
-0.49919127646874983	-9.136831728905176e-22
-0.49913024131249983	-9.11847711567399e-22
-0.49906920615624983	-9.099883922868907e-22
-0.49900817099999983	-9.081055617243502e-22
-0.49894713584374983	-9.061997730809145e-22
-0.49888610068749983	-9.042717352472991e-22
-0.49882506553124983	-9.023222485814583e-22
-0.49876403037499983	-9.003521328089261e-22
-0.49870299521874983	-8.98362153398076e-22
-0.49864196006249983	-8.963529539738838e-22
-0.49858092490624983	-8.943250012909712e-22
-0.49851988974999983	-8.922785470236396e-22
-0.49845885459374983	-8.9021360949212e-22
-0.49839781943749983	-8.881299782816455e-22
-0.49833678428124983	-8.860272402745333e-22
-0.49827574912499983	-8.839048232127595e-22
-0.49821471396874983	-8.817620545189162e-22
-0.49815367881249983	-8.795982295389044e-22
-0.49809264365624983	-8.774126816959333e-22
-0.49803160849999983	-8.752048494954254e-22
-0.49797057334374983	-8.72974333849964e-22
-0.49790953818749983	-8.707209385753174e-22
-0.49784850303124983	-8.684446904107878e-22
-0.49778746787499983	-8.661458380282334e-22
-0.49772643271874983	-8.63824831504344e-22
-0.49766539756249983	-8.614822849047865e-22
-0.49760436240624983	-8.591189232395327e-22
-0.49754332724999983	-8.56735516611898e-22
-0.49748229209374983	-8.543328100382601e-22
-0.49742125693749983	-8.519114578577307e-22
-0.49736022178124983	-8.494719682752514e-22
-0.49729918662499983	-8.47014661365081e-22
-0.49723815146874983	-8.445396441495541e-22
-0.49717711631249983	-8.420468067559985e-22
-0.49711608115624983	-8.395358395830042e-22
-0.49705504599999983	-8.3700626912348255e-22
-0.49699401084374983	-8.3445751017463265e-22
-0.49693297568749983	-8.318889288461894e-22
-0.49687194053124983	-8.292999090003037e-22
-0.49681090537499983	-8.266899169294001e-22
-0.49674987021874983	-8.240585591409341e-22
-0.49668883506249983	-8.214056257709918e-22
-0.49662779990624983	-8.187311141118179e-22
-0.49656676474999983	-8.160352324909118e-22
-0.49650572959374983	-8.13318386405024e-22
-0.49644469443749983	-8.10581145917773e-22
-0.49638365928124983	-8.078241948062989e-22
-0.49632262412499983	-8.050482672175445e-22
-0.49626158896874983	-8.022540793474522e-22
-0.49620055381249983	-7.994422640069916e-22
-0.49613951865624983	-7.966133141269799e-22
-0.49607848349999983	-7.937675389226637e-22
-0.49601744834374983	-7.909050385038617e-22
-0.49595641318749983	-7.880257010366189e-22
-0.49589537803124983	-7.851292207052599e-22
-0.49583434287499983	-7.822151338604101e-22
-0.49577330771874983	-7.792828713297713e-22
-0.49571227256249983	-7.763318222150571e-22
-0.49565123740624983	-7.733614025130191e-22
-0.49559020224999983	-7.703711214565532e-22
-0.49552916709374983	-7.673606383212482e-22
-0.49546813193749983	-7.6432980397696185e-22
-0.49540709678124983	-7.612786837870026e-22
-0.49534606162499983	-7.582075594803165e-22
-0.49528502646874983	-7.551169089441606e-22
-0.49522399131249983	-7.52007365637959e-22
-0.49516295615624983	-7.4887966116441585e-22
-0.49510192099999983	-7.457345564678946e-22
-0.49504088584374983	-7.425727702082432e-22
-0.49497985068749983	-7.393949129086681e-22
-0.49491881553124983	-7.362014315922668e-22
-0.49485778037499983	-7.32992568494373e-22
-0.49479674521874983	-7.297683404001821e-22
-0.49473571006249983	-7.26528542253967e-22
-0.49467467490624983	-7.232727720086314e-22
-0.49461363974999983	-7.200004741022469e-22
-0.49455260459374983	-7.167110010266564e-22
-0.49449156943749983	-7.134036880280003e-22
-0.49443053428124983	-7.100779297533302e-22
-0.49436949912499983	-7.067332487945263e-22
-0.49430846396874983	-7.033693519358655e-22
-0.49424742881249983	-6.999861704016517e-22
-0.49418639365624983	-6.965838784810777e-22
-0.49412535849999983	-6.93162886802369e-22
-0.49406432334374983	-6.897238105043921e-22
-0.49400328818749983	-6.862674166722741e-22
-0.49394225303124983	-6.827945569069221e-22
-0.49388121787499983	-6.793060900921391e-22
-0.49382018271874983	-6.758028024225232e-22
-0.49375914756249983	-6.7228533383288325e-22
-0.49369811240624983	-6.687541179834098e-22
-0.49363707724999983	-6.652093419804421e-22
-0.49357604209374983	-6.616509326309364e-22
-0.49351500693749983	-6.58078570758422e-22
-0.49345397178124983	-6.544917285735269e-22
-0.49339293662499983	-6.508897269245604e-22
-0.49333190146874983	-6.472718096863203e-22
-0.49327086631249983	-6.436372276723572e-22
-0.49320983115624983	-6.399853233370408e-22
-0.49314879599999983	-6.363156074318128e-22
-0.49308776084374983	-6.32627818944916e-22
-0.49302672568749983	-6.289219623986202e-22
-0.49296569053124983	-6.251983192177288e-22
-0.49290465537499983	-6.214574313935585e-22
-0.49284362021874983	-6.177000576386322e-22
-0.49278258506249983	-6.139271069905309e-22
-0.49272154990624983	-6.101395580195621e-22
-0.49266051474999983	-6.063383705768464e-22
-0.49259947959374983	-6.025243971042472e-22
-0.49253844443749983	-5.986983031114961e-22
-0.49247740928124983	-5.948605063839369e-22
-0.49241637412499983	-5.910111411430298e-22
-0.49235533896874983	-5.8715005071254855e-22
-0.49229430381249983	-5.832768097307344e-22
-0.49223326865624983	-5.793907728757589e-22
-0.49217223349999983	-5.754911448489016e-22
-0.49211119834374983	-5.715770663509316e-22
-0.49205016318749983	-5.676477087099921e-22
-0.49198912803124983	-5.637023667417036e-22
-0.49192809287499983	-5.597405389804891e-22
-0.49186705771874983	-5.55761987199996e-22
-0.49180602256249983	-5.517667712037735e-22
-0.49174498740624983	-5.477552551374395e-22
-0.49168395224999983	-5.437280824245182e-22
-0.49162291709374983	-5.3968612320674005e-22
-0.49156188193749983	-5.356304002975248e-22
-0.49150084678124983	-5.315619977118429e-22
-0.49143981162499983	-5.274819605692295e-22
-0.49137877646874983	-5.23391200121563e-22
-0.49131774131249983	-5.1929041324606625e-22
-0.49125670615624983	-5.151800207064834e-22
-0.49119567099999983	-5.110601317054379e-22
-0.49113463584374983	-5.069305404200704e-22
-0.49107360068749983	-5.027907527112481e-22
-0.49101256553124983	-4.986400410835428e-22
-0.49095153037499983	-4.944775248793498e-22
-0.49089049521874983	-4.903022668158858e-22
-0.49082946006249983	-4.861133749606452e-22
-0.49076842490624983	-4.81910100961149e-22
-0.49070738974999983	-4.776919242224066e-22
-0.49064635459374983	-4.73458611432607e-22
-0.49058531943749983	-4.692102482369017e-22
-0.49052428428124983	-4.64947242856296e-22
-0.49046324912499983	-4.606702986808428e-22
-0.49040221396874983	-4.563803556650611e-22
-0.49034117881249983	-4.520785063967788e-22
-0.49028014365624983	-4.477658978110516e-22
-0.49021910849999983	-4.434436289669145e-22
-0.49015807334374983	-4.391126527127036e-22
-0.49009703818749983	-4.34773690118519e-22
-0.49003600303124983	-4.304271673578439e-22
-0.48997496787499983	-4.260731830714827e-22
-0.48991393271874983	-4.2171150845954277e-22
-0.48985289756249983	-4.1734161922926322e-22
-0.48979186240624983	-4.129627576184e-22
-0.48973082724999983	-4.0857401669454204e-22
-0.48966979209374983	-4.0417443759996837e-22
-0.48960875693749983	-3.997631134022885e-22
-0.48954772178124983	-3.9533928994917134e-22
-0.48948668662499983	-3.909024501140096e-22
-0.48942565146874983	-3.864523733832706e-22
-0.48936461631249983	-3.819891681540856e-22
-0.48930358115624983	-3.77513271448738e-22
-0.48924254599999983	-3.730254152101184e-22
-0.48918151084374983	-3.685265660314487e-22
-0.48912047568749983	-3.6401784212884623e-22
-0.48905944053124983	-3.595004127541775e-22
-0.48899840537499983	-3.549753928637287e-22
-0.48893737021874983	-3.504437440870461e-22
-0.48887633506249983	-3.4590618941816886e-22
-0.48881529990624983	-3.413631515461382e-22
-0.48875426474999983	-3.3681472358741744e-22
-0.48869322959374983	-3.3226067148579217e-22
-0.48863219443749983	-3.2770046479624387e-22
-0.48857115928124983	-3.2313333852545257e-22
-0.48851012412499983	-3.1855838110425657e-22
-0.48844908896874983	-3.1397463377598265e-22
-0.48838805381249983	-3.0938119260373945e-22
-0.48832701865624983	-3.0477730756710464e-22
-0.48826598349999983	-3.001624688265372e-22
-0.48820494834374983	-2.955364692065979e-22
-0.48814391318749983	-2.9089943466899e-22
-0.48808287803124983	-2.862518197107529e-22
-0.48802184287499983	-2.815943699050634e-22
-0.48796080771874983	-2.76928057598638e-22
-0.48789977256249983	-2.722539981762765e-22
-0.48783873740624983	-2.6757335243837203e-22
-0.48777770224999983	-2.628872224698943e-22
-0.48771666709374983	-2.581965535203759e-22
-0.48765563193749983	-2.5350205203134868e-22
-0.48759459678124983	-2.4880412621070286e-22
-0.48753356162499983	-2.4410285741884995e-22
-0.48747252646874983	-2.3939800559457246e-22
-0.48741149131249983	-2.3468904363260803e-22
-0.48735045615624983	-2.299752189447303e-22
-0.48728942099999983	-2.25255640444847e-22
-0.48722838584374983	-2.2052937812377773e-22
-0.48716735068749983	-2.157955623388957e-22
-0.48710631553124983	-2.1105347738744687e-22
-0.48704528037499983	-2.063026421385611e-22
-0.48698424521874983	-2.0154286881050821e-22
-0.48692321006249983	-1.9677429322039027e-22
-0.48686217490624983	-1.919973720139383e-22
-0.48680113974999983	-1.872128470574291e-22
-0.48674010459374983	-1.8242168145553442e-22
-0.48667906943749983	-1.776249753636866e-22
-0.48661803428124983	-1.7282387122175644e-22
-0.48655699912499983	-1.6801945610332825e-22
-0.48649596396874983	-1.6321266909668354e-22
-0.48643492881249983	-1.5840422144003497e-22
-0.48637389365624983	-1.535945378608163e-22
-0.48631285849999983	-1.4878372854051092e-22
-0.48625182334374983	-1.4397159302867205e-22
-0.48619078818749983	-1.3915765048775761e-22
-0.48612975303124983	-1.3434119473286545e-22
-0.48606871787499983	-1.295213724781378e-22
-0.48600768271874983	-1.246972751788313e-22
-0.48594664756249983	-1.1986803378643675e-22
-0.48588561240624983	-1.1503290946283833e-22
-0.48582457724999983	-1.1019137281158079e-22
-0.48576354209374983	-1.0534316343095014e-22
-0.48570250693749983	-1.0048832373559909e-22
-0.48564147178124983	-9.562720473623502e-23
-0.48558043662499983	-9.07604441196913e-23
-0.48551940146874983	-8.588891706500773e-23
-0.48545836631249983	-8.101366345461333e-23
-0.48539733115624983	-7.613580105200044e-23
-0.48533629599999983	-7.125643405211049e-23
-0.48527526084374983	-6.63765643417518e-23
-0.48521422568749983	-6.14970130151065e-23
-0.48515319053124983	-5.661835787094551e-23
-0.48509215537499983	-5.174089199954615e-23
-0.48503112021874983	-4.686460874097749e-23
-0.48497008506249983	-4.19892148503616e-23
-0.48490904990624983	-3.7114168530121225e-23
-0.48484801474999983	-3.223873656140297e-23
-0.48478697959374983	-2.736206624607183e-23
-0.48472594443749983	-2.2483267133936207e-23
-0.48466490928124983	-1.76014953115239e-23
-0.48460387412499983	-1.2716032806327251e-23
-0.48454283896874983	-7.826354239930975e-24
-0.48448180381249983	-2.9321759714011333e-24
-0.48442076865624983	1.9665141086573265e-24
-0.48435973349999983	6.869449887541892e-24
-0.48429869834374983	1.17761037217872e-23
-0.48423766318749983	1.66857216157975e-23
-0.48417662803124983	2.159737421839416e-23
-0.48411559287499983	2.6510020447598576e-23
-0.48405455771874983	3.142257723098851e-23
-0.48399352256249983	3.633398876246576e-23
-0.48393248740624983	4.1243289437536685e-23
-0.48387145224999983	4.6149658667692737e-23
-0.48381041709374983	5.105246632089766e-23
-0.48374938193749983	5.595130256207414e-23
-0.48368834678124983	6.084598833993005e-23
-0.48362731162499983	6.573657007991152e-23
-0.48356627646874983	7.06233034064031e-23
-0.48350524131249983	7.550662716048069e-23
-0.48344420615624983	8.038712894231934e-23
-0.48338317099999983	8.526550510163491e-23
-0.48332213584374983	9.014251512883436e-23
-0.48326110068749983	9.501893128183172e-23
-0.48320006553124983	9.989548782889487e-23
-0.48313903037499983	1.0477283126529097e-22
-0.48307799521874983	1.0965147168248757e-22
-0.48301696006249983	1.1453173777297344e-22
-0.48295592490624983	1.1941374019472047e-22
-0.48289488974999983	1.2429734915280858e-22
-0.48283385459374983	1.2918218863346014e-22
-0.48277281943749983	1.3406764745495349e-22
-0.48271178428124983	1.3895290611322505e-22
-0.48265074912499983	1.4383697908815697e-22
-0.48258971396874983	1.4871877473252815e-22
-0.48252867881249983	1.5359716906321399e-22
-0.48246764365624983	1.5847108474546726e-22
-0.48240660849999983	1.6333956918166472e-22
-0.48234557334374983	1.6820186601714215e-22
-0.48228453818749983	1.7305747333538748e-22
-0.48222350303124983	1.779061827440173e-22
-0.48216246787499983	1.8274809454774952e-22
-0.48210143271874983	1.8758360656255842e-22
-0.48204039756249983	1.9241337740813987e-22
-0.48197936240624983	1.9723826661690548e-22
-0.48191832724999983	2.0205925494318994e-22
-0.48185729209374983	2.0687734965653085e-22
-0.48179625693749983	2.1169348149795233e-22
-0.48173522178124983	2.1650840517809944e-22
-0.48167418662499983	2.2132261715437895e-22
-0.48161315146874983	2.261362967399996e-22
-0.48155211631249983	2.3094927173205386e-22
-0.48149108115624983	2.3576101362013915e-22
-0.48143004599999983	2.405706692559325e-22
-0.48136901084374983	2.453771266969073e-22
-0.48130797568749983	2.5017910361061813e-22
-0.48124694053124983	2.549752521883005e-22
-0.48118590537499983	2.59764276553075e-22
-0.48112487021874983	2.645450482036642e-22
-0.48106383506249983	2.693167047369948e-22
-0.48100279990624983	2.7407872403461417e-22
-0.48094176474999983	2.788309677299449e-22
-0.48088072959374983	2.835736897891245e-22
-0.48081969443749983	2.883075078604568e-22
-0.48075865928124983	2.9303333704344104e-22
-0.48069762412499983	2.977522918430599e-22
-0.48063658896874983	3.02465567634146e-22
-0.48057555381249983	3.0717431489585436e-22
-0.48051451865624983	3.1187951767788377e-22
-0.48045348349999983	3.1658188540582605e-22
-0.48039244834374983	3.212817681842857e-22
-0.48033141318749983	3.259791064590691e-22
-0.48027037803124983	3.3067342260945464e-22
-0.48020934287499983	3.35363854960658e-22
-0.48014830771874983	3.4004922836081327e-22
-0.48008727256249983	3.447281553432244e-22
-0.48002623740624983	3.4939916141756323e-22
-0.47996520224999983	3.5406082077326004e-22
-0.47990416709374983	3.5871188597107407e-22
-0.47984313193749983	3.6335140070360613e-22
-0.47978209678124983	3.6797878578639822e-22
-0.47972106162499983	3.7259388817560326e-22
-0.47966002646874983	3.7719698731636557e-22
-0.47959899131249983	3.817887574189811e-22
-0.47953795615624983	3.8637018958023415e-22
-0.47947692099999983	3.909424821310621e-22
-0.47941588584374983	3.955069089188407e-22
-0.47935485068749983	4.0006467887778185e-22
-0.47929381553124983	4.0461680180969756e-22
-0.47923278037499983	4.0916397308020314e-22
-0.47917174521874983	4.137064899668878e-22
-0.47911071006249983	4.1824420886539877e-22
-0.47904967490624983	4.227765464798477e-22
-0.47898863974999983	4.273025265733656e-22
-0.47892760459374983	4.318208697533178e-22
-0.47886656943749983	4.36330115689733e-22
-0.47880553428124983	4.408287633603147e-22
-0.47874449912499983	4.453154169921679e-22
-0.47868346396874983	4.497889242729537e-22
-0.47862242881249983	4.542484893627916e-22
-0.47856139365624983	4.586937481448994e-22
-0.47850035849999983	4.631247988932523e-22
-0.47843932334374983	4.675421825958232e-22
-0.47837828818749983	4.719468151180808e-22
-0.47831725303124983	4.76339881115783e-22
-0.47825621787499983	4.8072269888414365e-22
-0.47819518271874983	4.850965681105906e-22
-0.47813414756249983	4.894626181303804e-22
-0.47807311240624983	4.938216724867755e-22
-0.47801207724999983	4.981741433406074e-22
-0.47795104209374983	5.025199691770208e-22
-0.47789000693749983	5.068586040710366e-22
-0.47782897178124983	5.111890588372044e-22
-0.47776793662499983	5.155099888989748e-22
-0.47770690146874983	5.198198214018726e-22
-0.47764586631249983	5.24116910300673e-22
-0.47758483115624983	5.283997019004139e-22
-0.47752379599999983	5.326668919198734e-22
-0.47746276084374983	5.369175581091233e-22
-0.47740172568749983	5.411512550359758e-22
-0.47734069053124983	5.453680607837611e-22
-0.47727965537499983	5.495685690783641e-22
-0.47721862021874983	5.537538260426467e-22
-0.47715758506249983	5.579252177956352e-22
-0.47709654990624983	5.620843193986645e-22
-0.47703551474999983	5.66232720303524e-22
-0.47697447959374983	5.703718464889728e-22
-0.47691344443749983	5.745027979856884e-22
-0.47685240928124983	5.78626216581119e-22
-0.47679137412499983	5.827421974435736e-22
-0.47673033896874983	5.868502549131219e-22
-0.47666930381249983	5.909493468486386e-22
-0.47660826865624983	5.950379578617451e-22
-0.47654723349999983	5.991142359384503e-22
-0.47648619834374983	6.031761674317848e-22
-0.47642516318749983	6.07221770504086e-22
-0.47636412803124983	6.112492888378523e-22
-0.47630309287499983	6.152573676831507e-22
-0.47624205771874983	6.192451936507811e-22
-0.47618102256249983	6.2321258117851355e-22
-0.47611998740624983	6.271599941027228e-22
-0.47605895224999983	6.310885010574304e-22
-0.47599791709374983	6.349996693633346e-22
-0.47593688193749983	6.388954048089214e-22
-0.47587584678124983	6.427777527486924e-22
-0.47581481162499983	6.466486825149585e-22
-0.47575377646874983	6.505098767914954e-22
-0.47569274131249983	6.543625448168911e-22
-0.47563170615624983	6.582072782772181e-22
-0.47557067099999983	6.620439683313117e-22
-0.47550963584374983	6.658717941665757e-22
-0.47544860068749983	6.696892838882667e-22
-0.47538756553124983	6.734944430424518e-22
-0.47532653037499983	6.772849389168253e-22
-0.47526549521874983	6.810583214095453e-22
-0.47520446006249983	6.848122597161494e-22
-0.47514342490624983	6.885447725243843e-22
-0.47508238974999983	6.922544263829994e-22
-0.47502135459374983	6.959404808945239e-22
-0.47496031943749983	6.99602966058578e-22
-0.47489928428124983	7.032426826831145e-22
-0.47483824912499983	7.068611251723773e-22
-0.47477721396874983	7.104603324512133e-22
-0.47471617881249983	7.140426792583087e-22
-0.47465514365624983	7.176106300173687e-22
-0.47459410849999983	7.211664814967544e-22
-0.47453307334374983	7.247121186822979e-22
-0.47447203818749983	7.2824880756717e-22
-0.47441100303124983	7.317770470237948e-22
-0.47434996787499983	7.352964966588956e-22
-0.47428893271874983	7.388059887197257e-22
-0.47422789756249983	7.423036236368056e-22
-0.47416686240624983	7.457869417941558e-22
-0.47410582724999983	7.492531555290979e-22
-0.47404479209374983	7.526994181544002e-22
-0.47398375693749983	7.561231037110047e-22
-0.47392272178124983	7.595220698379428e-22
-0.47386168662499983	7.628948763799944e-22
-0.47380065146874983	7.662409354909594e-22
-0.47373961631249983	7.695605763094224e-22
-0.47367858115624983	7.728550174708503e-22
-0.47361754599999983	7.761262498318284e-22
-0.47355651084374983	7.793768392431775e-22
-0.47349547568749983	7.826096667455468e-22
-0.47343444053124983	7.858276315150279e-22
-0.47337340537499983	7.890333472672175e-22
-0.47331237021874983	7.9222886295274e-22
-0.47325133506249983	7.954154359059064e-22
-0.47319029990624983	7.985933814410372e-22
-0.47312926474999983	8.017620163877187e-22
-0.47306822959374983	8.049197040994403e-22
-0.47300719443749983	8.08063996280512e-22
-0.47294615928124983	8.111918587791317e-22
-0.47288512412499983	8.142999621089311e-22
-0.47282408896874983	8.17385008029562e-22
-0.47276305381249983	8.204440577870395e-22
-0.47270201865624983	8.234748286905579e-22
-0.47264098349999983	8.264759293297034e-22
-0.47257994834374983	8.294470088661835e-22
-0.47251891318749983	8.323888032016211e-22
-0.47245787803124983	8.3530307103370845e-22
-0.47239684287499983	8.381924243719901e-22
-0.47233580771874983	8.410600689528374e-22
-0.47227477256249983	8.439094796556852e-22
-0.47221373740624983	8.4674404335040565e-22
