Time	Frequency
-0.50000511865625	0.6179628329669405
-0.49994408349999997	0.6193020327386928
-0.49988304834374997	0.6206262434886337
-0.49982201318749997	0.6219354261269845
-0.49976097803124997	0.6232295867229284
-0.49969994287499997	0.6245087732782308
-0.49963890771874997	0.6257730658512163
-0.49957787256249997	0.6270225615001915
-0.49951683740624997	0.628257356005985
-0.49945580224999997	0.6294775251536776
-0.49939476709374997	0.6306831076723993
-0.49933373193749997	0.631874092160899
-0.49927269678124997	0.633050411048656
-0.49921166162499997	0.6342119424311937
-0.49915062646874997	0.6353585185966192
-0.49908959131249997	0.6364899408340817
-0.49902855615624997	0.6376059998936979
-0.49896752099999997	0.6387064993142563
-0.49890648584374997	0.6397912779948683
-0.49884545068749997	0.6408602291674645
-0.49878441553124997	0.6419133133884705
-0.49872338037499997	0.6429505632989615
-0.49866234521874997	0.6439720792373219
-0.49860131006249997	0.6449780164564543
-0.49854027490624997	0.6459685650201457
-0.49847923974999997	0.6469439240311047
-0.49841820459374997	0.6479042734521918
-0.49835716943749997	0.6488497473492697
-0.49829613428124997	0.6497804117848198
-0.49823509912499997	0.6506962503425306
-0.49817406396874997	0.6515971597165247
-0.49811302881249997	0.6524829560002648
-0.49805199365624997	0.6533533908843803
-0.49799095849999997	0.654208176354729
-0.49792992334374997	0.6550470151899458
-0.49786888818749997	0.6558696334605879
-0.49780785303124997	0.6566758111881746
-0.49774681787499997	0.657465407480172
-0.49768578271874997	0.6582383767113295
-0.49762474756249997	0.6589947732727497
-0.49756371240624997	0.659734744247282
-0.49750267724999997	0.6604585111100895
-0.49744164209374997	0.6611663425264909
-0.49738060693749997	0.661858521160514
-0.49731957178124997	0.6625353082210388
-0.49725853662499997	0.6631969098826846
-0.49719750146874997	0.6638434497772956
-0.49713646631249997	0.6644749510389871
-0.49707543115624997	0.665091329998423
-0.49701439599999997	0.665692402413438
-0.49695336084374997	0.6662779017710657
-0.49689232568749997	0.666847507667881
-0.49683129053124997	0.6674008810958153
-0.49677025537499997	0.6679377025381458
-0.49670922021874997	0.6684577082842137
-0.49664818506249997	0.6689607204243567
-0.49658714990624997	0.6694466668035814
-0.49652611474999997	0.6699155887047783
-0.49646507959374997	0.6703676353364044
-0.49640404443749997	0.6708030452681164
-0.49634300928124997	0.6712221165787958
-0.49628197412499997	0.6716251696788779
-0.49622093896874997	0.672012507807895
-0.49615990381249997	0.6723843792023009
-0.49609886865624997	0.6727409448241692
-0.49603783349999997	0.6730822565365773
-0.49597679834374997	0.6734082487496427
-0.49591576318749997	0.6737187438005012
-0.49585472803124997	0.6740134705621651
-0.49579369287499997	0.6742920947400137
-0.49573265771874997	0.6745542573740307
-0.49567162256249997	0.6747996164824845
-0.49561058740624997	0.6750278870876203
-0.49554955224999997	0.6752388753276226
-0.49548851709374997	0.675432501694037
-0.49542748193749997	0.6756088105630057
-0.49536644678124997	0.6757679654860372
-0.49530541162499997	0.6759102297740264
-0.49524437646874997	0.6760359345789072
-0.49518334131249997	0.6761454390890151
-0.49512230615624997	0.6762390869743817
-0.49506127099999997	0.6763171645556834
-0.49500023584374997	0.6763798661526362
-0.49493920068749997	0.6764272691293721
-0.49487816553124997	0.6764593216555008
-0.49481713037499997	0.6764758465001357
-0.49475609521874997	0.676476560643996
-0.49469506006249997	0.6764611075605186
-0.49463402490624997	0.676429097933434
-0.49457298974999997	0.676380154602566
-0.49451195459374997	0.6763139565724939
-0.49445091943749997	0.6762302759037655
-0.49438988428124997	0.6761290032477868
-0.49432884912499997	0.6760101598137473
-0.49426781396874997	0.6758738939350186
-0.49420677881249997	0.6757204624499328
-0.49414574365624997	0.6755502003580007
-0.49408470849999997	0.6753634822797197
-0.49402367334374997	0.6751606787093949
-0.49396263818749997	0.6749421126636681
-0.49390160303124997	0.6747080235894111
-0.49384056787499997	0.6744585426381082
-0.49377953271874997	0.6741936800450314
-0.49371849756249997	0.6739133251935834
-0.49365746240624997	0.6736172617807092
-0.49359642724999997	0.6733051971759303
-0.49353539209374997	0.6729767990711842
-0.49347435693749997	0.6726317343560665
-0.49341332178124997	0.6722697080563083
-0.49335228662499997	0.6718904969319512
-0.49329125146874997	0.6714939730747383
-0.49323021631249997	0.6710801163362299
-0.49316918115624997	0.6706490143046638
-0.49310814599999997	0.6702008492923406
-0.49304711084374997	0.669735873982631
-0.49298607568749997	0.6692543792998958
-0.49292504053124997	0.6687566585038763
-0.49286400537499997	0.6682429723509611
-0.49280297021874997	0.6677135207167847
-0.49274193506249997	0.6671684224005102
-0.49268089990624997	0.666607704503553
-0.49261986474999997	0.6660313042433825
-0.49255882959374997	0.6654390819719229
-0.49249779443749997	0.6648308426534913
-0.49243675928124997	0.6642063637292417
-0.49237572412499997	0.6635654253928343
-0.49231468896874997	0.6629078391519472
-0.49225365381249997	0.6622334719394852
-0.49219261865624997	0.6615422635978064
-0.49213158349999997	0.6608342345723952
-0.49207054834374997	0.6601094817884412
-0.49200951318749997	0.659368164846807
-0.49194847803124997	0.6586104859200997
-0.49188744287499997	0.6578366657685338
-0.49182640771874997	0.6570469175646221
-0.49176537256249997	0.6562414214557026
-0.49170433740624997	0.655420303793548
-0.49164330224999997	0.6545836232415765
-0.49158226709374997	0.6537313667407401
-0.49152123193749997	0.6528634558133025
-0.49146019678124997	0.6519797593098995
-0.49139916162499997	0.6510801122307535
-0.49133812646874997	0.6501643399003907
-0.49127709131249997	0.649232281844699
-0.49121605615624997	0.6482838126476687
-0.49115502099999997	0.6473188593783712
-0.49109398584374997	0.64633741145448
-0.49103295068749997	0.6453395207698116
-0.49097191553124997	0.6443252958161703
-0.49091088037499997	0.64329489105193
-0.49084984521874997	0.6422484895696484
-0.49078881006249997	0.6411862817315748
-0.49072777490624997	0.6401084441861202
-0.49066673974999997	0.6390151214541572
-0.49060570459374997	0.6379064127142743
-0.49054466943749997	0.6367823653715805
-0.49048363428124997	0.6356429755779808
-0.49042259912499997	0.634488195587892
-0.49036156396874997	0.6333179456046681
-0.49030052881249997	0.6321321282457927
-0.49023949365624997	0.6309306449792884
-0.49017845849999997	0.6297134120160932
-0.49011742334374997	0.6284803719961414
-0.49005638818749997	0.6272314994976229
-0.48999535303124997	0.6259668023472967
-0.48993431787499997	0.624686320094987
-0.48987328271874997	0.623390117982415
-0.48981224756249997	0.6220782773375296
-0.48975121240624997	0.6207508853526994
-0.48969017724999997	0.6194080251542312
-0.48962914209374997	0.6180497667624396
-0.48956810693749997	0.6166761622566634
-0.48950707178124997	0.6152872471482917
-0.48944603662499997	0.6138830446016728
-0.48938500146874997	0.6124635710171795
-0.48932396631249997	0.611028844142228
-0.48926293115624997	0.6095788909199343
-0.48920189599999997	0.6081137525502831
-0.48914086084374997	0.6066334863428172
-0.48907982568749997	0.6051381645238
-0.48901879053124997	0.6036278708199346
-0.48895775537499997	0.6021026932639286
-0.48889672021874997	0.6005627133208264
-0.48883568506249997	0.5990079954360388
-0.48877464990624997	0.5974385788593775
-0.48871361474999997	0.5958544717572386
-0.48865257959374997	0.5942556484475979
-0.48859154443749997	0.5926420505111315
-0.48853050928124997	0.5910135939140837
-0.48846947412499997	0.5893701823315992
-0.48840843896874997	0.5877117233442987
-0.48834740381249997	0.5860381461633892
-0.48828636865624997	0.5843494182645842
-0.48822533349999997	0.5826455562419441
-0.48816429834374997	0.5809266310906013
-0.48810326318749997	0.5791927688932
-0.48804222803124997	0.5774441450653615
-0.48798119287499997	0.5756809730282241
-0.48792015771874997	0.573903488353631
-0.48785912256249997	0.5721119274408012
-0.48779808740624997	0.5703065037936749
-0.48773705224999997	0.5684873868045354
-0.48767601709374997	0.5666546854685296
-0.48761498193749997	0.5648084380038982
-0.48755394678124997	0.5629486080520922
-0.48749291162499997	0.5610750892283561
-0.48743187646874997	0.5591877181201245
-0.48737084131249997	0.5572862939007027
-0.48730980615624997	0.5553706036686702
-0.48724877099999997	0.5534404511125329
-0.48718773584374997	0.5514956853376259
-0.48712670068749997	0.5495362264674859
-0.48706566553124997	0.5475620822836865
-0.48700463037499997	0.5455733537902594
-0.48694359521874997	0.5435702329848153
-0.48688256006249997	0.541552992311642
-0.48682152490624997	0.5395219615107428
-0.48676048974999997	0.5374774938859288
-0.48669945459374997	0.5354199299296025
-0.48663841943749997	0.5333495632711769
-0.48657738428124997	0.5312666103083162
-0.48651634912499997	0.5291711868827613
-0.48645531396874997	0.5270632971337886
-0.48639427881249997	0.5249428351538337
-0.48633324365624997	0.5228095979297509
-0.48627220849999997	0.5206633126328949
-0.48621117334374997	0.5185036762276923
-0.48615013818749997	0.5163303977134832
-0.48608910303124997	0.5141432398800686
-0.48602806787499997	0.5119420577080732
-0.48596703271874997	0.5097268238474914
-0.48590599756249997	0.5074976384966048
-0.48584496240624997	0.5052547258591742
-0.48578392724999997	0.5029984161249562
-0.48572289209374997	0.5007291137794345
-0.48566185693749997	0.49844725503024445
-0.48560082178124997	0.4961532593769728
-0.48553978662499997	0.49384748391542155
-0.48547875146874997	0.4915301849042342
-0.48541771631249997	0.48920148768073096
-0.48535668115624997	0.4868613723461968
-0.48529564599999997	0.48450968304476855
-0.48523461084374997	0.4821461561784953
-0.48517357568749997	0.47977045760696335
-0.48511254053124997	0.47738222714483564
-0.48505150537499997	0.47498113031004185
-0.48499047021874997	0.47256690964433956
-0.48492943506249997	0.4701394261954834
-0.48486839990624997	0.4676986858796797
-0.48480736474999997	0.4652448487636979
-0.48474632959374997	0.4627782195244485
-0.48468529443749997	0.4602992191356793
-0.48462425928124997	0.45780834177643537
-0.48456322412499997	0.4553061011217084
-0.48450218896874997	0.4527929706345795
-0.48444115381249997	0.45026932580709583
-0.48438011865624997	0.4477353994772186
-0.48431908349999997	0.44519125910077123
-0.48425804834374997	0.4426368068928401
-0.48419701318749997	0.4400717987059089
-0.48413597803124997	0.4374958777809019
-0.48407494287499997	0.4349086235188568
-0.48401390771874997	0.4323096133054506
-0.48395287256249997	0.4296984858263153
-0.48389183740624997	0.4270749946950126
-0.48383080224999997	0.4244390479941292
-0.48376976709374997	0.4217907294481807
-0.48370873193749997	0.4191302980405404
-0.48364769678124997	0.41645816821159415
-0.48358666162499997	0.4137748713619424
-0.48352562646874997	0.41108099796206277
-0.48346459131249997	0.4083771292873459
-0.48340355615624997	0.4056637722313705
-0.48334252099999997	0.40294130356251934
-0.48328148584374997	0.40020992808458217
-0.48322045068749997	0.3974696579644635
-0.48315941553124997	0.3947203166909122
-0.48309838037499997	0.3919615652176399
-0.48303734521874997	0.38919294848343333
-0.48297631006249997	0.3864139592515286
-0.48291527490624997	0.38362410914565126
-0.48285423974999997	0.38082299821551113
-0.48279320459374997	0.3780103778280806
-0.48273216943749997	0.37518619514938684
-0.48267113428124997	0.3723506083473627
-0.48261009912499997	0.3695039754130421
-0.48254906396874997	0.3666468236324248
-0.48248802881249997	0.3637797988666792
-0.48242699365624997	0.36090359659379506
-0.48236595849999997	0.3580188847701738
-0.48230492334374997	0.35512622807039407
-0.48224388818749997	0.3522260240448524
-0.48218285303124997	0.3493184608211799
-0.48212181787499997	0.34640350006651205
-0.48206078271874997	0.34348088627976175
-0.48199974756249997	0.34055017997386366
-0.48193871240624997	0.33761081117609365
-0.48187767724999997	0.334662151897967
-0.48181664209374997	0.3317035987390732
-0.48175560693749997	0.3287346511664328
-0.48169457178124997	0.32575497790768276
-0.48163353662499997	0.3227644653045661
-0.48157250146874997	0.3197632409921096
-0.48151146631249997	0.316751671887648
-0.48145043115624997	0.31373033583005044
-0.48138939599999997	0.31069996670811556
-0.48132836084374997	0.30766138151037453
-0.48126732568749997	0.30461540419332717
-0.48120629053124997	0.3015627935485957
-0.48114525537499997	0.29850417323213974
-0.48108422021874997	0.29543997128874305
-0.48102318506249997	0.29237038498829965
-0.48096214990624997	0.28929537519190734
-0.48090111474999997	0.2862146843614245
-0.48084007959374997	0.28312787357203495
-0.48077904443749997	0.28003437201480313
-0.48071800928124997	0.27693353281164257
-0.48065697412499997	0.2738246934351617
-0.48059593896874997	0.27070723789664736
-0.48053490381249997	0.26758065216042487
-0.48047386865624997	0.2644445651359669
-0.48041283349999997	0.26129877886514746
-0.48035179834374997	0.2581432911522953
-0.48029076318749997	0.2549783032307632
-0.48022972803124997	0.2518042079676697
-0.48016869287499997	0.2486215617190646
-0.48010765771874997	0.24543104393117104
-0.48004662256249997	0.24223340896294818
-0.47998558740624997	0.23902943282206165
-0.47992455224999997	0.23581985459555702
-0.47986351709374997	0.23260531799247167
-0.47980248193749997	0.22938632533999948
-0.47974144678124997	0.22616320815438817
-0.47968041162499997	0.22293610864079547
-0.47961937646874997	0.21970497467633907
-0.47955834131249997	0.2164695748176588
-0.47949730615624997	0.2132295303945143
-0.47943627099999997	0.20998436106130208
-0.47937523584374997	0.20673354027140572
-0.47931420068749997	0.20347655271919488
-0.47925316553124997	0.20021294909934603
-0.47919213037499997	0.1969423955297623
-0.47913109521874997	0.19366471272293173
-0.47907006006249997	0.19037989961794846
-0.47900902490624997	0.18708813723666065
-0.47894798974999997	0.1837897715195633
-0.47888695459374997	0.18048527840273626
-0.47882591943749997	0.17717521803949227
-0.47876488428124997	0.17386018383194926
-0.47870384912499997	0.17054075005605496
-0.47864281396874997	0.16721742105290646
-0.47858177881249997	0.1638905854441098
-0.47852074365624997	0.1605604829810917
-0.47845970849999997	0.15722718883243675
-0.47839867334374997	0.15389061419170555
-0.47833763818749997	0.15055052423487217
-0.47827660303124997	0.14720657444803956
-0.47821556787499997	0.14385835976724795
-0.47815453271874997	0.14050546879247466
-0.47809349756249997	0.13714753760391893
-0.47803246240624997	0.13378429653803847
-0.47797142724999997	0.13041560454454573
-0.47791039209374997	0.1270414714257747
-0.47784935693749997	0.12366206660451362
-0.47778832178124997	0.12027770962998934
-0.47772728662499997	0.11688884292349777
-0.47766625146874997	0.1134959921847543
-0.47760521631249997	0.11009971934158354
-0.47754418115624997	0.10670057163815043
-0.47748314599999997	0.10329903073296111
-0.47742211084374997	0.09989546892725344
-0.47736107568749997	0.09649012122337591
-0.47730004053124997	0.09308307403518502
-0.47723900537499997	0.08967426637959376
-0.47717797021874997	0.08626350625591137
-0.47711693506249997	0.08285050350178796
-0.47705589990624997	0.07943491141599775
-0.47699486474999997	0.07601636971435312
-0.47693382959374997	0.07259454675930646
-0.47687279443749997	0.06916918224028279
-0.47681175928124997	0.06574012688493751
-0.47675072412499997	0.062307368029144786
-0.47668968896874997	0.0588710347717169
-0.47662865381249997	0.05543138898015814
-0.47656761865624997	0.05198880740404986
-0.47650658349999997	0.04854375181174752
-0.47644554834374997	0.04509673001513725
-0.47638451318749997	0.04164825625574531
-0.47632347803124997	0.03819880992512836
-0.47626244287499997	0.034748792546305904
-0.47620140771874997	0.031298493227073065
-0.47614037256249997	0.02784806748699852
-0.47607933740624997	0.024397528776172475
-0.47601830224999997	0.020946754474123114
-0.47595726709374997	0.017495505443896723
-0.47589623193749997	0.014043457404688285
-0.47583519678124997	0.010590244614388521
-0.47577416162499997	0.007135511165251785
-0.47571312646874997	0.003678960815732858
-0.47565209131249997	0.00022040110271775708
-0.47559105615624997	-0.0032402216429131847
-0.47553002099999997	-0.006702801993731503
-0.47546898584374997	-0.010167071726686896
-0.47540795068749997	-0.01363261491640346
-0.47534691553124997	-0.017098903274780048
-0.47528588037499997	-0.02056534818468316
-0.47522484521874997	-0.024031363784313507
-0.47516381006249997	-0.027496431641001292
-0.47510277490624997	-0.030960158023535515
-0.47504173974999997	-0.034422319011389486
-0.47498070459374997	-0.03788288661691502
-0.47491966943749997	-0.04134202842371067
-0.47485863428124997	-0.044800080001977285
-0.47479759912499997	-0.04825749465216816
-0.47473656396874997	-0.05171477676574906
-0.47467552881249997	-0.055172407333715846
-0.47461449365624997	-0.05863077031065939
-0.47455345849999997	-0.06209008864351918
-0.47449242334374997	-0.06555037946498728
-0.47443138818749997	-0.06901143482771827
-0.47437035303124997	-0.07247282951696318
-0.47430931787499997	-0.0759339554195293
-0.47424828271874997	-0.07939408030294309
-0.47418724756249997	-0.0828524242604639
-0.47412621240624997	-0.08630824544287018
-0.47406517724999997	-0.089760925514529
-0.47400414209374997	-0.09321004152821896
-0.47394310693749997	-0.09665541265704877
-0.47388207178124997	-0.10009711540518917
-0.47382103662499997	-0.10353546775068168
-0.47376000146874997	-0.1069709872799952
-0.47369896631249997	-0.1104043248203619
-0.47363793115624997	-0.11383617648305693
-0.47357689599999997	-0.11726718852925355
-0.47351586084374997	-0.12069787153948931
-0.47345482568749997	-0.12412853070033956
-0.47339379053124997	-0.12755921675202803
-0.47333275537499997	-0.13098970562435167
-0.47327172021874997	-0.13441951117313022
-0.47321068506249997	-0.13784792784130243
-0.47314964990624997	-0.1412740986797961
-0.47308861474999997	-0.14469710462213112
-0.47302757959374997	-0.1481160636967773
-0.47296654443749997	-0.15153022435653987
-0.47290550928124997	-0.15493904196403435
-0.47284447412499997	-0.15834223250658375
-0.47278343896874997	-0.1617397987589907
-0.47272240381249997	-0.16513202374258715
-0.47266136865624997	-0.16851942904781486
-0.47260033349999997	-0.1719027035267672
-0.47253929834374997	-0.1752826128339824
-0.47247826318749997	-0.1786598985925216
-0.47241722803124997	-0.18203517710410327
-0.47235619287499997	-0.18540885063957185
-0.47229515771874997	-0.1887810442071711
-0.47223412256249997	-0.19215157666665356
-0.47217308740624997	-0.19551996867498342
-0.47211205224999997	-0.19888548782103194
-0.47205101709374997	-0.20224722762964617
-0.47198998193749997	-0.20560420968604926
-0.47192894678124997	-0.20895549672784383
-0.47186791162499997	-0.21230030456281115
-0.47180687646874997	-0.2156380972648909
-0.47174584131249997	-0.21896865088938822
-0.47168480615624997	-0.2222920776972336
-0.47162377099999997	-0.22560880902415043
-0.47156273584374997	-0.22891953752225386
-0.47150170068749997	-0.23222512376024765
-0.47144066553124997	-0.23552647785533481
-0.47137963037499997	-0.23882442920587374
-0.47131859521874997	-0.242119600779903
-0.47125756006249997	-0.2454123062705086
-0.47119652490624997	-0.24870248446946625
-0.47113548974999997	-0.2519896814667985
-0.47107445459374997	-0.25527308601839066
-0.47101341943749997	-0.2585516129547413
-0.47095238428124997	-0.26182402278769246
-0.47089134912499997	-0.2650890645208335
-0.47083031396874997	-0.2683456260883027
-0.47076927881249997	-0.2715928746495143
-0.47070824365624997	-0.2748303671552949
-0.47064720849999997	-0.2780581140801446
-0.47058617334374997	-0.2812765874897979
-0.47052513818749997	-0.2844866701857805
-0.47046410303124997	-0.2876895491325676
-0.47040306787499997	-0.2908865666681496
-0.47034203271874997	-0.29407904888910796
-0.47028099756249997	-0.2972681290353759
-0.47021996240624997	-0.3004545851488978
-0.47015892724999997	-0.3036387159016187
-0.47009789209374997	-0.30682027364924425
-0.47003685693749997	-0.30999846318715407
-0.46997582178124997	-0.3131720070144098
