Time	Frequency
-0.5000015870624992	-0.5217754353576627
-0.4999405519062492	-0.5240147009231532
-0.4998795167499992	-0.5262405803586457
-0.4998184815937492	-0.5284528307649735
-0.4997574464374992	-0.5306512475024476
-0.4996964112812492	-0.5328356742999085
-0.4996353761249992	-0.5350060101054354
-0.4995743409687492	-0.5371622125998856
-0.4995133058124992	-0.5393042981246985
-0.4994522706562492	-0.5414323378264408
-0.4993912354999992	-0.543546450615387
-0.4993302003437492	-0.5456467937621389
-0.4992691651874992	-0.5477335509356385
-0.4992081300312492	-0.5498069176300918
-0.4991470948749992	-0.5518670854653752
-0.4990860597187492	-0.5539142268830916
-0.4990250245624992	-0.5559484808229909
-0.4989639894062492	-0.5579699402724638
-0.4989029542499992	-0.5599786425022361
-0.4988419190937492	-0.5619745622501203
-0.4987808839374992	-0.5639576086079143
-0.4987198487812492	-0.5659276260174434
-0.4986588136249992	-0.5678843991136875
-0.4985977784687492	-0.5698276613977812
-0.4985367433124992	-0.5717571073827682
-0.4984757081562492	-0.5736724072523566
-0.4984146729999992	-0.5755732231432094
-0.4983536378437492	-0.5774592264314776
-0.4982926026874992	-0.5793301149292985
-0.4982315675312492	-0.5811856286062851
-0.4981705323749992	-0.5830255630513046
-0.4981094972187492	-0.5848497799382095
-0.4980484620624992	-0.5866582137552268
-0.4979874269062492	-0.5884508742139156
-0.4979263917499992	-0.5902278438832066
-0.4978653565937492	-0.5919892712908561
-0.4978043214374992	-0.5937353599117184
-0.4977432862812492	-0.5954663535631657
-0.4976822511249992	-0.5971825191759265
-0.4976212159687492	-0.598884127849426
-0.4975601808124992	-0.600571435302729
-0.4974991456562492	-0.602244663303071
-0.4974381104999992	-0.6039039833773177
-0.4973770753437492	-0.6055495032888656
-0.4973160401874992	-0.6071812568840567
-0.4972550050312492	-0.6087991986314739
-0.4971939698749992	-0.6104032033823344
-0.4971329347187492	-0.6119930708598137
-0.4970718995624992	-0.6135685345784707
-0.4970108644062492	-0.6151292747092737
-0.4969498292499992	-0.6166749341511916
-0.4968887940937492	-0.6182051372747696
-0.4968277589374992	-0.619719510178778
-0.4967667237812492	-0.6212177007961338
-0.4967056886249992	-0.6226993976619054
-0.4966446534687492	-0.6241643462574922
-0.4965836183124992	-0.6256123619703277
-0.4965225831562492	-0.6270433391357294
-0.4964615479999992	-0.6284572553025227
-0.4964005128437492	-0.6298541699868953
-0.4963394776874992	-0.6312342182900349
-0.4962784425312492	-0.6325976001484626
-0.4962174073749992	-0.63394456571614
-0.4961563722187492	-0.6352753976369009
-0.4960953370624992	-0.6365903914326624
-0.4960343019062492	-0.6378898351696745
-0.4959732667499992	-0.639173989456872
-0.4959122315937492	-0.6404430691448432
-0.4958511964374992	-0.6416972279564663
-0.4957901612812492	-0.6429365467760221
-0.4957291261249992	-0.6441610264087705
-0.4956680909687492	-0.6453705854882342
-0.4956070558124992	-0.6465650635215465
-0.4955460206562492	-0.6477442288284786
-0.4954849854999992	-0.6489077910035302
-0.4954239503437492	-0.6500554170887706
-0.4953629151874992	-0.6511867504440518
-0.4953018800312492	-0.6523014311085888
-0.4952408448749992	-0.6533991162543794
-0.4951798097187492	-0.6544794995583564
-0.4951187745624992	-0.6555423284497195
-0.4950577394062492	-0.6565874180949673
-0.4949967042499992	-0.6576146610983858
-0.4949356690937492	-0.6586240322673841
-0.4948746339374992	-0.659615588253712
-0.4948135987812492	-0.6605894621429561
-0.4947525636249992	-0.661545853211396
-0.4946915284687492	-0.6624850124774615
-0.4946304933124992	-0.6634072250826499
-0.4945694581562492	-0.6643127905587407
-0.4945084229999992	-0.6652020021137656
-0.4944473878437492	-0.6660751263346563
-0.4943863526874992	-0.6669323846265532
-0.4943253175312492	-0.667773937482287
-0.4942642823749992	-0.6685998726233713
-0.4942032472187492	-0.6694101978428104
-0.4941422120624992	-0.6702048389499157
-0.4940811769062492	-0.6709836428756557
-0.4940201417499992	-0.6717463857281807
-0.4939591065937492	-0.6724927852496417
-0.4938980714374992	-0.6732225168875603
-0.4938370362812492	-0.673935232531476
-0.4937760011249992	-0.6746305807416056
-0.4937149659687492	-0.6753082271780987
-0.4936539308124992	-0.6759678739733995
-0.4935928956562492	-0.6766092769072077
-0.4935318604999992	-0.6772322593636341
-0.4934708253437492	-0.6778367221530911
-0.4934097901874992	-0.6784226485647055
-0.4933487550312492	-0.6789901043728905
-0.4932877198749992	-0.6795392326739103
-0.4932266847187492	-0.6800702438537022
-0.4931656495624992	-0.6805834015752105
-0.4931046144062492	-0.6810790055869111
-0.4930435792499992	-0.6815573721717124
-0.4929825440937492	-0.6820188135990969
-0.4929215089374992	-0.6824636179811163
-0.4928604737812492	-0.6828920306097735
-0.4927994386249992	-0.683304237916452
-0.4927384034687492	-0.6837003551652522
-0.4926773683124992	-0.6840804185177246
-0.4926163331562492	-0.6844443819427402
-0.4925552979999992	-0.6847921193165066
-0.4924942628437492	-0.6851234314348039
-0.4924332276874992	-0.6854380573708262
-0.4923721925312492	-0.6857356896697575
-0.4923111573749992	-0.6860159924877224
-0.4922501222187492	-0.6862786213319841
-0.4921890870624992	-0.6865232431307681
-0.4921280519062492	-0.6867495555032211
-0.4920670167499992	-0.6869573041385457
-0.4920059815937492	-0.6871462973234967
-0.4919449464374992	-0.6873164166314606
-0.4918839112812492	-0.6874676230023375
-0.4918228761249992	-0.6875999580683476
-0.4917618409687492	-0.6877135406512995
-0.4917008058124992	-0.6878085583861077
-0.4916397706562492	-0.6878852553942368
-0.4915787354999992	-0.6879439170758953
-0.4915177003437492	-0.6879848522400103
-0.4914566651874992	-0.6880083735333177
-0.4913956300312492	-0.688014778133982
-0.4913345948749992	-0.6880043299929506
-0.4912735597187492	-0.6879772443531276
-0.4912125245624992	-0.6879336752878784
-0.4911514894062492	-0.6878737067299464
-0.4910904542499992	-0.687797347581808
-0.4910294190937492	-0.6877045319657881
-0.4909683839374992	-0.6875951248678405
-0.4909073487812492	-0.6874689317680798
-0.4908463136249992	-0.6873257109679038
-0.4907852784687492	-0.6871651887206195
-0.4907242433124992	-0.6869870768821903
-0.4906632081562492	-0.6867910911423626
-0.4906021729999992	-0.6865769680900042
-0.4905411378437492	-0.6863444806019632
-0.4904801026874992	-0.6860934509396648
-0.4904190675312492	-0.6858237606668374
-0.4903580323749992	-0.6855353566179799
-0.4902969972187492	-0.6852282522761113
-0.4902359620624992	-0.6849025250623367
-0.4901749269062492	-0.6845583104461854
-0.4901138917499992	-0.6841957924809502
-0.4900528565937492	-0.683815190839437
-0.4899918214374992	-0.6834167460499657
-0.4899307862812492	-0.6830007041259993
-0.4898697511249992	-0.6825673013202954
-0.4898087159687492	-0.6821167502606439
-0.4897476808124992	-0.6816492281540395
-0.4896866456562492	-0.6811648672683279
-0.4896256104999992	-0.680663748433305
-0.4895645753437492	-0.6801458982657395
-0.4895035401874992	-0.6796112900365187
-0.4894425050312492	-0.6790598480776815
-0.4893814698749992	-0.6784914556484493
-0.4893204347187492	-0.6779059650403689
-0.4892593995624992	-0.6773032087238693
-0.4891983644062492	-0.676683011467717
-0.4891373292499992	-0.676045202952623
-0.4890762940937492	-0.6753896297252033
-0.4890152589374992	-0.6747161656781582
-0.4889542237812492	-0.6740247202467718
-0.4888931886249992	-0.67331524329441
-0.4888321534687492	-0.6725877266277224
-0.4887711183124992	-0.6718422030470956
-0.4887100831562492	-0.6710787431273716
-0.4886490479999992	-0.6702974493309111
-0.4885880128437492	-0.6694984476206959
-0.4885269776874992	-0.6686818777995742
-0.4884659425312492	-0.667847884129245
-0.4884049073749992	-0.6669966063244057
-0.4883438722187492	-0.6661281706824751
-0.4882828370624992	-0.665242682407948
-0.4882218019062492	-0.6643402200618143
-0.4881607667499992	-0.6634208327561641
-0.4880997315937492	-0.6624845402828115
-0.4880386964374992	-0.6615313351550501
-0.4879776612812492	-0.6605611862477782
-0.4879166261249992	-0.6595740446475744
-0.4878555909687492	-0.6585698513993705
-0.4877945558124992	-0.6575485459290951
-0.4877335206562492	-0.6565100739884722
-0.4876724854999992	-0.6554543943814111
-0.4876114503437492	-0.6543814840301422
-0.4875504151874992	-0.653291341648337
-0.4874893800312492	-0.6521839899140169
-0.4874283448749992	-0.651059475029533
-0.4873673097187492	-0.6499178635964272
-0.4873062745624992	-0.6487592378382511
-0.4872452394062492	-0.6475836896305078
-0.4871842042499992	-0.6463913131939916
-0.4871231690937492	-0.6451821970016961
-0.4870621339374992	-0.6439564163699887
-0.4870010987812492	-0.6427140274411123
-0.4869400636249992	-0.6414550624649445
-0.4868790284687492	-0.6401795271162094
-0.4868179933124992	-0.6388874005283522
-0.4867569581562492	-0.6375786376736235
-0.4866959229999992	-0.6362531738577722
-0.4866348878437492	-0.6349109315794109
-0.4865738526874992	-0.6335518295322808
-0.4865128175312492	-0.6321757923335403
-0.4864517823749992	-0.6307827597811576
-0.4863907472187492	-0.6293726956594845
-0.4863297120624992	-0.6279455956271234
-0.4862686769062492	-0.6265014931052652
-0.4862076417499992	-0.6250404623547516
-0.4861466065937492	-0.6235626180078232
-0.4860855714374992	-0.6220681111262207
-0.4860245362812492	-0.6205571231436584
-0.4859635011249992	-0.6190298581622308
-0.4859024659687492	-0.6174865322433639
-0.4858414308124992	-0.615927360170836
-0.4857803956562492	-0.6143525427230528
-0.4857193604999992	-0.6127622550940752
-0.4856583253437492	-0.61115663540132
-0.4855972901874992	-0.6095357751072132
-0.4855362550312492	-0.6078997134132509
-0.4854752198749992	-0.6062484352609901
-0.4854141847187492	-0.6045818724893801
-0.4853531495624992	-0.6028999082425841
-0.4852921144062492	-0.6012023848724314
-0.4852310792499992	-0.5994891156034734
-0.4851700440937492	-0.5977598989360531
-0.4851090089374992	-0.5960145338612541
-0.4850479737812492	-0.5942528348108329
-0.4849869386249992	-0.592474646287437
-0.4849259034687492	-0.5906798573786786
-0.4848648683124992	-0.5888684139131696
-0.4848038331562492	-0.5870403250212866
-0.4847427979999992	-0.5851956652233826
-0.4846817628437492	-0.5833345738058147
-0.4846207276874992	-0.5814572501016383
-0.4845596925312492	-0.5795639440797297
-0.4844986573749992	-0.5776549435404023
-0.4844376222187492	-0.5757305594429986
-0.4843765870624992	-0.5737911097867656
-0.4843155519062492	-0.5718369022416058
-0.4842545167499992	-0.5698682171126042
-0.4841934815937492	-0.5678852918835532
-0.4841324464374992	-0.56588830854812
-0.4840714112812492	-0.563877385360929
-0.4840103761249992	-0.5618525725005109
-0.4839493409687492	-0.5598138511568097
-0.4838883058124992	-0.5577611374720173
-0.4838272706562492	-0.5556942909661257
-0.4837662354999992	-0.5536131258797604
-0.4837052003437492	-0.5515174255041876
-0.4836441651874992	-0.549406959444445
-0.4835831300312492	-0.5472815019861395
-0.4835220948749992	-0.5451408492899892
-0.4834610597187492	-0.5429848351888922
-0.4834000245624992	-0.5408133456818985
-0.4833389894062492	-0.5386263299299928
-0.4832779542499992	-0.5364238067327172
-0.4832169190937492	-0.5342058667962563
-0.4831558839374992	-0.5319726698577227
-0.4830948487812492	-0.5297244377047987
-0.4830338136249992	-0.527461444451272
-0.4829727784687492	-0.5251840021351889
-0.4829117433124992	-0.5228924425773759
-0.4828507081562492	-0.5205870998950362
-0.4827896729999992	-0.518268294226293
-0.4827286378437492	-0.5159363150361862
-0.4826676026874992	-0.5135914052248857
-0.4826065675312492	-0.5112337486853961
-0.4825455323749992	-0.508863461683972
-0.4824844972187492	-0.5064805873531955
-0.4824234620624992	-0.5040850950792258
-0.4823624269062492	-0.5016768862317669
-0.4823013917499992	-0.49925580455104884
-0.4822403565937492	-0.496821649814584
-0.4821793214374992	-0.49437419432826313
-0.4821182862812492	-0.49191320064750327
-0.4820572511249992	-0.4894384396334912
-0.4819962159687492	-0.48694970897406903
-0.4819351808124992	-0.4844468505335201
-0.4818741456562492	-0.4819297643588978
-0.4818131104999992	-0.47939841966858415
-0.4817520753437492	-0.47685286298207624
-0.4816910401874992	-0.47429322034703525
-0.4816300050312492	-0.4717196929551494
-0.4815689698749992	-0.4691325496661575
-0.4815079347187492	-0.4665321169268196
-0.4814468995624992	-0.46391876430835566
-0.4813858644062492	-0.4612928865815098
-0.4813248292499992	-0.45865488367493873
-0.4812637940937492	-0.4560051394455294
-0.4812027589374992	-0.4533440017668367
-0.4811417237812492	-0.4506717657910397
-0.4810806886249992	-0.4479886599227192
-0.4810196534687492	-0.4452948347993951
-0.4809586183124992	-0.44259035645374684
-0.4808975831562492	-0.43987520427237653
-0.4808365479999992	-0.43714927499886375
-0.4807755128437492	-0.4344123925990077
-0.4807144776874992	-0.43166432218909573
-0.4806534425312492	-0.4289047869696341
-0.4805924073749992	-0.42613348632273895
-0.4805313722187492	-0.4233501139387497
-0.4804703370624992	-0.42055437772137777
-0.4804093019062492	-0.4177460212646611
-0.4803482667499992	-0.4149248427371609
-0.4802872315937492	-0.4120907093868172
-0.4802261964374992	-0.4092435690347505
-0.4801651612812492	-0.40638345752323607
-0.4801041261249992	-0.4035105002113937
-0.4800430909687492	-0.40062490829909564
-0.4799820558124992	-0.3977269717610701
-0.4799210206562492	-0.39481704934039985
-0.4798599854999992	-0.39189555477840227
-0.4797989503437492	-0.3889629397756639
-0.4797379151874992	-0.386019675650089
-0.4796768800312492	-0.38306623496255027
-0.4796158448749992	-0.38010307328755555
-0.4795548097187492	-0.3771306108879054
-0.4794937745624992	-0.37414921651887084
-0.4794327394062492	-0.37115919557084714
-0.4793717042499992	-0.36816078066149316
-0.4793106690937492	-0.365154124533094
-0.4792496339374992	-0.36213929715009213
-0.4791885987812492	-0.35911628573985876
-0.4791275636249992	-0.35608499699128154
-0.4790665284687492	-0.35304526300632294
-0.4790054933124992	-0.3499968503917152
-0.4789444581562492	-0.34693946979840223
-0.4788834229999992	-0.3438727867810545
-0.4788223878437492	-0.3407964366262546
-0.4787613526874992	-0.3377100417998082
-0.4787003175312492	-0.33461322885052786
-0.4786392823749992	-0.331505643743425
-0.4785782472187492	-0.32838696721427263
-0.4785172120624992	-0.32525693135044303
-0.4784561769062492	-0.3221153362104869
-0.4783951417499992	-0.3189620646850126
-0.4783341065937492	-0.31579709478177986
-0.4782730714374992	-0.312620510165736
-0.4782120362812492	-0.3094325084606301
-0.4781510011249992	-0.306233404525919
-0.4780899659687492	-0.30302362787322895
-0.4780289308124992	-0.29980371440365916
-0.4779678956562492	-0.2965742920316314
-0.4779068604999992	-0.29333606180222743
-0.4778458253437492	-0.29008977548696324
-0.4777847901874992	-0.2868362073090825
-0.4777237550312492	-0.283576119553897
-0.4776627198749992	-0.280310226710619
-0.4776016847187492	-0.27703916197826445
-0.4775406495624992	-0.27376344622184146
-0.4774796144062492	-0.2704834603373265
-0.4774185792499992	-0.26719942403547586
-0.4773575440937492	-0.26391138226647504
-0.4772965089374992	-0.26061919868632605
-0.4772354737812492	-0.2573225574596588
-0.4771744386249992	-0.254020976240086
-0.4771134034687492	-0.25071383024462485
-0.4770523683124992	-0.24740038557072822
-0.4769913331562492	-0.24407984016667633
-0.4769302979999992	-0.24075136909840847
-0.4768692628437492	-0.2374141711228525
-0.4768082276874992	-0.23406751520568453
-0.4767471925312492	-0.23071078514086682
-0.4766861573749992	-0.22734352025816004
-0.4766251222187492	-0.22396544940835902
-0.4765640870624992	-0.2205765148771159
-0.4765030519062492	-0.21717688435842364
-0.4764420167499992	-0.21376695034739993
-0.4763809815937492	-0.21034731733926307
-0.4763199464374992	-0.20691877712931975
-0.4762589112812492	-0.20348227246698786
-0.4761978761249992	-0.20003885198331356
-0.4761368409687492	-0.1965896193599881
-0.4760758058124992	-0.19313567764601353
-0.4760147706562492	-0.18967807193863379
-0.4759537354999992	-0.18621773549409804
-0.4758927003437492	-0.1827554419236141
-0.4758316651874992	-0.17929176471185493
-0.4757706300312492	-0.17582704643360503
-0.4757095948749992	-0.17236138073089224
-0.4756485597187492	-0.16889460866579295
-0.4755875245624992	-0.16542632950046807
-0.4755264894062492	-0.16195592525990782
-0.4754654542499992	-0.15848259785996102
-0.4754044190937492	-0.1550054173147169
-0.4753433839374992	-0.15152337822077577
-0.4752823487812492	-0.14803546087230962
-0.4752213136249992	-0.1445406939011996
-0.4751602784687492	-0.14103821494000204
-0.4750992433124992	-0.13752732613635016
-0.4750382081562492	-0.13400754214707905
-0.4749771729999992	-0.13047862708479638
-0.4749161378437492	-0.12694061718222893
-0.4748551026874992	-0.12339382756400215
-0.4747940675312492	-0.11983884284118208
-0.4747330323749992	-0.11627649356617831
-0.4746719972187492	-0.11270781888146061
-0.4746109620624992	-0.1091340145704473
-0.4745499269062492	-0.1055563711909117
-0.4744888917499992	-0.10197620783193505
-0.4744278565937492	-0.09839480333463228
-0.4743668214374992	-0.09481332786194165
-0.4743057862812492	-0.09123278004462626
-0.4742447511249992	-0.08765393369137739
-0.4741837159687492	-0.08407729549567348
-0.4741226808124992	-0.08050307602933414
-0.4740616456562492	-0.0769311778053385
-0.4740006104999992	-0.07336120147902289
-0.4739395753437492	-0.06979246919768207
-0.4738785401874992	-0.06622406509850531
-0.4738175050312492	-0.0626548913828637
-0.4737564698749992	-0.059083734515421135
-0.4736954347187492	-0.055509337164061846
-0.4736343995624992	-0.05193047415999825
-0.4735733644062492	-0.04834602811887281
-0.4735123292499992	-0.04475505926051706
-0.4734512940937492	-0.041156866576049375
-0.4733902589374992	-0.037551036918399935
-0.4733292237812492	-0.03393747720510679
-0.4732681886249992	-0.030316427746737776
-0.4732071534687492	-0.026688457505095475
-0.4731461183124992	-0.023054440913646484
-0.4730850831562492	-0.01941551543105664
-0.4730240479999992	-0.015773023111360248
-0.4729630128437492	-0.01212844155226142
-0.4729019776874992	-0.008483306707051259
-0.4728409425312492	-0.004839130488346869
-0.4727799073749992	-0.0011973185052397207
-0.4727188722187492	0.0024409072797769485
-0.4726578370624992	0.006074575694134883
-0.4725968019062492	0.009703017882043844
-0.4725357667499992	0.013325901035734288
-0.4724747315937492	0.01694324325533375
-0.4724136964374992	0.020555408331290208
-0.4723526612812492	0.02416308165393937
-0.4722916261249992	0.027767228080662912
-0.4722305909687492	0.03136903230307021
-0.4721695558124992	0.03496982575526014
-0.4721085206562492	0.03857100492090564
-0.4720474854999992	0.0421739449495597
-0.4719864503437492	0.04577991409434323
-0.4719254151874992	0.04938999487044363
-0.4718643800312492	0.053005015815215946
-0.4718033448749992	0.05662549793920809
-0.4717423097187492	0.060251619580682945
-0.4716812745624992	0.06388320028211196
-0.4716202394062492	0.06751970415847887
-0.4715592042499992	0.07116026436194779
-0.4714981690937492	0.07480372768672507
-0.4714371339374992	0.07844871587850093
-0.4713760987812492	0.08209370071766496
-0.4713150636249992	0.0857370885860266
-0.4712540284687492	0.08937730789085374
-0.4711929933124992	0.09301289452389667
-0.4711319581562492	0.09664257232440017
-0.4710709229999992	0.1002653229389708
-0.4710098878437492	0.10388043845165576
-0.4709488526874992	0.10748755464729993
-0.4708878175312492	0.11108666503359918
-0.4708267823749992	0.11467811461336512
-0.4707657472187492	0.1182625735921817
-0.4707047120624992	0.12184099187187131
-0.4706436769062492	0.12541453605149983
-0.4705826417499992	0.12898451365196997
-0.4705216065937492	0.13255228948157402
-0.4704605714374992	0.13611919827953026
-0.4703995362812492	0.13968645999632717
-0.4703385011249992	0.14325510407388753
-0.4702774659687492	0.14682590559617079
-0.4702164308124992	0.15039933546025988
-0.4701553956562492	0.15397552825149458
-0.4700943604999992	0.15755427074383888
-0.4700333253437492	0.16113501155204074
-0.4699722901874992	0.16471689176249102
-0.4699112550312492	0.16829879484453839
-0.4698502198749992	0.17187941054501926
-0.4697891847187492	0.17545730830749526
-0.4697281495624992	0.17903101817241981
