Time	Frequency
-0.5000305097812507	-0.6620462074042741
-0.49996947462500074	-0.6608091233978892
-0.49990843946875074	-0.6595532386301503
-0.49984740431250074	-0.6582777880432732
-0.49978636915625074	-0.656982027326608
-0.49972533400000074	-0.6556652539788191
-0.49966429884375074	-0.6543268274631715
-0.49960326368750074	-0.6529661872519269
-0.49954222853125074	-0.6515828682894266
-0.49948119337500074	-0.65017651409174
-0.49942015821875074	-0.6487468875175255
-0.49935912306250074	-0.6472938787603211
-0.49929808790625074	-0.6458175099705982
-0.49923705275000074	-0.6443179361580466
-0.49917601759375074	-0.6427954423178865
-0.49911498243750074	-0.641250437353755
-0.49905394728125074	-0.6396834450223735
-0.49899291212500074	-0.6380950910964774
-0.49893187696875074	-0.6364860871762599
-0.49887084181250074	-0.6348572129761676
-0.49880980665625074	-0.6332092973925623
-0.49874877150000074	-0.6315431978606216
-0.49868773634375074	-0.629859778784222
-0.49862670118750074	-0.6281598898672743
-0.49856566603125074	-0.6264443445450677
-0.49850463087500074	-0.6247138989480729
-0.49844359571875074	-0.6229692320461034
-0.49838256056250074	-0.6212109278723994
-0.49832152540625074	-0.6194394610238163
-0.49826049025000074	-0.6176551858430056
-0.49819945509375074	-0.6158583287012815
-0.49813841993750074	-0.6140489832139645
-0.49807738478125074	-0.6122271086093557
-0.49801634962500074	-0.6103925313697535
-0.49795531446875074	-0.6085449505989838
-0.49789427931250074	-0.6066839473667884
-0.49783324415625074	-0.6048089974726537
-0.49777220900000074	-0.6029194867296691
-0.49771117384375074	-0.6010147284354291
-0.49765013868750074	-0.5990939829910897
-0.49758910353125074	-0.5971564790523715
-0.49752806837500074	-0.5952014354773929
-0.49746703321875074	-0.5932280833709354
-0.49740599806250074	-0.5912356875456154
-0.49734496290625074	-0.5892235672839758
-0.49728392775000074	-0.5871911158850815
-0.49722289259375074	-0.5851378176965406
-0.49716185743750074	-0.5830632624341571
-0.49710082228125074	-0.580967157503382
-0.49703978712500074	-0.5788493379590429
-0.49697875196875074	-0.5767097728541793
-0.49691771681250074	-0.574548567288401
-0.49685668165625074	-0.572365960507359
-0.49679564650000074	-0.5701623204688681
-0.49673461134375074	-0.5679381349312862
-0.49667357618750074	-0.5656939994107579
-0.49661254103125074	-0.5634306026294013
-0.49655150587500074	-0.5611487100804167
-0.49649047071875074	-0.5588491456556951
-0.49642943556250074	-0.5565327713191078
-0.49636840040625074	-0.5542004660009657
-0.49630736525000074	-0.5518531044245456
-0.49624633009375074	-0.5494915358170387
-0.49618529493750074	-0.5471165629521278
-0.49612425978125074	-0.5447289224722287
-0.49606322462500074	-0.5423292674437767
-0.49600218946875074	-0.5399181521049171
-0.49594115431250074	-0.5374960188117429
-0.49588011915625074	-0.5350631883075623
-0.49581908400000074	-0.5326198538774739
-0.49575804884375074	-0.5301660788327222
-0.49569701368750074	-0.5277017967235708
-0.49563597853125074	-0.5252268147003144
-0.49557494337500074	-0.5227408207648808
-0.49551390821875074	-0.5202433942033144
-0.49545287306250074	-0.5177340182942944
-0.49539183790625074	-0.5152120956429652
-0.49533080275000074	-0.5126769658846005
-0.49526976759375074	-0.5101279249296709
-0.49520873243750074	-0.5075642453173077
-0.49514769728125074	-0.5049851968971509
-0.49508666212500074	-0.5023900678820156
-0.49502562696875074	-0.49977818563009563
-0.49496459181250074	-0.49714893507253793
-0.49490355665625074	-0.4945017753162095
-0.49484252150000074	-0.49183625575265727
-0.49478148634375074	-0.4891520303088819
-0.49472045118750074	-0.48644886794658704
-0.49465941603125074	-0.48372665959040617
-0.49459838087500074	-0.4809854228361018
-0.49453734571875074	-0.47822530379245765
-0.49447631056250074	-0.47544657474983276
-0.49441527540625074	-0.47264962826483387
-0.49435424025000074	-0.4698349685538257
-0.49429320509375074	-0.46700320007492363
-0.49423216993750074	-0.4641550127952471
-0.49417113478125074	-0.4612911655512171
-0.49411009962500074	-0.4584124692505743
-0.49404906446875074	-0.4555197689568819
-0.49398802931250074	-0.452613924466261
-0.49392699415625074	-0.4496957900286003
-0.49386595900000074	-0.4467661932667655
-0.49380492384375074	-0.44382591510604646
-0.49374388868750074	-0.44087567214556334
-0.49368285353125074	-0.4379161004809956
-0.49362181837500074	-0.434947740781498
-0.49356078321875074	-0.43197102556827965
-0.49349974806250074	-0.42898626936561746
-0.49343871290625074	-0.4259936624997121
-0.49337767775000074	-0.42299326906790813
-0.49331664259375074	-0.4199850284205827
-0.49325560743750074	-0.41696875914272286
-0.49319457228125074	-0.4139441651965867
-0.49313353712500074	-0.4109108449762864
-0.49307250196875074	-0.40786830437269733
-0.49301146681250074	-0.4048159729507957
-0.49295043165625074	-0.4017532212851433
-0.49288939650000074	-0.39867937949353
-0.49282836134375074	-0.3955937573511793
-0.49276732618750074	-0.3924956644647759
-0.49270629103125074	-0.38938442976959553
-0.49264525587500074	-0.38625942113292216
-0.49258422071875074	-0.38312006522474773
-0.49252318556250074	-0.37996586641641594
-0.49246215040625074	-0.376796422409596
-0.49240111525000074	-0.37361143616045855
-0.49234008009375074	-0.37041072545861536
-0.49227904493750074	-0.36719423014933394
-0.49221800978125074	-0.36396201664456773
-0.49215697462500074	-0.36071427963272057
-0.49209593946875074	-0.35745133977579874
-0.49203490431250074	-0.35417363659882656
-0.49197386915625074	-0.3508817176646635
-0.49191283400000074	-0.34757622560277673
-0.49185179884375074	-0.3442578835675363
-0.49179076368750074	-0.3409274789753158
-0.49172972853125074	-0.3375858448516438
-0.49166869337500074	-0.33423383871316026
-0.49160765821875074	-0.3308723210846816
-0.49154662306250074	-0.32750213528542055
-0.49148558790625074	-0.3241240878646464
-0.49142455275000074	-0.32073892926002656
-0.49136351759375074	-0.3173473356992328
-0.49130248243750074	-0.3139498934035146
-0.49124144728125074	-0.31054708521638613
-0.49118041212500074	-0.30713927942209623
-0.49111937696875074	-0.3037267211564118
-0.49105834181250074	-0.30030952867808774
-0.49099730665625074	-0.296887695189774
-0.49093627150000074	-0.2934610930026888
-0.49087523634375074	-0.29002947888285435
-0.49081420118750074	-0.28659250237783396
-0.49075316603125074	-0.283149717556593
-0.49069213087500074	-0.27970059788087437
-0.49063109571875074	-0.2762445537954933
-0.49057006056250074	-0.2727809519609341
-0.49050902540625074	-0.26930913595178
-0.49044799025000074	-0.2658284478652322
-0.49038695509375074	-0.26233824870108574
-0.49032591993750074	-0.2588379377852194
-0.49026488478125074	-0.25532697284311096
-0.49020384962500074	-0.25180488856087296
-0.49014281446875074	-0.248271311470589
-0.49008177931250074	-0.2447259723136479
-0.49002074415625074	-0.24116871613047894
-0.48995970900000074	-0.23759950880289243
-0.48989867384375074	-0.23401843991235927
-0.48983763868750074	-0.23042572257369606
-0.48977660353125074	-0.22682169017973075
-0.48971556837500074	-0.22320678974540395
-0.48965453321875074	-0.2195815721788492
-0.48959349806250074	-0.2159466795197256
-0.48953246290625074	-0.21230282918925691
-0.48947142775000074	-0.20865079607871015
-0.48941039259375074	-0.20499139320591422
-0.48934935743750074	-0.20132545182950382
-0.48928832228125074	-0.19765380198348745
-0.48922728712500074	-0.193977252535669
-0.48916625196875074	-0.19029657013245702
-0.48910521681250074	-0.1866124593270366
-0.48904418165625074	-0.18292554591234284
-0.48898314650000074	-0.17923636337579069
-0.48892211134375074	-0.17554534165591204
-0.48886107618750074	-0.17185279775211493
-0.48880004103125074	-0.1681589290226599
-0.48873900587500074	-0.16446381026506698
-0.48867797071875074	-0.16076739468523496
-0.48861693556250074	-0.15706951839393787
-0.48855590040625074	-0.15336990827841754
-0.48849486525000074	-0.14966819333735756
-0.48843383009375074	-0.14596391901545433
-0.48837279493750074	-0.14225656357828348
-0.48831175978125074	-0.13854555581679026
-0.48825072462500074	-0.13483029381276368
-0.48818968946875074	-0.13111016550926524
-0.48812865431250074	-0.12738457043252557
-0.48806761915625074	-0.12365294007943825
-0.48800658400000074	-0.1199147570112208
-0.48794554884375074	-0.11616957315944057
-0.48788451368750074	-0.11241702591039414
-0.48782347853125074	-0.10865685142193439
-0.48776244337500074	-0.10488889511408941
-0.48770140821875074	-0.10111311907785323
-0.48764037306250074	-0.09732960642864479
-0.48757933790625074	-0.09353856202641783
-0.48751830275000074	-0.08974030871925022
-0.48745726759375074	-0.08593527975148378
-0.48739623243750074	-0.08212400876004376
-0.48733519728125074	-0.07830711746958247
-0.48727416212500074	-0.0744853009794288
-0.48721312696875074	-0.07065931081989653
-0.48715209181250074	-0.06682993578962046
-0.48709105665625074	-0.0629979816708361
-0.48703002150000074	-0.059164251195441594
-0.48696898634375074	-0.055329524094470305
-0.48690795118750074	-0.051494536650004606
-0.48684691603125074	-0.04765996184574414
-0.48678588087500074	-0.04382639229916973
-0.48672484571875074	-0.039994326782869086
-0.48666381056250074	-0.036164159288766755
-0.48660277540625074	-0.0323361703384611
-0.48654174025000074	-0.028510521726155456
-0.48648070509375074	-0.024687254666544752
-0.48641966993750074	-0.020866291201205756
-0.48635863478125074	-0.01704744041757216
-0.48629759962500074	-0.013230408421453715
-0.48623656446875074	-0.009414810006971586
-0.48617552931250074	-0.005600183413178888
-0.48611449415625074	-0.0017860077709947316
-0.48605345900000074	0.002028278717917102
-0.48599242384375074	0.005843259282010373
-0.48593138868750074	0.009659518107883505
-0.48587035353125074	0.013477619897970762
-0.48580931837500074	0.017298089045259528
-0.48574828321875074	0.021121389505804826
-0.48568724806250074	0.02494790746115542
-0.48562621290625074	0.02877793675634937
-0.48556517775000074	0.0326116667773773
-0.48550414259375074	0.036449173358006175
-0.48544310743750074	0.040290412811353545
-0.48538207228125074	0.04413521987342327
-0.48532103712500074	0.04798330984441166
-0.48526000196875074	0.05183428366090712
-0.48519896681250074	0.055687636329287714
-0.48513793165625074	0.059542768931185444
-0.48507689650000074	0.06339900250381668
-0.48501586134375074	0.06725559422193904
-0.48495482618750074	0.07111175719742692
-0.48489379103125074	0.0749666824477827
-0.48483275587500074	0.07881956024940073
-0.48477172071875074	0.08266960031167873
-0.48471068556250074	0.0865160521586011
-0.48464965040625074	0.09035822487043314
-0.48458861525000074	0.0941955045950837
-0.48452758009375074	0.0980273705199463
-0.48446654493750074	0.10185340889903687
-0.48440550978125074	0.10567332298282638
-0.48434447462500074	0.10948693832816973
-0.48428343946875074	0.1132942044729117
-0.48422240431250074	0.11709519332114035
-0.48416136915625074	0.12089009391652529
-0.48410033400000074	0.12467920365259587
-0.48403929884375074	0.12846291652874106
-0.48397826368750074	0.13224170902228854
-0.48391722853125074	0.1360161233023281
-0.48385619337500074	0.1397867474510339
-0.48379515821875074	0.1435541931870583
-0.48373412306250074	0.14731907275713532
-0.48367308790625074	0.15108197767570902
-0.48361205275000074	0.15484345910613104
-0.48355101759375074	0.1586040074941507
-0.48348998243750074	0.16236403288413345
-0.48342894728125074	0.1661238484732884
-0.48336791212500074	0.1698836574556731
-0.48330687696875074	0.1736435432733643
-0.48324584181250074	0.17740346350819441
-0.48318480665625074	0.18116324735592848
-0.48312377150000074	0.1849225967752968
-0.48306273634375074	0.18868109140028658
-0.48300170118750074	0.19243819728880895
-0.48294066603125074	0.19619327871525113
-0.48287963087500074	0.19994561311187425
-0.48281859571875074	0.2036944100998034
-0.48275756056250074	0.2074388330725089
-0.48269652540625074	0.21117802144860356
-0.48263549025000074	0.21491111318524816
-0.48257445509375074	0.21863726732230274
-0.48251341993750074	0.22235568691672686
-0.48245238478125074	0.22606564152118208
-0.48239134962500074	0.2297664870090287
-0.48233031446875074	0.23345768229874897
-0.48226927931250074	0.23713880313263733
-0.48220824415625074	0.24080955222976488
-0.48214720900000074	0.2444697656627917
-0.48208617384375074	0.24811941546436625
-0.48202513868750074	0.2517586077769965
-0.48196410353125074	0.25538757635358283
-0.48190306837500074	0.259006672548982
-0.48184203321875074	0.2626163525141706
-0.48178099806250074	0.26621716055099814
-0.48171996290625074	0.2698097082967005
-0.48165892775000074	0.2733946520590689
-0.48159789259375074	0.2769726700696323
-0.48153685743750074	0.2805444389162267
-0.48147582228125074	0.2841106090019562
-0.48141478712500074	0.2876717806028353
-0.48135375196875074	0.29122848182370353
-0.48129271681250074	0.2947811490492778
-0.48123168165625074	0.29833011037309554
-0.48117064650000074	0.3018755719051211
-0.48110961134375074	0.3054176071354735
-0.48104857618750074	0.30895615069161003
-0.48098754103125074	0.312490997175961
-0.48092650587500074	0.31602180447029193
-0.48086547071875074	0.3195481006064255
-0.48080443556250074	0.32306929414848623
-0.48074340040625074	0.32658468903327037
-0.48068236525000074	0.3300935034823975
-0.48062133009375074	0.33359489138010223
-0.48056029493750074	0.33708796556928355
-0.48049925978125074	0.3405718225322269
-0.48043822462500074	0.3440455675091121
-0.48037718946875074	0.34750833951904336
-0.48031615431250074	0.3509593353388716
-0.48025511915625074	0.35439783172138345
-0.48019408400000074	0.3578232055384013
-0.48013304884375074	0.3612349505704967
-0.48007201368750074	0.3646326898454293
-0.48001097853125074	0.3680161840275496
-0.47994994337500074	0.3713853363385541
-0.47988890821875074	0.3747401931996308
-0.47982787306250074	0.378080939894049
-0.47976683790625074	0.38140789157250204
-0.47970580275000074	0.3847214800939231
-0.47964476759375074	0.38802223707316846
-0.47958373243750074	0.3913107740999403
-0.47952269728125074	0.39458776074307034
-0.47946166212500074	0.39785389995741866
-0.47940062696875074	0.40110990155513704
-0.47933959181250074	0.40435645549315063
-0.47927855665625074	0.40759420653204015
-0.47921752150000074	0.41082373139918543
-0.47915648634375074	0.41404551813537743
-0.47909545118750074	0.41725994709305203
-0.47903441603125074	0.42046727510797866
-0.47897338087500074	0.4236676242575983
-0.47891234571875074	0.42686097487009056
-0.47885131056250074	0.43004716288601963
-0.47879027540625074	0.4332258820053932
-0.47872924025000074	0.4363966903835422
-0.47866820509375074	0.43955902212049386
-0.47860716993750074	0.4427122030998919
-0.47854613478125074	0.4458554698965073
-0.47848509962500074	0.4489879918866265
-0.47842406446875074	0.4521088959960527
-0.47836302931250074	0.4552172919551888
-0.47830199415625074	0.45831229778700394
-0.47824095900000074	0.4613930658012716
-0.47817992384375074	0.46445880731913924
-0.47811888868750074	0.4675088151675914
-0.47805785353125074	0.4705424846712101
-0.47799681837500074	0.4735593318583767
-0.47793578321875074	0.47655900630100967
-0.47787474806250074	0.4795412988295891
-0.47781371290625074	0.48250614562760985
-0.47775267775000074	0.48545362777580514
-0.47769164259375074	0.488383965045797
-0.47763060743750074	0.49129750500507324
-0.47756957228125074	0.49419470838012647
-0.47750853712500074	0.49707613058471345
-0.47744750196875074	0.49994240006761675
-0.47738646681250074	0.5027941946177019
-0.47732543165625074	0.5056322159073292
-0.47726439650000074	0.5084571626223329
-0.47720336134375074	0.5112697038541318
-0.47714232618750074	0.5140704537261832
-0.47708129103125074	0.5168599471812997
-0.47702025587500074	0.5196386182899635
-0.47695922071875074	0.5224067826062833
-0.47689818556250074	0.5251646235156613
-0.47683715040625074	0.5279121826034802
-0.47677611525000074	0.5306493549214293
-0.47671508009375074	0.5333758894827068
-0.47665404493750074	0.5360913945227745
-0.47659300978125074	0.5387953471518702
-0.47653197462500074	0.5414871073165299
-0.47647093946875074	0.544165936290713
-0.47640990431250074	0.5468310193287651
-0.47634886915625074	0.5494814911109271
-0.47628783400000074	0.552116462881095
-0.47622679884375074	0.5547350503125079
-0.47616576368750074	0.5573364009949098
-0.47610472853125074	0.5599197209937189
-0.47604369337500074	0.5624843000118196
-0.47598265821875074	0.5650295342856463
-0.47592162306250074	0.5675549460198002
-0.47586058790625074	0.5700601986244436
-0.47579955275000074	0.5725451076428449
-0.47573851759375074	0.5750096464202992
-0.47567748243750074	0.5774539460289125
-0.47561644728125074	0.5798782902814884
-0.47555541212500074	0.5822831057154363
-0.47549437696875074	0.5846689461394352
-0.47543334181250074	0.5870364724173628
-0.47537230665625074	0.5893864283999591
-0.47531127150000074	0.5917196138115851
-0.47525023634375074	0.5940368548484475
-0.47518920118750074	0.5963389732991509
-0.47512816603125074	0.5986267553587707
-0.47506713087500074	0.600900921423842
-0.47500609571875074	0.6031620978858533
-0.47494506056250074	0.6054107918773198
-0.47488402540625074	0.6076473699220306
-0.47482299025000074	0.6098720410330059
-0.47476195509375074	0.6120848447142541
-0.47470091993750074	0.6142856446900608
-0.47463988478125074	0.616474128947506
-0.47457884962500074	0.6186498159343836
-0.47451781446875074	0.6208120661884443
-0.47445677931250074	0.6229600988297731
-0.47439574415625074	0.6250930129193569
-0.47433470900000074	0.6272098136467747
-0.47427367384375074	0.6293094424486253
-0.47421263868750074	0.631390809253438
-0.47415160353125074	0.6334528255782492
-0.47409056837500074	0.6354944381296339
-0.47402953321875074	0.6375146619227186
-0.47396849806250074	0.639512611399476
-0.47390746290625074	0.6414875285674773
-0.47384642775000074	0.6434388072405831
-0.47378539259375074	0.6453660124206646
-0.47372435743750074	0.6472688944451062
-0.47366332228125074	0.6491473975641613
-0.47360228712500074	0.6510016622247528
-0.47354125196875074	0.6528320207228161
-0.47348021681250074	0.6546389865544877
-0.47341918165625074	0.6564232380023107
-0.47335814650000074	0.6581855965614878
-0.47329711134375074	0.6599270008710789
-0.47323607618750074	0.6616484767262625
-0.47317504103125074	0.6633511037945894
-0.47311400587500074	0.6650359801540333
-0.47305297071875074	0.6667041861454857
-0.47299193556250074	0.6683567486848498
-0.47293090040625074	0.6699946068758323
-0.47286986525000074	0.6716185799666385
-0.47280883009375074	0.6732293388961464
-0.47274779493750074	0.6748273825278137
-0.47268675978125074	0.6764130191653138
-0.47262572462500074	0.6779863536300644
-0.47256468946875074	0.6795472804261798
-0.47250365431250074	0.6810954836436097
-0.47244261915625074	0.682630443584568
-0.47238158400000074	0.6841514495654438
-0.47232054884375074	0.6856576186478684
-0.47225951368750074	0.6871479199944251
-0.47219847853125074	0.6886212039319288
-0.47213744337500074	0.6900762347896695
-0.47207640821875074	0.6915117267819477
-0.47201537306250074	0.692926381888587
-0.47195433790625074	0.6943189284329384
-0.47189330275000074	0.6956881590867935
-0.47183226759375074	0.6970329670873188
-0.47177123243750074	0.6983523796299576
-0.47171019728125074	0.6996455875223102
-0.47164916212500074	0.7009119700837504
-0.47158812696875074	0.7021511143382774
-0.47152709181250074	0.7033628279605334
-0.47146605665625074	0.7045471456852445
-0.47140502150000074	0.7057043288205728
-0.47134398634375074	0.7068348577035014
-0.47128295118750074	0.7079394173445616
-0.47122191603125074	0.7090188766975679
-0.47116088087500074	0.7100742620916504
-0.47109984571875074	0.7111067255658894
-0.47103881056250074	0.7121175090827837
-0.47097777540625074	0.7131079056826027
-0.47091674025000074	0.7140792187074012
-0.47085570509375074	0.7150327203703891
-0.47079466993750074	0.7159696109512192
-0.47073363478125074	0.7168909798640244
-0.47067259962500074	0.7177977698371427
-0.47061156446875074	0.7186907453565418
-0.47055052931250074	0.7195704664133822
-0.47048949415625074	0.7204372684211364
-0.47042845900000074	0.7212912489610964
-0.47036742384375074	0.7221322618761383
-0.47030638868750074	0.7229599190475186
-0.47024535353125074	0.7237735998063002
