Time	Frequency
-0.5000152509374995	-6.070217002548015e-22
-0.49995421578124954	-6.051080023949761e-22
-0.49989318062499954	-6.031788707421314e-22
-0.49983214546874954	-6.012347696791994e-22
-0.49977111031249954	-5.992760928050709e-22
-0.49971007515624954	-5.973031508780126e-22
-0.49964903999999954	-5.9531616224188e-22
-0.49958800484374954	-5.933152462255971e-22
-0.49952696968749954	-5.913004200205653e-22
-0.49946593453124954	-5.8927159899165445e-22
-0.49940489937499954	-5.872285996407224e-22
-0.49934386421874954	-5.851711451739572e-22
-0.49928282906249954	-5.830988742457424e-22
-0.49922179390624954	-5.810113525832239e-22
-0.49916075874999954	-5.789080870821565e-22
-0.49909972359374954	-5.767885422952642e-22
-0.49903868843749954	-5.746521589066581e-22
-0.49897765328124954	-5.724983733501089e-22
-0.49891661812499954	-5.70326637530931e-22
-0.49885558296874954	-5.6813643793301695e-22
-0.49879454781249954	-5.659273139666584e-22
-0.49873351265624954	-5.636988753661421e-22
-0.49867247749999954	-5.614508175143009e-22
-0.49861144234374954	-5.591829336221622e-22
-0.49855040718749954	-5.5689512385332025e-22
-0.49848937203124954	-5.545874013967096e-22
-0.49842833687499954	-5.522598949727755e-22
-0.49836730171874954	-5.499128477321755e-22
-0.49830626656249954	-5.475466123820391e-22
-0.49824523140624954	-5.451616422904926e-22
-0.49818419624999954	-5.427584797558943e-22
-0.49812316109374954	-5.403377420233989e-22
-0.49806212593749954	-5.379001038273106e-22
-0.49800109078124954	-5.354462771523581e-22
-0.49794005562499954	-5.3297699057402575e-22
-0.49787902046874954	-5.304929688109973e-22
-0.49781798531249954	-5.279949119070129e-22
-0.49775695015624954	-5.254834744279336e-22
-0.49769591499999954	-5.229592464420969e-22
-0.49763487984374954	-5.204227373150641e-22
-0.49757384468749954	-5.178743620370239e-22
-0.49751280953124954	-5.153144299033567e-22
-0.49745177437499954	-5.127431359075574e-22
-0.49739073921874954	-5.101605561892652e-22
-0.49732970406249954	-5.075666483242031e-22
-0.49726866890624954	-5.049612553354606e-22
-0.49720763374999954	-5.02344112405223e-22
-0.49714659859374954	-4.997148568589219e-22
-0.49708556343749954	-4.970730422516992e-22
-0.49702452828124954	-4.9441815567947795e-22
-0.49696349312499954	-4.917496368983414e-22
-0.49690245796874954	-4.890668990569502e-22
-0.49684142281249954	-4.863693504915935e-22
-0.49678038765624954	-4.836564158600559e-22
-0.49671935249999954	-4.80927556050935e-22
-0.49665831734374954	-4.781822874753406e-22
-0.49659728218749954	-4.754201996982903e-22
-0.49653624703124954	-4.726409697129666e-22
-0.49647521187499954	-4.698443730947705e-22
-0.49641417671874954	-4.670302931674215e-22
-0.49635314156249954	-4.641987276279872e-22
-0.49629210640624954	-4.613497906290228e-22
-0.49623107124999954	-4.584837101938426e-22
-0.49617003609374954	-4.556008221021113e-22
-0.49610900093749954	-4.527015601609229e-22
-0.49604796578124954	-4.497864434382894e-22
-0.49598693062499954	-4.468560614520025e-22
-0.49592589546874954	-4.439110572483885e-22
-0.49586486031249954	-4.409521091214919e-22
-0.49580382515624954	-4.379799118006418e-22
-0.49574278999999954	-4.349951570403239e-22
-0.49568175484374954	-4.319985141813246e-22
-0.49562071968749954	-4.289906109849111e-22
-0.49555968453124954	-4.2597201548377555e-22
-0.49549864937499954	-4.2294322139757143e-22
-0.49543761421874954	-4.1990463753952745e-22
-0.49537657906249954	-4.168565790049197e-22
-0.49531554390624954	-4.1379926052853217e-22
-0.49525450874999954	-4.1073279415255765e-22
-0.49519347359374954	-4.0765719072298576e-22
-0.49513243843749954	-4.045723639497965e-22
-0.49507140328124954	-4.014781374561144e-22
-0.49501036812499954	-3.9837425489735546e-22
-0.49494933296874954	-3.952603919330469e-22
-0.49488829781249954	-3.92136169730449e-22
-0.49482726265624954	-3.8900117081015666e-22
-0.49476622749999954	-3.858549565310543e-22
-0.49470519234374954	-3.8269708423887035e-22
-0.49464415718749954	-3.795271235411377e-22
-0.49458312203124954	-3.7634467238067643e-22
-0.49452208687499954	-3.7314937253479552e-22
-0.49446105171874954	-3.6994092296923603e-22
-0.49440001656249954	-3.6671909026286964e-22
-0.49433898140624954	-3.634837164432886e-22
-0.49427794624999954	-3.6023472459867164e-22
-0.49421691109374954	-3.569721227295459e-22
-0.49415587593749954	-3.536960053654821e-22
-0.49409484078124954	-3.504065517281924e-22
-0.49403380562499954	-3.4710402059590484e-22
-0.49397277046874954	-3.437887424870904e-22
-0.49391173531249954	-3.4046111009224727e-22
-0.49385070015624954	-3.371215676962696e-22
-0.49378966499999954	-3.33770598791477e-22
-0.49372862984374954	-3.3040871233817314e-22
-0.49366759468749954	-3.2703642910126395e-22
-0.49360655953124954	-3.2365426799272414e-22
-0.49354552437499954	-3.2026273264902437e-22
-0.49348448921874954	-3.1686229868715003e-22
-0.49342345406249954	-3.1345340169755096e-22
-0.49336241890624954	-3.100364274880378e-22
-0.49330138374999954	-3.066117052435538e-22
-0.49324034859374954	-3.031795021000055e-22
-0.49317931343749954	-2.997400190926891e-22
-0.49311827828124954	-2.9629338961005345e-22
-0.49305724312499954	-2.9283968006565424e-22
-0.49299620796874954	-2.8937889215677714e-22
-0.49293517281249954	-2.859109676824796e-22
-0.49287413765624954	-2.8243579636432667e-22
-0.49281310249999954	-2.789532247425258e-22
-0.49275206734374954	-2.7546306496230956e-22
-0.49269103218749954	-2.7196510429944537e-22
-0.49262999703124954	-2.684591162453541e-22
-0.49256896187499954	-2.6494487183067294e-22
-0.49250792671874954	-2.6142214941719266e-22
-0.49244689156249954	-2.578907441602005e-22
-0.49238585640624954	-2.543504783155e-22
-0.49232482124999954	-2.5080121072821735e-22
-0.49226378609374954	-2.4724284353839875e-22
-0.49220275093749954	-2.436753261939301e-22
-0.49214171578124954	-2.4009865820807335e-22
-0.49208068062499954	-2.36512890838255e-22
-0.49201964546874954	-2.329181269627426e-22
-0.49195861031249954	-2.29314519312128e-22
-0.49189757515624954	-2.2570226769319074e-22
-0.49183653999999954	-2.220816147076421e-22
-0.49177550484374954	-2.1845283903026924e-22
-0.49171446968749954	-2.1481624749080467e-22
-0.49165343453124954	-2.1117216695698876e-22
-0.49159239937499954	-2.0752093554181314e-22
-0.49153136421874954	-2.0386289423255724e-22
-0.49147032906249954	-2.001983796117792e-22
-0.49140929390624954	-1.9652771638992999e-22
-0.49134825874999954	-1.9285120947097134e-22
-0.49128722359374954	-1.8916913695995184e-22
-0.49122618843749954	-1.8548174537498098e-22
-0.49116515328124954	-1.817892465538564e-22
-0.49110411812499954	-1.7809181490402706e-22
-0.49104308296874954	-1.7438958561550358e-22
-0.49098204781249954	-1.7068265525284082e-22
-0.49092101265624954	-1.669710839804796e-22
-0.49085997749999954	-1.6325489855631618e-22
-0.49079894234374954	-1.5953409653505694e-22
-0.49073790718749954	-1.5580865119138222e-22
-0.49067687203124954	-1.5207851631611727e-22
-0.49061583687499954	-1.4834363198039674e-22
-0.49055480171874954	-1.4460393199271416e-22
-0.49049376656249954	-1.408593507139795e-22
-0.49043273140624954	-1.37109828154686e-22
-0.49037169624999954	-1.3335531545216904e-22
-0.49031066109374954	-1.2959578125784207e-22
-0.49024962593749954	-1.2583121695034722e-22
-0.49018859078124954	-1.2206163945357163e-22
-0.49012755562499954	-1.1828709285702024e-22
-0.49006652046874954	-1.1450764962439993e-22
-0.49000548531249954	-1.1072341080892637e-22
-0.48994445015624954	-1.0693450555767184e-22
-0.48988341499999954	-1.0314108990556585e-22
-0.48982237984374954	-9.934334417951741e-23
-0.48976134468749954	-9.554146969166623e-23
-0.48970030953124954	-9.173568500285051e-23
-0.48963927437499954	-8.792622092179697e-23
-0.48957823921874954	-8.411331488402912e-23
-0.48951720406249954	-8.02972058818553e-23
-0.48945616890624954	-7.647813004826682e-23
-0.48939513374999954	-7.265631636780608e-23
-0.48933409859374954	-6.883198217091474e-23
-0.48927306343749954	-6.500532936623553e-23
-0.48921202828124954	-6.117654169328761e-23
-0.48915099312499954	-5.73457822941397e-23
-0.48908995796874954	-5.351319235344569e-23
-0.48902892281249954	-4.967889081645442e-23
-0.48896788765624954	-4.5842974616540974e-23
-0.48890685249999954	-4.200551991767095e-23
-0.48884581734374954	-3.816658320269866e-23
-0.48878478218749954	-3.43262019038902e-23
-0.48872374703124954	-3.0484397113687044e-23
-0.48866271187499954	-2.6641178125493915e-23
-0.48860167671874954	-2.2796546290806153e-23
-0.48854064156249954	-1.895049846149171e-23
-0.48847960640624954	-1.5103031131655334e-23
-0.48841857124999954	-1.1254144613592608e-23
-0.48835753609374954	-7.403846710125497e-24
-0.48829650093749954	-3.552156066095045e-24
-0.48823546578124954	3.0089503841524594e-25
-0.48817443062499954	4.155258173466165e-24
-0.48811339546874954	8.010866396596522e-24
-0.48805236031249954	1.1867633279924223e-23
-0.48799132515624954	1.5725452821427293e-23
-0.48793028999999954	1.9584199152006095e-23
-0.48786925484374954	2.3443727266282223e-23
-0.48780821968749954	2.7303874590475563e-23
-0.48774718453124954	3.11644620312017e-23
-0.48768614937499954	3.502529555480446e-23
-0.48762511421874954	3.888616964663521e-23
-0.48756407906249954	4.274687186302032e-23
-0.48750304390624954	4.6607187003502934e-23
-0.48744200874999954	5.046690000824257e-23
-0.48738097359374954	5.432579769479306e-23
-0.48731993843749954	5.818367100649366e-23
-0.48725890328124954	6.204031858752771e-23
-0.48719786812499954	6.589555027218225e-23
-0.48713683296874954	6.974918904500112e-23
-0.48707579781249954	7.360107190452923e-23
-0.48701476265624954	7.745105116271213e-23
-0.48695372749999954	8.129899592850942e-23
-0.48689269234374954	8.514479268797441e-23
-0.48683165718749954	8.898834517788481e-23
-0.48677062203124954	9.282957394006444e-23
-0.48670958687499954	9.666841547099698e-23
-0.48664855171874954	1.0050482078869317e-22
-0.48658751656249954	1.0433875322869842e-22
-0.48652648140624954	1.0817018570119766e-22
-0.48646544624999954	1.1199909838144107e-22
-0.48640441109374954	1.1582547691691145e-22
-0.48634337593749954	1.1964931058793883e-22
-0.48628234078124954	1.2347059043796687e-22
-0.48622130562499954	1.2728930690234031e-22
-0.48616027046874954	1.3110544672381846e-22
-0.48609923531249954	1.3491898958068308e-22
-0.48603820015624954	1.3872990494224952e-22
-0.48597716499999954	1.4253815032100666e-22
-0.48591612984374954	1.4634367080486087e-22
-0.48585509468749954	1.5014639774458533e-22
-0.48579405953124954	1.539462463983781e-22
-0.48573302437499954	1.577431148378203e-22
-0.48567198921874954	1.6153688484576743e-22
-0.48561095406249954	1.6532742308857846e-22
-0.48554991890624954	1.6911458110849535e-22
-0.48548888374999954	1.7289819501628187e-22
-0.48542784859374954	1.7667808652366383e-22
-0.48536681343749954	1.8045406486250675e-22
-0.48530577828124954	1.842259284520479e-22
-0.48524474312499954	1.8799346677922878e-22
-0.48518370796874954	1.917564629721674e-22
-0.48512267281249954	1.9551469614155833e-22
-0.48506163765624954	1.9926794340877723e-22
-0.48500060249999954	2.030159827369295e-22
-0.48493956734374954	2.067585960641306e-22
-0.48487853218749954	2.1049557199232206e-22
-0.48481749703124954	2.142267086688119e-22
-0.48475646187499954	2.1795181702679407e-22
-0.48469542671874954	2.2167072402665786e-22
-0.48463439156249954	2.2538327507354638e-22
-0.48457335640624954	2.2908933523805764e-22
-0.48451232124999954	2.327887904043011e-22
-0.48445128609374954	2.3648154825340545e-22
-0.48439025093749954	2.401675382012204e-22
-0.48432921578124954	2.4384671083527456e-22
-0.48426818062499954	2.4751903709077624e-22
-0.48420714546874954	2.511845072188632e-22
-0.48414611031249954	2.548431294923488e-22
-0.48408507515624954	2.5849492739418745e-22
-0.48402403999999954	2.62139935434658e-22
-0.48396300484374954	2.657781948077813e-22
-0.48390196968749954	2.694097487766404e-22
-0.48384093453124954	2.730346377658146e-22
-0.48377989937499954	2.766528946139542e-22
-0.48371886421874954	2.8026454063603013e-22
-0.48365782906249954	2.838695825392414e-22
-0.48359679390624954	2.8746800879660503e-22
-0.48353575874999954	2.91059785381225e-22
-0.48347472359374954	2.9464485223951245e-22
-0.48341368843749954	2.982231212683595e-22
-0.48335265328124954	3.01794476019347e-22
-0.48329161812499954	3.053587720626523e-22
-0.48323058296874954	3.0891583707737446e-22
-0.48316954781249954	3.1246547203460956e-22
-0.48310851265624954	3.1600745433922205e-22
-0.48304747749999954	3.1954154173797694e-22
-0.48298644234374954	3.230674761150928e-22
-0.48292540718749954	3.265849874635451e-22
-0.48286437203124954	3.300937987738212e-22
-0.48280333687499954	3.335936316857969e-22
-0.48274230171874954	3.37084212024813e-22
-0.48268126656249954	3.405652752516436e-22
-0.48262023140624954	3.440365718625453e-22
-0.48255919624999954	3.474978724168688e-22
-0.48249816109374954	3.5094897179543765e-22
-0.48243712593749954	3.5438969244242367e-22
-0.48237609078124954	3.578198871758731e-22
-0.48231505562499954	3.612394413131057e-22
-0.48225402046874954	3.6464827338827596e-22
-0.48219298531249954	3.6804633477581664e-22
-0.48213195015624954	3.7143360828151475e-22
-0.48207091499999954	3.748101054099738e-22
-0.48200987984374954	3.7817586253830707e-22
-0.48194884468749954	3.815309365044821e-22
-0.48188780953124954	3.8487539998557245e-22
-0.48182677437499954	3.8820933639292192e-22
-0.48176573921874954	3.915328338238207e-22
-0.48170470406249954	3.9484597855961178e-22
-0.48164366890624954	3.9814884856753386e-22
-0.48158263374999954	4.014415073545815e-22
-0.48152159859374954	4.0472399888839966e-22
-0.48146056343749954	4.079963430997609e-22
-0.48139952828124954	4.1125853159608914e-22
-0.48133849312499954	4.1451052458607236e-22
-0.48127745796874954	4.177522492222915e-22
-0.48121642281249954	4.2098359893967483e-22
-0.48115538765624954	4.242044339780805e-22
-0.48109435249999954	4.274145829542616e-22
-0.48103331734374954	4.306138452387664e-22
-0.48097228218749954	4.338019946035161e-22
-0.48091124703124954	4.369787843151336e-22
-0.48085021187499954	4.4014395295133955e-22
-0.48078917671874954	4.432972300751739e-22
-0.48072814156249954	4.464383418362702e-22
-0.48066710640624954	4.495670172410953e-22
-0.48060607124999954	4.526829946127956e-22
-0.48054503609374954	4.557860270961703e-22
-0.48048400093749954	4.588758875573178e-22
-0.48042296578124954	4.619523734912449e-22
-0.48036193062499954	4.65015311135942e-22
-0.48030089546874954	4.680645579600648e-22
-0.48023986031249954	4.711000040328074e-22
-0.48017882515624954	4.741215726838178e-22
-0.48011778999999954	4.77129219651033e-22
-0.48005675484374954	4.80122930610173e-22
-0.47999571968749954	4.831027177860682e-22
-0.47993468453124954	4.860686157581779e-22
-0.47987364937499954	4.890206768275539e-22
-0.47981261421874954	4.919589661115864e-22
-0.47975157906249954	4.948835557613615e-22
-0.47969054390624954	4.977945185104556e-22
-0.47962950874999954	5.0069192142509285e-22
-0.47956847359374954	5.035758201717138e-22
-0.47950743843749954	5.064462536100171e-22
-0.47944640328124954	5.093032389461972e-22
-0.47938536812499954	5.121467681153584e-22
-0.47932433296874954	5.14976805321544e-22
-0.47926329781249954	5.177932854690752e-22
-0.47920226265624954	5.205961136296449e-22
-0.47914122749999954	5.233851657203903e-22
-0.47908019234374954	5.261602904079555e-22
-0.47901915718749954	5.289213116718534e-22
-0.47895812203124954	5.316680321085962e-22
-0.47889708687499954	5.344002379758781e-22
-0.47883605171874954	5.371177054492016e-22
-0.47877501656249954	5.398202065739821e-22
-0.47871398140624954	5.425075149183279e-22
-0.47865294624999954	5.451794115968086e-22
-0.47859191109374954	5.478356915100623e-22
-0.47853087593749954	5.504761688985319e-22
-0.47846984078124954	5.5310068146117965e-22
-0.47840880562499954	5.557090936330803e-22
-0.47834777046874954	5.583012994304442e-22
-0.47828673531249954	5.608772239484604e-22
-0.47822570015624954	5.634368230389193e-22
-0.47816466499999954	5.659800816385122e-22
-0.47810362984374954	5.685070112603328e-22
-0.47804259468749954	5.71017646408355e-22
-0.47798155953124954	5.735120396646592e-22
-0.47792052437499954	5.759902562185389e-22
-0.47785948921874954	5.784523680181935e-22
-0.47779845406249954	5.808984471163228e-22
-0.47773741890624954	5.833285588431859e-22
-0.47767638374999954	5.85742755336405e-22
-0.47761534859374954	5.881410693419971e-22
-0.47755431343749954	5.905235087525517e-22
-0.47749327828124954	5.928900524801167e-22
-0.47743224312499954	5.952406474788651e-22
-0.47737120796874954	5.975752064934484e-22
-0.47731017281249954	5.998936070575143e-22
-0.47724913765624954	6.021956922608377e-22
-0.47718810249999954	6.044812729153325e-22
-0.47712706734374954	6.067501312258937e-22
-0.47706603218749954	6.090020260081588e-22
-0.47700499703124954	6.112366988315715e-22
-0.47694396187499954	6.134538809957563e-22
-0.47688292671874954	6.156533013022108e-22
-0.47682189156249954	6.178346943193104e-22
-0.47676085640624954	6.199978089874841e-22
-0.47669982124999954	6.221424170249279e-22
-0.47663878609374954	6.24268320388052e-22
-0.47657775093749954	6.263753576257e-22
-0.47651671578124954	6.284634092218536e-22
-0.47645568062499954	6.305324016971989e-22
-0.47639464546874954	6.325823101257193e-22
-0.47633361031249954	6.346131589181555e-22
-0.47627257515624954	6.366250209034656e-22
-0.47621153999999954	6.38618014447124e-22
-0.47615050484374954	6.405922984927438e-22
-0.47608946968749954	6.425480660972268e-22
-0.47602843453124954	6.444855366150627e-22
-0.47596739937499954	6.464049465199601e-22
-0.47590636421874954	6.483065393387218e-22
-0.47584532906249954	6.501905548696502e-22
-0.47578429390624954	6.520572180725616e-22
-0.47572325874999954	6.539067284553151e-22
-0.47566222359374954	6.557392501268604e-22
-0.47560118843749954	6.575549024471205e-22
-0.47554015328124954	6.593537517231827e-22
-0.47547911812499954	6.6113580440874715e-22
-0.47541808296874954	6.629010022018978e-22
-0.47535704781249954	6.646492194594336e-22
-0.47529601265624954	6.663802629029688e-22
-0.47523497749999954	6.680938735128832e-22
-0.47517394234374954	6.697897307577854e-22
-0.47511290718749954	6.714674591939076e-22
-0.47505187203124954	6.731266374102332e-22
-0.47499083687499954	6.747668091754296e-22
-0.47492980171874954	6.763874963358248e-22
-0.47486876656249954	6.779882130168214e-22
-0.47480773140624954	6.795684806684294e-22
-0.47474669624999954	6.811278433433706e-22
-0.47468566109374954	6.826658826547163e-22
-0.47462462593749954	6.841822318943064e-22
-0.47456359078124954	6.85676588721276e-22
-0.47450255562499954	6.871487257738509e-22
-0.47444152046874954	6.885984987407009e-22
-0.47438048531249954	6.900258517357902e-22
-0.47431945015624954	6.914308196826539e-22
-0.47425841499999954	6.92813527306355e-22
-0.47419737984374954	6.941741846964538e-22
-0.47413634468749954	6.955130796275375e-22
-0.47407530953124954	6.968305668768296e-22
-0.47401427437499954	6.981270549432159e-22
-0.47395323921874954	6.994029906642881e-22
-0.47389220406249954	7.006588422301857e-22
-0.47383116890624954	7.018950811538067e-22
-0.47377013374999954	7.031121639251134e-22
-0.47370909859374954	7.04310514152453e-22
-0.47364806343749954	7.054905058560905e-22
-0.47358702828124954	7.066524484950312e-22
-0.47352599312499954	7.077965743121892e-22
-0.47346495796874954	7.089230285082163e-22
-0.47340392281249954	7.100318626409208e-22
-0.47334288765624954	7.111230315044627e-22
-0.47328185249999954	7.12196393600228e-22
-0.47322081734374954	7.132517152496836e-22
-0.47315978218749954	7.142886782398284e-22
-0.47309874703124954	7.153068906091909e-22
-0.47303771187499954	7.163059000918193e-22
-0.47297667671874954	7.172852097787523e-22
-0.47291564156249954	7.1824429544075415e-22
-0.47285460640624954	7.191826237670578e-22
-0.47279357124999954	7.200996707336392e-22
-0.47273253609374954	7.209949394023504e-22
-0.47267150093749954	7.218679765390538e-22
-0.47261046578124954	7.227183874505006e-22
-0.47254943062499954	7.235458484289002e-22
-0.47248839546874954	7.243501163173983e-22
-0.47242736031249954	7.251310348653521e-22
-0.47236632515624954	7.258885376242136e-22
-0.47230528999999954	7.266226473670108e-22
-0.47224425484374954	7.27333472208434e-22
-0.47218321968749954	7.280211985373694e-22
