Time	Frequency
-0.5000152508750002	-0.5515056049954004
-0.4999542157187502	-0.5488937912242717
-0.4998931805625002	-0.5462641059175672
-0.4998321454062502	-0.5436164406754806
-0.4997711102500002	-0.5409507337929335
-0.4997100750937502	-0.538266980967198
-0.4996490399375002	-0.5355652413476226
-0.4995880047812502	-0.532845639091741
-0.4995269696250002	-0.5301083597663517
-0.4994659344687502	-0.5273536408992084
-0.4994048993125002	-0.5245817575336931
-0.4993438641562502	-0.5217930048818722
-0.4992828290000002	-0.5189876794599557
-0.4992217938437502	-0.5161660598595734
-0.4991607586875002	-0.5133283895703762
-0.4990997235312502	-0.5104748640753599
-0.4990386883750002	-0.5076056223139247
-0.4989776532187502	-0.5047207426836332
-0.4989166180625002	-0.5018202450543411
-0.4988555829062502	-0.4989040984756964
-0.4987945477500002	-0.4959722325488293
-0.4987335125937502	-0.4930245516976638
-0.4986724774375002	-0.49006095218290574
-0.4986114422812502	-0.48708134010770116
-0.4985504071250002	-0.48408564758766076
-0.4984893719687502	-0.4810738457590486
-0.4984283368125002	-0.4780459543126906
-0.4983673016562502	-0.47500204655665834
-0.4983062665000002	-0.4719422499294463
-0.4982452313437502	-0.46886674230288444
-0.4981841961875002	-0.46577574319799586
-0.4981231610312502	-0.4626695001517295
-0.4980621258750002	-0.45954827299099016
-0.4980010907187502	-0.4564123185065303
-0.4979400555625002	-0.45326187581841515
-0.4978790204062502	-0.4500971529712212
-0.4978179852500002	-0.44691831668630505
-0.4977569500937502	-0.44372548677273516
-0.4976959149375002	-0.4405187355016091
-0.4976348797812502	-0.43729809091758315
-0.4975738446250002	-0.4340635438595136
-0.4975128094687502	-0.4308150593510313
-0.4974517743125002	-0.42755259050559463
-0.4973907391562502	-0.42427609229331004
-0.4973297040000002	-0.42098553469355526
-0.4972686688437502	-0.4176809148300982
-0.4972076336875002	-0.41436226592454
-0.4971465985312502	-0.41102966222596177
-0.4970855633750002	-0.40768322115898076
-0.4970245282187502	-0.4043231018601542
-0.4969634930625002	-0.4009494990597533
-0.4969024579062502	-0.39756263394833474
-0.4968414227500002	-0.39416274279858377
-0.4967803875937502	-0.39075006336440604
-0.4967193524375002	-0.387324821305508
-0.4966583172812502	-0.38388721914684204
-0.4965972821250002	-0.38043742821015586
-0.4965362469687502	-0.3769755830775572
-0.4964752118125002	-0.37350177898699244
-0.4964141766562502	-0.3700160731141978
-0.4963531415000002	-0.36651848971677764
-0.4962921063437502	-0.36300902858958717
-0.4962310711875002	-0.35948767616782973
-0.4961700360312502	-0.35595441747020934
-0.4961090008750002	-0.3524092472134983
-0.4960479657187502	-0.3488521794273946
-0.4959869305625002	-0.34528325501760476
-0.4959258954062502	-0.34170254680756706
-0.4958648602500002	-0.3381101620539634
-0.4958038250937502	-0.3345062422742002
-0.4957427899375002	-0.33089095915541605
-0.4956817547812502	-0.32726450680229935
-0.4956207196250002	-0.32362709319345556
-0.4955596844687502	-0.31997893191349275
-0.4954986493125002	-0.3163202328498963
-0.4954376141562502	-0.3126511924367175
-0.4953765790000002	-0.30897198573960605
-0.4953155438437502	-0.3052827613303528
-0.4952545086875002	-0.30158363854953774
-0.4951934735312502	-0.2978747072808108
-0.4951324383750002	-0.29415603138481183
-0.4950714032187502	-0.29042765578217455
-0.4950103680625002	-0.28668961498968504
-0.4949493329062502	-0.2829419411203296
-0.4948882977500002	-0.2791846713828655
-0.4948272625937502	-0.27541785508272204
-0.4947662274375002	-0.2716415591961613
-0.4947051922812502	-0.26785587288503204
-0.4946441571250002	-0.26406090998863335
-0.4945831219687502	-0.26025680728461764
-0.4945220868125002	-0.25644372006265975
-0.4944610516562502	-0.25262181778734183
-0.4944000165000002	-0.2487912798419927
-0.4943389813437502	-0.24495228943859307
-0.4942779461875002	-0.24110502568624367
-0.4942169110312502	-0.23724965676197265
-0.4941558758750002	-0.23338633559299862
-0.4940948407187502	-0.22951519753835709
-0.4940338055625002	-0.22563635928376877
-0.4939727704062502	-0.2217499186326112
-0.4939117352500002	-0.2178559570993035
-0.4938507000937502	-0.21395454562096003
-0.4937896649375002	-0.21004575077999174
-0.4937286297812502	-0.20612964055974886
-0.4936675946250002	-0.20220628978860902
-0.4936065594687502	-0.19827578441372556
-0.4935455243125002	-0.19433822378424437
-0.4934844891562502	-0.19039372174571675
-0.4934234540000002	-0.1864424076364212
-0.4933624188437502	-0.182484426266085
-0.4933013836875002	-0.1785199357434174
-0.4932403485312502	-0.1745491033124803
-0.4931793133750002	-0.17057209971047832
-0.4931182782187502	-0.16658909315873863
-0.4930572430625002	-0.16260024426503494
-0.4929962079062502	-0.15860570222997322
-0.4929351727500002	-0.1546056025591407
-0.4928741375937502	-0.150600066837356
-0.4928131024375002	-0.14658920439963954
-0.4927520672812502	-0.14257311452069885
-0.4926910321250002	-0.13855188832375925
-0.4926299969687502	-0.13452561143496183
-0.4925689618125002	-0.13049436853223884
-0.4925079266562502	-0.12645824873742464
-0.4924468915000002	-0.12241734970111595
-0.4923858563437502	-0.11837178008232525
-0.4923248211875002	-0.11432166135632853
-0.4922637860312502	-0.11026712875487431
-0.4922027508750002	-0.10620833032868307
-0.4921417157187502	-0.10214542411006407
-0.4920806805625002	-0.09807857441731811
-0.4920196454062502	-0.09400794779070883
-0.4919586102500002	-0.08993370849889551
-0.4918975750937502	-0.08585601403594019
-0.4918365399375002	-0.0817750114983458
-0.4917755047812502	-0.07769083571151908
-0.4917144696250002	-0.07360360846886085
-0.4916534344687502	-0.0695134380336955
-0.4915923993125002	-0.06542042051767821
-0.4915313641562502	-0.061324643939151775
-0.4914703290000002	-0.05722619309834221
-0.4914092938437502	-0.05312515393570583
-0.4913482586875002	-0.04902161752729801
-0.4912872235312502	-0.04491568389229085
-0.4912261883750002	-0.04080746483332457
-0.4911651532187502	-0.03669708546308832
-0.4911041180625002	-0.03258468474716616
-0.4910430829062502	-0.028470415119839453
-0.4909820477500002	-0.024354440949142606
-0.4909210125937502	-0.020236935282705162
-0.4908599774375002	-0.016118075647912403
-0.4907989422812502	-0.01199803958075204
-0.4907379071250002	-0.007876999324869786
-0.4906768719687502	-0.003755116835902717
-0.4906158368125002	0.0003674592346313145
-0.4905548016562502	0.004490594756293202
-0.4904937665000002	0.00861417086905138
-0.4904327313437502	0.012738084301288418
-0.4903716961875002	0.01686224563202322
-0.4903106610312502	0.020986575309732164
-0.4902496258750002	0.02511099890344739
-0.4901885907187502	0.029235442245317714
-0.4901275555625002	0.03335982613425046
-0.4900665204062502	0.03748406088068231
-0.4900054852500002	0.04160804211786579
-0.4899444500937502	0.045731648441471796
-0.4898834149375002	0.04985474002315753
-0.4898223797812502	0.05397715840497753
-0.4897613446250002	0.05809872891313245
-0.4897003094687502	0.06221926565675492
-0.4896392743125002	0.06633857692555736
-0.4895782391562502	0.07045647036468539
-0.4895172040000002	0.07457275892683266
-0.4894561688437502	0.0786872668555222
-0.4893951336875002	0.082799834487386
-0.4893340985312502	0.08691032097106527
-0.4892730633750002	0.09101860484783983
-0.4892120282187502	0.0951245837149901
-0.4891509930625002	0.09922817279054137
-0.4890899579062502	0.10332930118427132
-0.4890289227500002	0.10742790600839214
-0.4889678875937502	0.11152392613216973
-0.4889068524375002	0.11561729646860103
-0.4888458172812502	0.11970794152448884
-0.4887847821250002	0.12379576953659417
-0.4887237469687502	0.12788066965257336
-0.4886627118125002	0.13196251051868138
-0.4886016766562502	0.13604113956003924
-0.4885406415000002	0.14011638503061785
-0.4884796063437502	0.14418806039406443
-0.4884185711875002	0.1482559694584918
-0.4883575360312502	0.1523199117504074
-0.4882965008750002	0.15637968809790542
-0.4882354657187502	0.16043510730171134
-0.4881744305625002	0.16448599309949036
-0.4881133954062502	0.16853218885636345
-0.4880523602500002	0.17257355893405874
-0.4879913250937502	0.1766099878351169
-0.4879302899375002	0.18064137899313876
-0.4878692547812502	0.18466765309470973
-0.4878082196250002	0.18868874453129483
-0.4877471844687502	0.19270459554827657
-0.4876861493125002	0.19671514852055647
-0.4876251141562502	0.2007203383017228
-0.4875640790000002	0.20472008671517689
-0.4875030438437502	0.20871429938986216
-0.4874420086875002	0.212702863908962
-0.4873809735312502	0.2166856483107214
-0.4873199383750002	0.22066250089755193
-0.4872589032187502	0.2246332529984736
-0.4871978680625002	0.2285977236322497
-0.4871368329062502	0.23255572433963523
-0.4870757977500002	0.23650706480918626
-0.4870147625937502	0.24045155949081418
-0.4869537274375002	0.2443890336329241
-0.4868926922812502	0.2483193280292746
-0.4868316571250002	0.2522423018999824
-0.4867706219687502	0.2561578330888271
-0.4867095868125002	0.2600658171668285
-0.4866485516562502	0.26396616636058334
-0.4865875165000002	0.2678588058469814
-0.4865264813437502	0.27174366731993627
-0.4864654461875002	0.2756206827631336
-0.4864044110312502	0.2794897792494784
-0.4863433758750002	0.28335087413401333
-0.4862823407187502	0.2872038706075911
-0.4862213055625002	0.29104865440349903
-0.4861602704062502	0.2948850930437428
-0.4860992352500002	0.29871303739996474
-0.4860382000937502	0.3025323242164162
-0.4859771649375002	0.30634277976548885
-0.4859161297812502	0.3101442249525376
-0.4858550946250002	0.3139364815699376
-0.4857940594687502	0.3177193791773995
-0.4857330243125002	0.32149276089239653
-0.4856719891562502	0.32525648694547576
-0.4856109540000002	0.32901043630823806
-0.4855499188437502	0.3327545069369189
-0.4854888836875002	0.3364886145546779
-0.4854278485312502	0.34021268905249485
-0.4853668133750002	0.34392666893692425
-0.4853057782187502	0.347630495759571
-0.4852447430625002	0.3513241088963658
-0.4851837079062502	0.3550074395110239
-0.4851226727500002	0.3586804041960348
-0.4850616375937502	0.3623429003440686
-0.4850006024375002	0.36599480386569555
-0.4849395672812502	0.3696359686668864
-0.4848785321250002	0.3732662282149201
-0.4848174969687502	0.3768853997499612
-0.4847564618125002	0.38049329065230186
-0.4846954266562502	0.3840897058622151
-0.4846343915000002	0.3876744551085737
-0.4845733563437502	0.3912473598330267
-0.4845123211875002	0.39480826022793203
-0.4844512860312502	0.3983570208600187
-0.4843902508750002	0.40189353347983753
-0.4843292157187502	0.4054177174834339
-0.4842681805625002	0.4089295177973315
-0.4842071454062502	0.41242890006892247
-0.4841461102500002	0.4159158442350436
-0.4840850750937502	0.41939033638971535
-0.4840240399375002	0.42285235918342173
-0.4839630047812502	0.42630188231402055
-0.4839019696250002	0.4297388541844668
-0.4838409344687502	0.43316319563528305
-0.4837798993125002	0.4365747959991672
-0.4837188641562502	0.4399735112965654
-0.4836578290000002	0.44335916521230323
-0.4835967938437502	0.4467315537033889
-0.4835357586875002	0.45009045325505576
-0.4834747235312502	0.45343563102435375
-0.4834136883750002	0.4567668550758549
-0.4833526532187502	0.46008390478758016
-0.4832916180625002	0.46338658128987786
-0.4832305829062502	0.4666747169642322
-0.4831695477500002	0.4699481827714299
-0.4831085125937502	0.4732068914457739
-0.4830474774375002	0.4764507963727869
-0.4829864422812502	0.4796798876100843
-0.4829254071250002	0.4828941849694736
-0.4828643719687502	0.48609372797354455
-0.4828033368125002	0.4892785632338586
-0.4827423016562502	0.49244873021398144
-0.4826812665000002	0.4956042479190914
-0.4826202313437502	0.49874510399224287
-0.4825591961875002	0.5018712456342946
-0.4824981610312502	0.5049825734049244
-0.4824371258750002	0.5080789396661082
-0.4823760907187502	0.5111601512251511
-0.4823150555625002	0.5142259756390073
-0.4822540204062502	0.5172761518928078
-0.4821929852500002	0.5203104046524256
-0.4821319500937502	0.5233284594025798
-0.4820709149375002	0.5263300573243355
-0.4820098797812502	0.5293149697837563
-0.4819488446250002	0.5322830104377672
-0.4818878094687502	0.53523404335148
-0.4818267743125002	0.5381679874265526
-0.4817657391562502	0.5410848165454146
-0.4817047040000002	0.5439845543625124
-0.4816436688437502	0.5468672647960277
-0.4815826336875002	0.5497330394441576
-0.4815215985312502	0.5525819816137882
-0.4814605633750002	0.5554141880794987
-0.4813995282187502	0.5582297316310046
-0.4813384930625002	0.561028646208278
-0.4812774579062502	0.5638109149498524
-0.4812164227500002	0.5665764620890247
-0.4811553875937502	0.5693251500436736
-0.4810943524375002	0.5720567823581019
-0.4810333172812502	0.5747711122994199
-0.4809722821250002	0.5774678560777836
-0.4809112469687502	0.5801467092083592
-0.4808502118125002	0.5828073646946016
-0.4807891766562502	0.5854495320968056
-0.4807281415000002	0.5880729561145603
-0.4806671063437502	0.5906774323870828
-0.4806060711875002	0.5932628185512437
-0.4805450360312502	0.5958290399086549
-0.4804840008750002	0.598376089454565
-0.4804229657187502	0.6009040218954467
-0.4803619305625002	0.6034129420210669
-0.4803008954062502	0.6059029883475064
-0.4802398602500002	0.6083743131655482
-0.4801788250937502	0.6108270609601333
-0.4801177899375002	0.6132613474475533
-0.4800567547812502	0.6156772410747792
-0.4799957196250002	0.618074748713482
-0.4799346844687502	0.6204538067414948
-0.4798736493125002	0.6228142782456885
-0.4798126141562502	0.625155957182047
-0.4797515790000002	0.6274785793126407
-0.4796905438437502	0.6297818384612468
-0.4796295086875002	0.6320654064548726
-0.4795684735312502	0.6343289552779445
-0.4795074383750002	0.6365721799646878
-0.4794464032187502	0.6387948200684178
-0.4793853680625002	0.6409966773182098
-0.4793243329062502	0.6431776279657375
-0.4792632977500002	0.6453376285812089
-0.4792022625937502	0.6474767141980511
-0.4791412274375002	0.6495949888756651
-0.4790801922812502	0.6516926098740685
-0.4790191571250002	0.653769766954173
-0.4789581219687502	0.6558266585055047
-0.4788970868125002	0.6578634665682511
-0.4788360516562502	0.6598803329479713
-0.4787750165000002	0.6618773387249884
-0.4787139813437502	0.6638544894015378
-0.4786529461875002	0.6658117072476498
-0.4785919110312502	0.6677488314312822
-0.4785308758750002	0.6696656258315151
-0.4784698407187502	0.6715617940381661
-0.4784088055625002	0.6734370004092782
-0.4783477704062502	0.6752908951380392
-0.4782867352500002	0.6771231407117725
-0.4782257000937502	0.6789334373719396
-0.4781646649375002	0.6807215455554134
-0.4781036297812502	0.6824873032012718
-0.4780425946250002	0.6842306359960428
-0.4779815594687502	0.685951559476763
-0.4779205243125002	0.687650172701295
-0.4778594891562502	0.6893266439482755
-0.4777984540000002	0.6909811898311363
-0.4777374188437502	0.6926140497836242
-0.4776763836875002	0.6942254582626022
-0.4776153485312502	0.6958156173625974
-0.4775543133750002	0.6973846723656802
-0.4774932782187502	0.6989326924190281
-0.4774322430625002	0.7004596582461469
-0.4773712079062502	0.7019654580204573
-0.4773101727500002	0.7034498916329983
-0.4772491375937502	0.7049126831620064
-0.4771881024375002	0.7063535007987203
-0.4771270672812502	0.7077719823483644
-0.4770660321250002	0.7091677636541166
-0.4770049969687502	0.7105405073686681
-0.4769439618125002	0.7118899295688467
-0.4768829266562502	0.7132158217144089
-0.4768218915000002	0.7145180659068144
-0.4767608563437502	0.7157966420436653
-0.4766998211875002	0.7170516261405276
-0.4766387860312502	0.7182831799229451
-0.4765777508750002	0.7194915326199434
-0.4765167157187502	0.7206769565812046
-0.4764556805625002	0.7218397389176098
-0.4763946454062502	0.7229801517893123
-0.4763336102500002	0.7240984240357119
-0.4762725750937502	0.725194716594812
-0.4762115399375002	0.726269103876352
-0.4761505047812502	0.7273215628370973
-0.4760894696250002	0.7283519707702657
-0.4760284344687502	0.7293601119526509
-0.4759673993125002	0.730345692528373
-0.4759063641562502	0.7313083623350984
-0.4758453290000002	0.7322477417332222
-0.4757842938437502	0.7331634510527317
-0.4757232586875002	0.7340551401119395
-0.4756622235312502	0.7349225152528222
-0.4756011883750002	0.7357653615054967
-0.4755401532187502	0.7365835579782897
-0.4754791180625002	0.7373770852682077
-0.4754180829062502	0.7381460242905594
-0.4753570477500002	0.7388905465846606
-0.4752960125937502	0.7396108971011194
-0.4752349774375002	0.7403073711892993
-0.4751739422812502	0.7409802877777498
-0.4751129071250002	0.7416299609933141
-0.4750518719687502	0.7422566725800986
-0.4749908368125002	0.742860647432471
-0.4749298016562502	0.7434420345128795
-0.4748687665000002	0.7440008946968351
-0.4748077313437502	0.7445371959589586
-0.4747466961875002	0.7450508160482061
-0.4746856610312502	0.7455415525226717
-0.4746246258750002	0.7460091389342987
-0.4745635907187502	0.7464532652947774
-0.4745025555625002	0.7468736009360651
-0.4744415204062502	0.7472698178693788
-0.4743804852500002	0.7476416127122381
-0.4743194500937502	0.7479887252535354
-0.4742584149375002	0.7483109521645833
-0.4741973797812502	0.7486081553340929
-0.4741363446250002	0.7488802649534697
-0.4740753094687502	0.7491272777621694
-0.4740142743125002	0.7493492512682765
-0.4739532391562502	0.7495462949716386
-0.4738922040000002	0.7497185596248644
-0.4738311688437502	0.7498662256600087
-0.4737701336875002	0.7499894916928582
-0.4737090985312502	0.7500885635685697
-0.4736480633750002	0.7501636442518033
-0.4735870282187502	0.75021492470057
-0.4735259930625002	0.7502425759712122
-0.4734649579062502	0.7502467428382161
-0.4734039227500002	0.7502275384678515
-0.4733428875937502	0.7501850399132226
-0.4732818524375002	0.750119285237401
-0.4732208172812502	0.7500302725493159
-0.4731597821250002	0.7499179604586943
-0.4730987469687502	0.749782270017733
-0.4730377118125002	0.7496230884230443
-0.4729766766562502	0.7494402743091279
-0.4729156415000002	0.7492336643919779
-0.4728546063437502	0.7490030814426814
-0.4727935711875002	0.7487483436722633
-0.4727325360312502	0.7484692747210322
-0.4726715008750002	0.7481657130752257
-0.4726104657187502	0.7478375207634103
-0.4725494305625002	0.7474845911452043
-0.4724883954062502	0.7471068551444119
-0.4724273602500002	0.7467042853905428
-0.4723663250937502	0.746276897665923
-0.4723052899375002	0.745824749382065
-0.4722442547812502	0.7453479352341396
-0.4721832196250002	0.7448465804123785
-0.4721221844687502	0.7443208318684225
-0.4720611493125002	0.7437708481546701
-0.4720001141562502	0.7431967885915902
-0.4719390790000002	0.7425988027283468
-0.4718780438437502	0.7419770210468577
-0.4718170086875002	0.741331547373703
-0.4717559735312502	0.7406624529479225
-0.4716949383750002	0.7399697724755392
-0.4716339032187502	0.7392535031730884
-0.4715728680625002	0.7385136074347514
-0.4715118329062502	0.7377500183579724
-0.4714507977500002	0.7369626470321458
-0.4713897625937502	0.736151391527774
-0.4713287274375002	0.7353161470775396
-0.4712676922812502	0.7344568162512083
-0.4712066571250002	0.7335733188617161
-0.4711456219687502	0.7326656006867925
-0.4710845868125002	0.7317336393001838
-0.4710235516562502	0.7307774472076959
-0.4709625165000002	0.7297970731073138
-0.4709014813437502	0.7287926004542755
-0.4708404461875002	0.7277641425361889
-0.4707794110312502	0.7267118353761497
-0.4707183758750002	0.725635829745885
-0.4706573407187502	0.7245362816601802
-0.4705963055625002	0.7234133417201383
-0.4705352704062502	0.7222671452967329
-0.4704742352500002	0.7210978046436689
-0.4704132000937502	0.7199054028091887
-0.4703521649375002	0.7186899889250682
-0.4702911297812502	0.7174515757000143
-0.4702300946250002	0.7161901405527374
-0.4701690594687502	0.7149056294193482
-0.4701080243125002	0.7135979620867468
-0.4700469891562502	0.7122670402838377
-0.4699859540000002	0.7109127585180911
-0.4699249188437502	0.7095350157775913
-0.4698638836875002	0.7081337268850086
-0.4698028485312502	0.706708832668818
-0.4697418133750002	0.7052603080679355
-0.4696807782187502	0.7037881677816173
-0.4696197430625002	0.7022924693350515
-0.4695587079062502	0.7007733129745833
-0.4694976727500002	0.6992308383067185
-0.4694366375937502	0.6976652178916785
-0.4693756024375002	0.6960766474658637
-0.4693145672812502	0.6944653337978789
