Time	Frequency
-0.5000323878124995	-0.48118092840514837
-0.4999713526562495	-0.484521495560979
-0.4999103174999995	-0.48784627429520283
-0.4998492823437495	-0.4911550936543202
-0.4997882471874995	-0.49444774900799005
-0.4997272120312495	-0.4977240115782433
-0.4996661768749995	-0.5009836388227284
-0.4996051417187495	-0.5042263842932108
-0.4995441065624995	-0.5074520074273211
-0.4994830714062495	-0.51066028257468
-0.4994220362499995	-0.5138510062987923
-0.4993610010937495	-0.5170240022496473
-0.4992999659374995	-0.5201791232547965
-0.4992389307812495	-0.5233162514076519
-0.4991778956249995	-0.5264352959720897
-0.4991168604687495	-0.5295361883801993
-0.4990558253124995	-0.5326188757958651
-0.4989947901562495	-0.535683315462621
-0.4989337549999995	-0.538729469434346
-0.4988727198437495	-0.5417572979975684
-0.4988116846874995	-0.5447667530611994
-0.4987506495312495	-0.5477577741373749
-0.4986896143749995	-0.5507302865676822
-0.4986285792187495	-0.553684200462858
-0.4985675440624995	-0.5566194108829501
-0.4985065089062495	-0.5595358001622763
-0.4984454737499995	-0.5624332415131391
-0.4983844385937495	-0.5653116026466384
-0.4983234034374995	-0.5681707492845348
-0.4982623682812495	-0.5710105489688098
-0.4982013331249995	-0.5738308745723361
-0.4981402979687495	-0.576631606386813
-0.4980792628124995	-0.5794126330653974
-0.4980182276562495	-0.5821738518887253
-0.4979571924999995	-0.5849151679027527
-0.4978961573437495	-0.587636491857784
-0.4978351221874995	-0.5903377370353541
-0.4977740870312495	-0.5930188158464219
-0.4977130518749995	-0.5956796378355187
-0.4976520167187495	-0.5983201085617882
-0.4975909815624995	-0.6009401282226677
-0.4975299464062495	-0.6035395908992018
-0.4974689112499995	-0.60611838501553
-0.4974078760937495	-0.608676394501306
-0.4973468409374995	-0.6112135006747218
-0.4972858057812495	-0.6137295851311411
-0.4972247706249995	-0.6162245329645201
-0.4971637354687495	-0.6186982352091723
-0.4971027003124995	-0.6211505905041633
-0.4970416651562495	-0.6235815063866413
-0.4969806299999995	-0.6259908998066731
-0.4969195948437495	-0.6283786967377337
-0.4968585596874995	-0.6307448309898439
-0.4967975245312495	-0.633089241926149
-0.4967364893749995	-0.6354118715934991
-0.4966754542187495	-0.6377126619799258
-0.4966144190624995	-0.6399915520902406
-0.4965533839062495	-0.6422484749730335
-0.4964923487499995	-0.6444833555552919
-0.4964313135937495	-0.6466961093719571
-0.4963702784374995	-0.6488866421036491
-0.4963092432812495	-0.6510548503485653
-0.4962482081249995	-0.6532006237005682
-0.4961871729687495	-0.6553238478055637
-0.4961261378124995	-0.6574244080919738
-0.4960651026562495	-0.659502193732312
-0.4960040674999995	-0.6615571012829422
-0.4959430323437495	-0.6635890378174765
-0.4958819971874995	-0.6655979234280893
-0.4958209620312495	-0.6675836925697404
-0.4957599268749995	-0.6695462939342646
-0.4956988917187495	-0.6714856888029238
-0.4956378565624995	-0.6734018478891509
-0.4955768214062495	-0.6752947471421431
-0.4955157862499995	-0.6771643631432928
-0.4954547510937495	-0.6790106684468569
-0.4953937159374995	-0.6808336269895499
-0.4953326807812495	-0.6826331898961069
-0.4952716456249995	-0.6844092923809957
-0.4952106104687495	-0.6861618520976416
-0.4951495753124995	-0.6878907690591292
-0.4950885401562495	-0.6895959274372844
-0.4950275049999995	-0.6912771991437505
-0.4949664698437495	-0.6929344488026276
-0.4949054346874995	-0.694567539690416
-0.4948443995312495	-0.6961763400113561
-0.4947833643749995	-0.6977607291041179
-0.4947223292187495	-0.6993206032906747
-0.4946612940624995	-0.7008558806855214
-0.4946002589062495	-0.7023665042757276
-0.4945392237499995	-0.7038524429409706
-0.4944781885937495	-0.7053136903531877
-0.4944171534374995	-0.7067502617310837
-0.4943561182812495	-0.708162188486988
-0.4942950831249995	-0.7095495112117284
-0.4942340479687495	-0.7109122717535995
-0.4941730128124995	-0.7122505051147174
-0.4941119776562495	-0.7135642317429083
-0.4940509424999995	-0.7148534507465495
-0.4939899073437495	-0.7161181347283501
-0.4939288721874995	-0.7173582269466774
-0.4938678370312495	-0.7185736411069059
-0.4938068018749995	-0.7197642637503011
-0.4937457667187495	-0.7209299591036545
-0.4936847315624995	-0.7220705760677262
-0.4936236964062495	-0.7231859567873353
-0.4935626612499995	-0.7242759460355666
-0.4935016260937495	-0.725340400559838
-0.4934405909374995	-0.7263791976447347
-0.4933795557812495	-0.7273922421535849
-0.4933185206249995	-0.7283794713422146
-0.4932574854687495	-0.729340857039294
-0.4931964503124995	-0.7302764050177187
-0.4931354151562495	-0.7311861514773308
-0.4930743799999995	-0.7320701568436604
-0.4930133448437495	-0.7329284975062977
-0.4929523096874995	-0.7337612562476843
-0.4928912745312495	-0.7345685120552964
-0.4928302393749995	-0.7353503301552924
-0.4927692042187495	-0.736106753138642
-0.4927081690624995	-0.7368377939071611
-0.4926471339062495	-0.7375434311692606
-0.4925860987499995	-0.7382236079888572
-0.4925250635937495	-0.7388782334537447
-0.4924640284374995	-0.7395071874029927
-0.4924029932812495	-0.7401103279033425
-0.4923419581249995	-0.7406875007479563
-0.4922809229687495	-0.7412385502127301
-0.4922198878124995	-0.7417633302241674
-0.4921588526562495	-0.7422617148860536
-0.4920978174999995	-0.7427336074683355
-0.4920367823437495	-0.7431789471861843
-0.4919757471874995	-0.7435977130861726
-0.4919147120312495	-0.7439899245462057
-0.4918536768749995	-0.7443556384275855
-0.4917926417187495	-0.7446949431220942
-0.4917316065624995	-0.7450079497352194
-0.4916705714062495	-0.7452947811737299
-0.4916095362499995	-0.7455555602812368
-0.4915485010937495	-0.7457903978736119
-0.4914874659374995	-0.7459993815339007
-0.4914264307812495	-0.7461825662936116
-0.4913653956249995	-0.7463399680991237
-0.4913043604687495	-0.746471560726275
-0.4912433253124995	-0.746577276459848
-0.4911822901562495	-0.7466570102097853
-0.4911212549999995	-0.746710626803817
-0.4910602198437495	-0.7467379711748863
-0.4909991846874995	-0.7467388803719258
-0.4909381495312495	-0.7467131963410738
-0.4908771143749995	-0.7466607787630217
-0.4908160792187495	-0.7465815167942035
-0.4907550440624995	-0.7464753384603862
-0.4906940089062495	-0.7463422168567789
-0.4906329737499995	-0.7461821727302387
-0.4905719385937495	-0.7459952732885404
-0.4905109034374995	-0.7457816271787361
-0.4904498682812495	-0.745541375994193
-0.4903888331249995	-0.745274683009862
-0.4903277979687495	-0.7449817199519967
-0.4902667628124995	-0.744662652794637
-0.4902057276562495	-0.7443176278574347
-0.4901446924999995	-0.7439467597133218
-0.4900836573437495	-0.7435501219618799
-0.4900226221874995	-0.743127741220463
-0.4899615870312495	-0.7426795946896605
-0.4899005518749995	-0.7422056119656227
-0.4898395167187495	-0.7417056812856697
-0.4897784815624995	-0.7411796594446999
-0.4897174464062495	-0.7406273844922733
-0.4896564112499995	-0.7400486903864206
-0.4895953760937495	-0.739443422171183
-0.4895343409374995	-0.7388114500561741
-0.4894733057812495	-0.7381526813983782
-0.4894122706249995	-0.7374670699828723
-0.4893512354687495	-0.7367546220776466
-0.4892902003124995	-0.7360153983903199
-0.4892291651562495	-0.7352495108968546
-0.4891681299999995	-0.7344571147890991
-0.4891070948437495	-0.7336383968855577
-0.4890460596874995	-0.732793561756199
-0.4889850245312495	-0.7319228165820367
-0.4889239893749995	-0.7310263556961837
-0.4888629542187495	-0.7301043460471934
-0.4888019190624995	-0.7291569148404806
-0.4887408839062495	-0.7281841401994059
-0.4886798487499995	-0.7271860461142119
-0.4886188135937495	-0.7261626026802978
-0.4885577784374995	-0.7251137308314152
-0.4884967432812495	-0.7240393107363009
-0.4884357081249995	-0.7229391941390212
-0.4883746729687495	-0.7218132198266046
-0.4883136378124995	-0.7206612300838292
-0.4882526026562495	-0.7194830868098363
-0.4881915674999995	-0.7182786862966426
-0.4881305323437495	-0.7170479709696581
-0.4880694971874995	-0.7157909372102058
-0.4880084620312495	-0.7145076391601882
-0.4879474268749995	-0.7131981880872356
-0.4878863917187495	-0.7118627468223567
-0.4878253565624995	-0.710501519435005
-0.4877643214062495	-0.7091147376646111
-0.4877032862499995	-0.7077026454389879
-0.4876422510937495	-0.7062654816556589
-0.4875812159374995	-0.7048034625767412
-0.4875201807812495	-0.7033167665758978
-0.4874591456249995	-0.7018055227536449
-0.4873981104687495	-0.7002698039996302
-0.4873370753124995	-0.6987096250823355
-0.4872760401562495	-0.6971249451847229
-0.4872150049999995	-0.6955156744881288
-0.4871539698437495	-0.6938816853561061
-0.4870929346874995	-0.6922228273369765
-0.4870318995312495	-0.6905389442710788
-0.4869708643749995	-0.6888298920001802
-0.4869098292187495	-0.687095554868533
-0.4868487940624995	-0.6853358598224778
-0.4867877589062495	-0.6835507875345755
-0.4867267237499995	-0.6817403794434753
-0.4866656885937495	-0.6799047394754312
-0.4866046534374995	-0.6780440298043733
-0.4865436182812495	-0.6761584618107811
-0.4864825831249995	-0.6742482840092291
-0.4864215479687495	-0.672313766789067
-0.4863605128124995	-0.6703551844988427
-0.4862994776562495	-0.6683727974481581
-0.4862384424999995	-0.6663668351653115
-0.4861774073437495	-0.6643374815805015
-0.4861163721874995	-0.662284864440443
-0.4860553370312495	-0.6602090505316567
-0.4859943018749995	-0.6581100457610997
-0.4859332667187495	-0.6559877995920091
-0.4858722315624995	-0.6538422146725442
-0.4858111964062495	-0.6516731610265549
-0.4857501612499995	-0.6494804930809583
-0.4856891260937495	-0.6472640679417146
-0.4856280909374995	-0.6450237629447567
-0.4855670557812495	-0.6427594915111118
-0.4855060206249995	-0.6404712169974639
-0.4854449854687495	-0.6381589628557983
-0.4853839503124995	-0.6358228173543594
-0.4853229151562495	-0.6334629325142913
-0.4852618799999995	-0.6310795179541102
-0.4852008448437495	-0.6286728303542186
-0.4851398096874995	-0.6262431585734605
-0.4850787745312495	-0.6237908051788615
-0.4850177393749995	-0.6213160668802993
-0.4849567042187495	-0.6188192165190083
-0.4848956690624995	-0.6163004878348616
-0.4848346339062495	-0.6137600631894322
-0.4847735987499995	-0.6111980648688405
-0.4847125635937495	-0.6086145513193244
-0.4846515284374995	-0.6060095189393033
-0.4845904932812495	-0.6033829091888369
-0.4845294581249995	-0.6007346208883263
-0.4844684229687495	-0.5980645264309424
-0.4844073878124995	-0.5953724895578381
-0.4843463526562495	-0.5926583840043959
-0.4842853174999995	-0.5899221121035401
-0.4842242823437495	-0.5871636200277459
-0.4841632471874995	-0.5843829086549133
-0.4841022120312495	-0.5815800414370238
-0.4840411768749995	-0.5787551479341136
-0.4839801417187495	-0.5759084211997926
-0.4839191065624995	-0.573040109372219
-0.4838580714062495	-0.5701505021716782
-0.4837970362499995	-0.5672399137772117
-0.4837360010937495	-0.5643086644914443
-0.4836749659374995	-0.5613570627547168
-0.4836139307812495	-0.5583853879720535
-0.4835528956249995	-0.5553938748442312
-0.4834918604687495	-0.5523827015512763
-0.4834308253124995	-0.5493519841047888
-0.4833697901562495	-0.546301776082185
-0.4833087549999995	-0.5432320724400771
-0.4832477198437495	-0.5401428179796742
-0.4831866846874995	-0.5370339203545492
-0.4831256495312495	-0.5339052668565489
-0.4830646143749995	-0.5307567438737439
-0.4830035792187495	-0.5275882562130569
-0.4829425440624995	-0.5243997438855956
-0.4828815089062495	-0.5211911957903724
-0.4828204737499995	-0.5179626594317417
-0.4827594385937495	-0.5147142455404647
-0.4826984034374995	-0.5114461278563548
-0.4826373682812495	-0.5081585379304723
-0.4825763331249995	-0.5048517540990684
-0.4825152979687495	-0.5015260862264252
-0.4824542628124995	-0.49818185898046496
-0.4823932276562495	-0.49481939430308586
-0.4823321924999995	-0.491438993299094
-0.4822711573437495	-0.4880409196196553
-0.4822101221874995	-0.48462538668758964
-0.4821490870312495	-0.48119254956959645
-0.4820880518749995	-0.4777425016431408
-0.4820270167187495	-0.4742752763916363
-0.4819659815624995	-0.47079085423320677
-0.4819049464062495	-0.4672891743172554
-0.4818439112499995	-0.4637701511432699
-0.4817828760937495	-0.46023369327905633
-0.4817218409374995	-0.4566797207884155
-0.4816608057812495	-0.4531081815456052
-0.4815997706249995	-0.4495190670651887
-0.4815387354687495	-0.44591242533419123
-0.4814777003124995	-0.4422883675694938
-0.4814166651562495	-0.43864706838422324
-0.4813556299999995	-0.4349887609071841
-0.4812945948437495	-0.431313727279086
-0.4812335596874995	-0.42762228490661974
-0.4811725245312495	-0.42391477088151586
-0.4811114893749995	-0.4201915248889432
-0.4810504542187495	-0.41645286965452694
-0.4809894190624995	-0.4126990920105649
-0.4809283839062495	-0.4089304286917834
-0.4808673487499995	-0.4051470572654203
-0.4808063135937495	-0.4013490912454685
-0.4807452784374995	-0.39753658033243694
-0.4806842432812495	-0.39370951705216173
-0.4806232081249995	-0.389867849150789
-0.4805621729687495	-0.38601149560403614
-0.4805011378124995	-0.382140364901893
-0.4804401026562495	-0.3782543747208633
-0.4803790674999995	-0.37435347069640584
-0.4803180323437495	-0.3704376427329991
-0.4802569971874995	-0.366506938155034
-0.4801959620312495	-0.3625614703563496
-0.4801349268749995	-0.3586014220174313
-0.4800738917187495	-0.35462704231870046
-0.4800128565624995	-0.350638637786365
-0.4799518214062495	-0.34663655760551126
-0.4798907862499995	-0.34262117531453634
-0.4798297510937495	-0.3385928684249344
-0.4797687159374995	-0.3345519972977904
-0.4797076807812495	-0.33049888529455523
-0.4796466456249995	-0.3264338021682164
-0.4795856104687495	-0.3223569520769686
-0.4795245753124995	-0.3182684674264731
-0.4794635401562495	-0.3141684094932511
-0.4794025049999995	-0.31005677455600333
-0.4793414698437495	-0.30593350440608535
-0.4792804346874995	-0.3017985029654201
-0.4792193995312495	-0.29765165797503507
-0.4791583643749995	-0.29349286375328565
-0.4790973292187495	-0.28932204262897787
-0.4790362940624995	-0.2851391639457019
-0.4789752589062495	-0.28094426018857416
-0.4789142237499995	-0.27673743835800785
-0.4788531885937495	-0.27251888416477804
-0.4787921534374995	-0.2682888592292296
-0.4787311182812495	-0.2640476917712683
-0.4786700831249995	-0.2597957612459378
-0.4786090479687495	-0.25553347925751646
-0.4785480128124995	-0.2512612677876953
-0.4784869776562495	-0.24697953483298243
-0.4784259424999995	-0.24268865151295088
-0.4783649073437495	-0.2383889335482742
-0.4783038721874995	-0.2340806256616682
-0.4782428370312495	-0.2297638914463462
-0.4781818018749995	-0.22543881229859397
-0.4781207667187495	-0.22110539332302614
-0.4780597315624995	-0.21676357473692856
-0.4779986964062495	-0.21241324939606207
-0.4779376612499995	-0.20805428444079155
-0.4778766260937495	-0.20368654453868726
-0.4778155909374995	-0.1993099157962528
-0.4777545557812495	-0.19492432919272004
-0.4776935206249995	-0.19052978100888235
-0.4776324854687495	-0.18612634659754987
-0.4775714503124995	-0.1817141861018273
-0.4775104151562495	-0.17729354427765
-0.4774493799999995	-0.17286474462250853
-0.4773883448437495	-0.16842817584202804
-0.4773273096874995	-0.16398427259216478
-0.4772662745312495	-0.15953349381512505
-0.4772052393749995	-0.15507629881058185
-0.4771442042187495	-0.15061312146098216
-0.4770831690624995	-0.14614434558764683
-0.4770221339062495	-0.1416702849209016
-0.4769610987499995	-0.1371911693502137
-0.4769000635937495	-0.13270713779790846
-0.4768390284374995	-0.12821823918577646
-0.4767779932812495	-0.1237244423163456
-0.4767169581249995	-0.11922565190017653
-0.4766559229687495	-0.11472172801056756
-0.4765948878124995	-0.11021250961779137
-0.4765338526562495	-0.10569784156137305
-0.4764728174999995	-0.10117760065300767
-0.4764117823437495	-0.09665171805387875
-0.4763507471874995	-0.09212019823412053
-0.4762897120312495	-0.08758313335135669
-0.4762286768749995	-0.08304070953666937
-0.4761676417187495	-0.07849320439156515
-0.4761066065624995	-0.0739409778165834
-0.4760455714062495	-0.06938445623427665
-0.4759845362499995	-0.06482411048840338
-0.4759235010937495	-0.06026043069080771
-0.4758624659374995	-0.0556939003119842
-0.4758014307812495	-0.05112497014995382
-0.4757403956249995	-0.046554033747731004
-0.4756793604687495	-0.04198140728194654
-0.4756183253124995	-0.0374073166754423
-0.4755572901562495	-0.032831891778242875
-0.4754962549999995	-0.028255167700396638
-0.4754352198437495	-0.023677095436057748
-0.4753741846874995	-0.019097560271886416
-0.4753131495312495	-0.014516404451672654
-0.4752521143749995	-0.009933453260612998
-0.4751910792187495	-0.005348543238450703
-0.4751300440624995	-0.0007615494546818574
-0.4750690089062495	0.0038275909740760525
-0.4750079737499995	0.008418861272461336
-0.4749469385937495	0.013012154218043158
-0.4748859034374995	0.017607267675132373
-0.4748248682812495	0.02220390633811335
-0.4747638331249995	0.026801691125250045
-0.4747027979687495	0.031400177413283124
-0.4746417628124995	0.03599887971260046
-0.4745807276562495	0.04059729797248946
-0.4745196924999995	0.045194943726073404
-0.4744586573437495	0.049791365836070973
-0.4743976221874995	0.05438617358184087
-0.4743365870312495	0.0589790545423007
-0.4742755518749995	0.06356978559093385
-0.4742145167187495	0.06815823682149297
-0.4741534815624995	0.07274436812694378
-0.4740924464062495	0.07732821761270972
-0.4740314112499995	0.08190988401981089
-0.4739703760937495	0.08648950634254729
-0.4739093409374995	0.09106724143660704
-0.4738483057812495	0.09564324021902516
-0.4737872706249995	0.10021762416545572
-0.4737262354687495	0.10479046403383778
-0.4736652003124995	0.10936176328432769
-0.4736041651562495	0.1139314480144763
-0.4735431299999995	0.11849936346937498
-0.4734820948437495	0.12306527640292096
-0.4734210596874995	0.1276288825679532
-0.4733600245312495	0.1321898196361892
-0.4732989893749995	0.13674768474585627
-0.4732379542187495	0.14130205313361857
-0.4731769190624995	0.14585249552946924
-0.4731158839062495	0.1503985946078222
-0.4730548487499995	0.15493995988997694
-0.4729938135937495	0.15947623905462716
-0.4729327784374995	0.16400712546518947
-0.4728717432812495	0.168532362532033
-0.4728107081249995	0.17305174441444707
-0.4727496729687495	0.17756511357127874
-0.4726886378124995	0.18207235606617037
-0.4726276026562495	0.18657339541588025
-0.4725665674999995	0.1910681865790376
-0.4725055323437495	0.1955567098424782
-0.4724444971874995	0.20003896363721815
-0.4723834620312495	0.2045149581169307
-0.4723224268749995	0.2089847097742113
-0.4722613917187495	0.21344823512209615
-0.4722003565624995	0.21790554460147493
-0.4721393214062495	0.22235663746431936
-0.4720782862499995	0.22680149577326855
-0.4720172510937495	0.23124007801114888
-0.4719562159374995	0.2356723139718435
-0.4718951807812495	0.24009810032869902
-0.4718341456249995	0.24451729607279404
-0.4717731104687495	0.24892971907139522
-0.4717120753124995	0.25333514493722825
-0.4716510401562495	0.2577333084219399
-0.4715900049999995	0.26212390760132914
-0.4715289698437495	0.2665066105798771
-0.4714679346874995	0.27088106457064487
-0.4714068995312495	0.2752469067305889
-0.4713458643749995	0.27960377560619937
-0.4712848292187495	0.28395132312090915
-0.4712237940624995	0.2882892267590322
-0.4711627589062495	0.292617201368039
-0.4711017237499995	0.2969350094279185
-0.4710406885937495	0.3012424675763411
-0.4709796534374995	0.3055394490937233
-0.4709186182812495	0.309825882735538
-0.4708575831249995	0.31410174725279294
-0.4707965479687495	0.31836706264691467
-0.4707355128124995	0.32262187912494206
-0.4706744776562495	0.32686626249731826
-0.4706134424999995	0.33110027675137726
-0.4705524073437495	0.3353239672288718
-0.4704913721874995	0.33953734566772853
-0.4704303370312495	0.34374037664953316
-0.4703693018749995	0.3479329670409436
-0.4703082667187495	0.35211496004844645
-0.4702472315624995	0.35628613429028605
-0.4701861964062495	0.36044620819248
-0.4701251612499995	0.3645948488524441
-0.4700641260937495	0.36873168500659026
-0.4700030909374995	0.37285632396381707
-0.4699420557812495	0.3769683706574846
-0.4698810206249995	0.38106744735964726
-0.4698199854687495	0.38515321274853576
-0.4697589503124995	0.38922537812367247
-0.4696979151562495	0.3932837195323686
-0.4696368799999995	0.39732808552515847
