Time	Frequency
-0.5000305100937492	-7.349306646083277e-22
-0.4999694749374992	-7.364039509546273e-22
-0.4999084397812492	-7.3785748497451265e-22
-0.4998474046249992	-7.3929111001396e-22
-0.4997863694687492	-7.407047013621305e-22
-0.4997253343124992	-7.420981737841704e-22
-0.4996642991562492	-7.434714859304155e-22
-0.4996032639999992	-7.448246412562041e-22
-0.4995422288437492	-7.4615768524008e-22
-0.4994811936874992	-7.474706993105366e-22
-0.4994201585312492	-7.4876379186865835e-22
-0.4993591233749992	-7.500370868028051e-22
-0.4992980882187492	-7.512907104488935e-22
-0.4992370530624992	-7.52524778088049e-22
-0.4991760179062492	-7.537393810319549e-22
-0.4991149827499992	-7.549345754158663e-22
-0.4990539475937492	-7.561103736793816e-22
-0.4989929124374992	-7.572667395888122e-22
-0.4989318772812492	-7.584035873097185e-22
-0.4988708421249992	-7.5952078452577925e-22
-0.4988098069687492	-7.606181594917286e-22
-0.4987487718124992	-7.616955116824048e-22
-0.4986877366562492	-7.62752625204999e-22
-0.4986267014999992	-7.637892839162325e-22
-0.4985656663437492	-7.648052869880359e-22
-0.4985046311874992	-7.658004634393581e-22
-0.4984435960312492	-7.667746842973986e-22
-0.4983825608749992	-7.677278714014978e-22
-0.4983215257187492	-7.686600021498044e-22
-0.4982604905624992	-7.695711097802229e-22
-0.4981994554062492	-7.704612790787646e-22
-0.4981384202499992	-7.713306377069943e-22
-0.4980773850937492	-7.721793437574076e-22
-0.4980163499374992	-7.730075706172832e-22
-0.4979553147812492	-7.738154903630212e-22
-0.4978942796249992	-7.746032568544607e-22
-0.4978332444687492	-7.753709899514854e-22
-0.4977722093124992	-7.761187624246128e-22
-0.4977111741562492	-7.768465907213409e-22
-0.4976501389999992	-7.775544302837808e-22
-0.4975891038437492	-7.78242175894683e-22
-0.4975280686874992	-7.789096671865124e-22
-0.4974670335312492	-7.795566989307693e-22
-0.4974059983749992	-7.801830353628083e-22
-0.4973449632187492	-7.807884274062826e-22
-0.4972839280624992	-7.813726312812488e-22
-0.4972228929062492	-7.81935427032995e-22
-0.4971618577499992	-7.824766355706116e-22
-0.4971008225937492	-7.829961328022516e-22
-0.4970397874374992	-7.834938596730557e-22
-0.4969787522812492	-7.839698269735599e-22
-0.4969177171249992	-7.844241143155232e-22
-0.4968566819687492	-7.848568635664137e-22
-0.4967956468124992	-7.852682670758657e-22
-0.4967346116562492	-7.856585512346783e-22
-0.4966735764999992	-7.860279568752672e-22
-0.4966125413437492	-7.863767184484345e-22
-0.4965515061874992	-7.867050435080857e-22
-0.4964904710312492	-7.870130935750055e-22
-0.4964294358749992	-7.873009680386826e-22
-0.4963684007187492	-7.875686931822852e-22
-0.4963073655624992	-7.87816217052729e-22
-0.4962463304062492	-7.880434103075783e-22
-0.4961852952499992	-7.882500736758169e-22
-0.4961242600937492	-7.884359517206571e-22
-0.4960632249374992	-7.886007514321073e-22
-0.4960021897812492	-7.887441641841524e-22
-0.4959411546249992	-7.888658898242826e-22
-0.4958801194687492	-7.889656610816507e-22
-0.4958190843124992	-7.890432658076487e-22
-0.4957580491562492	-7.890985653499539e-22
-0.4956970139999992	-7.891315079966452e-22
-0.4956359788437492	-7.891421358202058e-22
-0.4955749436874992	-7.891305837301112e-22
-0.4955139085312492	-7.890970712188975e-22
-0.4954528733749992	-7.890418873631077e-22
-0.4953918382187492	-7.889653691437774e-22
-0.4953308030624992	-7.888678748239295e-22
-0.4952697679062492	-7.887497552504522e-22
-0.4952087327499992	-7.886113252116554e-22
-0.4951476975937492	-7.884528368263574e-22
-0.4950866624374992	-7.882744571195867e-22
-0.4950256272812492	-7.880762517287845e-22
-0.4949645921249992	-7.87858176036223e-22
-0.4949035569687492	-7.876200746250055e-22
-0.4948425218124992	-7.873616900026014e-22
-0.4947814866562492	-7.870826801014301e-22
-0.4947204514999992	-7.867826427741175e-22
-0.4946594163437492	-7.86461145905516e-22
-0.4945983811874992	-7.861177609458519e-22
-0.4945373460312492	-7.857520968502463e-22
-0.4944763108749992	-7.853638321309945e-22
-0.4944152757187492	-7.849527425041885e-22
-0.4943542405624992	-7.845187215695574e-22
-0.4942932054062492	-7.840617927497504e-22
-0.4942321702499992	-7.835821112972674e-22
-0.4941711350937492	-7.830799562381878e-22
-0.4941100999374992	-7.8255571274103e-22
-0.4940490647812492	-7.820098458954943e-22
-0.4939880296249992	-7.814428679433179e-22
-0.4939269944687492	-7.808553011498914e-22
-0.4938659593124992	-7.802476386117122e-22
-0.4938049241562492	-7.7962030650028705e-22
-0.4937438889999992	-7.789736311666523e-22
-0.4936828538437492	-7.783078130902508e-22
-0.4936218186874992	-7.776229097040038e-22
-0.4935607835312492	-7.76918829394188e-22
-0.4934997483749992	-7.761953374160618e-22
-0.4934387132187492	-7.754520729393188e-22
-0.4933776780624992	-7.746885756923886e-22
-0.4933166429062492	-7.739043200227854e-22
-0.4932556077499992	-7.730987541921208e-22
-0.4931945725937492	-7.7227134243554665e-22
-0.4931335374374992	-7.714216068452895e-22
-0.4930725022812492	-7.705491656836402e-22
-0.4930114671249992	-7.696537640681296e-22
-0.4929504319687492	-7.687352948185963e-22
-0.4928893968124992	-7.677938087416391e-22
-0.4928283616562492	-7.668295126033923e-22
-0.4927673264999992	-7.658427546152838e-22
-0.4927062913437492	-7.648339997893815e-22
-0.4926452561874992	-7.638037971415558e-22
-0.4925842210312492	-7.627527403439833e-22
-0.4925231858749992	-7.6168142440161e-22
-0.4924621507187492	-7.605904024333371e-22
-0.4924011155624992	-7.594801466116911e-22
-0.4923400804062492	-7.583510151010168e-22
-0.4922790452499992	-7.572032273104177e-22
-0.4922180100937492	-7.560368503737163e-22
-0.4921569749374992	-7.548517973604851e-22
-0.4920959397812492	-7.536478371246141e-22
-0.4920349046249992	-7.524246155055085e-22
-0.4919738694687492	-7.511816856961066e-22
-0.4919128343124992	-7.499185449084842e-22
-0.4918517991562492	-7.486346752767519e-22
-0.4917907639999992	-7.473295860395903e-22
-0.4917297288437492	-7.460028525302014e-22
-0.4916686936874992	-7.446541489080624e-22
-0.4916076585312492	-7.432832730782354e-22
-0.4915466233749992	-7.418901621002762e-22
-0.4914855882187492	-7.404748969111873e-22
-0.4914245530624992	-7.390376962724843e-22
-0.4913635179062492	-7.375789002245497e-22
-0.4913024827499992	-7.360989436484675e-22
-0.4912414475937492	-7.345983222833949e-22
-0.4911804124374992	-7.330775553613933e-22
-0.4911193772812492	-7.31537148363976e-22
-0.4910583421249992	-7.299775577501082e-22
-0.4909973069687492	-7.283991596032898e-22
-0.4909362718124992	-7.268022250941939e-22
-0.4908752366562492	-7.251869051017604e-22
-0.4908142014999992	-7.235532246048828e-22
-0.4907531663437492	-7.219010872334845e-22
-0.4906921311874992	-7.202302904983823e-22
-0.4906310960312492	-7.185405495838502e-22
-0.4905700608749992	-7.1683152569043295e-22
-0.4905090257187492	-7.151028567444396e-22
-0.4904479905624992	-7.133541896153985e-22
-0.4903869554062492	-7.115852119302809e-22
-0.4903259202499992	-7.097956806386992e-22
-0.4902648850937492	-7.079854438868884e-22
-0.4902038499374992	-7.061544536760774e-22
-0.4901428147812492	-7.04302769401559e-22
-0.4900817796249992	-7.024305529532016e-22
-0.4900207444687492	-7.005380557779434e-22
-0.4899597093124992	-6.986255990740097e-22
-0.4898986741562492	-6.966935481667622e-22
-0.4898376389999992	-6.947422829953659e-22
-0.4897766038437492	-6.9277216914738205e-22
-0.4897155686874992	-6.907835324003794e-22
-0.4896545335312492	-6.887766365554448e-22
-0.4895934983749992	-6.867516658519812e-22
-0.4895324632187492	-6.847087147645923e-22
-0.4894714280624992	-6.826477863604345e-22
-0.4894103929062492	-6.805687989158585e-22
-0.4893493577499992	-6.784715997740642e-22
-0.4892883225937492	-6.763559847090992e-22
-0.4892272874374992	-6.742217215248238e-22
-0.4891662522812492	-6.720685766741227e-22
-0.4891052171249992	-6.698963414891712e-22
-0.4890441819687492	-6.677048552227145e-22
-0.4889831468124992	-6.654940236847369e-22
-0.4889221116562492	-6.63263831491497e-22
-0.4888610764999992	-6.610143472407786e-22
-0.4888000413437492	-6.5874572189152445e-22
-0.4887390061874992	-6.564581799451566e-22
-0.4886779710312492	-6.54152003972462e-22
-0.4886169358749992	-6.518275139711752e-22
-0.4885559007187492	-6.494850432483575e-22
-0.4884948655624992	-6.471249129387524e-22
-0.4884338304062492	-6.44747407776269e-22
-0.4883727952499992	-6.42352755116392e-22
-0.4883117600937492	-6.399411083945571e-22
-0.4882507249374992	-6.375125381340813e-22
-0.4881896897812492	-6.35067032257452e-22
-0.4881286546249992	-6.326045029063975e-22
-0.4880676194687492	-6.301247984724665e-22
-0.4880065843124992	-6.276277213649547e-22
-0.4879455491562492	-6.251130510337894e-22
-0.4878845139999992	-6.225805706592369e-22
-0.4878234788437492	-6.200300931660566e-22
-0.4877624436874992	-6.174614835586005e-22
-0.4877014085312492	-6.1487467721709405e-22
-0.4876403733749992	-6.1226969198192175e-22
-0.4875793382187492	-6.096466322066198e-22
-0.4875183030624992	-6.070056856522594e-22
-0.4874572679062492	-6.043471137959616e-22
-0.4873962327499992	-6.01671235321465e-22
-0.4873351975937492	-5.98978404709167e-22
-0.4872741624374992	-5.962689879857265e-22
-0.4872131272812492	-5.93543336007179e-22
-0.4871520921249992	-5.908017585549853e-22
-0.4870910569687492	-5.880445031912253e-22
-0.4870300218124992	-5.852717395519092e-22
-0.4869689866562492	-5.824835507145843e-22
-0.4869079514999992	-5.796799329670799e-22
-0.4868469163437492	-5.768608023685993e-22
-0.4867858811874992	-5.740260072394055e-22
-0.4867248460312492	-5.711753464436439e-22
-0.4866638108749992	-5.683085923472455e-22
-0.4866027757187492	-5.654255162572581e-22
-0.4865417405624992	-5.62525914029405e-22
-0.4864807054062492	-5.596096302769698e-22
-0.4864196702499992	-5.566765786239171e-22
-0.4863586350937492	-5.53726756420735e-22
-0.4862975999374992	-5.507602534639011e-22
-0.4862365647812492	-5.477772514499325e-22
-0.4861755296249992	-5.44778012449649e-22
-0.4861144944687492	-5.417628612695343e-22
-0.4860534593124992	-5.387321662586324e-22
-0.4859924241562492	-5.356863163448612e-22
-0.4859313889999992	-5.3262569315210745e-22
-0.4858703538437492	-5.295506434531536e-22
-0.4858093186874992	-5.264614559675535e-22
-0.4857482835312492	-5.233583429852762e-22
-0.4856872483749992	-5.202414286187466e-22
-0.4856262132187492	-5.171107456821297e-22
-0.4855651780624992	-5.139662404492559e-22
-0.4855041429062492	-5.10807783974031e-22
-0.4854431077499992	-5.076351895185883e-22
-0.4853820725937492	-5.044482353794434e-22
-0.4853210374374992	-5.01246691222176e-22
-0.4852600022812492	-4.980303447616602e-22
-0.4851989671249992	-4.947990268451076e-22
-0.4851379319687492	-4.915526342186061e-22
-0.4850768968124992	-4.882911475712391e-22
-0.4850158616562492	-4.850146416347037e-22
-0.4849548264999992	-4.817232854561711e-22
-0.4848937913437492	-4.784173346115978e-22
-0.4848327561874992	-4.750971187619584e-22
-0.4847717210312492	-4.717630226832414e-22
-0.4847106858749992	-4.684154588877803e-22
-0.4846496507187492	-4.65054838363841e-22
-0.4845886155624992	-4.61681544474906e-22
-0.4845275804062492	-4.582959075185568e-22
-0.4844665452499992	-4.548981812359262e-22
-0.4844055100937492	-4.514885271226191e-22
-0.4843444749374992	-4.480670078989438e-22
-0.4842834397812492	-4.446335886977353e-22
-0.4842224046249992	-4.411881465259524e-22
-0.4841613694687492	-4.377304884102868e-22
-0.4841003343124992	-4.342603752503899e-22
-0.4840392991562492	-4.307775487662278e-22
-0.4839782639999992	-4.272817617333368e-22
-0.4839172288437492	-4.237728089557214e-22
-0.4838561936874992	-4.2025055355438157e-22
-0.4837951585312492	-4.167149463775642e-22
-0.4837341233749992	-4.1316603905400653e-22
-0.4836730882187492	-4.0960398943383295e-22
-0.4836120530624992	-4.0602905722054814e-22
-0.4835510179062492	-4.0244159002233766e-22
-0.4834899827499992	-3.988420022630669e-22
-0.4834289475937492	-3.9523074892450175e-22
-0.4833679124374992	-3.916082952349518e-22
-0.4833068772812492	-3.879750845040883e-22
-0.4832458421249992	-3.843315071069051e-22
-0.4831848069687492	-3.806778741501212e-22
-0.4831237718124992	-3.7701439905050354e-22
-0.4830627366562492	-3.733411876887199e-22
-0.4830017014999992	-3.6965823682130535e-22
-0.4829406663437492	-3.6596544069572357e-22
-0.4828796311874992	-3.622626059907997e-22
-0.4828185960312492	-3.58549474816812e-22
-0.4827575608749992	-3.5482575354935813e-22
-0.4826965257187492	-3.5109114587413664e-22
-0.4826354905624992	-3.473453875208765e-22
-0.4825744554062492	-3.4358827698581573e-22
-0.4825134202499992	-3.398197006257712e-22
-0.4824523850937492	-3.360396531343975e-22
-0.4823913499374992	-3.322482492190109e-22
-0.4823303147812492	-3.2844572324884217e-22
-0.4822692796249992	-3.246324192541935e-22
-0.4822082444687492	-3.2080877257272475e-22
-0.4821472093124992	-3.169752829532543e-22
-0.4820861741562492	-3.131324814752565e-22
-0.4820251389999992	-3.0928089476017305e-22
-0.4819641038437492	-3.0542100940973026e-22
-0.4819030686874992	-3.0155323896953426e-22
-0.4818420335312492	-2.976778962939542e-22
-0.4817809983749992	-2.9379517460686288e-22
-0.4817199632187492	-2.899051388520006e-22
-0.4816589280624992	-2.860077278905322e-22
-0.4815978929062492	-2.8210276676600653e-22
-0.4815368577499992	-2.781899875340288e-22
-0.4814758225937492	-2.7426905824179037e-22
-0.4814147874374992	-2.7033961823166072e-22
-0.4813537522812492	-2.664013166599234e-22
-0.4812927171249992	-2.6245385187214863e-22
-0.4812316819687492	-2.584970071998814e-22
-0.4811706468124992	-2.5453067745960454e-22
-0.4811096116562492	-2.5055488569527823e-22
-0.4810485764999992	-2.4656979167674026e-22
-0.4809875413437492	-2.4257568989673014e-22
-0.4809265061874992	-2.385729962274024e-22
-0.4808654710312492	-2.3456222445563723e-22
-0.4808044358749992	-2.305439540067301e-22
-0.4807434007187492	-2.2651879253795395e-22
-0.4806823655624992	-2.224873359089916e-22
-0.4806213304062492	-2.1845012729466303e-22
-0.4805602952499992	-2.1440762178640565e-22
-0.4804992600937492	-2.1036016042579299e-22
-0.4804382249374992	-2.0630795068452571e-22
-0.4803771897812492	-2.0225105379811206e-22
-0.4803161546249992	-1.9818938523408284e-22
-0.4802551194687492	-1.9412273041930665e-22
-0.4801940843124992	-1.900507706839162e-22
-0.4801330491562492	-1.8597311522562376e-22
-0.4800720139999992	-1.818893381524506e-22
-0.4800109788437492	-1.777990189653604e-22
-0.4799499436874992	-1.7370178447511613e-22
-0.4798889085312492	-1.695973480020638e-22
-0.4798278733749992	-1.6548554157883282e-22
-0.4797668382187492	-1.6136633997327315e-22
-0.4797058030624992	-1.5723987334007008e-22
-0.4796447679062492	-1.5310642682484815e-22
-0.4795837327499992	-1.489664297195473e-22
-0.4795226975937492	-1.44820433945669e-22
-0.4794616624374992	-1.4066908118075646e-22
-0.4794006272812492	-1.3651306185781423e-22
-0.4793395921249992	-1.3235307126055804e-22
-0.4792785569687492	-1.281897668762396e-22
-0.4792175218124992	-1.2402372765204562e-22
-0.4791564866562492	-1.198554169522764e-22
-0.4790954514999992	-1.1568515434306292e-22
-0.4790344163437492	-1.115130988030206e-22
-0.4789733811874992	-1.0733924303660045e-22
-0.4789123460312492	-1.0316341915250614e-22
-0.4788513108749992	-9.898531676414556e-23
-0.4787902757187492	-9.480451284042304e-23
-0.4787292405624992	-9.06205098262484e-23
-0.4786682054062492	-8.64327789594344e-23
-0.4786071702499992	-8.224080681624063e-23
-0.4785461350937492	-7.804414146121321e-23
-0.4784850999374992	-7.38424336372695e-23
-0.4784240647812492	-6.96354699095957e-23
-0.4783630296249992	-6.54231974422484e-23
-0.4783019944687492	-6.12057400992733e-23
-0.4782409593124992	-5.698340142304611e-23
-0.4781799241562492	-5.2756652260311067e-23
-0.4781188889999992	-4.852610762475974e-23
-0.4780578538437492	-4.429249574291794e-23
-0.4779968186874992	-4.00566182730654e-23
-0.4779357835312492	-3.581930285762657e-23
-0.4778747483749992	-3.15813532357388e-23
-0.4778137132187492	-2.734350248399911e-23
-0.4777526780624992	-2.3106371600816196e-23
-0.4776916429062492	-1.8870435141686873e-23
-0.4776306077499992	-1.4635996481541347e-23
-0.4775695725937492	-1.0403173774592028e-23
-0.4775085374374992	-6.171897728231946e-24
-0.4774475022812492	-1.9419216962660342e-24
-0.4773864671249992	2.2871574779996746e-24
-0.4773254319687492	6.51586840209822e-24
-0.4772643968124992	1.0744825364072166e-23
-0.4772033616562492	1.497468466049345e-23
-0.4771423264999992	1.9206099678285028e-23
-0.4770812913437492	2.3439675458982266e-23
-0.4770202561874992	2.767592545786559e-23
-0.4769592210312492	3.1915233132309e-23
-0.4768981858749992	3.615782008952096e-23
-0.4768371507187492	4.040372365689011e-23
-0.4767761155624992	4.465278561351796e-23
-0.4767150804062492	4.890465055355821e-23
-0.4766540452499992	5.315877433474388e-23
-0.4765930100937492	5.741444480007327e-23
-0.4765319749374992	6.167081345932759e-23
-0.4764709397812492	6.592693529733779e-23
-0.4764099046249992	7.018181531351238e-23
-0.4763488694687492	7.443446127210022e-23
-0.4762878343124992	7.868393891344983e-23
-0.4762267991562492	8.29294227276023e-23
-0.4761657639999992	8.717023960479261e-23
-0.4761047288437492	9.140590636567939e-23
-0.4760436936874992	9.563615761332252e-23
-0.4759826585312492	9.986095745508573e-23
-0.4759216233749992	1.0408049515484921e-22
-0.4758605882187492	1.0829516918082782e-22
-0.4757995530624992	1.1250555889304649e-22
-0.4757385179062492	1.1671238112210326e-22
-0.4756774827499992	1.2091643505031692e-22
-0.4756164475937492	1.251185414984526e-22
-0.4755554124374992	1.2931948071289643e-22
-0.4754943772812492	1.3351993214993494e-22
-0.4754333421249992	1.3772042081829145e-22
-0.4753723069687492	1.4192127462582375e-22
-0.4753112718124992	1.4612259422723902e-22
-0.4752502366562492	1.5032423659968497e-22
-0.4751892014999992	1.545258168238849e-22
-0.4751281663437492	1.5872673001952808e-22
-0.4750671311874992	1.629261883938462e-22
-0.4750060960312492	1.6712326963326376e-22
-0.4749450608749992	1.71316977460719e-22
-0.4748840257187492	1.755063093966549e-22
-0.4748229905624992	1.7969032340179148e-22
-0.4747619554062492	1.8386820020242652e-22
-0.4747009202499992	1.8803929732310902e-22
-0.4746398850937492	1.9220318920044726e-22
-0.4745788499374992	1.963596899828545e-22
-0.4745178147812492	2.005088567044468e-22
-0.4744567796249992	2.0465097317421828e-22
-0.4743957444687492	2.0878651715540615e-22
-0.4743347093124992	2.129161130795559e-22
-0.4742736741562492	2.170404730851808e-22
-0.4742126389999992	2.2116033001060476e-22
-0.4741516038437492	2.252763672733121e-22
-0.4740905686874992	2.2938915311184567e-22
-0.4740295335312492	2.33499084918352e-22
-0.4739684983749992	2.376063454363136e-22
-0.4739074632187492	2.417108747798885e-22
-0.4738464280624992	2.458123641541557e-22
-0.4737853929062492	2.4991027186957463e-22
-0.4737243577499992	2.5400385798127823e-22
-0.4736633225937492	2.5809223391954003e-22
-0.4736022874374992	2.6217442364632826e-22
-0.4735412522812492	2.6624943283207833e-22
-0.4734802171249992	2.7031632108883237e-22
-0.4734191819687492	2.7437427088592787e-22
-0.4733581468124992	2.784226473097234e-22
-0.4732971116562492	2.8246104347150277e-22
-0.4732360764999992	2.8648930718137603e-22
-0.4731750413437492	2.9050754622334895e-22
-0.4731140061874992	2.9451611254927494e-22
-0.4730529710312492	2.985155678154859e-22
-0.4729919358749992	3.0250663153472723e-22
-0.4729309007187492	3.0649011433525028e-22
-0.4728698655624992	3.1046684376918185e-22
-0.4728088304062492	3.1443758985497693e-22
-0.4727477952499992	3.184029940184301e-22
-0.4726867600937492	3.223635061552048e-22
-0.4726257249374992	3.26319335458089e-22
-0.4725646897812492	3.3027041914782785e-22
-0.4725036546249992	3.342164133605276e-22
-0.4724426194687492	3.3815670843929176e-22
-0.4723815843124992	3.4209046666721015e-22
-0.4723205491562492	3.4601667847906024e-22
-0.4722595139999992	3.499342329065114e-22
-0.4721984788437492	3.538419974011893e-22
-0.4721374436874992	3.5773890052459115e-22
-0.4720764085312492	3.6162401111570057e-22
-0.4720153733749992	3.654966076341534e-22
-0.4719543382187492	3.693562313043432e-22
-0.4718933030624992	3.732027190531996e-22
-0.4718322679062492	3.770362130077398e-22
-0.4717712327499992	3.808571445475834e-22
-0.4717101975937492	3.8466619469436103e-22
