Time	Frequency
-0.5000457686562498	-0.6281738811983483
-0.49998473349999983	-0.6271410729291174
-0.49992369834374983	-0.6260947480878871
-0.49986266318749983	-0.6250353161833696
-0.49980162803124983	-0.6239630467388714
-0.49974059287499983	-0.6228780461197334
-0.49967955771874983	-0.6217802498137104
-0.49961852256249983	-0.6206694316600002
-0.49955748740624983	-0.6195452291025498
-0.49949645224999983	-0.6184071801357159
-0.49943541709374983	-0.6172547688763682
-0.49937438193749983	-0.6160874768518253
-0.49931334678124983	-0.6149048339695332
-0.49925231162499983	-0.613706463629802
-0.49919127646874983	-0.6124921191096387
-0.49913024131249983	-0.611261708362571
-0.49906920615624983	-0.6100153043135441
-0.49900817099999983	-0.6087531393581307
-0.49894713584374983	-0.6074755843375006
-0.49888610068749983	-0.6061831144601173
-0.49882506553124983	-0.6048762662499683
-0.49876403037499983	-0.6035555892141959
-0.49870299521874983	-0.602221596488382
-0.49864196006249983	-0.6008747195297721
-0.49858092490624983	-0.5995152712296793
-0.49851988974999983	-0.5981434202992394
-0.49845885459374983	-0.5967591790195116
-0.49839781943749983	-0.5953624063378963
-0.49833678428124983	-0.5939528253188735
-0.49827574912499983	-0.5925300523463926
-0.49821471396874983	-0.5910936365547994
-0.49815367881249983	-0.5896431055756678
-0.49809264365624983	-0.5881780125658874
-0.49803160849999983	-0.5866979811247383
-0.49797057334374983	-0.58520274372196
-0.49790953818749983	-0.5836921688444641
-0.49784850303124983	-0.5821662744170765
-0.49778746787499983	-0.5806252271382304
-0.49772643271874983	-0.5790693287191028
-0.49766539756249983	-0.5774989908017082
-0.49760436240624983	-0.5759146994001342
-0.49754332724999983	-0.5743169707570187
-0.49748229209374983	-0.5727063042978446
-0.49742125693749983	-0.5710831386621331
-0.49736022178124983	-0.5694478145276276
-0.49729918662499983	-0.567800546457721
-0.49723815146874983	-0.5661414061953742
-0.49717711631249983	-0.5644703200868877
-0.49711608115624983	-0.5627870805893962
-0.49705504599999983	-0.561091370285037
-0.49699401084374983	-0.5593827968801633
-0.49693297568749983	-0.5576609354432417
-0.49687194053124983	-0.5559253729431604
-0.49681090537499983	-0.5541757516063563
-0.49674987021874983	-0.5524118076531199
-0.49668883506249983	-0.5506334004001189
-0.49662779990624983	-0.5488405280321957
-0.49656676474999983	-0.5470333302027396
-0.49650572959374983	-0.5452120787385402
-0.49644469443749983	-0.5433771557846173
-0.49638365928124983	-0.5415290197144222
-0.49632262412499983	-0.5396681626670576
-0.49626158896874983	-0.5377950647480821
-0.49620055381249983	-0.5359101501655185
-0.49613951865624983	-0.5340137493580237
-0.49607848349999983	-0.5321060696095968
-0.49601744834374983	-0.5301871780293589
-0.49595641318749983	-0.5282569996488548
-0.49589537803124983	-0.5263153294630052
-0.49583434287499983	-0.5243618566621158
-0.49577330771874983	-0.5223961996986682
-0.49571227256249983	-0.520417949053918
-0.49565123740624983	-0.5184267132383447
-0.49559020224999983	-0.5164221632637466
-0.49552916709374983	-0.514404070723798
-0.49546813193749983	-0.5123723356483566
-0.49540709678124983	-0.5103270018540457
-0.49534606162499983	-0.5082682581992833
-0.49528502646874983	-0.506196425038201
-0.49522399131249983	-0.5041119270135153
-0.49516295615624983	-0.5020152545587858
-0.49510192099999983	-0.499906917776901
-0.49504088584374983	-0.4977873984251115
-0.49497985068749983	-0.49565710577072536
-0.49491881553124983	-0.4935163394779283
-0.49485778037499983	-0.4913652619303972
-0.49479674521874983	-0.4892038843801722
-0.49473571006249983	-0.4870320693671134
-0.49467467490624983	-0.4848495473769239
-0.49461363974999983	-0.4826559459858652
-0.49455260459374983	-0.48045083113358145
-0.49449156943749983	-0.4782337571989732
-0.49443053428124983	-0.47600431838064095
-0.49436949912499983	-0.473762194645646
-0.49430846396874983	-0.47150718943535075
-0.49424742881249983	-0.4692392566456208
-0.49418639365624983	-0.46695851311209474
-0.49412535849999983	-0.4646652341014728
-0.49406432334374983	-0.4623598319751939
-0.49400328818749983	-0.460042820952638
-0.49394225303124983	-0.45771477190876475
-0.49388121787499983	-0.45537626060065944
-0.49382018271874983	-0.45302781405783266
-0.49375914756249983	-0.45066986126380854
-0.49369811240624983	-0.44830269292488073
-0.49363707724999983	-0.4459264344687269
-0.49357604209374983	-0.443541036830021
-0.49351500693749983	-0.4411462860472076
-0.49345397178124983	-0.438741828314022
-0.49339293662499983	-0.4363272083577056
-0.49333190146874983	-0.43390191930591887
-0.49327086631249983	-0.4314654589377503
-0.49320983115624983	-0.4290173864641733
-0.49314879599999983	-0.426557373914951
-0.49308776084374983	-0.42408524631953687
-0.49302672568749983	-0.4216010067094572
-0.49296569053124983	-0.4191048437392474
-0.49290465537499983	-0.41659712073551763
-0.49284362021874983	-0.4140783463050305
-0.49278258506249983	-0.41154912982570957
-0.49272154990624983	-0.4090101272870917
-0.49266051474999983	-0.4064619821302121
-0.49259947959374983	-0.4039052657937698
-0.49253844443749983	-0.40134042440556683
-0.49247740928124983	-0.3987677380301138
-0.49241637412499983	-0.3961872966434426
-0.49235533896874983	-0.3935989952168557
-0.49229430381249983	-0.3910025486069546
-0.49223326865624983	-0.38839752421899953
-0.49217223349999983	-0.38578338892048575
-0.49211119834374983	-0.3831595666758443
-0.49205016318749983	-0.3805255019807194
-0.49198912803124983	-0.3778807221112088
-0.49192809287499983	-0.37522489090733646
-0.49186705771874983	-0.37255784867286673
-0.49180602256249983	-0.36987963549741004
-0.49174498740624983	-0.36719049548781607
-0.49168395224999983	-0.36449085996628633
-0.49162291709374983	-0.3617813122367149
-0.49156188193749983	-0.359062537947232
-0.49150084678124983	-0.35633526377273517
-0.49143981162499983	-0.35360019031437134
-0.49137877646874983	-0.35085792843442914
-0.49131774131249983	-0.34810894528806685
-0.49125670615624983	-0.3453535229363804
-0.49119567099999983	-0.34259173458389913
-0.49113463584374983	-0.3398234422562316
-0.49107360068749983	-0.3370483147047202
-0.49101256553124983	-0.33426586424913834
-0.49095153037499983	-0.33147550053622327
-0.49089049521874983	-0.32867659525373805
-0.49082946006249983	-0.3258685504902327
-0.49076842490624983	-0.32305086458385185
-0.49070738974999983	-0.3202231885511202
-0.49064635459374983	-0.3173853659902897
-0.49058531943749983	-0.3145374543140197
-0.49052428428124983	-0.311679727175318
-0.49046324912499983	-0.30881265609525116
-0.49040221396874983	-0.30593687117706736
-0.49034117881249983	-0.30305310484252274
-0.49028014365624983	-0.3001621259453114
-0.49021910849999983	-0.2972646712451956
-0.49015807334374983	-0.29436137948885926
-0.49009703818749983	-0.2914527340492775
-0.49003600303124983	-0.288539020613992
-0.48997496787499983	-0.2856203053073634
-0.48991393271874983	-0.28269643475223066
-0.48985289756249983	-0.27976705748629926
-0.48979186240624983	-0.2768316655398306
-0.48973082724999983	-0.2738896509461129
-0.48966979209374983	-0.270940370930041
-0.48960875693749983	-0.26798321752491666
-0.48954772178124983	-0.26501768518092506
-0.48948668662499983	-0.2620434272396389
-0.48942565146874983	-0.25906029587870005
-0.48936461631249983	-0.2560683637626718
-0.48930358115624983	-0.25306792385164445
-0.48924254599999983	-0.25005946680722285
-0.48918151084374983	-0.24704364059004402
-0.48912047568749983	-0.24402119480191697
-0.48905944053124983	-0.24099291325672245
-0.48899840537499983	-0.23795954337102543
-0.48893737021874983	-0.23492172977803777
-0.48887633506249983	-0.231879957140457
-0.48881529990624983	-0.22883450881001147
-0.48875426474999983	-0.22578544720779178
-0.48869322959374983	-0.22273261543303513
-0.48863219443749983	-0.21967565789925075
-0.48857115928124983	-0.21661406178931172
-0.48851012412499983	-0.21354721602823662
-0.48844908896874983	-0.21047447790865825
-0.48838805381249983	-0.20739524147192667
-0.48832701865624983	-0.20430900393807253
-0.48826598349999983	-0.20121542353359007
-0.48820494834374983	-0.19811436137737953
-0.48814391318749983	-0.1950059019085034
-0.48808287803124983	-0.19189034980134204
-0.48802184287499983	-0.18876820485463178
-0.48796080771874983	-0.18564011888589393
-0.48789977256249983	-0.1825068395989495
-0.48783873740624983	-0.1793691451421919
-0.48777770224999983	-0.17622777430383382
-0.48771666709374983	-0.17308336073666267
-0.48765563193749983	-0.16993637800731892
-0.48759459678124983	-0.16678709976001907
-0.48753356162499983	-0.163635580535125
-0.48747252646874983	-0.1604816594063897
-0.48741149131249983	-0.1573249830261445
-0.48735045615624983	-0.15416504689307955
-0.48728942099999983	-0.1510012536631428
-0.48722838584374983	-0.14783297989999356
-0.48716735068749983	-0.14465964263431472
-0.48710631553124983	-0.14148076209115856
-0.48704528037499983	-0.1382960157420218
-0.48698424521874983	-0.13510527770647554
-0.48692321006249983	-0.13190863903019834
-0.48686217490624983	-0.1287064058279569
-0.48680113974999983	-0.12549907541354796
-0.48674010459374983	-0.12228729340904149
-0.48667906943749983	-0.1190717973091756
-0.48661803428124983	-0.11585335295427467
-0.48655699912499983	-0.11263268906959338
-0.48649596396874983	-0.109410435177694
-0.48643492881249983	-0.10618706806069647
-0.48637389365624983	-0.10296287243677632
-0.48631285849999983	-0.09973792216664598
-0.48625182334374983	-0.09651208287733816
-0.48619078818749983	-0.09328503223698371
-0.48612975303124983	-0.09005629685097442
-0.48606871787499983	-0.08682530471483596
-0.48600768271874983	-0.083591446781021
-0.48594664756249983	-0.08035414047848252
-0.48588561240624983	-0.07711289052336681
-0.48582457724999983	-0.07386734203209243
-0.48576354209374983	-0.07061732044305809
-0.48570250693749983	-0.06736285418913976
-0.48564147178124983	-0.06410417857213367
-0.48558043662499983	-0.06084172106862247
-0.48551940146874983	-0.05757606835928564
-0.48545836631249983	-0.05430791753454955
-0.48539733115624983	-0.05103801789280384
-0.48533629599999983	-0.047767109636691736
-0.48527526084374983	-0.04449586438608381
-0.48521422568749983	-0.04122483256560258
-0.48515319053124983	-0.03795440150556598
-0.48509215537499983	-0.034684767680517745
-0.48503112021874983	-0.031415926625939894
-0.48497008506249983	-0.02814768176365048
-0.48490904990624983	-0.024879669896913467
-0.48484801474999983	-0.02161139950877611
-0.48478697959374983	-0.018342298988746578
-0.48472594443749983	-0.015071771419051732
-0.48466490928124983	-0.011799251078042918
-0.48460387412499983	-0.008524256669232066
-0.48454283896874983	-0.005246436002550614
-0.48448180381249983	-0.0019655989378692955
-0.48442076865624983	0.0013182626424056904
-0.48435973349999983	0.004604970348283533
-0.48429869834374983	0.007894170471308333
-0.48423766318749983	0.011185357566732805
-0.48417662803124983	0.014477908639311183
-0.48411559287499983	0.01777112579449296
-0.48405455771874983	0.021064282989222353
-0.48399352256249983	0.024356672458560855
-0.48393248740624983	0.02764764690467048
-0.48387145224999983	0.03093665624190956
-0.48381041709374983	0.034223278058091965
-0.48374938193749983	0.03750723761820862
-0.48368834678124983	0.04078841489432365
-0.48362731162499983	0.044066841007968566
-0.48356627646874983	0.04734268731823789
-0.48350524131249983	0.05061624800445812
-0.48344420615624983	0.05388791696736771
-0.48338317099999983	0.05715816100850782
-0.48332213584374983	0.060427489256099455
-0.48326110068749983	0.063696419397127
-0.48320006553124983	0.06696544365202377
-0.48313903037499983	0.07023499540214974
-0.48307799521874983	0.07350541658989099
-0.48301696006249983	0.0767769275559136
-0.48295592490624983	0.08004960248034673
-0.48289488974999983	0.08332335435451171
-0.48283385459374983	0.08659793111567761
-0.48277281943749983	0.08987292305509754
-0.48271178428124983	0.09314778081409318
-0.48265074912499983	0.09642184374428721
-0.48258971396874983	0.09969438005446424
-0.48252867881249983	0.10296463627687208
-0.48246764365624983	0.10623189021473449
-0.48240660849999983	0.10949550328943486
-0.48234557334374983	0.11275496847481249
-0.48228453818749983	0.11600994930860398
-0.48222350303124983	0.11926030609392527
-0.48216246787499983	0.1225061060705493
-0.48210143271874983	0.12574761591641925
-0.48204039756249983	0.1289852771405669
-0.48197936240624983	0.1322196659348755
-0.48191832724999983	0.13545143975295593
-0.48185729209374983	0.1386812738230182
-0.48179625693749983	0.14190979207199791
-0.48173522178124983	0.14513750042397908
-0.48167418662499983	0.14836473168168637
-0.48161315146874983	0.15159160604863256
-0.48155211631249983	0.15481800808773105
-0.48149108115624983	0.15804358350937003
-0.48143004599999983	0.16126776040127225
-0.48136901084374983	0.16448979336716177
-0.48130797568749983	0.16770882278902188
-0.48124694053124983	0.1709239451564559
-0.48118590537499983	0.17413429177186726
-0.48112487021874983	0.17733910613873818
-0.48106383506249983	0.18053781014082257
-0.48100279990624983	0.18373005377338472
-0.48094176474999983	0.18691574428169203
-0.48088072959374983	0.1900950519132249
-0.48081969443749983	0.19326839071163632
-0.48075865928124983	0.1964363741184867
-0.48069762412499983	0.19959974924780716
-0.48063658896874983	0.20275931742514014
-0.48057555381249983	0.2059158498799849
-0.48051451865624983	0.20907000627501557
-0.48045348349999983	0.21222226217725262
-0.48039244834374983	0.21537285228108183
-0.48033141318749983	0.2185217366640501
-0.48027037803124983	0.22166859515069923
-0.48020934287499983	0.22481285011299582
-0.48014830771874983	0.22795371378196486
-0.48008727256249983	0.23109025606231473
-0.48002623740624983	0.23422148852202415
-0.47996520224999983	0.23734645536179289
-0.47990416709374983	0.24046432035443954
-0.47984313193749983	0.24357444243447976
-0.47978209678124983	0.24667643334269385
-0.47972106162499983	0.24977019048536772
-0.47966002646874983	0.2528559011899619
-0.47959899131249983	0.25593401741674593
-0.47953795615624983	0.2590052035524437
-0.47947692099999983	0.2620702629042375
-0.47941588584374983	0.2651300494021349
-0.47935485068749983	0.2681853734612765
-0.47929381553124983	0.2712369120073954
-0.47923278037499983	0.27428513118233583
-0.47917174521874983	0.2773302302676278
-0.47911071006249983	0.28037211299737
-0.47904967490624983	0.28341038835622434
-0.47898863974999983	0.2864444019188862
-0.47892760459374983	0.28947329603805605
-0.47886656943749983	0.29249609177417935
-0.47880553428124983	0.29551178290939517
-0.47874449912499983	0.29851943378030993
-0.47868346396874983	0.3015182719285407
-0.47862242881249983	0.3045077638588131
-0.47856139365624983	0.30748766548360773
-0.47850035849999983	0.310458042681379
-0.47843932334374983	0.31341925810614063
-0.47837828818749983	0.3163719257129246
-0.47831725303124983	0.3193168396416879
-0.47825621787499983	0.32225488361826987
-0.47819518271874983	0.32518692889468703
-0.47813414756249983	0.3281137325265196
-0.47807311240624983	0.3310358465801433
-0.47801207724999983	0.33395354734964855
-0.47795104209374983	0.33686679359824195
-0.47789000693749983	0.33977521936236327
-0.47782897178124983	0.34267816153656117
-0.47776793662499983	0.3455747187771699
-0.47770690146874983	0.34846383671326603
-0.47764586631249983	0.35134441191013893
-0.47758483115624983	0.3542154028405416
-0.47752379599999983	0.3570759351729845
-0.47746276084374983	0.35992539067258084
-0.47740172568749983	0.3627634707416189
-0.47734069053124983	0.3655902277236525
-0.47727965537499983	0.36840605962582046
-0.47721862021874983	0.3712116677218549
-0.47715758506249983	0.37400798120362966
-0.47709654990624983	0.376796055921448
-0.47703551474999983	0.37957695737232605
-0.47697447959374983	0.38235164146831074
-0.47691344443749983	0.3851208456205098
-0.47685240928124983	0.38788500005437343
-0.47679137412499983	0.3906441685664568
-0.47673033896874983	0.3933980255921784
-0.47666930381249983	0.39614587252698374
-0.47660826865624983	0.3988866935226369
-0.47654723349999983	0.40161924707222635
-0.47648619834374983	0.4043421833173591
-0.47642516318749983	0.4070541737231717
-0.47636412803124983	0.4097540409333761
-0.47630309287499983	0.4124408767845284
-0.47624205771874983	0.415114136017079
-0.47618102256249983	0.4177736942384522
-0.47611998740624983	0.4204198623836992
-0.47605895224999983	0.42305335681702133
-0.47599791709374983	0.4256752281997466
-0.47593688193749983	0.42828675408678996
-0.47587584678124983	0.43088930559184835
-0.47581481162499983	0.4334842028667606
-0.47575377646874983	0.43607257390707443
-0.47569274131249983	0.438655229331971
-0.47563170615624983	0.4412325657811902
-0.47557067099999983	0.443804510292509
-0.47550963584374983	0.44637051263006766
-0.47544860068749983	0.4489295861018073
-0.47538756553124983	0.45148039371548376
-0.47532653037499983	0.45402137172564844
-0.47526549521874983	0.45655087769418506
-0.47520446006249983	0.45906734915457725
-0.47514342490624983	0.46156945792417226
-0.47508238974999983	0.46405624308170035
-0.47502135459374983	0.46652720829798633
-0.47496031943749983	0.4689823736834268
-0.47489928428124983	0.4714222760636682
-0.47483824912499983	0.47384791722012565
-0.47477721396874983	0.47626066395634475
-0.47471617881249983	0.4786621081903705
-0.47465514365624983	0.48105390196105213
-0.47459410849999983	0.48343758491863414
-0.47453307334374983	0.4858144206728679
-0.47447203818749983	0.4881852578886551
-0.47441100303124983	0.4905504309876389
-0.47434996787499983	0.4929097117854707
-0.47428893271874983	0.4952623174732124
-0.47422789756249983	0.4976069746648912
-0.47416686240624983	0.49994203454454106
-0.47410582724999983	0.5022656283884382
-0.47404479209374983	0.5045758479054521
-0.47398375693749983	0.5068709327706955
-0.47392272178124983	0.5091494468416979
-0.47386168662499983	0.5114104247031499
-0.47380065146874983	0.5136534722893888
-0.47373961631249983	0.5158788102401238
-0.47367858115624983	0.518087255473781
-0.47361754599999983	0.5202801425711042
-0.47355651084374983	0.5224591915631213
-0.47349547568749983	0.5246263337699496
-0.47343444053124983	0.5267835126688908
-0.47337340537499983	0.5289324803773664
-0.47331237021874983	0.5310746104197525
-0.47325133506249983	0.5332107456564398
-0.47319029990624983	0.535341097459972
-0.47312926474999983	0.53746520786362
-0.47306822959374983	0.5395819797331477
-0.47300719443749983	0.5416897718412023
-0.47294615928124983	0.5437865502288345
-0.47288512412499983	0.5458700829580787
-0.47282408896874983	0.547938159036898
-0.47276305381249983	0.5499888084567495
-0.47270201865624983	0.552020501004349
-0.47264098349999983	0.554032303940714
-0.47257994834374983	0.5560239820796273
-0.47251891318749983	0.5579960287364497
-0.47245787803124983	0.5599496228630416
-0.47239684287499983	0.5618865154331635
-0.47233580771874983	0.5638088554283461
-0.47227477256249983	0.5657189722515293
-0.47221373740624983	0.5676191363079984
-0.47215270224999983	0.569511322062494
-0.47209166709374983	0.5713969975104666
-0.47203063193749983	0.5732769615555816
-0.47196959678124983	0.5751512469926536
-0.47190856162499983	0.5770191001426729
-0.47184752646874983	0.5788790398086983
-0.47178649131249983	0.5807289912061162
-0.47172545615624983	0.5825664833565449
-0.47166442099999983	0.5843888901886515
-0.47160338584374983	0.5861936905667813
-0.47154235068749983	0.587978721537042
-0.47148131553124983	0.5897423992806787
-0.47142028037499983	0.5914838840858013
-0.47135924521874983	0.5932031711953275
-0.47129821006249983	0.594901097645958
-0.47123717490624983	0.5965792635359339
-0.47117613974999983	0.5982398746146859
-0.47111510459374983	0.5998855212171814
-0.47105406943749983	0.6015189146921943
-0.47099303428124983	0.6031426075654021
-0.47093199912499983	0.604758726692607
-0.47087096396874983	0.6063687473786845
-0.47080992881249983	0.6079733316867948
-0.47074889365624983	0.609572247647533
-0.47068785849999983	0.6111643788692772
-0.47062682334374983	0.6127478251819621
-0.47056578818749983	0.6143200847155857
-0.47050475303124983	0.6158782990634207
-0.47044371787499983	0.6174195369401597
-0.47038268271874983	0.6189410878261129
-0.47032164756249983	0.620440735622563
