Time	Frequency
-0.5000358003124994	-0.6585320979132389
-0.4999747651562494	-0.6606875175918349
-0.4999137299999994	-0.6628186956759473
-0.4998526948437494	-0.6649255300464133
-0.4997916596874994	-0.6670079367360466
-0.4997306245312494	-0.6690658526085406
-0.4996695893749994	-0.6710992377801961
-0.4996085542187494	-0.6731080757184063
-0.4995475190624994	-0.6750923707943387
-0.4994864839062494	-0.6770521441575034
-0.4994254487499994	-0.6789874286049903
-0.4993644135937494	-0.6808982627775916
-0.4993033784374994	-0.6827846839153816
-0.4992423432812494	-0.6846467195428312
-0.4991813081249994	-0.6864843800273479
-0.4991202729687494	-0.6882976524622655
-0.4990592378124994	-0.6900864955304343
-0.4989982026562494	-0.69185083575681
-0.4989371674999994	-0.6935905656774883
-0.4988761323437494	-0.695305544565377
-0.4988150971874994	-0.6969956020783221
-0.4987540620312494	-0.6986605442437093
-0.4986930268749994	-0.7003001610727277
-0.4986319917187494	-0.7019142356000921
-0.4985709565624994	-0.7035025538312754
-0.4985099214062494	-0.7050649147102954
-0.4984488862499994	-0.7066011395361006
-0.4983878510937494	-0.7081110802120278
-0.4983268159374994	-0.7095946255353913
-0.4982657807812494	-0.7110517052256515
-0.4982047456249994	-0.7124822915994886
-0.4981437104687494	-0.7138863983698143
-0.4980826753124994	-0.7152640761954466
-0.4980216401562494	-0.716615405441603
-0.4979606049999994	-0.7179404870467719
-0.4978995698437494	-0.7192394320782967
-0.4978385346874994	-0.7205123504355999
-0.4977774995312494	-0.7217593395840252
-0.4977164643749994	-0.7229804741867187
-0.4976554292187494	-0.7241757972184856
-0.4975943940624994	-0.7253453132643995
-0.4975333589062494	-0.7264889846835823
-0.4974723237499994	-0.7276067308609444
-0.4974112885937494	-0.7286984305043986
-0.4973502534374994	-0.7297639269594219
-0.4972892182812494	-0.7308030361914528
-0.4972281831249994	-0.7318155566300067
-0.4971671479687494	-0.732801280027032
-0.4971061128124994	-0.7337600026737361
-0.4970450776562494	-0.7346915363371727
-0.4969840424999994	-0.7355957181851289
-0.4969230073437494	-0.7364724189819272
-0.4968619721874994	-0.7373215489541072
-0.4968009370312494	-0.7381430608537513
-0.4967399018749994	-0.7389369498848032
-0.4966788667187494	-0.7397032505480015
-0.4966178315624994	-0.7404420308737938
-0.4965567964062494	-0.7411533845195962
-0.4964957612499994	-0.7418374211719926
-0.4964347260937494	-0.7424942560066399
-0.4963736909374994	-0.7431239991195128
-0.4963126557812494	-0.7437267455841219
-0.4962516206249994	-0.7443025668402248
-0.4961905854687494	-0.7448515041878861
-0.4961295503124994	-0.7453735647095757
-0.4960685151562494	-0.7458687197978165
-0.4960074799999994	-0.7463369065256491
-0.4959464448437494	-0.7467780317064937
-0.4958854096874994	-0.7471919780420216
-0.4958243745312494	-0.7475786117472883
-0.4957633393749994	-0.7479377912182046
-0.4957023042187494	-0.7482693761528936
-0.4956412690624994	-0.7485732364477659
-0.4955802339062494	-0.7488492602808045
-0.4955191987499994	-0.7490973605853839
-0.4954581635937494	-0.7493174793850442
-0.4953971284374994	-0.7495095900253891
-0.4953360932812494	-0.7496736971456214
-0.4952750581249994	-0.749809834245237
-0.4952140229687494	-0.7499180591945582
-0.4951529878124994	-0.7499984482745427
-0.4950919526562494	-0.7500510889794929
-0.4950309174999994	-0.7500760716716283
-0.4949698823437494	-0.7500734813727128
-0.4949088471874994	-0.7500433911138806
-0.4948478120312494	-0.7499858565269322
-0.4947867768749994	-0.7499009112198356
-0.4947257417187494	-0.7497885640356797
-0.4946647065624994	-0.7496487991142379
-0.4946036714062494	-0.7494815781134628
-0.4945426362499994	-0.7492868438828181
-0.4944816010937494	-0.7490645252294171
-0.4944205659374994	-0.7488145424168329
-0.4943595307812494	-0.7485368135085834
-0.4942984956249994	-0.7482312611007459
-0.4942374604687494	-0.7478978184989756
-0.4941764253124994	-0.7475364353455102
-0.4941153901562494	-0.7471470824898088
-0.4940543549999994	-0.7467297550272389
-0.4939933198437494	-0.7462844728532148
-0.4939322846874994	-0.7458112789198418
-0.4938712495312494	-0.745310236255728
-0.4938102143749994	-0.7447814242565847
-0.4937491792187494	-0.7442249335689985
-0.4936881440624994	-0.7436408597065696
-0.4936271089062494	-0.7430292962920396
-0.4935660737499994	-0.742390328874773
-0.4935050385937494	-0.7417240300416104
-0.4934440034374994	-0.7410304558779176
-0.4933829682812494	-0.7403096437931364
-0.4933219331249994	-0.7395616115491933
-0.4932608979687494	-0.7387863574910704
-0.4931998628124994	-0.7379838620560746
-0.4931388276562494	-0.7371540902726305
-0.4930777924999994	-0.7362969957445368
-0.4930167573437494	-0.7354125264814358
-0.4929557221874994	-0.7345006311926882
-0.4928946870312494	-0.7335612645883883
-0.4928336518749994	-0.7325943919297918
-0.4927726167187494	-0.7315999935386929
-0.4927115815624994	-0.7305780683344865
-0.4926505464062494	-0.729528635066117
-0.4925895112499994	-0.728451732268941
-0.4925284760937494	-0.727347418217883
-0.4924674409374994	-0.7262157697428155
-0.4924064057812494	-0.7250568783963638
-0.4923453706249994	-0.7238708445524781
-0.4922843354687494	-0.7226577719523464
-0.4922233003124994	-0.7214177634924217
-0.4921622651562494	-0.7201509168202411
-0.4921012299999994	-0.7188573202351052
-0.4920401948437494	-0.7175370498341729
-0.4919791596874994	-0.7161901673236233
-0.4919181245312494	-0.7148167189790431
-0.4918570893749994	-0.7134167365064791
-0.4917960542187494	-0.7119902388066365
-0.4917350190624994	-0.7105372336410699
-0.4916739839062494	-0.7090577204446431
-0.4916129487499994	-0.707551694839316
-0.4915519135937494	-0.7060191527186426
-0.4914908784374994	-0.7044600934957348
-0.4914298432812494	-0.70287452386894
-0.4913688081249994	-0.7012624617596294
-0.4913077729687494	-0.6996239389593415
-0.4912467378124994	-0.6979590017520125
-0.4911857026562494	-0.6962677101860245
-0.4911246674999994	-0.6945501367121495
-0.4910636323437494	-0.692806364435898
-0.4910025971874994	-0.6910364854168383
-0.4909415620312494	-0.6892405986047895
-0.4908805268749994	-0.6874188063581042
-0.4908194917187494	-0.6855712096898404
-0.4907584565624994	-0.6836979041640074
-0.4906974214062494	-0.6817989777819067
-0.4906363862499994	-0.6798745096036944
-0.4905753510937494	-0.6779245680087416
-0.4905143159374994	-0.6759492103961402
-0.4904532807812494	-0.6739484855802284
-0.4903922456249994	-0.6719224359235908
-0.4903312104687494	-0.6698710977889408
-0.4902701753124994	-0.6677945036569524
-0.4902091401562494	-0.665692686103438
-0.4901481049999994	-0.6635656807407748
-0.4900870698437494	-0.6614135288097767
-0.4900260346874994	-0.6592362801959896
-0.4899649995312494	-0.6570339958091965
-0.4899039643749994	-0.6548067496934021
-0.4898429292187494	-0.6525546298548309
-0.4897818940624994	-0.6502777364753911
-0.4897208589062494	-0.6479761795381057
-0.4896598237499994	-0.6456500765882978
-0.4895987885937494	-0.6432995495525854
-0.4895377534374994	-0.6409247213198327
-0.4894767182812494	-0.6385257125318501
-0.4894156831249994	-0.6361026385105705
-0.4893546479687494	-0.6336556065659699
-0.4892936128124994	-0.6311847138426708
-0.4892325776562494	-0.6286900461588546
-0.4891715424999994	-0.6261716775708647
-0.4891105073437494	-0.6236296705525415
-0.4890494721874994	-0.6210640775073847
-0.4889884370312494	-0.6184749435599418
-0.4889274018749994	-0.6158623100272534
-0.4888663667187494	-0.6132262180281159
-0.4888053315624994	-0.6105667116889631
-0.4887442964062494	-0.6078838409420594
-0.4886832612499994	-0.6051776651854592
-0.4886222260937494	-0.6024482581472951
-0.4885611909374994	-0.5996957105387395
-0.4885001557812494	-0.5969201284706576
-0.4884391206249994	-0.5941216315891663
-0.4883780854687494	-0.5913003528188762
-0.4883170503124994	-0.5884564366218025
-0.4882560151562494	-0.5855900361639922
-0.4881949799999994	-0.5827013104369738
-0.4881339448437494	-0.579790418779788
-0.4880729096874994	-0.5768575143399267
-0.4880118745312494	-0.573902740253683
-0.4879508393749994	-0.5709262279309866
-0.4878898042187494	-0.5679280958135063
-0.4878287690624994	-0.564908447957486
-0.4877677339062494	-0.5618673723292932
-0.4877066987499994	-0.5588049399312786
-0.4876456635937494	-0.555721206625548
-0.4875846284374994	-0.5526162185269444
-0.4875235932812494	-0.5494900183907137
-0.4874625581249994	-0.5463426502547559
-0.4874015229687494	-0.5431741640448619
-0.4873404878124994	-0.5399846207906382
-0.4872794526562494	-0.536774095586486
-0.4872184174999994	-0.5335426791138624
-0.4871573823437494	-0.5302904794952117
-0.4870963471874994	-0.5270176231714653
-0.4870353120312494	-0.5237242550692999
-0.4869742768749994	-0.5204105380813748
-0.4869132417187494	-0.5170766509271273
-0.4868522065624994	-0.5137227840658863
-0.4867911714062494	-0.5103491334104538
-0.4867301362499994	-0.5069558940879365
-0.4866691010937494	-0.5035432555500072
-0.4866080659374994	-0.5001113961534926
-0.4865470307812494	-0.49666047724270307
-0.4864859956249994	-0.4931906390940516
-0.4864249604687494	-0.489701999917637
-0.4863639253124994	-0.4861946575186685
-0.4863028901562494	-0.482668692070157
-0.4862418549999994	-0.47912416798158247
-0.4861808198437494	-0.4755611359351625
-0.4861197846874994	-0.47197963829560774
-0.4860587495312494	-0.46837971699407505
-0.4859977143749994	-0.4647614198936699
-0.4859366792187494	-0.46112480564882713
-0.4858756440624994	-0.45746994937567775
-0.4858146089062494	-0.4537969473563216
-0.4857535737499994	-0.4501059189880307
-0.4856925385937494	-0.44639700762928536
-0.4856315034374994	-0.4426703810789567
-0.4855704682812494	-0.43892623143514015
-0.4855094331249994	-0.4351647724630048
-0.4854483979687494	-0.4313862317949155
-0.4853873628124994	-0.42759084151343835
-0.4853263276562494	-0.4237788319285215
-0.4852652924999994	-0.4199504265974536
-0.4852042573437494	-0.4161058356017447
-0.4851432221874994	-0.41224524791423706
-0.4850821870312494	-0.4083688268859477
-0.4850211518749994	-0.4044767107796755
-0.4849601167187494	-0.4005690136676934
-0.4848990815624994	-0.3966458246313933
-0.4848380464062494	-0.3927072097219044
-0.4847770112499994	-0.38875321835917714
-0.4847159760937494	-0.3847838921264051
-0.4846549409374994	-0.3807992731149754
-0.4845939057812494	-0.37679940960440056
-0.4845328706249994	-0.3727843607343331
-0.4844718354687494	-0.36875420294881783
-0.4844108003124994	-0.3647090368154979
-0.4843497651562494	-0.36064899100344033
-0.4842887299999994	-0.3565742238466732
-0.4842276948437494	-0.3524849231948462
-0.4841666596874994	-0.34838130321696853
-0.4841056245312494	-0.34426359879460533
-0.4840445893749994	-0.34013205848191985
-0.4839835542187494	-0.3359869369905649
-0.4839225190624994	-0.33182848934877285
-0.4838614839062494	-0.3276569657029654
-0.4838004487499994	-0.3234726034923871
-0.4837394135937494	-0.31927561861789094
-0.4836783784374994	-0.31506620048371736
-0.4836173432812494	-0.31084451096155297
-0.4835563081249994	-0.3066106842941686
-0.4834952729687494	-0.3023648275730956
-0.4834342378124994	-0.29810702324562505
-0.4833732026562494	-0.2938373342477544
-0.4833121674999994	-0.2895558099313004
-0.4832511323437494	-0.2852624925080265
-0.4831900971874994	-0.2809574255693201
-0.4831290620312494	-0.27664066311697955
-0.4830680268749994	-0.27231227748510334
-0.4830069917187494	-0.26797236480757675
-0.4829459565624994	-0.2636210471078201
-0.4828849214062494	-0.25925847479251457
-0.4828238862499994	-0.2548848304120135
-0.4827628510937494	-0.2505003286203528
-0.4827018159374994	-0.2461052110576167
-0.4826407807812494	-0.24169973919940518
-0.4825797456249994	-0.23728418806068793
-0.4825187104687494	-0.23285884042116622
-0.4824576753124994	-0.22842397809029957
-0.4823966401562494	-0.22397987198325223
-0.4823356049999994	-0.21952677459169082
-0.4822745698437494	-0.21506491306267184
-0.4822135346874994	-0.21059448380700854
-0.4821524995312494	-0.2061156510649864
-0.4820914643749994	-0.20162854739867722
-0.4820304292187494	-0.19713327472031447
-0.4819693940624994	-0.19262990761863577
-0.4819083589062494	-0.18811849969382
-0.4818473237499994	-0.18359909049777381
-0.4817862885937494	-0.1790717128915628
-0.4817252534374994	-0.1745364029330183
-0.4816642182812494	-0.16999321094693276
-0.4816031831249994	-0.16544221037992898
-0.4815421479687494	-0.16088350356954756
-0.4814811128124994	-0.15631722646424337
-0.4814200776562494	-0.15174355210410378
-0.4813590424999994	-0.14716269089386835
-0.4812980073437494	-0.14257488858247722
-0.4812369721874994	-0.13798042123075377
-0.4811759370312494	-0.13337958628418342
-0.4811149018749994	-0.1287726932389162
-0.4810538667187494	-0.12416005488205667
-0.4809928315624994	-0.11954197784229775
-0.4809317964062494	-0.11491875248243376
-0.4808707612499994	-0.11029064292493952
-0.4808097260937494	-0.10565787951445918
-0.4807486909374994	-0.10102065428222244
-0.4806876557812494	-0.09637911907129752
-0.4806266206249994	-0.0917333863848496
-0.4805655854687494	-0.08708353296620858
-0.4805045503124994	-0.08242960735548395
-0.4804435151562494	-0.07777163976874452
-0.4803824799999994	-0.07310965109004687
-0.4803214448437494	-0.06844366208826524
-0.4802604096874994	-0.06377370455125843
-0.4801993745312494	-0.05909983275174751
-0.4801383393749994	-0.05442213393272606
-0.4800773042187494	-0.04974073613457352
-0.4800162690624994	-0.04505581080144987
-0.4799552339062494	-0.04036757190739441
-0.4798941987499994	-0.03567627263530966
-0.4798331635937494	-0.03098219772283562
-0.4797721284374994	-0.026285655477292974
-0.4797110932812494	-0.021586971975275156
-0.4796500581249994	-0.01688648131773477
-0.4795890229687494	-0.01218451081222125
-0.4795279878124994	-0.00748136778169988
-0.4794669526562494	-0.002777330340577831
-0.4794059174999994	0.0019273596292664415
-0.4793448823437494	0.006632500663973261
-0.4792838471874994	0.011337932316702918
-0.4792228120312494	0.016043533448287243
-0.4791617768749994	0.02074921911242771
-0.4791007417187494	0.025454935251095587
-0.4790397065624994	0.030160650094573263
-0.4789786714062494	0.034866342780549446
-0.4789176362499994	0.039571990665231864
-0.4788566010937494	0.044277557296230216
-0.4787955659374994	0.04898298287900563
-0.4787345307812494	0.05368817682330943
-0.4786734956249994	0.05839301224385735
-0.4786124604687494	0.06309732366248061
-0.4785514253124994	0.06780090679680162
-0.4784903901562494	0.07250352065083966
-0.4784293549999994	0.07720489353706704
-0.4783683198437494	0.08190473033775933
-0.4783072846874994	0.0866027202619796
-0.4782462495312494	0.09129854711770018
-0.4781852143749994	0.09599190010720535
-0.4781241792187494	0.10068248341410277
-0.4780631440624994	0.1053700247779989
-0.4780021089062494	0.11005428187429844
-0.4779410737499994	0.11473504575312327
-0.4778800385937494	0.1194121421196643
-0.4778190034374994	0.12408543105336213
-0.4777579682812494	0.12875480402444764
-0.4776969331249994	0.13342017862676503
-0.4776358979687494	0.13808149298338532
-0.4775748628124994	0.14273869755876825
-0.4775138276562494	0.14739174334172764
-0.4774527924999994	0.15204057091261042
-0.4773917573437494	0.15668510296278956
-0.4773307221874994	0.1613252386503796
-0.4772696870312494	0.16596084903203365
-0.4772086518749994	0.1705917747354704
-0.4771476167187494	0.1752178258879324
-0.4770865815624994	0.17983878374865897
-0.4770255464062494	0.1844544039136843
-0.4769645112499994	0.18906442114600036
-0.4769034760937494	0.19366855641851063
-0.4768424409374994	0.19826652584844232
-0.4767814057812494	0.20285804979412156
-0.4767203706249994	0.2074428601845539
-0.4766593354687494	0.212020706320433
-0.4765983003124994	0.21659136123543227
-0.4765372651562494	0.2211546278285599
-0.4764762299999994	0.22571034099155837
-0.4764151948437494	0.23025836500513744
-0.4763541596874994	0.23479858902839332
-0.4762931245312494	0.23933092151217242
-0.4762320893749994	0.2438552839067792
-0.4761710542187494	0.24837160501886066
-0.4761100190624994	0.2528798139123023
-0.4760489839062494	0.257379829848995
-0.4759879487499994	0.26187155343165247
-0.4759269135937494	0.2663548627942662
-0.4758658784374994	0.27082961223423946
-0.4758048432812494	0.2752956292707766
-0.4757438081249994	0.279752712749537
-0.4756827729687494	0.2842006360448932
-0.4756217378124994	0.2886391534369596
-0.4755607026562494	0.29306800666112054
-0.4754996674999994	0.29748693181985686
-0.4754386323437494	0.3018956671893505
-0.4753775971874994	0.3062939610443154
-0.4753165620312494	0.31068157814486863
-0.4752555268749994	0.3150583036939399
-0.4751944917187494	0.319423944995168
-0.4751334565624994	0.3237783331934032
-0.4750724214062494	0.32812132610308664
-0.4750113862499994	0.33245280876717
-0.4749503510937494	0.3367726889573228
-0.4748893159374994	0.3410808902815354
-0.4748282807812494	0.3453773459303483
-0.4747672456249994	0.34966199241744816
-0.4747062104687494	0.3539347624858742
-0.4746451753124994	0.35819557775375793
-0.4745841401562494	0.3624443419535576
-0.4745231049999994	0.3666809358375443
-0.4744620698437494	0.3709052145577407
-0.4744010346874994	0.37511700672459425
-0.4743399995312494	0.3793161142401902
-0.4742789643749994	0.3835023142157184
-0.4742179292187494	0.3876753629357941
-0.4741568940624994	0.39183499948476985
-0.4740958589062494	0.39598095005366096
-0.4740348237499994	0.40011293535395287
-0.4739737885937494	0.40423067919058236
-0.4739127534374994	0.40833391556652965
-0.4738517182812494	0.4124223952460535
-0.4737906831249994	0.41649589199421433
-0.4737296479687494	0.420554206795142
-0.4736686128124994	0.4245971712668531
-0.4736075776562494	0.4286246512753264
-0.4735465424999994	0.4326365476556841
-0.4734855073437494	0.4366327924497652
-0.4734244721874994	0.4406133440427748
-0.4733634370312494	0.4445781838773707
-0.4733024018749994	0.4485273116787396
-0.4732413667187494	0.45246073712405205
-0.4731803315624994	0.45637847089113576
-0.4731192964062494	0.46028051595174346
-0.4730582612499994	0.4641668583721393
-0.4729972260937494	0.46803745904760446
-0.4729361909374994	0.47189224757376735
-0.4728751557812494	0.47573111795158834
-0.4728141206249994	0.4795539247358332
-0.4727530854687494	0.48336047964408474
-0.4726920503124994	0.48715055055188433
-0.4726310151562494	0.4909238630316933
-0.4725699799999994	0.4946801041779348
-0.4725089448437494	0.49841892985811803
-0.4724479096874994	0.5021399740905536
-0.4723868745312494	0.505842858348746
-0.4723258393749994	0.5095272026880202
-0.4722648042187494	0.513192640478066
-0.4722037690624994	0.5168388337374371
-0.4721427339062494	0.5204654862096865
-0.4720816987499994	0.524072354408466
-0.4720206635937494	0.5276592565041538
-0.4719596284374994	0.5312260781772291
-0.4718985932812494	0.534772774892211
-0.4718375581249994	0.5382993701173281
-0.4717765229687494	0.5418059491704378
-0.4717154878124994	0.5452926476394889
-0.4716544526562494	0.5487596349148433
-0.4715934174999994	0.5522070956279984
-0.4715323823437494	0.5556352096200942
-0.4714713471874994	0.5590441302525636
-0.4714103120312494	0.5624339635703675
-0.4713492768749994	0.5658047513689296
-0.4712882417187494	0.5691564585910867
-0.4712272065624994	0.5724889649348761
-0.4711661714062494	0.5758020624055061
-0.4711051362499994	0.579095459002671
-0.4710441010937494	0.5823687873686467
-0.4709830659374994	0.5856216192153688
-0.4709220307812494	0.5888534854958944
-0.4708609956249994	0.5920638999992552
-0.4707999604687494	0.5952523847245917
-0.4707389253124994	0.5984184948436182
-0.4706778901562494	0.6015618403337505
-0.4706168549999994	0.6046821042328303
-0.4705558198437494	0.6077790577004522
-0.4704947846874994	0.6108525690732779
-0.4704337495312494	0.6139026054139586
-0.4703727143749994	0.6169292277154566
-0.4703116792187494	0.6199325798725148
-0.4702506440624994	0.6229128712998613
-0.4701896089062494	0.6258703543815728
-0.4701285737499994	0.6288052982831633
-0.4700675385937494	0.6317179613249096
-0.4700065034374994	0.6346085641188551
-0.4699454682812494	0.6374772652766594
-0.4698844331249994	0.6403241413307607
-0.4698233979687494	0.6431491717500755
-0.4697623628124994	0.6459522301517763
-0.4697013276562494	0.6487330834117584
-0.4696402924999994	0.6514913992988268
-0.4695792573437494	0.6542267613009326
