Time	Frequency
-0.5000610272812498	-0.6596164513971833
-0.4999999921249998	-0.6600938911716536
-0.4999389569687498	-0.6605566362720544
-0.4998779218124998	-0.661004784799822
-0.4998168866562498	-0.6614383028669045
-0.4997558514999998	-0.6618570239233372
-0.4996948163437498	-0.6622606733459694
-0.4996337811874998	-0.662648914173729
-0.4995727460312498	-0.6630214059174776
-0.4995117108749998	-0.6633778655584393
-0.4994506757187498	-0.663718119488801
-0.4993896405624998	-0.6640421368301752
-0.4993286054062498	-0.6643500374248229
-0.4992675702499998	-0.6646420722082756
-0.4992065350937498	-0.6649185792290591
-0.4991454999374998	-0.6651799233542847
-0.4990844647812498	-0.6654264291722007
-0.4990234296249998	-0.6656583179566966
-0.4989623944687498	-0.6658756620235982
-0.4989013593124998	-0.6660783662887588
-0.4988403241562498	-0.6662661795393416
-0.4987792889999998	-0.6664387341748139
-0.4987182538437498	-0.6665956088572896
-0.4986572186874998	-0.6667364023179742
-0.4985961835312498	-0.6668608046439021
-0.4985351483749998	-0.6669686538076985
-0.4984741132187498	-0.6670599669033684
-0.4984130780624998	-0.6671349395009434
-0.4983520429062498	-0.6671939125567872
-0.4982910077499998	-0.6672373117913408
-0.4982299725937498	-0.6672655700948829
-0.4981689374374998	-0.6672790482007773
-0.4981079022812498	-0.6672779680162066
-0.4980468671249998	-0.6672623693059736
-0.4979858319687498	-0.667232098487084
-0.4979247968124998	-0.6671868337584036
-0.4978637616562498	-0.6671261420250989
-0.4978027264999998	-0.6670495564460814
-0.4977416913437498	-0.6669566612042659
-0.4976806561874998	-0.6668471685127458
-0.4976196210312498	-0.6667209725409325
-0.4975585858749998	-0.6665781700348469
-0.4974975507187498	-0.6664190440334372
-0.4974365155624998	-0.6662440120599872
-0.4973754804062498	-0.6660535474177565
-0.4973144452499998	-0.6658480896418619
-0.4972534100937498	-0.6656279625555175
-0.4971923749374998	-0.6653933150984365
-0.4971313397812498	-0.6651440940677229
-0.4970703046249998	-0.6648800536588817
-0.4970092694687498	-0.6646008020888001
-0.4969482343124998	-0.6643058770928828
-0.4968871991562498	-0.6639948347289845
-0.4968261639999998	-0.6636673333563619
-0.4967651288437498	-0.6633231968273341
-0.4967040936874998	-0.6629624468121533
-0.4966430585312498	-0.6625852988485555
-0.4965820233749998	-0.6621921210838932
-0.4965209882187498	-0.6617833631362362
-0.4964599530624998	-0.6613594699547405
-0.4963989179062498	-0.6609207971710381
-0.4963378827499998	-0.6604675437682326
-0.4962768475937498	-0.6599997162583277
-0.4962158124374998	-0.6595171319536759
-0.4961547772812498	-0.659019458677779
-0.4960937421249998	-0.658506282244998
-0.4960327069687498	-0.6579771901616772
-0.4959716718124998	-0.6574318545404225
-0.4959106366562498	-0.6568700970641422
-0.4958496014999998	-0.6562919248889584
-0.4957885663437498	-0.6556975298811966
-0.4957275311874998	-0.6550872504322803
-0.4956664960312498	-0.6544615042262513
-0.4956054608749998	-0.6538207045363552
-0.4955444257187498	-0.6531651768107134
-0.4954833905624998	-0.6524950937693664
-0.4954223554062498	-0.6518104424412128
-0.4953613202499998	-0.6511110296417363
-0.4953002850937498	-0.6503965245571105
-0.4952392499374998	-0.6496665298228431
-0.4951782147812498	-0.6489206665393231
-0.4951171796249998	-0.6481586559857896
-0.4950561444687498	-0.6473803820154252
-0.4949951093124998	-0.6465859203564733
-0.4949340741562498	-0.6457755280364078
-0.4948730389999998	-0.6449495967689669
-0.4948120038437498	-0.6441085786917171
-0.4947509686874998	-0.6432528972966571
-0.4946899335312498	-0.642382862948989
-0.4946288983749998	-0.6414986098481202
-0.4945678632187498	-0.6406000669000718
-0.4945068280624998	-0.6396869707361662
-0.4944457929062498	-0.6387589182779799
-0.4943847577499998	-0.6378154478535379
-0.4943237225937498	-0.6368561335038428
-0.4942626874374998	-0.6358806749922186
-0.4942016522812498	-0.6348889665986142
-0.4941406171249998	-0.6338811281188731
-0.4940795819687498	-0.6328574895436422
-0.4940185468124998	-0.631818534476506
-0.4939575116562498	-0.6307648134953565
-0.4938964764999998	-0.6296968411648594
-0.4938354413437498	-0.6286149971181072
-0.4937744061874998	-0.6275194541887772
-0.4937133710312498	-0.6264101470068112
-0.4936523358749998	-0.6252867849874478
-0.4935913007187498	-0.6241489082082058
-0.4935302655624998	-0.6229959770747889
-0.4934692304062498	-0.6218274801726695
-0.4934081952499998	-0.620643039695714
-0.4933471600937498	-0.6194424913390849
-0.4932861249374998	-0.6182259204902462
-0.4932250897812498	-0.6169936499802309
-0.4931640546249998	-0.6157461849901747
-0.4931030194687498	-0.6144841235415612
-0.4930419843124998	-0.6132080476016105
-0.4929809491562498	-0.6119184151186168
-0.4929199139999998	-0.6106154732113694
-0.4928588788437498	-0.6092992121527998
-0.4927978436874998	-0.6079693722377134
-0.4927368085312498	-0.6066255018063138
-0.4926757733749998	-0.6052670525348983
-0.4926147382187498	-0.6038934910643273
-0.4925537030624998	-0.6025044059286008
-0.4924926679062498	-0.6010995918578849
-0.4924316327499998	-0.5996790946791867
-0.4923705975937498	-0.5982432062511233
-0.4923095624374998	-0.5967924132083278
-0.4922485272812498	-0.5953273100002727
-0.4921874921249998	-0.5938484890243059
-0.4921264569687498	-0.5923564295474107
-0.4920654218124998	-0.5908514099913115
-0.4920043866562498	-0.5893334607315248
-0.4919433514999998	-0.5878023643807391
-0.4918823163437498	-0.5862577030906643
-0.4918212811874998	-0.5846989473884638
-0.4917602460312498	-0.5831255695187899
-0.4916992108749998	-0.5815371536415942
-0.4916381757187498	-0.5799334800973828
-0.4915771405624998	-0.5783145718519775
-0.4915161054062498	-0.576680697233162
-0.4914550702499998	-0.575032326166309
-0.4913940350937498	-0.5733700448584043
-0.4913329999374998	-0.5716944470416212
-0.4912719647812498	-0.5700060242204728
-0.4912109296249998	-0.568305075881457
-0.4911498944687498	-0.5665916589678265
-0.4910888593124998	-0.5648655855116232
-0.4910278241562498	-0.5631264681863144
-0.4909667889999998	-0.5613738067297342
-0.4909057538437498	-0.559607095810816
-0.4908447186874998	-0.5578259304260171
-0.4907836835312498	-0.5560300896062609
-0.4907226483749998	-0.554219584275623
-0.4906616132187498	-0.5523946616290264
-0.4906005780624998	-0.550555763298805
-0.4905395429062498	-0.5487034425108339
-0.4904785077499998	-0.546838259200848
-0.4904174725937498	-0.5449606780543789
-0.4903564374374998	-0.5430709899425562
-0.4902954022812498	-0.5411692668044115
-0.4902343671249998	-0.5392553563039789
-0.4901733319687498	-0.5373289227479016
-0.4901122968124998	-0.5353895255545605
-0.4900512616562498	-0.5334367154516062
-0.4899902264999998	-0.5314701318355795
-0.4899291913437498	-0.5294895842539408
-0.4898681561874998	-0.5274950978736469
-0.4898071210312498	-0.525486911770501
-0.4897460858749998	-0.5234654364183196
-0.4896850507187498	-0.5214311797514526
-0.4896240155624998	-0.5193846510643829
-0.4895629804062498	-0.51732626553967
-0.4895019452499998	-0.5152562734962791
-0.4894409100937498	-0.5131747234240156
-0.4893798749374998	-0.5110814625142123
-0.4893188397812498	-0.5089761776617793
-0.4892578046249998	-0.5068584685170072
-0.4891967694687498	-0.5047279366548694
-0.4891357343124998	-0.5025842760271269
-0.4890746991562498	-0.5004273457858511
-0.4890136639999998	-0.4982572076664573
-0.4889526288437498	-0.4960741216425733
-0.4888915936874998	-0.49387850199151556
-0.4888305585312498	-0.49167084342732553
-0.4887695233749998	-0.4894516314798165
-0.4887084882187498	-0.4872212531007284
-0.4886474530624998	-0.48497992728168504
-0.4885864179062498	-0.48272767202843336
-0.4885253827499998	-0.4804643142381384
-0.4884643475937498	-0.4781895369866253
-0.4884033124374998	-0.47590295125254184
-0.4883422772812498	-0.47360418025075957
-0.4882812421249998	-0.47129294467257804
-0.4882202069687498	-0.4689691332111756
-0.4881591718124998	-0.46663283792155213
-0.4880981366562498	-0.4642843424733824
-0.4880371014999998	-0.4619240724233691
-0.4879760663437498	-0.45955252105279076
-0.4879150311874998	-0.4571701596552585
-0.4878539960312498	-0.4547773506836295
-0.4877929608749998	-0.4523742858656145
-0.4877319257187498	-0.44996096054479967
-0.4876708905624998	-0.44753718800551023
-0.4876098554062498	-0.4451026505232951
-0.4875488202499998	-0.4426569764237731
-0.4874877850937498	-0.4401998281516609
-0.4874267499374998	-0.43773098128869736
-0.4873657147812498	-0.4352503789350676
-0.4873046796249998	-0.43275815307754717
-0.4872436444687498	-0.4302546054176453
-0.4871826093124998	-0.42774015196228576
-0.4871215741562498	-0.42521524822471685
-0.4870605389999998	-0.4226803090721153
-0.4869995038437498	-0.42013563649180996
-0.4869384686874998	-0.4175813704126504
-0.4868774335312498	-0.4150174712230978
-0.4868163983749998	-0.41244373989596805
-0.4867553632187498	-0.4098598755671139
-0.4866943280624998	-0.407265551795906
-0.4866332929062498	-0.4046604932136155
-0.4865722577499998	-0.4020445451105025
-0.4865112225937498	-0.39941771976834284
-0.4864501874374998	-0.39678020641112755
-0.4863891522812498	-0.3941323454488419
-0.4863281171249998	-0.3914745693903903
-0.4862670819687498	-0.3888073249333827
-0.4862060468124998	-0.3861309966666371
-0.4861450116562498	-0.3834458394567281
-0.4860839764999998	-0.3807519298623846
-0.4860229413437498	-0.3780491562176287
-0.4859619061874998	-0.37533725330554496
-0.4859008710312498	-0.3726158685510223
-0.4858398358749998	-0.36988464463268983
-0.4857788007187498	-0.36714330657220107
-0.4857177655624998	-0.36439173369064976
-0.4856567304062498	-0.36162999929426337
-0.4855956952499998	-0.3588583767687869
-0.4855346600937498	-0.3560773088590583
-0.4854736249374998	-0.3532873348074476
-0.4854125897812498	-0.3504889913376819
-0.4853515546249998	-0.34768271627539016
-0.4852905194687498	-0.3448687730205649
-0.4852294843124998	-0.3420472052906466
-0.4851684491562498	-0.3392178304904192
-0.4851074139999998	-0.33638027695165407
-0.4850463788437498	-0.33353406399382796
-0.4849853436874998	-0.3306787095771808
-0.4849243085312498	-0.32781383925458274
-0.4848632733749998	-0.3249392755722597
-0.4848022382187498	-0.32205509404901095
-0.4847412030624998	-0.319161634338518
-0.4846801679062498	-0.3162594602330572
-0.4846191327499998	-0.3133492711988983
-0.4845580975937498	-0.31043178150945255
-0.4844970624374998	-0.30750759365719593
-0.4844360272812498	-0.30457709337449923
-0.4843749921249998	-0.30164038333111626
-0.4843139569687498	-0.29869726409313235
-0.4842529218124998	-0.29574727183034655
-0.4841918866562498	-0.292789770715261
-0.4841308514999998	-0.28982408099625434
-0.4840698163437498	-0.28684962047038665
-0.4840087811874998	-0.2838660337197581
-0.4839477460312498	-0.2808732820875516
-0.4838867108749998	-0.2778716753427671
-0.4838256757187498	-0.2748618390952051
-0.4837646405624998	-0.2718446234568969
-0.4837036054062498	-0.26882096892154933
-0.4836425702499998	-0.26579175707471964
-0.4835815350937498	-0.2627576702245843
-0.4835204999374998	-0.25971907855249354
-0.4834594647812498	-0.25667597870695663
-0.4833984296249998	-0.25362799693948307
-0.4833373944687498	-0.25057445415184026
-0.4832763593124998	-0.2475144861597896
-0.4832153241562498	-0.24444719597387923
-0.4831542889999998	-0.24137180330937735
-0.4830932538437498	-0.23828776985113984
-0.4830322186874998	-0.23519488620862242
-0.4829711835312498	-0.23209330609258594
-0.4829101483749998	-0.22898352320525664
-0.4828491132187498	-0.22586629784748924
-0.4827880780624998	-0.22274254525530748
-0.4827270429062498	-0.21961320454033334
-0.4826660077499998	-0.21647911430836791
-0.4826049725937498	-0.21334091528107926
-0.4825439374374998	-0.21019898907364004
-0.4824829022812498	-0.2070534358927508
-0.4824218671249998	-0.20390408852432407
-0.4823608319687498	-0.20075055864546656
-0.4822997968124998	-0.1975923119826031
-0.4822387616562498	-0.19442876364916897
-0.4821777264999998	-0.19125937870456428
-0.4821166913437498	-0.18808375953128673
-0.4820556561874998	-0.18490170502011113
-0.4819946210312498	-0.18171323645201112
-0.4819335858749998	-0.17851859060699854
-0.4818725507187498	-0.17531818164332794
-0.4818115155624998	-0.17211253569523205
-0.4817504804062498	-0.16890220862152816
-0.4816894452499998	-0.1656877032671542
-0.4816284100937498	-0.16246940087213288
-0.4815673749374998	-0.15924751733645684
-0.4815063397812498	-0.15602209135513925
-0.4814453046249998	-0.15279300488416467
-0.4813842694687498	-0.14956003064335205
-0.4813232343124998	-0.1463228983433108
-0.4812621991562498	-0.14308136672823749
-0.4812011639999998	-0.13983528303403392
-0.4811401288437498	-0.13658461719995885
-0.4810790936874998	-0.13332947179742607
-0.4810180585312498	-0.13007006849811203
-0.4809570233749998	-0.12680670928472607
-0.4808959882187498	-0.12353972242463018
-0.4808349530624998	-0.12026940732416952
-0.4807739179062498	-0.11699598912516171
-0.4807128827499998	-0.11371959226792007
-0.4806518475937498	-0.11044023515597627
-0.4805908124374998	-0.10715784846274998
-0.4805297772812498	-0.10387231543931318
-0.4804687421249998	-0.10058351904159775
-0.4804077069687498	-0.09729138516398834
-0.4803466718124998	-0.09399591740348533
-0.4802856366562498	-0.09069721289999536
-0.4802246014999998	-0.08739545353689517
-0.4801635663437498	-0.08409087814966218
-0.4801025311874998	-0.0807837438207074
-0.4800414960312498	-0.07747428384248144
-0.4799804608749998	-0.07416266984309534
-0.4799194257187498	-0.07084898606498816
-0.4798583905624998	-0.0675332247298622
-0.4797973554062498	-0.064215305369058
-0.4797363202499998	-0.06089511238797423
-0.4796752850937498	-0.05757254072679379
-0.4796142499374998	-0.05424754035447234
-0.4795532147812498	-0.050920152555399105
-0.4794921796249998	-0.04759052527139395
-0.4794311444687498	-0.044258897956680726
-0.4793701093124998	-0.04092556445534391
-0.4793090741562498	-0.03759082710330656
-0.4792480389999998	-0.034254949287482794
-0.4791870038437498	-0.030918112071630307
-0.4791259686874998	-0.027580383445216544
-0.4790649335312498	-0.024241713494117127
-0.4790038983749998	-0.020901958720541656
-0.4789428632187498	-0.01756092575103318
-0.4788818280624998	-0.014218426160873777
-0.4788207929062498	-0.010874333662247458
-0.4787597577499998	-0.007528633274399441
-0.4786987225937498	-0.0041814517469137375
-0.4786376874374998	-0.0008330566620234798
-0.4785766522812498	0.0025161785229486063
-0.4785156171249998	0.005865834634616155
-0.4784545819687498	0.009215518859557284
-0.4783935468124998	0.01256493243231696
-0.4783325116562498	0.015913921905182836
-0.4782714764999998	0.019262501660059047
-0.4782104413437498	0.02261083796297775
-0.4781494061874998	0.025959201766965766
-0.4780883710312498	0.02930789858888103
-0.4780273358749998	0.03265718337901974
-0.4779663007187498	0.0360071830750783
-0.4779052655624998	0.03935784840949904
-0.4778442304062498	0.04270894317098108
-0.4777831952499998	0.04606007284820433
-0.4777221600937498	0.04941074890987754
-0.4776611249374998	0.05276047371750495
-0.4776000897812498	0.05610882599921859
-0.4775390546249998	0.05945553248876397
-0.4774780194687498	0.06280051420160279
-0.4774169843124998	0.06614389454433396
-0.4773559491562498	0.0694859620330226
-0.4772949139999998	0.07282709758801352
-0.4772338788437498	0.07616768555945691
-0.4771728436874998	0.07950801959068729
-0.4771118085312498	0.08284821801261086
-0.4770507733749998	0.08618817514562963
-0.4769897382187498	0.08952756491837019
-0.4769287030624998	0.09286589104740577
-0.4768676679062498	0.09620256682261809
-0.4768066327499998	0.09953701170837632
-0.4767455975937498	0.10286875265167156
-0.4766845624374998	0.1061975048057334
-0.4766235272812498	0.10952320984701136
-0.4765624921249998	0.11284603059643232
-0.4765014569687498	0.11616630557726894
-0.4764404218124998	0.1194844682279949
-0.4763793866562498	0.1228009441772728
-0.4763183514999998	0.1261160488296036
-0.4762573163437498	0.12942991198087592
-0.4761962811874998	0.1327424420804816
-0.4761352460312498	0.1360533304177218
-0.4760742108749998	0.13936209812351563
-0.4760131757187498	0.1426681773670354
-0.4759521405624998	0.14597100701581678
-0.4758911054062498	0.14927012680981483
-0.4758300702499998	0.15256525085727357
-0.4757690350937498	0.15585630251672988
-0.4757079999374998	0.15914340672617727
-0.4756469647812498	0.162426845276983
-0.4755859296249998	0.16570698475051512
-0.4755248944687498	0.1689841899551604
-0.4754638593124998	0.1722587392944543
-0.4754028241562498	0.17553076049064717
-0.4753417889999998	0.1788001980559813
-0.4752807538437498	0.1820668148852434
-0.4752197186874998	0.18533022753379347
-0.4751586835312498	0.18858996996111194
-0.4750976483749998	0.19184557110793699
-0.4750366132187498	0.19509662813195505
-0.4749755780624998	0.19834286027979267
-0.4749145429062498	0.2015841360380412
-0.4748535077499998	0.2048204744394961
-0.4747924725937498	0.2080520183626352
-0.4747314374374998	0.21127898055251076
-0.4746704022812498	0.21450158070826872
-0.4746093671249998	0.21771999252011384
-0.4745483319687498	0.22093430646964748
-0.4744872968124998	0.22414451183750722
-0.4744262616562498	0.22735049870082613
-0.4743652264999998	0.23055207578035433
-0.4743041913437498	0.23374900117295624
-0.4742431561874998	0.23694102025128566
-0.4741821210312498	0.24012789952722693
-0.4741210858749998	0.24330944817621425
-0.4740600507187498	0.2464855273701655
-0.4739990155624998	0.2496560496293719
-0.4739379804062498	0.25282096751860084
-0.4738769452499998	0.25598025474936953
-0.4738159100937498	0.2591338899518424
-0.4737548749374998	0.26228184790764875
-0.4736938397812498	0.2654240918277468
-0.4736328046249998	0.2685605681701598
-0.4735717694687498	0.27169121140711144
-0.4735107343124998	0.2748159526102023
-0.4734496991562498	0.2779347241229644
-0.4733886639999998	0.2810474616469322
-0.4733276288437498	0.2841541040285982
-0.4732665936874998	0.2872545898688708
-0.4732055585312498	0.2903488529199546
-0.4731445233749998	0.29343681711737873
-0.4730834882187498	0.29651839326363927
-0.4730224530624998	0.29959348098400346
-0.4729614179062498	0.30266197196107186
-0.4729003827499998	0.3057237516999291
-0.4728393475937498	0.30877870517255157
-0.4727783124374998	0.3118267249166169
-0.4727172772812498	0.3148677166439956
-0.4726562421249998	0.3179016026231521
-0.4725952069687498	0.3209283236944033
-0.4725341718124998	0.3239478400049843
-0.4724731366562498	0.32696012734572305
-0.4724121014999998	0.3299651671182679
-0.4723510663437498	0.3329629347957893
-0.4722900311874998	0.3359533900337028
-0.4722289960312498	0.3389364657369371
-0.4721679608749998	0.34191205781888373
-0.4721069257187498	0.3448800255996176
-0.4720458905624998	0.3478402059271902
-0.4719848554062498	0.350792431367302
-0.4719238202499998	0.35373654771559054
-0.4718627850937498	0.35667243452349295
-0.4718017499374998	0.359600025007866
-0.4717407147812498	0.36251931550054595
-0.4716796796249998	0.36543036016612607
-0.4716186444687498	0.3683332531688805
-0.4715576093124998	0.37122809999044154
-0.4714965741562498	0.3741149789390251
-0.4714355389999998	0.376993901704926
-0.4713745038437498	0.3798647856353853
-0.4713134686874998	0.38272744442546547
-0.4712524335312498	0.3855815985917602
-0.4711913983749998	0.38842690467182
-0.4711303632187498	0.39126300063118713
-0.4710693280624998	0.39408956064176043
-0.4710082929062498	0.3969063478986809
-0.4709472577499998	0.39971325581923606
-0.4708862225937498	0.4025103296865976
-0.4708251874374998	0.4052977611117979
-0.4707641522812498	0.4080758533454436
-0.4707031171249998	0.4108449626029586
-0.4706420819687498	0.4136054242917885
-0.4705810468124998	0.4163574765109235
-0.4705200116562498	0.41910119498523457
-0.4704589764999998	0.4218364517539434
-0.4703979413437498	0.42456290969661437
-0.4703369061874998	0.4272800585880573
-0.4702758710312498	0.4299872850090286
-0.4702148358749998	0.4326839651186888
-0.4701538007187498	0.43536956651660697
-0.4700927655624998	0.43804373759759135
-0.4700317304062498	0.44070636653814504
-0.4699706952499998	0.44335759927028073
-0.4699096600937498	0.4459978093398283
-0.4698486249374998	0.44862752363932695
-0.4697875897812498	0.4512473186792827
-0.4697265546249998	0.45385770414202525
