Time	Frequency
-0.5000477063125004	0.633764392310409
-0.4999866711562504	0.6353484722729438
-0.4999256360000004	0.6369165799149976
-0.4998646008437504	0.6384688075302437
-0.4998035656875004	0.6400051763357582
-0.4997425305312504	0.6415256368803776
-0.4996814953750004	0.6430300731013826
-0.4996204602187504	0.6445183095989112
-0.4995594250625004	0.6459901218309232
-0.4994983899062504	0.6474452488360618
-0.4994373547500004	0.6488834077202598
-0.4993763195937504	0.65030430865598
-0.4993152844375004	0.6517076694187899
-0.4992542492812504	0.6530932288926903
-0.4991932141250004	0.6544607588176897
-0.4991321789687504	0.6558100731872492
-0.4990711438125004	0.6571410349123938
-0.4990101086562504	0.6584535592981501
-0.4989490735000004	0.6597476142282448
-0.4988880383437504	0.6610232172888674
-0.4988270031875004	0.6622804300804281
-0.4987659680312504	0.663519350057157
-0.4987049328750004	0.6647401003745442
-0.4986438977187504	0.665942818492305
-0.4985828625625004	0.6671276443855741
-0.4985218274062504	0.668294709031334
-0.4984607922500004	0.6694441237648772
-0.4983997570937504	0.6705759711385135
-0.4983387219375004	0.6716902978861278
-0.4982776867812504	0.6727871103660019
-0.4982166516250004	0.6738663725891416
-0.4981556164687504	0.6749280069412849
-0.4980945813125004	0.6759718976043138
-0.4980335461562504	0.6769978963165707
-0.4979725110000004	0.6780058299913945
-0.4979114758437504	0.6789955097932088
-0.4978504406875004	0.6799667411277917
-0.4977894055312504	0.6809193338797283
-0.4977283703750004	0.6818531123258638
-0.4976673352187504	0.6827679241446561
-0.4976063000625004	0.6836636479210237
-0.4975452649062504	0.6845401987481823
-0.4974842297500004	0.6853975316783526
-0.4974231945937504	0.6862356428041926
-0.4973621594375004	0.6870545678980035
-0.4973011242812504	0.6878543787573316
-0.4972400891250004	0.6886351775145121
-0.4971790539687504	0.6893970891962115
-0.4971180188125004	0.690140252981819
-0.4970569836562504	0.6908648127925933
-0.4969959485000004	0.6915709077615151
-0.4969349133437504	0.6922586630258359
-0.4968738781875004	0.6929281814039386
-0.4968128430312504	0.6935795365075583
-0.4967518078750004	0.6942127675559722
-0.4966907727187504	0.6948278760734792
-0.4966297375625004	0.6954248247805123
-0.4965687024062504	0.6960035387871548
-0.4965076672500004	0.6965639088622726
-0.4964466320937504	0.697105796483671
-0.4963855969375004	0.6976290403865619
-0.4963245617812504	0.6981334643612609
-0.4962635266250004	0.6986188859174696
-0.4962024914687504	0.6990851251819828
-0.4961414563125004	0.699532013419039
-0.4960804211562504	0.6999594007554021
-0.4960193860000004	0.7003671628338533
-0.4959583508437504	0.7007552060289123
-0.4958973156875004	0.701123470848783
-0.4958362805312504	0.701471933455018
-0.4957752453750004	0.701800605319881
-0.4957142102187504	0.7021095310360534
-0.4956531750625004	0.7023987844746105
-0.4955921399062504	0.7026684634770917
-0.4955311047500004	0.7029186832101585
-0.4954700695937504	0.7031495686259452
-0.4954090344375004	0.7033612467538807
-0.4953479992812504	0.7035538393222162
-0.4952869641250004	0.7037274559640709
-0.4952259289687504	0.7038821883226017
-0.4951648938125004	0.704018105467249
-0.4951038586562504	0.7041352508545736
-0.4950428235000004	0.7042336407649824
-0.4949817883437504	0.7043132642940726
-0.4949207531875004	0.70437408493238
-0.4948597180312504	0.7044160435536548
-0.4947986828750004	0.7044390628875704
-0.4947376477187504	0.7044430530397976
-0.4946766125625004	0.7044279171194777
-0.4946155774062504	0.7043935569290859
-0.4945545422500004	0.7043398787875783
-0.4944935070937504	0.7042667987920663
-0.4944324719375004	0.7041742471368704
-0.4943714367812504	0.7040621714187246
-0.4943104016250004	0.7039305386262327
-0.4942493664687504	0.70377933561874
-0.4941883313125004	0.703608568081065
-0.4941272961562504	0.7034182583111257
-0.4940662610000004	0.7032084424522311
-0.4940052258437504	0.7029791672309538
-0.4939441906875004	0.7027304858384017
-0.4938831555312504	0.7024624531843401
-0.4938221203750004	0.7021751212558008
-0.4937610852187504	0.7018685349998868
-0.4937000500625004	0.7015427290633093
-0.4936390149062504	0.7011977256492279
-0.4935779797500004	0.7008335333940123
-0.4935169445937504	0.7004501473676061
-0.4934559094375004	0.7000475504553779
-0.4933948742812504	0.6996257157777691
-0.4933338391250004	0.699184609604938
-0.4932728039687504	0.6987241947638378
-0.4932117688125004	0.6982444345862849
-0.4931507336562504	0.6977452970926513
-0.4930896985000004	0.6972267588211377
-0.4930286633437504	0.6966888078968553
-0.4929676281875004	0.6961314464643139
-0.4929065930312504	0.6955546922474078
-0.4928455578750004	0.6949585786685212
-0.4927845227187504	0.694343153810255
-0.4927234875625004	0.6937084787750363
-0.4926624524062504	0.6930546249900535
-0.4926014172500004	0.6923816702076346
-0.4925403820937504	0.6916896939561307
-0.4924793469375004	0.6909787727245946
-0.4924183117812504	0.690248975174658
-0.4923572766250004	0.6895003581088947
-0.4922962414687504	0.6887329631088296
-0.4922352063125004	0.6879468137141191
-0.4921741711562504	0.6871419137904482
-0.4921131360000004	0.6863182477078652
-0.4920521008437504	0.6854757821869665
-0.4919910656875004	0.6846144690578517
-0.4919300305312504	0.6837342484981883
-0.4918689953750004	0.6828350530503021
-0.4918079602187504	0.6819168129430255
-0.4917469250625004	0.6809794623027905
-0.4916858899062504	0.6800229448622729
-0.4916248547500004	0.6790472185707093
-0.4915638195937504	0.6780522597667041
-0.4915027844375004	0.677038067035273
-0.4914417492812504	0.6760046635786761
-0.4913807141250004	0.6749520976841563
-0.4913196789687504	0.6738804418705234
-0.4912586438125004	0.6727897903725084
-0.4911976086562504	0.6716802549630966
-0.4911365735000004	0.6705519601072345
-0.4910755383437504	0.6694050375033905
-0.4910145031875004	0.6682396197989572
-0.4909534680312504	0.6670558342344651
-0.4908924328750004	0.665853796820025
-0.4908313977187504	0.6646336068473406
-0.4907703625625004	0.6633953420709521
-0.4907093274062504	0.6621390554596914
-0.4906482922500004	0.6608647732703776
-0.4905872570937504	0.6595724940683235
-0.4905262219375004	0.6582621897760104
-0.4904651867812504	0.6569338091771466
-0.4904041516250004	0.6555872825332802
-0.4903431164687504	0.6542225266718423
-0.4902820813125004	0.6528394510515609
-0.4902210461562504	0.6514379646501706
-0.4901600110000004	0.6500179829754169
-0.4900989758437504	0.6485794347640076
-0.4900379406875004	0.6471222681163028
-0.4899769055312504	0.6456464555716255
-0.4899158703750004	0.6441519977303878
-0.4898548352187504	0.6426389254152829
-0.4897938000625004	0.6411073002984332
-0.4897327649062504	0.6395572141146524
-0.4896717297500004	0.6379887864584135
-0.4896106945937504	0.6364021606992591
-0.4895496594375004	0.6347974983199605
-0.4894886242812504	0.6331749728464217
-0.4894275891250004	0.631534763558886
-0.4893665539687504	0.6298770487465648
-0.4893055188125004	0.6282019990914288
-0.4892444836562504	0.6265097712292295
-0.4891834485000004	0.6248005015173409
-0.4891224133437504	0.6230743009345019
-0.4890613781875004	0.621331251407388
-0.4890003430312504	0.6195714033680522
-0.4889393078750004	0.6177947753173962
-0.4888782727187504	0.6160013557470745
-0.4888172375625004	0.6141911059878608
-0.4887562024062504	0.6123639632299649
-0.4886951672500004	0.6105198446621347
-0.4886341320937504	0.6086586536642157
-0.4885730969375004	0.6067802875811528
-0.4885120617812504	0.604884644940866
-0.4884510266250004	0.6029716315603229
-0.4883899914687504	0.6010411670061545
-0.4883289563125004	0.5990931908986642
-0.4882679211562504	0.597127667785757
-0.4882068860000004	0.5951445906440602
-0.4881458508437504	0.5931439831082093
-0.4880848156875004	0.5911259005674065
-0.4880237805312504	0.5890904302275454
-0.4879627453750004	0.5870376898227999
-0.4879017102187504	0.5849678245171793
-0.4878406750625004	0.5828810020582255
-0.4877796399062504	0.580777407281283
-0.4877186047500004	0.5786572364983792
-0.4876575695937504	0.5765206911848868
-0.4875965344375004	0.5743679710350906
-0.4875354992812504	0.5721992672062101
-0.4874744641250004	0.5700147561840646
-0.4874134289687504	0.5678145942164577
-0.4873523938125004	0.5655989127000571
-0.4872913586562504	0.5633678155346864
-0.4872303235000004	0.5611213781883608
-0.4871692883437504	0.5588596469435004
-0.4871082531875004	0.5565826386920026
-0.4870472180312504	0.554290342907797
-0.4869861828750004	0.5519827255483206
-0.4869251477187504	0.5496597335799617
-0.4868641125625004	0.5473213001205962
-0.4868030774062504	0.544967350776157
-0.4867420422500004	0.5425978102445836
-0.4866810070937504	0.5402126083596955
-0.4866199719375004	0.5378116859620057
-0.4865589367812504	0.5353950005862445
-0.4864979016250004	0.5329625319562137
-0.4864368664687504	0.5305142866126287
-0.4863758313125004	0.5280502999324745
-0.4863147961562504	0.5255706359132853
-0.4862537610000004	0.5230753864454696
-0.4861927258437504	0.5205646698360836
-0.4861316906875004	0.5180386280150043
-0.4860706555312504	0.5154974229092193
-0.4860096203750004	0.5129412317148617
-0.4859485852187504	0.5103702404865533
-0.4858875500625004	0.5077846374335234
-0.4858265149062504	0.5051846071960144
-0.4857654797500004	0.502570325025677
-0.4857044445937504	0.49994195070731273
-0.4856434094375004	0.49729962334030814
-0.4855823742812504	0.4946434573726438
-0.4855213391250004	0.4919735405355638
-0.4854603039687504	0.4892899337629521
-0.4853992688125004	0.4865926721731129
-0.4853382336562504	0.4838817670908475
-0.4852771985000004	0.48115720967630515
-0.4852161633437504	0.4784189756450913
-0.4851551281875004	0.4756670302230718
-0.4850940930312504	0.4729013340043605
-0.4850330578750004	0.4701218498871864
-0.4849720227187504	0.46732854957202513
-0.4849109875625004	0.4645214194604299
-0.4848499524062504	0.461700466067523
-0.4847889172500004	0.4588657198381812
-0.4847278820937504	0.45601723779088504
-0.4846668469375004	0.45315510591412755
-0.4846058117812504	0.45027943979412083
-0.4845447766250004	0.44739038180633317
-0.4844837414687504	0.4444880963963479
-0.4844227063125004	0.44157276535853535
-0.4843616711562504	0.43864458226315395
-0.4843006360000004	0.43570374511075627
-0.4842396008437504	0.4327504478805041
-0.4841785656875004	0.4297848726338764
-0.4841175305312504	0.4268071836324432
-0.4840564953750004	0.42381752269594525
-0.4839954602187504	0.42081600460254115
-0.4839344250625004	0.417802713286918
-0.4838733899062504	0.41477770021821897
-0.4838123547500004	0.41174098503104284
-0.4837513195937504	0.40869255799971205
-0.4836902844375004	0.4056323853001276
-0.4836292492812504	0.4025604165273614
-0.4835682141250004	0.3994765919555648
-0.4835071789687504	0.3963808498028809
-0.4834461438125004	0.39327313496116917
-0.4833851086562504	0.39015340823052375
-0.4833240735000004	0.3870216543662651
-0.4832630383437504	0.38387788816979734
-0.4832020031875004	0.3807221594009054
-0.4831409680312504	0.37755455703884644
-0.4830799328750004	0.3743752107241334
-0.4830188977187504	0.37118428862157704
-0.4829578625625004	0.36798199407233423
-0.4828968274062504	0.3647685605586109
-0.4828357922500004	0.3615442432232381
-0.4827747570937504	0.3583093088294466
-0.4827137219375004	0.3550640256415546
-0.4826526867812504	0.3518086527295169
-0.4825916516250004	0.34854342944432126
-0.4825306164687504	0.3452685662730627
-0.4824695813125004	0.3419842368063922
-0.4824085461562504	0.33869057062190205
-0.4823475110000004	0.33538764876621685
-0.4822864758437504	0.33207550268789965
-0.4822254406875004	0.3287541155904836
-0.4821644055312504	0.3254234266234006
-0.4821033703750004	0.3220833390188823
-0.4820423352187504	0.3187337309605778
-0.4819813000625004	0.31537446719430207
-0.4819202649062504	0.31200541109439794
-0.4818592297500004	0.30862643764001735
-0.4817981945937504	0.305237446992246
-0.4817371594375004	0.301838377097835
-0.4816761242812504	0.2984292134617727
-0.4816150891250004	0.2950099964539257
-0.4815540539687504	0.29158082666868834
-0.4814930188125004	0.2881418663574602
-0.4814319836562504	0.284693336249934
-0.4813709485000004	0.28123550961711535
-0.4813099133437504	0.2777687038925369
-0.4812488781875004	0.2742932685891233
-0.4811878430312504	0.27080957045043097
-0.4811268078750004	0.2673179779651715
-0.4810657727187504	0.2638188454081962
-0.4810047375625004	0.26031249675081886
-0.4809437024062504	0.2567992113766854
-0.4808826672500004	0.25327921218379407
-0.4808216320937504	0.2497526558888594
-0.4807605969375004	0.24621962755059237
-0.4806995617812504	0.2426801404472304
-0.4806385266250004	0.23913413919768106
-0.4805774914687504	0.23558150593757787
-0.4805164563125004	0.23202207176049625
-0.4804554211562504	0.2284556319944506
-0.4803943860000004	0.2248819624659993
-0.4803333508437504	0.22130083752597995
-0.4802723156875004	0.21771204963150492
-0.4802112805312504	0.21411542809245412
-0.4801502453750004	0.21051085623862226
-0.4800892102187504	0.20689828550957
-0.4800281750625004	0.20327774526136624
-0.4799671399062504	0.19964934906149281
-0.4799061047500004	0.19601329685710295
-0.4798450695937504	0.19236987194556524
-0.4797840344375004	0.1887194325949803
-0.4797229992812504	0.18506239858550563
-0.4796619641250004	0.18139923366918503
-0.4796009289687504	0.17773042538759898
-0.4795398938125004	0.17405646330183103
-0.4794788586562504	0.17037781627467355
-0.4794178235000004	0.16669491046464358
-0.4793567883437504	0.1630081098302509
-0.4792957531875004	0.1593176997334284
-0.4792347180312504	0.15562387422249307
-0.4791736828750004	0.151926727560707
-0.4791126477187504	0.14822625091316205
-0.4790516125625004	0.1445223356717051
-0.4789905774062504	0.14081478227853558
-0.4789295422500004	0.137103312994649
-0.4788685070937504	0.13338759079632317
-0.4788074719375004	0.1296672440478343
-0.4787464367812504	0.12594189181664878
-0.4786854016250004	0.12221116837148084
-0.4786243664687504	0.11847474911218595
-0.4785633313125004	0.11473237626750521
-0.4785022961562504	0.11098388061896759
-0.4784412610000004	0.1072291990787396
-0.4783802258437504	0.10346838794085984
-0.4783191906875004	0.09970162900696732
-0.4782581555312504	0.0959292282094229
-0.4781971203750004	0.09215160820487699
-0.4781360852187504	0.08836929415252413
-0.4780750500625004	0.08458289292262244
-0.4780140149062504	0.08079306901933074
-0.4779529797500004	0.0770005183195722
-0.4778919445937504	0.07320593786326618
-0.4778309094375004	0.06940999353631085
-0.4777698742812504	0.06561329006461972
-0.4777088391250004	0.061816344376135424
-0.4776478039687504	0.0580195620566901
-0.4775867688125004	0.054223218522436945
-0.4775257336562504	0.05042744729997843
-0.4774646985000004	0.04663223686411762
-0.4774036633437504	0.0428374353240777
-0.4773426281875004	0.039042761452514695
-0.4772815930312504	0.03524782185703661
-0.4772205578750004	0.031452134048380084
-0.4771595227187504	0.027655154263017626
-0.4770984875625004	0.023856309115852493
-0.4770374524062504	0.020055029318711684
-0.4769764172500004	0.01625078264025929
-0.4769153820937504	0.012443104477405134
-0.4768543469375004	0.008631624660424098
-0.4767933117812504	0.004816089199479888
-0.4767322766250004	0.000996377422883069
-0.4766712414687504	-0.002827486453611239
-0.4766102063125004	-0.006655329830310213
-0.4765491711562504	-0.010486836081230818
-0.4764881360000004	-0.014321554637031187
-0.4764271008437504	-0.018158916169593024
-0.4763660656875004	-0.021998253516062414
-0.4763050305312504	-0.025838827631605416
-0.4762439953750004	-0.029679856340178796
-0.4761829602187504	-0.033520543581064995
-0.4761219250625004	-0.03736010827074571
-0.4760608899062504	-0.041197813318047116
-0.4759998547500004	-0.045032993346893285
-0.4759388195937504	-0.04886507807529819
-0.4758777844375004	-0.052693610628840544
-0.4758167492812504	-0.056518261277089504
-0.4757557141250004	-0.060338836199839034
-0.4756946789687504	-0.06415528069036534
-0.4756336438125004	-0.06796767658982743
-0.4755726086562504	-0.07177623392954355
-0.4755115735000004	-0.07558127631796174
-0.4754505383437504	-0.07938322008288394
-0.4753895031875004	-0.08318254887510555
-0.4753284680312504	-0.08697978647034253
-0.4752674328750004	-0.09077546970734937
-0.4752063977187504	-0.09457012158524462
-0.4751453625625004	-0.0983642240231647
-0.4750843274062504	-0.10215819160094403
-0.4750232922500004	-0.10595234884550714
-0.4749622570937504	-0.10974691243303174
-0.4749012219375004	-0.11354197877598696
-0.4748401867812504	-0.11733751696931032
-0.4747791516250004	-0.12113336725777223
-0.4747181164687504	-0.12492924669637676
-0.4746570813125004	-0.12872476171849173
-0.4745960461562504	-0.13251942469496572
-0.4745350110000004	-0.13631267355678048
-0.4744739758437504	-0.1401038951811798
-0.4744129406875004	-0.14389245134128487
-0.4743519055312504	-0.14767770475243402
-0.4742908703750004	-0.1514590441318503
-0.4742298352187504	-0.15523590790666414
-0.4741688000625004	-0.15900780526075423
-0.4741077649062504	-0.16277433304424663
-0.4740467297500004	-0.1665351881822851
-0.4739856945937504	-0.17029017497959525
-0.4739246594375004	-0.174039205924335
-0.4738636242812504	-0.1777822967817073
-0.4738025891250004	-0.18151955738712505
-0.4737415539687504	-0.18525117739020935
-0.4736805188125004	-0.1889774077184914
-0.4736194836562504	-0.19269854012729848
-0.4735584485000004	-0.19641488500247642
-0.4734974133437504	-0.20012674771692876
-0.4734363781875004	-0.20383440625283758
-0.4733753430312504	-0.20753809192419506
-0.4733143078750004	-0.21123797299597774
-0.4732532727187504	-0.2149341414618844
-0.4731922375625004	-0.21862660373480686
-0.4731312024062504	-0.22231527604111595
-0.4730701672500004	-0.2259999857613728
-0.4730091320937504	-0.229680478199105
-0.4729480969375004	-0.2333564268205461
-0.4728870617812504	-0.23702744625469044
-0.4728260266250004	-0.24069310805377922
-0.4727649914687504	-0.24435295894885958
-0.4727039563125004	-0.2480065405260941
-0.4726429211562504	-0.25165340888456333
-0.4725818860000004	-0.25529315348636406
-0.4725208508437504	-0.2589254138531028
-0.4724598156875004	-0.26254989212576546
-0.4723987805312504	-0.26616636133167204
-0.4723377453750004	-0.26977467089468987
-0.4722767102187504	-0.2733747489006085
-0.4722156750625004	-0.2769665987989442
-0.4721546399062504	-0.28055029136577764
-0.4720936047500004	-0.2841259545804693
-0.4720325695937504	-0.2876937608034381
-0.4719715344375004	-0.2912539106873233
-0.4719104992812504	-0.2948066166317972
-0.4718494641250004	-0.2983520872818136
-0.4717884289687504	-0.3018905119673134
-0.4717273938125004	-0.3054220457512417
-0.4716663586562504	-0.30894679726851804
-0.4716053235000004	-0.3124648198734019
-0.4715442883437504	-0.31597610587412245
-0.4714832531875004	-0.3194805841124367
-0.4714222180312504	-0.32297812108322277
-0.4713611828750004	-0.32646852525525094
-0.4713001477187504	-0.32995155371377316
-0.4712391125625004	-0.3334269214139323
-0.4711780774062504	-0.33689431300847744
-0.4711170422500004	-0.34035339495501044
-0.4710560070937504	-0.3438038271371413
-0.4709949719375004	-0.34724527479708395
-0.4709339367812504	-0.3506774198746039
-0.4708729016250004	-0.35409997070158367
-0.4708118664687504	-0.35751266967777734
-0.4707508313125004	-0.3609152983967416
-0.4706897961562504	-0.3643076802858256
-0.4706287610000004	-0.36768968117157
-0.4705677258437504	-0.37106120818108945
-0.4705066906875004	-0.3744222066551531
-0.4704456555312504	-0.37777265410527977
-0.4703846203750004	-0.38111255264019145
-0.4703235852187504	-0.38444192220238527
-0.4702625500625004	-0.38776079420739146
-0.4702015149062504	-0.39106920476348844
-0.4701404797500004	-0.3943671882709789
-0.4700794445937504	-0.3976547720910271
-0.4700184094375004	-0.4009319724943796
-0.4699573742812504	-0.40419879242638135
-0.4698963391250004	-0.40745522108754817
-0.4698353039687504	-0.4107012341268733
-0.4697742688125004	-0.41393679340979267
-0.4697132336562504	-0.4171618470618075
-0.4696521985000004	-0.42037633128848184
-0.4695911633437504	-0.4235801731133155
-0.4695301281875004	-0.426773291681926
-0.4694690930312504	-0.42995559829967467
-0.4694080578750004	-0.43312699642517716
-0.4693470227187504	-0.43628738112530757
-0.4692859875625004	-0.4394366375584502
