Time	Frequency
-0.5000305100937492	-0.652519699685008
-0.4999694749374992	-0.6538277800394323
-0.4999084397812492	-0.6551183229815255
-0.4998474046249992	-0.6563911894235593
-0.4997863694687492	-0.6576462686390627
-0.4997253343124992	-0.6588834849509362
-0.4996642991562492	-0.6601028016462326
-0.4996032639999992	-0.6613042217928281
-0.4995422288437492	-0.6624877857695601
-0.4994811936874992	-0.663653565873992
-0.4994201585312492	-0.6648016583517238
-0.4993591233749992	-0.6659321731989758
-0.4992980882187492	-0.6670452225850699
-0.4992370530624992	-0.6681409088641592
-0.4991760179062492	-0.6692193131087513
-0.4991149827499992	-0.6702804851594114
-0.4990539475937492	-0.6713244360608325
-0.4989929124374992	-0.672351133642366
-0.4989318772812492	-0.673360501694561
-0.4988708421249992	-0.6743524227382992
-0.4988098069687492	-0.675326744286857
-0.4987487718124992	-0.6762832883008291
-0.4986877366562492	-0.6772218630964041
-0.4986267014999992	-0.6781422767673878
-0.4985656663437492	-0.6790443510054331
-0.4985046311874992	-0.6799279340023366
-0.4984435960312492	-0.6807929112475776
-0.4983825608749992	-0.6816392133449906
-0.4983215257187492	-0.6824668202271676
-0.4982604905624992	-0.6832757614049029
-0.4981994554062492	-0.6840661121567839
-0.4981384202499992	-0.6848379858291302
-0.4980773850937492	-0.6855915227868402
-0.4980163499374992	-0.6863268769745244
-0.4979553147812492	-0.6870442011729095
-0.4978942796249992	-0.6877436319888632
-0.4978332444687492	-0.6884252758418601
-0.4977722093124992	-0.6890891973423438
-0.4977111741562492	-0.6897354110934829
-0.4976501389999992	-0.6903638775338582
-0.4975891038437492	-0.6909745032446868
-0.4975280686874992	-0.6915671458411412
-0.4974670335312492	-0.692141623107884
-0.4974059983749992	-0.692697725717583
-0.4973449632187492	-0.6932352325239025
-0.4972839280624992	-0.6937539270830025
-0.4972228929062492	-0.6942536141046478
-0.4971618577499992	-0.6947341345801696
-0.4971008225937492	-0.6951953783326781
-0.4970397874374992	-0.6956372929293918
-0.4969787522812492	-0.696059887950857
-0.4969177171249992	-0.6964632340816208
-0.4968566819687492	-0.6968474572809362
-0.4967956468124992	-0.6972127283294381
-0.4967346116562492	-0.6975592482317432
-0.4966735764999992	-0.6978872308146832
-0.4966125413437492	-0.6981968842390736
-0.4965515061874992	-0.6984883927849
-0.4964904710312492	-0.6987618998609209
-0.4964294358749992	-0.6990174937116498
-0.4963684007187492	-0.6992551976730097
-0.4963073655624992	-0.699474965617641
-0.4962463304062492	-0.6996766827068364
-0.4961852952499992	-0.6998601720147039
-0.4961242600937492	-0.7000252067476912
-0.4960632249374992	-0.7001715267522889
-0.4960021897812492	-0.700298858010056
-0.4959411546249992	-0.7004069340258862
-0.4958801194687492	-0.7004955174991726
-0.4958190843124992	-0.7005644200704512
-0.4957580491562492	-0.7006135186350861
-0.4956970139999992	-0.7006427672798384
-0.4956359788437492	-0.7006522033594208
-0.4955749436874992	-0.7006419466553243
-0.4955139085312492	-0.700612192047434
-0.4954528733749992	-0.7005631961968858
-0.4953918382187492	-0.7004952582975691
-0.4953308030624992	-0.7004086964389196
-0.4952697679062492	-0.7003038221258409
-0.4952087327499992	-0.7001809148480637
-0.4951476975937492	-0.7000401984532292
-0.4950866624374992	-0.6998818212371244
-0.4950256272812492	-0.6997058414769796
-0.4949645921249992	-0.699512219558246
-0.4949035569687492	-0.6993008174915987
-0.4948425218124992	-0.6990714066582618
-0.4947814866562492	-0.6988236833481767
-0.4947204514999992	-0.6985572905084999
-0.4946594163437492	-0.6982718444790306
-0.4945983811874992	-0.6979669647651409
-0.4945373460312492	-0.697642304171511
-0.4944763108749992	-0.6972975772602481
-0.4944152757187492	-0.6969325848973721
-0.4943542405624992	-0.696547232613736
-0.4942932054062492	-0.6961415412055059
-0.4942321702499992	-0.6957156485160452
-0.4941711350937492	-0.6952698022830276
-0.4941100999374992	-0.6948043444843541
-0.4940490647812492	-0.6943196880571991
-0.4939880296249992	-0.6938162878034105
-0.4939269944687492	-0.693294607424494
-0.4938659593124992	-0.6927550847238967
-0.4938049241562492	-0.6921980980846651
-0.4937438889999992	-0.6916239372626771
-0.4936828538437492	-0.691032780256746
-0.4936218186874992	-0.6904246780595898
-0.4935607835312492	-0.6897995493305302
-0.4934997483749992	-0.6891571856477718
-0.4934387132187492	-0.6884972666424765
-0.4933776780624992	-0.6878193836553226
-0.4933166429062492	-0.6871230699775192
-0.4932556077499992	-0.6864078357394973
-0.4931945725937492	-0.6856732052540466
-0.4931335374374992	-0.6849187542032664
-0.4930725022812492	-0.684144143655353
-0.4930114671249992	-0.6833491473089154
-0.4929504319687492	-0.6825336700023685
-0.4928893968124992	-0.6816977568451469
-0.4928283616562492	-0.6808415914178008
-0.4927673264999992	-0.6799654828852995
-0.4927062913437492	-0.6790698441158898
-0.4926452561874992	-0.6781551625619094
-0.4925842210312492	-0.6772219653244977
-0.4925231858749992	-0.6762707806881137
-0.4924621507187492	-0.6753020997480358
-0.4924011155624992	-0.6743163417300359
-0.4923400804062492	-0.6733138246359364
-0.4922790452499992	-0.6722947432715457
-0.4922180100937492	-0.6712591572426796
-0.4921569749374992	-0.6702069893667966
-0.4920959397812492	-0.6691380344172032
-0.4920349046249992	-0.668051977946869
-0.4919738694687492	-0.6669484232511473
-0.4919128343124992	-0.665826923921906
-0.4918517991562492	-0.664687020163805
-0.4917907639999992	-0.6635282762467215
-0.4917297288437492	-0.6623503151235889
-0.4916686936874992	-0.6611528474917963
-0.4916076585312492	-0.6599356939181878
-0.4915466233749992	-0.6586987985201047
-0.4914855882187492	-0.6574422331587321
-0.4914245530624992	-0.6561661920649076
-0.4913635179062492	-0.6548709771488095
-0.4913024827499992	-0.6535569745264193
-0.4912414475937492	-0.6522246243475108
-0.4911804124374992	-0.6508743876204007
-0.4911193772812492	-0.6495067131447665
-0.4910583421249992	-0.6481220061948486
-0.4909973069687492	-0.6467206006822722
-0.4909362718124992	-0.6453027373701657
-0.4908752366562492	-0.643868550218759
-0.4908142014999992	-0.6424180614059537
-0.4907531663437492	-0.640951185368068
-0.4906921311874992	-0.6394677423219098
-0.4906310960312492	-0.6379674793893763
-0.4905700608749992	-0.6364500957620653
-0.4905090257187492	-0.6349152699671805
-0.4904479905624992	-0.6333626884723024
-0.4903869554062492	-0.6317920739321456
-0.4903259202499992	-0.6302032105506178
-0.4902648850937492	-0.628595963501975
-0.4902038499374992	-0.6269702901697571
-0.4901428147812492	-0.6253262432890047
-0.4900817796249992	-0.6236639665961726
-0.4900207444687492	-0.621983683342363
-0.4899597093124992	-0.6202856787084499
-0.4898986741562492	-0.6185702770542766
-0.4898376389999992	-0.6168378157147806
-0.4897766038437492	-0.6150886192826037
-0.4897155686874992	-0.6133229770044618
-0.4896545335312492	-0.6115411231002811
-0.4895934983749992	-0.6097432211499004
-0.4895324632187492	-0.6079293550340764
-0.4894714280624992	-0.606099527476032
-0.4894103929062492	-0.6042536659161455
-0.4893493577499992	-0.6023916348156862
-0.4892883225937492	-0.6005132528494441
-0.4892272874374992	-0.5986183138584402
-0.4891662522812492	-0.5967066104842107
-0.4891052171249992	-0.5947779574577602
-0.4890441819687492	-0.5928322120571204
-0.4889831468124992	-0.5908692906542115
-0.4889221116562492	-0.5888891795903374
-0.4888610764999992	-0.586891939771115
-0.4888000413437492	-0.5848777052278055
-0.4887390061874992	-0.582846675287512
-0.4886779710312492	-0.580799100835133
-0.4886169358749992	-0.5787352659856684
-0.4885559007187492	-0.5766554666710119
-0.4884948655624992	-0.5745599880156746
-0.4884338304062492	-0.572449082825117
-0.4883727952499992	-0.5703229529604663
-0.4883117600937492	-0.568181734651777
-0.4882507249374992	-0.5660254905142806
-0.4881896897812492	-0.5638542098247685
-0.4881286546249992	-0.5616678145768985
-0.4880676194687492	-0.5594661701627321
-0.4880065843124992	-0.5572491011482685
-0.4879455491562492	-0.5550164117146721
-0.4878845139999992	-0.5527679093551465
-0.4878234788437492	-0.5505034279720102
-0.4877624436874992	-0.5482228477072627
-0.4877014085312492	-0.5459261111872251
-0.4876403733749992	-0.5436132342517623
-0.4875793382187492	-0.5412843095527957
-0.4875183030624992	-0.5389395037969327
-0.4874572679062492	-0.53657904914073
-0.4873962327499992	-0.5342032285325353
-0.4873351975937492	-0.531812356703321
-0.4872741624374992	-0.5294067586355883
-0.4872131272812492	-0.5269867458423622
-0.4871520921249992	-0.5245525933679641
-0.4870910569687492	-0.5221045210142636
-0.4870300218124992	-0.5196426793952488
-0.4869689866562492	-0.517167142272621
-0.4869079514999992	-0.5146779063504716
-0.4868469163437492	-0.5121748971006496
-0.4867858811874992	-0.509657979851925
-0.4867248460312492	-0.5071269760226795
-0.4866638108749992	-0.5045816835044408
-0.4866027757187492	-0.5020218992485892
-0.4865417405624992	-0.4994474420024321
-0.4864807054062492	-0.4968581738034398
-0.4864196702499992	-0.49425401796129664
-0.4863586350937492	-0.4916349721235918
-0.4862975999374992	-0.48900111601753454
-0.4862365647812492	-0.48635261096522275
-0.4861755296249992	-0.4836896896503381
-0.4861144944687492	-0.4810126404574037
-0.4860534593124992	-0.4783217904308866
-0.4859924241562492	-0.4756174848865293
-0.4859313889999992	-0.4729000626550758
-0.4858703538437492	-0.47016983162417153
-0.4858093186874992	-0.46742704813799385
-0.4857482835312492	-0.4646719006815161
-0.4856872483749992	-0.46190449944989825
-0.4856262132187492	-0.4591248735777108
-0.4855651780624992	-0.45633297536333234
-0.4855041429062492	-0.45352869031995424
-0.4854431077499992	-0.45071185264943736
-0.4853820725937492	-0.447882265508871
-0.4853210374374992	-0.44503972439223294
-0.4852600022812492	-0.44218404081884954
-0.4851989671249992	-0.43931506460376896
-0.4851379319687492	-0.4364327040713881
-0.4850768968124992	-0.4335369420762075
-0.4850158616562492	-0.4306278449699346
-0.4849548264999992	-0.42770556284374794
-0.4848937913437492	-0.4247703226147626
-0.4848327561874992	-0.42182241697763767
-0.4847717210312492	-0.41886218756175964
-0.4847106858749992	-0.4158900006226645
-0.4846496507187492	-0.41290622106271974
-0.4845886155624992	-0.40991118925719683
-0.4845275804062492	-0.40690519846597617
-0.4844665452499992	-0.403888473977096
-0.4844055100937492	-0.40086115917695814
-0.4843444749374992	-0.39782330975277064
-0.4842834397812492	-0.3947748947471751
-0.4842224046249992	-0.3917158049588735
-0.4841613694687492	-0.38864586905349224
-0.4841003343124992	-0.3855648747420427
-0.4840392991562492	-0.3824725927065521
-0.4839782639999992	-0.37936880344490864
-0.4839172288437492	-0.37625332477063433
-0.4838561936874992	-0.37312603515356535
-0.4837951585312492	-0.3699868909535479
-0.4837341233749992	-0.3668359380099653
-0.4836730882187492	-0.3636733164725222
-0.4836120530624992	-0.3604992569230421
-0.4835510179062492	-0.35731406799089593
-0.4834899827499992	-0.3541181176288025
-0.4834289475937492	-0.3509118097994484
-0.4833679124374992	-0.34769555756307347
-0.4833068772812492	-0.3444697545191115
-0.4832458421249992	-0.341234747268114
-0.4831848069687492	-0.33799081203105336
-0.4831237718124992	-0.3347381382933485
-0.4830627366562492	-0.33147682006280826
-0.4830017014999992	-0.3282068544596716
-0.4829406663437492	-0.32492814758989313
-0.4828796311874992	-0.32164052781024044
-0.4828185960312492	-0.3183437661492851
-0.4827575608749992	-0.31503760190800356
-0.4826965257187492	-0.3117217719991031
-0.4826354905624992	-0.308396041786085
-0.4825744554062492	-0.30506023236067864
-0.4825134202499992	-0.30171424282300424
-0.4824523850937492	-0.29835806846173984
-0.4823913499374992	-0.2949918111215724
-0.4823303147812492	-0.29161567889089374
-0.4822692796249992	-0.2882299772223952
-0.4822082444687492	-0.2848350926374355
-0.4821472093124992	-0.28143146884582915
-0.4820861741562492	-0.2780195773748043
-0.4820251389999992	-0.27459988579345507
-0.4819641038437492	-0.2711728261387441
-0.4819030686874992	-0.26773876558361415
-0.4818420335312492	-0.2642979819007162
-0.4817809983749992	-0.2608506466468919
-0.4817199632187492	-0.25739681748345766
-0.4816589280624992	-0.25393644012734135
-0.4815978929062492	-0.25046935924071784
-0.4815368577499992	-0.24699533692495992
-0.4814758225937492	-0.24351407845056847
-0.4814147874374992	-0.24002526360201829
-0.4813537522812492	-0.23652858087722173
-0.4812927171249992	-0.23302376244756928
-0.4812316819687492	-0.22951061594057992
-0.4811706468124992	-0.22598904796742078
-0.4811096116562492	-0.22245907898803283
-0.4810485764999992	-0.21892085085656807
-0.4809875413437492	-0.21537462504301771
-0.4809265061874992	-0.21182077078598674
-0.4808654710312492	-0.20825974425920238
-0.4808044358749992	-0.20469205991448708
-0.4807434007187492	-0.20111825726986676
-0.4806823655624992	-0.19753886536869197
-0.4806213304062492	-0.1939543664772331
-0.4805602952499992	-0.19036516465554948
-0.4804992600937492	-0.18677156270274298
-0.4804382249374992	-0.1831737448258121
-0.4803771897812492	-0.179571765393662
-0.4803161546249992	-0.17596554935281597
-0.4802551194687492	-0.17235490619115904
-0.4801940843124992	-0.168739552972659
-0.4801330491562492	-0.16511914271738504
-0.4800720139999992	-0.16149329729047418
-0.4800109788437492	-0.15786164334527167
-0.4799499436874992	-0.15422384953986928
-0.4798889085312492	-0.15057966134124673
-0.4798278733749992	-0.1469289296169435
-0.4797668382187492	-0.14327163196420012
-0.4797058030624992	-0.1396078839428924
-0.4796447679062492	-0.1359379387240286
-0.4795837327499992	-0.13226217746118035
-0.4795226975937492	-0.128581090186496
-0.4794616624374992	-0.12489524662343088
-0.4794006272812492	-0.1212052597837401
-0.4793395921249992	-0.11751174698595901
-0.4792785569687492	-0.11381529199044027
-0.4792175218124992	-0.11011640882451004
-0.4791564866562492	-0.1064155088934186
-0.4790954514999992	-0.10271287592895967
-0.4790344163437492	-0.09900865108278668
-0.4789733811874992	-0.09530282787743234
-0.4789123460312492	-0.09159525724797991
-0.4788513108749992	-0.08788566361283295
-0.4787902757187492	-0.08417367137720856
-0.4787292405624992	-0.08045883877902833
-0.4786682054062492	-0.07674069634850371
-0.4786071702499992	-0.0730187882343263
-0.4785461350937492	-0.06929271317852621
-0.4784850999374992	-0.06556216108773327
-0.4784240647812492	-0.06182694246050571
-0.4783630296249992	-0.058087010385623146
-0.4783019944687492	-0.05434247483771862
-0.4782409593124992	-0.050593605321644114
-0.4781799241562492	-0.04684081988605488
-0.4781188889999992	-0.04308466458048808
-0.4780578538437492	-0.03932578597226878
-0.4779968186874992	-0.035564895826254495
-0.4779357835312492	-0.031802728977732876
-0.4778747483749992	-0.02803999903908404
-0.4778137132187492	-0.02427735688384463
-0.4777526780624992	-0.020515353875176504
-0.4776916429062492	-0.016754411354608867
-0.4776306077499992	-0.012994798678324449
-0.4775695725937492	-0.009236620751391086
-0.4775085374374992	-0.005479816051282583
-0.4774475022812492	-0.0017241655893125234
-0.4773864671249992	0.002030688583503491
-0.4773254319687492	0.005785215799641531
-0.4772643968124992	0.009539961464360312
-0.4772033616562492	0.013295508280848967
-0.4771423264999992	0.017052436368918882
-0.4770812913437492	0.020811282924172263
-0.4770202561874992	0.02457250382592085
-0.4769592210312492	0.028336439532799188
-0.4768981858749992	0.03210328680223758
-0.4768371507187492	0.03587307877594254
-0.4767761155624992	0.039645674975011744
-0.4767150804062492	0.043420759846798475
-0.4766540452499992	0.04719785026606981
-0.4765930100937492	0.05097631393307937
-0.4765319749374992	0.05475539750249891
-0.4764709397812492	0.05853426192781146
-0.4764099046249992	0.062312023782160206
-0.4763488694687492	0.06608780209349509
-0.4762878343124992	0.06986076736475363
-0.4762267991562492	0.07363018665399144
-0.4761657639999992	0.07739546233016222
-0.4761047288437492	0.08115616539492117
-0.4760436936874992	0.08491206021143895
-0.4759826585312492	0.08866311491187663
-0.4759216233749992	0.09240949753713396
-0.4758605882187492	0.09615156187345557
-0.4757995530624992	0.09988982231471247
-0.4757385179062492	0.10362491531017688
-0.4756774827499992	0.10735755042638599
-0.4756164475937492	0.11108845644191039
-0.4755554124374992	0.11481832611072262
-0.4754943772812492	0.1185477626987268
-0.4754333421249992	0.12227723234313963
-0.4753723069687492	0.12600702618208778
-0.4753112718124992	0.1297372335834293
-0.4752502366562492	0.13346772756208533
-0.4751892014999992	0.13719816636144788
-0.4751281663437492	0.1409280129290603
-0.4750671311874992	0.14465656781077618
-0.4750060960312492	0.148383012116044
-0.4749450608749992	0.1521064612846733
-0.4748840257187492	0.15582602524949019
-0.4748229905624992	0.1595408676061672
-0.4747619554062492	0.1632502609497182
-0.4747009202499992	0.16695363484825276
-0.4746398850937492	0.1706506114586491
-0.4745788499374992	0.1743410257696652
-0.4745178147812492	0.178024928419934
-0.4744567796249992	0.18170257139371562
-0.4743957444687492	0.18537437888058195
-0.4743347093124992	0.18904090529185982
-0.4742736741562492	0.1927027829108804
-0.4742126389999992	0.1963606623996261
-0.4741516038437492	0.20001515054101265
-0.4740905686874992	0.20366675185452868
-0.4740295335312492	0.20731581917101463
-0.4739684983749992	0.21096251474213357
-0.4739074632187492	0.2146067853973027
-0.4738464280624992	0.2182483569681159
-0.4737853929062492	0.22188674850703152
-0.4737243577499992	0.2255213030424117
-0.4736633225937492	0.22915123164370965
-0.4736022874374992	0.23277566772027397
-0.4735412522812492	0.23639372844102965
-0.4734802171249992	0.24000457886780133
-0.4734191819687492	0.2436074931431874
-0.4733581468124992	0.24720190754916838
-0.4732971116562492	0.250787460823226
-0.4732360764999992	0.25436401784118334
-0.4731750413437492	0.2579316743007577
-0.4731140061874992	0.2614907426879137
-0.4730529710312492	0.2650417216780213
-0.4729919358749992	0.268585250101739
-0.4729309007187492	0.2721220476880549
-0.4728698655624992	0.2756528491920835
-0.4728088304062492	0.2791783382867687
-0.4727477952499992	0.28269908447204706
-0.4726867600937492	0.28621548719482925
-0.4726257249374992	0.28972773219020803
-0.4725646897812492	0.29323576371863913
-0.4725036546249992	0.29673927647517934
-0.4724426194687492	0.30023772916640584
-0.4723815843124992	0.30373037801224106
-0.4723205491562492	0.30721632665439247
-0.4722595139999992	0.31069458870222944
-0.4721984788437492	0.3141641586049419
-0.4721374436874992	0.31762408506907636
-0.4720764085312492	0.32107354134874266
-0.4720153733749992	0.32451188681302884
-0.4719543382187492	0.32793871413082804
-0.4718933030624992	0.3313538785151608
-0.4718322679062492	0.33475750615572514
-0.4717712327499992	0.3381499800596719
-0.4717101975937492	0.341531904882721
-0.4716491624374992	0.34490405408230906
-0.4715881272812492	0.34826730341600115
-0.4715270921249992	0.35162255538964104
-0.4714660569687492	0.35497065915792203
-0.4714050218124992	0.35831233185978406
-0.4713439866562492	0.36164808957943945
-0.4712829514999992	0.36497819509201984
-0.4712219163437492	0.3683026256391385
-0.4711608811874992	0.37162106196093986
-0.4710998460312492	0.37493290103491994
-0.4710388108749992	0.37823729303586123
-0.4709777757187492	0.3815331987914136
-0.4709167405624992	0.38481946290589997
-0.4708557054062492	0.38809489678328984
-0.4707946702499992	0.3913583654272627
-0.4707336350937492	0.39460887203406336
-0.4706725999374992	0.39784563312153737
-0.4706115647812492	0.40106813753411424
-0.4705505296249992	0.4042761845474218
-0.4704894944687492	0.40746989817795826
-0.4704284593124992	0.4106497162140868
-0.4703674241562492	0.41381635281700174
-0.4703063889999992	0.4169707364684133
-0.4702453538437492	0.420113930071946
-0.4701843186874992	0.42324704103464783
-0.4701232835312492	0.42637112646251246
-0.4700622483749992	0.4294870989568506
-0.4700012132187492	0.4325956418293496
-0.4699401780624992	0.4356971424325947
-0.4698791429062492	0.43879164935670606
-0.4698181077499992	0.4418788564424424
-0.4697570725937492	0.4449581143156725
-0.4696960374374992	0.44802846940353314
