Time	Frequency
-0.5000168309062509	0.7281033260522224
-0.49995579575000093	0.72796674269838
-0.49989476059375093	0.7278067906008674
-0.49983372543750093	0.7276234700506417
-0.49977269028125093	0.7274167906680136
-0.49971165512500093	0.7271867467197835
-0.49965061996875093	0.7269333391368948
-0.49958958481250093	0.7266565833450543
-0.49952854965625093	0.7263564718782787
-0.49946751450000093	0.7260330008987107
-0.49940647934375093	0.7256861752864584
-0.49934544418750093	0.7253159966455279
-0.49928440903125093	0.7249224840432062
-0.49922337387500093	0.7245056414295494
-0.49916233871875093	0.7240654657431577
-0.49910130356250093	0.7236019757978855
-0.49904026840625093	0.7231151819036687
-0.49897923325000093	0.7226050792619155
-0.49891819809375093	0.7220716752701508
-0.49885716293750093	0.721514992465894
-0.49879612778125093	0.7209350420738433
-0.49873509262500093	0.7203318350192405
-0.49867405746875093	0.7197053874047128
-0.49861302231250093	0.7190557073864865
-0.49855198715625093	0.7183828136818573
-0.49849095200000093	0.7176867214479802
-0.49842991684375093	0.7169674335778131
-0.49836888168750093	0.7162249730475911
-0.49830784653125093	0.7154593701972038
-0.49824681137500093	0.714670638678569
-0.49818577621875093	0.7138587898424056
-0.49812474106250093	0.7130238383945919
-0.49806370590625093	0.7121658126547559
-0.49800267075000093	0.711284741159036
-0.49794163559375093	0.7103806375024159
-0.49788060043750093	0.7094535318944399
-0.49781956528125093	0.7085034533224208
-0.49775853012500093	0.7075304184376126
-0.49769749496875093	0.7065344503625905
-0.49763645981250093	0.7055155674980544
-0.49757542465625093	0.704473801426685
-0.49751438950000093	0.7034091916181943
-0.49745335434375093	0.7023217652696723
-0.49739231918750093	0.7012115518318015
-0.49733128403125093	0.7000785752019744
-0.49727024887500093	0.6989228626581948
-0.49720921371875093	0.6977444458245433
-0.49714817856250093	0.6965433526353351
-0.49708714340625093	0.6953196277392774
-0.49702610825000093	0.6940733053832613
-0.49696507309375093	0.6928044042224095
-0.49690403793750093	0.6915129642008933
-0.49684300278125093	0.6901990381037028
-0.49678196762500093	0.6888626606499905
-0.49672093246875093	0.6875038576762748
-0.49665989731250093	0.6861226735690648
-0.49659886215625093	0.684719146612743
-0.49653782700000093	0.6832933074635487
-0.49647679184375093	0.6818452047321076
-0.49641575668750093	0.6803748800152982
-0.49635472153125093	0.6788823587753741
-0.49629368637500093	0.6773676885982045
-0.49623265121875093	0.6758309386473202
-0.49617161606250093	0.6742721491068058
-0.49611058090625093	0.6726913449808379
-0.49604954575000093	0.6710885789487735
-0.49598851059375093	0.6694639064764335
-0.49592747543750093	0.6678173626514132
-0.49586644028125093	0.6661489876890541
-0.49580540512500093	0.6644588473525644
-0.49574436996875093	0.6627469995677013
-0.49568333481250093	0.6610134733245158
-0.49562229965625093	0.659258304653336
-0.49556126450000093	0.6574815519322004
-0.49550022934375093	0.655683283112351
-0.49543919418750093	0.6538635511074952
-0.49537815903125093	0.6520223908886084
-0.49531712387500093	0.6501598632822385
-0.49525608871875093	0.648276042569546
-0.49519505356250093	0.646370981339025
-0.49513401840625093	0.6444447309899516
-0.49507298325000093	0.6424973426896506
-0.49501194809375093	0.6405288684124704
-0.49495091293750093	0.6385393693270565
-0.49488987778125093	0.6365289050090355
-0.49482884262500093	0.6344975372990668
-0.49476780746875093	0.6324453216534605
-0.49470677231250093	0.6303723107005543
-0.49464573715625093	0.6282785692640348
-0.49458470200000093	0.6261641643600625
-0.49452366684375093	0.6240291571751095
-0.49446263168750093	0.6218736033033585
-0.49440159653125093	0.6196975655801997
-0.49434056137500093	0.617501120223146
-0.49427952621875093	0.6152843426219602
-0.49421849106250093	0.6130472926616745
-0.49415745590625093	0.6107900304491659
-0.49409642075000093	0.6085126335534822
-0.49403538559375093	0.6062151678261236
-0.49397435043750093	0.6038976911943557
-0.49391331528125093	0.6015602759925235
-0.49385228012500093	0.5992029828101085
-0.49379124496875093	0.5968258703838373
-0.49373020981250093	0.5944290277429326
-0.49366917465625093	0.5920125469665093
-0.49360813950000093	0.5895764964768598
-0.49354710434375093	0.5871209453021912
-0.49348606918750093	0.5846459672512443
-0.49342503403125093	0.5821516270117566
-0.49336399887500093	0.5796379943610618
-0.49330296371875093	0.5771051450874527
-0.49324192856250093	0.5745531593262424
-0.49318089340625093	0.571982121929064
-0.49311985825000093	0.5693921074393709
-0.49305882309375093	0.5667831887833233
-0.49299778793750093	0.5641554466824075
-0.49293675278125093	0.561508964813737
-0.49287571762500093	0.5588438322434224
-0.49281468246875093	0.5561601300160814
-0.49275364731250093	0.5534579317918807
-0.49269261215625093	0.5507373148641787
-0.49263157700000093	0.5479983656880031
-0.49257054184375093	0.5452411760957534
-0.49250950668750093	0.5424658183338337
-0.49244847153125093	0.5396723706931477
-0.49238743637500093	0.5368609289016443
-0.49232640121875093	0.5340315829782256
-0.49226536606250093	0.5311844181896104
-0.49220433090625093	0.5283195086270904
-0.49214329575000093	0.5254369362013682
-0.49208226059375093	0.5225368007463074
-0.49202122543750093	0.5196191953388763
-0.49196019028125093	0.5166841950318549
-0.49189915512500093	0.5137318875379892
-0.49183811996875093	0.510762380033717
-0.49177708481250093	0.5077757680996441
-0.49171604965625093	0.504772152474978
-0.49165501450000093	0.501751621135903
-0.49159397934375093	0.49871423661884234
-0.49153294418750093	0.4956601034917593
-0.49147190903125093	0.4925893447559731
-0.49141087387500093	0.489502032880818
-0.49134983871875093	0.4863982394591081
-0.49128880356250093	0.48327808056939375
-0.49122776840625093	0.48014168263388246
-0.49116673325000093	0.47698913917704233
-0.49110569809375093	0.47382051520745266
-0.49104466293750093	0.47063591352023887
-0.49098362778125093	0.46743546082794896
-0.49092259262500093	0.46421924505973733
-0.49086155746875093	0.46098735118520706
-0.49080052231250093	0.4577398849837685
-0.49073948715625093	0.45447694352527196
-0.49067845200000093	0.45119860933252903
-0.49061741684375093	0.4479049756755178
-0.49055638168750093	0.4445961746153419
-0.49049534653125093	0.4412723359604344
-0.49043431137500093	0.43793355712163196
-0.49037327621875093	0.4345799352741981
-0.49031224106250093	0.43121156497911667
-0.49025120590625093	0.42782854444953206
-0.49019017075000093	0.42443098594741313
-0.49012913559375093	0.4210189875244417
-0.49006810043750093	0.4175926399113991
-0.49000706528125093	0.41415207006407384
-0.48994603012500093	0.4106974132912204
-0.48988499496875093	0.407228763018892
-0.48982395981250093	0.40374621594869947
-0.48976292465625093	0.40024988726679217
-0.48970188950000093	0.3967398751950349
-0.48964085434375093	0.3932162786106877
-0.48957981918750093	0.38967921617676454
-0.48951878403125093	0.38612881365267726
-0.48945774887500093	0.3825651827392421
-0.48939671371875093	0.3789884284218283
-0.48933567856250093	0.37539867156629325
-0.48927464340625093	0.3717960281571486
-0.48921360825000093	0.3681805994245175
-0.48915257309375093	0.3645524916353356
-0.48909153793750093	0.36091180982861426
-0.48903050278125093	0.3572586749328704
-0.48896946762500093	0.3535932200906319
-0.48890843246875093	0.3499155496599876
-0.48884739731250093	0.34622576536391336
-0.48878636215625093	0.3425239880037925
-0.48872532700000093	0.3388103417815197
-0.48866429184375093	0.33508494928228183
-0.48860325668750093	0.3313479298434888
-0.48854222153125093	0.32759941081668403
-0.48848118637500093	0.32383951572059366
-0.48842015121875093	0.32006834024084013
-0.48835911606250093	0.31628597129394487
-0.48829808090625093	0.3124925299605092
-0.48823704575000093	0.3086881752198888
-0.48817601059375093	0.30487304565463236
-0.48811497543750093	0.3010472374079747
-0.48805394028125093	0.29721084819355964
-0.48799290512500093	0.2933640024385397
-0.48793186996875093	0.289506843321163
-0.48787083481250093	0.2856395116075459
-0.48780979965625093	0.2817621191948939
-0.48774876450000093	0.2778747595670093
-0.48768772934375093	0.2739775534293525
-0.48762669418750093	0.2700706396762889
-0.48756565903125093	0.2661541518797365
-0.48750462387500093	0.2622282276209665
-0.48744358871875093	0.2582929891196685
-0.48738255356250093	0.2543485343810947
-0.48732151840625093	0.2503949711657102
-0.48726048325000093	0.24643244022223706
-0.48719944809375093	0.24246108550471485
-0.48713841293750093	0.23848102974189872
-0.48707737778125093	0.23449239267178018
-0.48701634262500093	0.23049529095095517
-0.48695530746875093	0.22648985086427328
-0.48689427231250093	0.22247621623664626
-0.48683323715625093	0.21845451381120448
-0.48677220200000093	0.21442487584639908
-0.48671116684375093	0.2103874476850793
-0.48665013168750093	0.20634235088319308
-0.48658909653125093	0.20228971116307806
-0.48652806137500093	0.19822965771856385
-0.48646702621875093	0.19416231196374276
-0.48640599106250093	0.19008781154271231
-0.48634495590625093	0.186006286270554
-0.48628392075000093	0.1819178404917132
-0.48622288559375093	0.17782259339640655
-0.48616185043750093	0.17372070366449555
-0.48610081528125093	0.16961232254460168
-0.48603978012500093	0.16549757560841147
-0.48597874496875093	0.16137659035472107
-0.48591770981250093	0.15724948748569323
-0.48585667465625093	0.1531163882601239
-0.48579563950000093	0.1489774400235054
-0.48573460434375093	0.144832795221824
-0.48567356918750093	0.14068257376233623
-0.48561253403125093	0.13652688505705216
-0.48555149887500093	0.1323658652748464
-0.48549046371875093	0.12819965463702057
-0.48542942856250093	0.12402838568539658
-0.48536839340625093	0.11985219816248077
-0.48530735825000093	0.11567123109734134
-0.48524632309375093	0.1114856194503596
-0.48518528793750093	0.10729549170034133
-0.48512425278125093	0.10310097116321686
-0.48506321762500093	0.09890220281222561
-0.48500218246875093	0.09469933861813103
-0.48494114731250093	0.09049250459199575
-0.48488011215625093	0.08628183555120668
-0.48481907700000093	0.08206747259555185
-0.48475804184375093	0.07784953098308188
-0.48469700668750093	0.07362814571402099
-0.48463597153125093	0.06940347726416973
-0.48457493637500093	0.06517566242356891
-0.48451390121875093	0.0609448238386628
-0.48445286606250093	0.0567110979703997
-0.48439183090625093	0.052474621266771125
-0.48433079575000093	0.04823553091932016
-0.48426976059375093	0.043993978283993915
-0.48420872543750093	0.03975010737959225
-0.48414769028125093	0.03550404042971424
-0.48408665512500093	0.03125589542362741
-0.48402561996875093	0.027005809728024306
-0.48396458481250093	0.022753916994272944
-0.48390354965625093	0.018500350787019573
-0.48384251450000093	0.014245280561030763
-0.48378147934375093	0.009988853474797395
-0.48372044418750093	0.005731181837744936
-0.48365940903125093	0.0014724054717956845
-0.48359837387500093	-0.0027873235856366095
-0.48353733871875093	-0.007047862009889248
-0.48347630356250093	-0.011309073145552899
-0.48341526840625093	-0.015570839276325122
-0.48335423325000093	-0.01983304823865092
-0.48329319809375093	-0.024095555083358654
-0.48323216293750093	-0.02835817843587451
-0.48317112778125093	-0.032620766787130114
-0.48311009262500093	-0.03688320630317162
-0.48304905746875093	-0.041145359246166455
-0.48298802231250093	-0.045407084554891876
-0.48292698715625093	-0.049668249885700316
-0.48286595200000093	-0.053928707966182425
-0.48280491684375093	-0.05818832555260577
-0.48274388168750093	-0.06244696713259772
-0.48268284653125093	-0.06670447185752569
-0.48262181137500093	-0.07096070607876466
-0.48256077621875093	-0.07521556856266459
-0.48249974106250093	-0.07946892767578721
-0.48243870590625093	-0.08372062166096932
-0.48237767075000093	-0.08797050216939131
-0.48231663559375093	-0.09221842283828434
-0.48225560043750093	-0.0964642446572344
-0.48219456528125093	-0.10070783959927895
-0.48213353012500093	-0.10494905477341816
-0.48207249496875093	-0.10918774435235197
-0.48201145981250093	-0.11342379424222361
-0.48195042465625093	-0.11765708031165587
-0.48188938950000093	-0.12188744954570464
-0.48182835434375093	-0.12611475147137632
-0.48176731918750093	-0.13033885796070635
-0.48170628403125093	-0.13455963439353136
-0.48164524887500093	-0.13877693097000499
-0.48158421371875093	-0.1429906040076932
-0.48152317856250093	-0.14720051335781972
-0.48146214340625093	-0.1514065154905184
-0.48140110825000093	-0.15560848730362528
-0.48134007309375093	-0.15980630975558685
-0.48127903793750093	-0.16399983345138391
-0.48121800278125093	-0.16818891273024894
-0.48115696762500093	-0.17237340990832414
-0.48109593246875093	-0.17655317921140556
-0.48103489731250093	-0.18072809477678317
-0.48097386215625093	-0.18489802924138932
-0.48091282700000093	-0.18906283089859202
-0.48085179184375093	-0.19322235714842056
-0.48079075668750093	-0.1973764831219454
-0.48072972153125093	-0.2015250730953599
-0.48066868637500093	-0.20566797435803397
-0.48060765121875093	-0.2098050462124855
-0.48054661606250093	-0.2139361542871509
-0.48048558090625093	-0.21806116732340916
-0.48042454575000093	-0.2221799623539416
-0.48036351059375093	-0.2262924030022059
-0.48030247543750093	-0.2303983491134791
-0.48024144028125093	-0.234497662522835
-0.48018040512500093	-0.23859021126577576
-0.48011936996875093	-0.2426758640254011
-0.48005833481250093	-0.24675447622330368
-0.47999729965625093	-0.2508259118376932
-0.47993626450000093	-0.2548900331525606
-0.47987522934375093	-0.25894669563548955
-0.47981419418750093	-0.2629957726252986
-0.47975315903125093	-0.26703713621563946
-0.47969212387500093	-0.27107063838534196
-0.47963108871875093	-0.27509615026569006
-0.47957005356250093	-0.27911357344391785
-0.47950901840625093	-0.28312276682413345
-0.47944798325000093	-0.28712355877728213
-0.47938694809375093	-0.2911158183040283
-0.47932591293750093	-0.2950994217940695
-0.47926487778125093	-0.29907424147783573
-0.47920384262500093	-0.3030401541453427
-0.47914280746875093	-0.3069970348331482
-0.47908177231250093	-0.31094476324880005
-0.47902073715625093	-0.31488318164301876
-0.47895970200000093	-0.318812136166806
-0.47889866684375093	-0.3227315245987631
-0.47883763168750093	-0.32664122591691125
-0.47877659653125093	-0.33054109882425026
-0.47871556137500093	-0.3344310154134406
-0.47865452621875093	-0.3383108426846641
-0.47859349106250093	-0.3421804498150272
-0.47853245590625093	-0.3460397088540902
-0.47847142075000093	-0.34988848615981993
-0.47841038559375093	-0.3537266624187
-0.47834935043750093	-0.3575541147096782
-0.47828831528125093	-0.3613706985936786
-0.47822728012500093	-0.36517627567854666
-0.47816624496875093	-0.36897073952022363
-0.47810520981250093	-0.3727539889292545
-0.47804417465625093	-0.3765258733407207
-0.47798313950000093	-0.38028623777207443
-0.47792210434375093	-0.384034965392486
-0.47786106918750093	-0.38777194847728425
-0.47780003403125093	-0.39149708206693823
-0.47773899887500093	-0.3952102392386949
-0.47767796371875093	-0.3989112773156999
-0.47761692856250093	-0.40260007119600993
-0.47755589340625093	-0.40627649763846585
-0.47749485825000093	-0.4099404331814656
-0.47743382309375093	-0.4135917538603104
-0.47737278793750093	-0.4172303303805427
-0.47731175278125093	-0.42085604106522556
-0.47725071762500093	-0.4244687692683174
-0.47718968246875093	-0.42806840019789577
-0.47712864731250093	-0.4316548119060565
-0.47706761215625093	-0.43522788300513643
-0.47700657700000093	-0.4387874924933107
-0.47694554184375093	-0.44233349832350183
-0.47688450668750093	-0.4458657871330794
-0.47682347153125093	-0.44938426680519505
-0.47676243637500093	-0.45288880466839443
-0.47670140121875093	-0.45637926543279267
-0.47664036606250093	-0.4598555338392458
-0.47657933090625093	-0.4633174987292619
-0.47651829575000093	-0.46676504348261677
-0.47645726059375093	-0.47019804701108864
-0.47639622543750093	-0.4736164068079415
-0.47633519028125093	-0.4770200072015432
-0.47627415512500093	-0.48040871302400884
-0.47621311996875093	-0.48378241580236075
-0.47615208481250093	-0.4871410020171795
-0.47609104965625093	-0.4904843450141511
-0.47603001450000093	-0.49381234476342517
-0.47596897934375093	-0.49712490211327404
-0.47590794418750093	-0.5004218954357865
-0.47584690903125093	-0.5037031975150635
-0.47578587387500093	-0.5069686920737247
-0.47572483871875093	-0.5102182775596589
-0.47566380356250093	-0.513451849839585
-0.47560276840625093	-0.5166692868990069
-0.47554173325000093	-0.5198704676038989
-0.47548069809375093	-0.5230552939894749
-0.47541966293750093	-0.5262236744815776
-0.47535862778125093	-0.529375497223169
-0.47529759262500093	-0.5325106406252209
-0.47523655746875093	-0.5356289973656687
-0.47517552231250093	-0.5387304688902477
-0.47511448715625093	-0.5418149457715923
-0.47505345200000093	-0.544882313696333
-0.47499241684375093	-0.5479324678576004
-0.47493138168750093	-0.5509653036093427
-0.47487034653125093	-0.5539807189536022
-0.47480931137500093	-0.556978619048974
-0.47474827621875093	-0.5599588981993722
-0.47468724106250093	-0.5629214445917328
-0.47462620590625093	-0.5658661593053519
-0.47456517075000093	-0.5687929462929631
-0.47450413559375093	-0.5717017068470323
-0.47444310043750093	-0.5745923347512762
-0.47438206528125093	-0.5774647183044969
-0.47432103012500093	-0.5803187692305279
-0.47425999496875093	-0.5831544015440783
-0.47419895981250093	-0.5859715102454367
-0.47413792465625093	-0.5887699839156083
-0.47407688950000093	-0.5915497245364126
-0.47401585434375093	-0.594310642419296
-0.47395481918750093	-0.5970526267136153
-0.47389378403125093	-0.5997756002215632
-0.47383274887500093	-0.6024794518394557
-0.47377171371875093	-0.6051639849306404
-0.47371067856250093	-0.6078291668827813
-0.47364964340625093	-0.6104750880418254
-0.47358860825000093	-0.6131016828295143
-0.47352757309375093	-0.6157087983598419
-0.47346653793750093	-0.618296300255377
-0.47340550278125093	-0.6208640676335679
-0.47334446762500093	-0.6234120160163343
-0.47328343246875093	-0.6259400528935622
-0.47322239731250093	-0.628448059138124
-0.47316136215625093	-0.6309359434143583
-0.47310032700000093	-0.6334036315667045
-0.47303929184375093	-0.6358510276959877
-0.47297825668750093	-0.6382780381953855
-0.47291722153125093	-0.6406845811114452
-0.47285618637500093	-0.6430705755291084
-0.47279515121875093	-0.6454359396702007
-0.47273411606250093	-0.6477805774171482
-0.47267308090625093	-0.6501044029164793
-0.47261204575000093	-0.6524073460192814
-0.47255101059375093	-0.6546893223641674
-0.47248997543750093	-0.6569502514068933
-0.47242894028125093	-0.659190058752257
-0.47236790512500093	-0.6614086644376979
-0.47230686996875093	-0.6636059908718965
-0.47224583481250093	-0.6657819532150111
-0.47218479965625093	-0.6679364675362554
-0.47212376450000093	-0.6700694683358354
-0.47206272934375093	-0.6721808911153326
-0.47200169418750093	-0.6742706462336782
-0.47194065903125093	-0.6763386544219661
-0.47187962387500093	-0.6783848554140646
-0.47181858871875093	-0.6804091667866422
-0.47175755356250093	-0.6824115210107706
-0.47169651840625093	-0.6843918604216991
-0.47163548325000093	-0.6863501046191384
-0.47157444809375093	-0.6882861790976814
-0.47151341293750093	-0.6902000156564865
-0.47145237778125093	-0.6920915477920552
-0.47139134262500093	-0.6939607074174649
-0.47133030746875093	-0.6958074285281212
-0.47126927231250093	-0.6976316489864831
-0.47120823715625093	-0.6994332983326496
-0.47114720200000093	-0.7012123067844409
-0.47108616684375093	-0.7029686131036778
-0.47102513168750093	-0.7047021564556701
-0.47096409653125093	-0.7064128677525929
-0.47090306137500093	-0.7081006888030037
-0.47084202621875093	-0.7097655666189513
-0.47078099106250093	-0.7114074258896685
-0.47071995590625093	-0.7130261995668314
-0.47065892075000093	-0.7146218458823805
-0.47059788559375093	-0.7161943099939654
-0.47053685043750093	-0.7177435187517587
-0.47047581528125093	-0.7192694092794792
-0.47041478012500093	-0.7207719281895241
-0.47035374496875093	-0.722251023833916
-0.47029270981250093	-0.7237066442423006
-0.47023167465625093	-0.72513873008247
-0.47017063950000093	-0.7265472278277199
