Time	Frequency
-0.5000346678437495	-0.6948368602540677
-0.4999736326874995	-0.6959023461929329
-0.4999125975312495	-0.6969473150982829
-0.4998515623749995	-0.6979715903179129
-0.4997905272187495	-0.6989749560181018
-0.4997294920624995	-0.6999571950932895
-0.4996684569062495	-0.7009181280044317
-0.4996074217499995	-0.7018576435587571
-0.4995463865937495	-0.7027757147690405
-0.4994853514374995	-0.7036723966609219
-0.4994243162812495	-0.704547807306263
-0.4993632811249995	-0.7054020967864829
-0.4993022459687495	-0.7062354103650398
-0.4992412108124995	-0.7070478525196953
-0.4991801756562495	-0.7078394593216585
-0.4991191404999995	-0.7086101859200125
-0.4990581053437495	-0.7093599119777271
-0.4989970701874995	-0.7100884630987091
-0.4989360350312495	-0.7107956427286853
-0.4988749998749995	-0.7114812680210806
-0.4988139647187495	-0.7121452025436036
-0.4987529295624995	-0.7127873780686899
-0.4986918944062495	-0.7134078006814071
-0.4986308592499995	-0.7140065406237444
-0.4985698240937495	-0.7145837083732332
-0.4985087889374995	-0.7151394229544715
-0.4984477537812495	-0.7156737798315362
-0.4983867186249995	-0.7161868244583919
-0.4983256834687495	-0.7166785372465283
-0.4982646483124995	-0.717148834927939
-0.4982036131562495	-0.7175975883781789
-0.4981425779999995	-0.7180246518077257
-0.4980815428437495	-0.7184298963341332
-0.4980205076874995	-0.7188132390295527
-0.4979594725312495	-0.7191746596412917
-0.4978984373749995	-0.7195142025451685
-0.4978374022187495	-0.71983196370088
-0.4977763670624995	-0.7201280641777397
-0.4977153319062495	-0.720402616759814
-0.4976542967499995	-0.7206556937769419
-0.4975932615937495	-0.720887302840655
-0.4975322264374995	-0.7210973766397181
-0.4974711912812495	-0.7212857808046585
-0.4974101561249995	-0.7214523383282433
-0.4973491209687495	-0.7215968646115525
-0.4972880858124995	-0.7217192062018187
-0.4972270506562495	-0.7218192747626377
-0.4971660154999995	-0.7218970675145274
-0.4971049803437495	-0.7219526694604275
-0.4970439451874995	-0.7219862367725892
-0.4969829100312495	-0.7219979647829026
-0.4969218748749995	-0.7219880477304682
-0.4968608397187495	-0.7219566374592777
-0.4967998045624995	-0.7219038097065452
-0.4967387694062495	-0.7218295481011217
-0.4966777342499995	-0.721733748662026
-0.4966166990937495	-0.7216162400859982
-0.4965556639374995	-0.7214768166499524
-0.4964946287812495	-0.72131527944971
-0.4964335936249995	-0.7211314762300415
-0.4963725584687495	-0.7209253309825626
-0.4963115233124995	-0.7206968573820705
-0.4962504881562495	-0.7204461524306316
-0.4961894529999995	-0.7201733728074045
-0.4961284178437495	-0.7198787005125119
-0.4960673826874995	-0.7195623046237514
-0.4960063475312495	-0.7192243064088291
-0.4959453123749995	-0.7188647557867862
-0.4958842772187495	-0.7184836259149242
-0.4958232420624995	-0.7180808260494942
-0.4957622069062495	-0.7176562271235207
-0.4957011717499995	-0.7172096942249839
-0.4956401365937495	-0.7167411197493623
-0.4955791014374995	-0.7162504504046311
-0.4955180662812495	-0.715737701223917
-0.4954570311249995	-0.7152029522089901
-0.4953959959687495	-0.71464632929898
-0.4953349608124995	-0.7140679752150051
-0.4952739256562495	-0.7134680176019099
-0.4952128904999995	-0.7128465420624523
-0.4951518553437495	-0.712203575040032
-0.4950908201874995	-0.7115390796227656
-0.4950297850312495	-0.7108529637731448
-0.4949687498749995	-0.7101450995904403
-0.4949077147187495	-0.7094153547995161
-0.4948466795624995	-0.7086636289410828
-0.4947856444062495	-0.7078898806390572
-0.4947246092499995	-0.7070941410937245
-0.4946635740937495	-0.7062765127405907
-0.4946025389374995	-0.7054371527351033
-0.4945415037812495	-0.7045762452799166
-0.4944804686249995	-0.7036939687289943
-0.4944194334687495	-0.7027904645154612
-0.4943583983124995	-0.7018658137854041
-0.4942973631562495	-0.7009200248462922
-0.4942363279999995	-0.699953033997134
-0.4941752928437495	-0.6989647216848899
-0.4941142576874995	-0.69795494138733
-0.4940532225312495	-0.6969235543601475
-0.4939921873749995	-0.6958704635608962
-0.4939311522187495	-0.6947956386539607
-0.4938701170624995	-0.6936991238422294
-0.4938090819062495	-0.6925810287370716
-0.4937480467499995	-0.6914415095494091
-0.4936870115937495	-0.6902807443488463
-0.4936259764374995	-0.6890989033262745
-0.4935649412812495	-0.6878961195473687
-0.4935039061249995	-0.6866724680068412
-0.4934428709687495	-0.6854279595048421
-0.4933818358124995	-0.6841625508428021
-0.4933208006562495	-0.6828761644775968
-0.4932597654999995	-0.6815687113883734
-0.4931987303437495	-0.6802401167593545
-0.4931376951874995	-0.6788903449783698
-0.4930766600312495	-0.6775194148806749
-0.4930156248749995	-0.6761274005809603
-0.4929545897187495	-0.6747144215090259
-0.4928935545624995	-0.6732806240859776
-0.4928325194062495	-0.6718261550561155
-0.4927714842499995	-0.6703511335344949
-0.4927104490937495	-0.6688556308512167
-0.4926494139374995	-0.6673396622887552
-0.4925883787812495	-0.6658031945391671
-0.4925273436249995	-0.6642461669890498
-0.4924663084687495	-0.6626685153286602
-0.4924052733124995	-0.6610701919310166
-0.4923442381562495	-0.6594511858494413
-0.4922832029999995	-0.6578115365360556
-0.4922221678437495	-0.65615133342428
-0.4921611326874995	-0.6544707054944249
-0.4921000975312495	-0.652769805459377
-0.4920390623749995	-0.651048790169642
-0.4919780272187495	-0.6493077990870404
-0.4919169920624995	-0.6475469327838581
-0.4918559569062495	-0.6457662400761995
-0.4917949217499995	-0.643965719981044
-0.4917338865937495	-0.6421453330732199
-0.4916728514374995	-0.6403050178940431
-0.4916118162812495	-0.6384447132674353
-0.4915507811249995	-0.6365643826464168
-0.4914897459687495	-0.6346640319816362
-0.4914287108124995	-0.6327437162113211
-0.4913676756562495	-0.6308035343598541
-0.4913066404999995	-0.6288436153133016
-0.4912456053437495	-0.6268640990635256
-0.4911845701874995	-0.6248651195914727
-0.4911235350312495	-0.6228467928765195
-0.4910624998749995	-0.6208092096542978
-0.4910014647187495	-0.6187524313427023
-0.4909404295624995	-0.6166764911351345
-0.4908793944062495	-0.6145814021357405
-0.4908183592499995	-0.6124671678587483
-0.4907573240937495	-0.610333794115916
-0.4906962889374995	-0.6081813051250851
-0.4906352537812495	-0.6060097533477644
-0.4905742186249995	-0.603819213880807
-0.4905131834687495	-0.6016097739543593
-0.4904521483124995	-0.5993815253311193
-0.4903911131562495	-0.5971345546726701
-0.4903300779999995	-0.5948689343655736
-0.4902690428437495	-0.5925847225870737
-0.4902080076874995	-0.5902819694329597
-0.4901469725312495	-0.5879607199931463
-0.4900859373749995	-0.5856210157509443
-0.4900249022187495	-0.5832628995725608
-0.4899638670624995	-0.5808864240455229
-0.4899028319062495	-0.5784916585883094
-0.4898417967499995	-0.5760786897037866
-0.4897807615937495	-0.5736476165636809
-0.4897197264374995	-0.57119854644095
-0.4896586912812495	-0.5687315865746183
-0.4895976561249995	-0.5662468319896724
-0.4895366209687495	-0.5637443570563871
-0.4894755858124995	-0.5612242147222543
-0.4894145506562495	-0.5586864418444023
-0.4893535154999995	-0.5561310693364852
-0.4892924803437495	-0.5535581322399525
-0.4892314451874995	-0.5509676768596907
-0.4891704100312495	-0.5483597680623411
-0.4891093748749995	-0.545734494858329
-0.4890483397187495	-0.5430919692866782
-0.4889873045624995	-0.5404323163983323
-0.4889262694062495	-0.5377556578123032
-0.4888652342499995	-0.5350620986616615
-0.4888041990937495	-0.5323517244054905
-0.4887431639374995	-0.5296246006265707
-0.4886821287812495	-0.5268807689891079
-0.4886210936249995	-0.5241202482655434
-0.4885600584687495	-0.5213430500972732
-0.4884990233124995	-0.5185492002903624
-0.4884379881562495	-0.5157387507868669
-0.4883769529999995	-0.5129117821826558
-0.4883159178437495	-0.5100684055080819
-0.4882548826874995	-0.5072087626656702
-0.4881938475312495	-0.5043330188268428
-0.4881328123749995	-0.5014413471886006
-0.4880717772187495	-0.49853390999323877
-0.4880107420624995	-0.49561083959707286
-0.4879497069062495	-0.4926722231655918
-0.4878886717499995	-0.4897180960817417
-0.4878276365937495	-0.4867484524706701
-0.4877666014374995	-0.4837632689279178
-0.4877055662812495	-0.48076252747797044
-0.4876445311249995	-0.47774623447954306
-0.4875834959687495	-0.47471443731523044
-0.4875224608124995	-0.4716672343253445
-0.4874614256562495	-0.4686047722066771
-0.4874003904999995	-0.46552723513313665
-0.4873393553437495	-0.46243483034242083
-0.4872783201874995	-0.459327764883444
-0.4872172850312495	-0.45620621591201743
-0.4871562498749995	-0.4530703083349697
-0.4870952147187495	-0.44992010948005157
-0.4870341795624995	-0.44675563732276535
-0.4869731444062495	-0.44357687562020914
-0.4869121092499995	-0.44038379538093086
-0.4868510740937495	-0.43717638025477684
-0.4867900389374995	-0.4339546524931297
-0.4867290037812495	-0.4307186915245717
-0.4866679686249995	-0.4274686349899986
-0.4866069334687495	-0.4242046645233673
-0.4865458983124995	-0.42092698727222155
-0.4864848631562495	-0.41763581837903624
-0.4864238279999995	-0.4143313582136132
-0.4863627928437495	-0.4110137652971107
-0.4863017576874995	-0.40768313882467416
-0.4862407225312495	-0.4043395189988037
-0.4861796873749995	-0.4009829027929376
-0.4861186522187495	-0.3976132657838742
-0.4860576170624995	-0.3942305845189681
-0.4859965819062495	-0.39083486140377693
-0.4859355467499995	-0.3874261483715752
-0.4858745115937495	-0.38400456067618793
-0.4858134764374995	-0.3805702743750464
-0.4857524412812495	-0.37712350634237596
-0.4856914061249995	-0.37366448783493467
-0.4856303709687495	-0.37019344013966354
-0.4855693358124995	-0.3667105482737177
-0.4855083006562495	-0.36321593982080863
-0.4854472654999995	-0.3597096816196861
-0.4853862303437495	-0.35619179055761785
-0.4853251951874995	-0.35266225228341913
-0.4852641600312495	-0.34912104632169705
-0.4852031248749995	-0.34556817171234067
-0.4851420897187495	-0.3420036683906717
-0.4850810545624995	-0.33842763310493607
-0.4850200194062495	-0.3348402248476172
-0.4849589842499995	-0.3312416544937126
-0.4848979490937495	-0.3276321603761871
-0.4848369139374995	-0.3240119753640613
-0.4847758787812495	-0.3203812944369305
-0.4847148436249995	-0.31674025526604666
-0.4846538084687495	-0.31308893545804656
-0.4845927733124995	-0.30942736108452523
-0.4845317381562495	-0.30575552617580193
-0.4844707029999995	-0.30207342219352457
-0.4844096678437495	-0.2983810672115015
-0.4843486326874995	-0.2946785232109861
-0.4842875975312495	-0.29096589912214954
-0.4842265623749995	-0.28724334898177206
-0.4841655272187495	-0.28351106818719185
-0.4841044920624995	-0.27976927920722494
-0.4840434569062495	-0.2760182063883532
-0.4839824217499995	-0.2722580469155408
-0.4839213865937495	-0.26848894771379855
-0.4838603514374995	-0.26471099875790827
-0.4837993162812495	-0.2609242401345324
-0.4837382811249995	-0.25712867833074887
-0.4836772459687495	-0.2533243131713391
-0.4836162108124995	-0.24951116697944623
-0.4835551756562495	-0.2456893058466947
-0.4834941404999995	-0.2418588498462824
-0.4834331053437495	-0.23801996975871392
-0.4833720701874995	-0.23417287148459134
-0.4833110350312495	-0.2303177732647372
-0.4832499998749995	-0.22645488458967322
-0.4831889647187495	-0.2225843909033281
-0.4831279295624995	-0.21870643612175975
-0.4830668944062495	-0.2148211071355322
-0.4830058592499995	-0.21092843676382608
-0.4829448240937495	-0.20702842600501328
-0.4828837889374995	-0.20312107546828334
-0.4828227537812495	-0.19920641361226987
-0.4827617186249995	-0.19528451544993183
-0.4827006834687495	-0.19135551620463911
-0.4826396483124995	-0.18741961386836023
-0.4825786131562495	-0.1834770495980789
-0.4825175779999995	-0.17952807573896887
-0.4824565428437495	-0.17557292644691763
-0.4823955076874995	-0.1716117917697181
-0.4823344725312495	-0.16764480041723703
-0.4822734373749995	-0.16367201782409857
-0.4822124022187495	-0.15969345424590792
-0.4821513670624995	-0.15570908297509337
-0.4820903319062495	-0.15171887101396608
-0.4820292967499995	-0.14772281544091262
-0.4819682615937495	-0.14372097634033706
-0.4819072264374995	-0.13971349495879717
-0.4818461912812495	-0.135700588849912
-0.4817851561249995	-0.13168252841121028
-0.4817241209687495	-0.12765960445423685
-0.4816630858124995	-0.12363209216825129
-0.4816020506562495	-0.1196002173172523
-0.4815410154999995	-0.1155641336770468
-0.4814799803437495	-0.11152391581162885
-0.4814189451874995	-0.10747956899194254
-0.4813579100312495	-0.10343105698812557
-0.4812968748749995	-0.09937833849110324
-0.4812358397187495	-0.09532140151884703
-0.4811748045624995	-0.09126028952960862
-0.4811137694062495	-0.08719511465350697
-0.4810527342499995	-0.08312606009609666
-0.4809916990937495	-0.07905337188876112
-0.4809306639374995	-0.07497733468495121
-0.4808696287812495	-0.07089823298404736
-0.4808085936249995	-0.06681631022644968
-0.4807475584687495	-0.0627317446788407
-0.4806865233124995	-0.058644645434355255
-0.4806254881562495	-0.05455505676437047
-0.4805644529999995	-0.050462973314811754
-0.4805034178437495	-0.04636837032726158
-0.4804423826874995	-0.042271239209963736
-0.4803813475312495	-0.038171619530759676
-0.4803203123749995	-0.034069618859198084
-0.4802592772187495	-0.029965413358245825
-0.4801982420624995	-0.025859232955637735
-0.4801372069062495	-0.02175133553243912
-0.4800761717499995	-0.017641974010624114
-0.4800151365937495	-0.01353136812238443
-0.4799541014374995	-0.009419684275334267
-0.4798930662812495	-0.00530702220157143
-0.4798320311249995	-0.001193416899780515
-0.4797709959687495	0.0029211402037641315
-0.4797099608124995	0.00703666753328525
-0.4796489256562495	0.011153158002401834
-0.4795878904999995	0.015270548470221313
-0.4795268553437495	0.01938869806664038
-0.4794658201874995	0.023507386253040472
-0.4794047850312495	0.027626334255171015
-0.4793437498749995	0.03174524126290345
-0.4792827147187495	0.03586382737611113
-0.4792216795624995	0.03998187186763988
-0.4791606444062495	0.04409923407878369
-0.4790996092499995	0.048215857460399345
-0.4790385740937495	0.05233176068953029
-0.4789775389374995	0.056447011316862854
-0.4789165037812495	0.060561681284811895
-0.4788554686249995	0.06467579684683519
-0.4787944334687495	0.06878930046893274
-0.4787333983124995	0.07290203501533064
-0.4786723631562495	0.07701375039007959
-0.4786113279999995	0.081124128500998
-0.4785502928437495	0.08523282288339687
-0.4784892576874995	0.08933950810061266
-0.4784282225312495	0.09344392733360297
-0.4783671873749995	0.09754592201467822
-0.4783061522187495	0.1016454357695585
-0.4782451170624995	0.1057424985998448
-0.4781840819062495	0.10983719713822726
-0.4781230467499995	0.11392963071084491
-0.4780620115937495	0.11801985954932544
-0.4780009764374995	0.12210785951723623
-0.4779399412812495	0.12619349644590735
-0.4778789061249995	0.13027652494579184
-0.4778178709687495	0.13435661148868414
-0.4777568358124995	0.1384333829701416
-0.4776958006562495	0.14250648851478948
-0.4776347654999995	0.14657565224625727
-0.4775737303437495	0.1506407067872487
-0.4775126951874995	0.15470160234064415
-0.4774516600312495	0.15875838943415646
-0.4773906248749995	0.1628111820769894
-0.4773295897187495	0.16686010504582283
-0.4772685545624995	0.17090523408808722
-0.4772075194062495	0.17494655090247072
-0.4771464842499995	0.17898392225794424
-0.4770854490937495	0.18301709863738133
-0.4770244139374995	0.18704573456143056
-0.4769633787812495	0.19106943358823353
-0.4769023436249995	0.19508781051710622
-0.4768413084687495	0.19910055226476417
-0.4767802733124995	0.20310746036600583
-0.4767192381562495	0.20710846914075393
-0.4766582029999995	0.21110363528047124
-0.4765971678437495	0.21509309816828903
-0.4765361326874995	0.21907702134733978
-0.4764750975312495	0.2230555297484074
-0.4764140623749995	0.22702865415556409
-0.4763530272187495	0.23099629313594863
-0.4762919920624995	0.23495820546208152
-0.4762309569062495	0.2389140374069637
-0.4761699217499995	0.24286337236806474
-0.4761088865937495	0.2468057895869755
-0.4760478514374995	0.2507409266722795
-0.4759868162812495	0.25466853635267184
-0.4759257811249995	0.2585885193022316
-0.4758647459687495	0.2625009203960796
-0.4758037108124995	0.26640589186444114
-0.4757426756562495	0.2703036368044284
-0.4756816404999995	0.27419434336500526
-0.4756206053437495	0.27807811669035404
-0.4755595701874995	0.28195492482684115
-0.4754985350312495	0.2858245763116069
-0.4754374998749995	0.28968673257756083
-0.4753764647187495	0.2935409493868909
-0.4753154295624995	0.2973867412512802
-0.4752543944062495	0.3012236582030255
-0.4751933592499995	0.30505135563978125
-0.4751323240937495	0.30886964040720066
-0.4750712889374995	0.31267848727349
-0.4750102537812495	0.31647802307224854
-0.4749492186249995	0.3202684811048476
-0.4748881834687495	0.32405013693414925
-0.4748271483124995	0.32782323756023696
-0.4747661131562495	0.3315879389273809
-0.4747050779999995	0.3353442627232748
-0.4746440428437495	0.3390920742854939
-0.4745830076874995	0.34283108762349024
-0.4745219725312495	0.3465608983609785
-0.4744609373749995	0.3502810304675356
-0.4743999022187495	0.3539909837824887
-0.4743388670624995	0.35769027719244806
-0.4742778319062495	0.36137848747977175
-0.4742167967499995	0.36505528452902025
-0.4741557615937495	0.3687204588218906
-0.4740947264374995	0.37237393611133707
-0.4740336912812495	0.3760157794528242
-0.4739726561249995	0.3796461794453344
-0.4739116209687495	0.3832654239067997
-0.4738505858124995	0.3868738414279632
-0.4737895506562495	0.3904717332236931
-0.4737285154999995	0.39405930825027485
-0.4736674803437495	0.397636627463235
-0.4736064451874995	0.4012035704555868
-0.4735454100312495	0.4047598357771202
-0.4734843748749995	0.40830497412457717
-0.4734233397187495	0.41183845098839494
-0.4733623045624995	0.41535972826102097
-0.4733012694062495	0.4188683460566941
-0.4732402342499995	0.42236398880232434
-0.4731791990937495	0.42584652301480985
-0.4731181639374995	0.4293159986306902
-0.4730571287812495	0.43277261299787223
-0.4729960936249995	0.4362166420408176
-0.4729350584687495	0.439648354639448
-0.4728740233124995	0.443067931485922
-0.4728129881562495	0.4464754001271908
-0.4727519529999995	0.4498705999577409
-0.4726909178437495	0.45325319393058333
-0.4726298826874995	0.45662272296858225
-0.4725688475312495	0.45997868278628967
-0.4725078123749995	0.4633206079588168
-0.4724467772187495	0.4666481491416035
-0.4723857420624995	0.4699611265449621
-0.4723247069062495	0.4732595484595419
-0.4722636717499995	0.4765435871972775
-0.4722026365937495	0.47981351527379645
-0.4721416014374995	0.4830696208555934
-0.4720805662812495	0.48631212262815304
-0.4720195311249995	0.4895410992378655
-0.4719584959687495	0.49275644781598765
-0.4718974608124995	0.49595788335024393
-0.4718364256562495	0.499144978715575
-0.4717753904999995	0.502317234283346
-0.4717143553437495	0.5054741636647884
-0.4716533201874995	0.5086153781972659
-0.4715922850312495	0.5117406509577762
-0.4715312498749995	0.5148499448142082
-0.4714702147187495	0.5179433990200152
-0.4714091795624995	0.5210212810029913
-0.4713481444062495	0.5240839108525222
-0.4712871092499995	0.5271315689799223
-0.4712260740937495	0.530164409605304
-0.4711650389374995	0.5331824035138123
-0.4711040037812495	0.5361853219495031
-0.4710429686249995	0.5391727636645937
-0.4709819334687495	0.5421442207909053
-0.4709208983124995	0.5450991696169678
-0.4708598631562495	0.548037163943055
-0.4707988279999995	0.5509579114534278
-0.4707377928437495	0.5538613179162114
-0.4706767576874995	0.5567474886990537
-0.4706157225312495	0.5596166876549962
-0.4705546873749995	0.5624692600979736
-0.4704936522187495	0.5653055358437543
-0.4704326170624995	0.5681257363644204
-0.4703715819062495	0.5709299056776465
-0.4703105467499995	0.5737178799409779
-0.4702495115937495	0.5764893033939881
-0.4701884764374995	0.5792436858572504
-0.4701274412812495	0.5819804890871619
-0.4700664061249995	0.5846992239625447
-0.4700053709687495	0.587399537604988
-0.4699443358124995	0.590081271664725
-0.4698833006562495	0.5927444784500425
-0.4698222654999995	0.5953893903730223
-0.4697612303437495	0.5980163492264557
-0.4697001951874995	0.6006257119367071
-0.4696391600312495	0.6032177547458898
-0.4695781248749995	0.6057925949600479
