Time	Frequency
-0.5000321794062508	0.6485859993946871
-0.4999711442500008	0.6474006683417635
-0.4999101090937508	0.646197725688209
-0.4998490739375008	0.6449772004023901
-0.4997880387812508	0.643739155626073
-0.4997270036250008	0.6424836899174131
-0.4996659684687508	0.6412109362207988
-0.4996049333125008	0.6399210586955998
-0.4995438981562508	0.6386142467018502
-0.4994828630000008	0.6372907067310473
-0.4994218278437508	0.6359506548334054
-0.4993607926875008	0.634594309212187
-0.4992997575312508	0.6332218812116793
-0.4992387223750008	0.631833565010268
-0.4991776872187508	0.6304295274714748
-0.4991166520625008	0.629009899480469
-0.4990556169062508	0.627574769991325
-0.4989945817500008	0.62612418262861
-0.4989335465937508	0.6246581332366061
-0.4988725114375008	0.6231765686697366
-0.4988114762812508	0.6216793886017016
-0.4987504411250008	0.6201664507482484
-0.4986894059687508	0.6186375787317446
-0.4986283708125008	0.6170925713356661
-0.4985673356562508	0.6155312124994939
-0.4985063005000008	0.6139532823207713
-0.4984452653437508	0.612358568920376
-0.4983842301875008	0.6107468806674918
-0.4983231950312508	0.6091180580093988
-0.4982621598750008	0.6074719835353144
-0.4982011247187508	0.6058085893682494
-0.4981400895625008	0.6041278621912317
-0.4980790544062508	0.6024298464038524
-0.4980180192500008	0.600714644701717
-0.4979569840937508	0.5989824152499265
-0.4978959489375008	0.5972333665901743
-0.4978349137812508	0.5954677511279538
-0.4977738786250008	0.5936858555994059
-0.4977128434687508	0.5918879887353229
-0.4976518083125008	0.590074468735097
-0.4975907731562508	0.5882456108525028
-0.4975297380000008	0.5864017145876613
-0.4974687028437508	0.5845430512783006
-0.4974076676875008	0.5826698532769314
-0.4973466325312508	0.580782305844166
-0.4972855973750008	0.5788805414913385
-0.4972245622187508	0.5769646364565102
-0.4971635270625008	0.5750346101211914
-0.4971024919062508	0.5730904273427103
-0.4970414567500008	0.5711320034235505
-0.4969804215937508	0.5691592119736089
-0.4969193864375008	0.5671718945723572
-0.4968583512812508	0.5651698709019222
-0.4967973161250008	0.5631529498066671
-0.4967362809687508	0.561120941288846
-0.4966752458125008	0.5590736682867828
-0.4966142106562508	0.5570109775028249
-0.4965531755000008	0.5549327485032723
-0.4964921403437508	0.5528389002379378
-0.4964311051875008	0.5507293951381965
-0.4963700700312508	0.5486042416730016
-0.4963090348750008	0.5464634948962581
-0.4962479997187508	0.5443072537991656
-0.4961869645625008	0.5421356565994213
-0.4961259294062508	0.5399488750171948
-0.4960648942500008	0.5377471067445814
-0.4960038590937508	0.5355305671530081
-0.4959428239375008	0.5332994807474327
-0.4958817887812508	0.531054070935283
-0.4958207536250008	0.528794550596743
-0.4957597184687508	0.5265211158354196
-0.4956986833125008	0.5242339403664679
-0.4956376481562508	0.5219331699371803
-0.4955766130000008	0.5196189191080324
-0.4955155778437508	0.517291270967491
-0.4954545426875008	0.5149502786272593
-0.4953935075312508	0.5125959671903063
-0.4953324723750008	0.5102283368179484
-0.4952714372187508	0.5078473680240958
-0.4952104020625008	0.5054530276593657
-0.4951493669062508	0.5030452745143912
-0.4950883317500008	0.5006240651715749
-0.4950272965937508	0.4981893600644442
-0.4949662614375008	0.4957411299093453
-0.4949052262812508	0.49327936181520377
-0.4948441911250008	0.49080406338253446
-0.4947831559687508	0.4883152640926854
-0.4947221208125008	0.48581301429301893
-0.4946610856562508	0.4832973838364849
-0.4946000505000008	0.48076846140349194
-0.4945390153437508	0.47822635248421136
-0.4944779801875008	0.4756711750590452
-0.4944169450312508	0.4731030541548909
-0.4943559098750008	0.470522116139759
-0.4942948747187508	0.46792848302624335
-0.4942338395625008	0.46532226751386974
-0.4941728044062508	0.46270356929768086
-0.4941117692500008	0.4600724722263606
-0.4940507340937508	0.45742904299228265
-0.4939896989375008	0.4547733319677743
-0.4939286637812508	0.4521053741500709
-0.4938676286250008	0.4494251905718443
-0.4938065934687508	0.44673279250784276
-0.4937455583125008	0.44402818653063286
-0.4936845231562508	0.44131137855751285
-0.4936234880000008	0.4385823778149094
-0.4935624528437508	0.435841201124643
-0.4935014176875008	0.4330878773756167
-0.4934403825312508	0.43032245120487594
-0.4933793473750008	0.4275449852579107
-0.4933183122187508	0.42475556196227526
-0.4932572770625008	0.42195428468829177
-0.4931962419062508	0.41914127679815544
-0.4931352067500008	0.4163166784438001
-0.4930741715937508	0.41348064245035765
-0.4930131364375008	0.4106333299942994
-0.4929521012812508	0.4077749056001018
-0.4928910661250008	0.4049055315163539
-0.4928300309687508	0.40202536206210093
-0.4927689958125008	0.3991345374596423
-0.4927079606562508	0.3962331779257093
-0.4926469255000008	0.3933213800507821
-0.4925858903437508	0.3903992146902805
-0.4925248551875008	0.3874667252117689
-0.4924638200312508	0.3845239276277864
-0.4924027848750008	0.3815708134061143
-0.4923417497187508	0.3786073530541461
-0.4922807145625008	0.375633499856603
-0.4922196794062508	0.37264919643838584
-0.4921586442500008	0.36965438435077563
-0.4920976090937508	0.3666490131969504
-0.4920365739375008	0.3636330473629885
-0.4919755387812508	0.36060647069818136
-0.4919145036250008	0.3575692912695079
-0.4918534684687508	0.35452154773477235
-0.4917924333125008	0.3514633152517024
-0.4917313981562508	0.3483947079934001
-0.4916703630000008	0.3453158772772015
-0.4916093278437508	0.3422270073120407
-0.4915482926875008	0.33912831115482045
-0.4914872575312508	0.33602002523986546
-0.4914262223750008	0.3329024008871952
-0.4913651872187508	0.3297756953995879
-0.4913041520625008	0.3266401634586193
-0.4912431169062508	0.32349604646771035
-0.4911820817500008	0.3203435610312851
-0.4911210465937508	0.31718289053118515
-0.4910600114375008	0.31401418047800883
-0.4909989762812508	0.3108375353139334
-0.4909379411250008	0.3076530152749957
-0.4908769059687508	0.3044606343912471
-0.4908158708125008	0.30126036132051254
-0.4907548356562508	0.2980521235694785
-0.4906938005000008	0.29483581496571987
-0.4906327653437508	0.29161130500856236
-0.4905717301875008	0.2883784488888041
-0.4905106950312508	0.2851370988321602
-0.4904496598750008	0.2818871165573675
-0.4903886247187508	0.27862838540064805
-0.4903275895625008	0.27536082145768975
-0.4902665544062508	0.2720843830162844
-0.4902055192500008	0.268799077561323
-0.4901444840937508	0.2655049666339916
-0.4900834489375008	0.26220216826305626
-0.4900224137812508	0.25889085661532024
-0.4899613786250008	0.2555712593595518
-0.4899003434687508	0.25224365203596927
-0.4898393083125008	0.2489083489442611
-0.4897782731562508	0.245565691835257
-0.4897172380000008	0.24221603741738254
-0.4896562028437508	0.23885974423514653
-0.4895951676875008	0.23549715907958826
-0.4895341325312508	0.23212860340589556
-0.4894730973750008	0.2287543615221343
-0.4894120622187508	0.22537467049585772
-0.4893510270625008	0.22198971100792084
-0.4892899919062508	0.21859960067938095
-0.4892289567500008	0.21520439089942217
-0.4891679215937508	0.21180406815441297
-0.4891068864375008	0.208398559942139
-0.4890458512812508	0.20498774250371862
-0.4889848161250008	0.20157144969008817
-0.4889237809687508	0.19814948404952876
-0.4888627458125008	0.19472163014044302
-0.4888017106562508	0.19128767014215495
-0.4887406755000008	0.18784740043297604
-0.4886796403437508	0.18440064660168665
-0.4886186051875008	0.18094727556026666
-0.4885575700312508	0.17748720543902743
-0.4884965348750008	0.17402041505954513
-0.4884354997187508	0.17054695150487842
-0.4883744645625008	0.1670669327617273
-0.4883134294062508	0.16358054673857708
-0.4882523942500008	0.16008804764130669
-0.4881913590937508	0.15658974763187888
-0.4881303239375008	0.15308600481181092
-0.4880692887812508	0.14957721093748094
-0.4880082536250008	0.14606377868689
-0.4879472184687508	0.14254612640115896
-0.4878861833125008	0.13902466147158263
-0.4878251481562508	0.13549976482937648
-0.4877641130000008	0.1319717771379123
-0.4877030778437508	0.12844098677235377
-0.4876420426875008	0.1249076193802429
-0.4875810075312508	0.12137182968088679
-0.4875199723750008	0.11783369761076347
-0.4874589372187508	0.11429322879489684
-0.4873979020625008	0.1107503581220287
-0.4873368669062508	0.10720495698870419
-0.4872758317500008	0.10365684414917102
-0.4872147965937508	0.10010579857779377
-0.4871537614375008	0.0965515737282735
-0.4870927262812508	0.09299391316938752
-0.4870316911250008	0.08943256693312325
-0.4869706559687508	0.08586730832949108
-0.4869096208125008	0.08229795008530015
-0.4868485856562508	0.07872435748221825
-0.4867875505000008	0.0751464587555472
-0.4867265153437508	0.07156425404977627
-0.4866654801875008	0.0679778212225139
-0.4866044450312508	0.06438731690266122
-0.4865434098750008	0.06079297469186394
-0.4864823747187508	0.057195101227766325
-0.4864213395625008	0.05359406775133681
-0.4863603044062508	0.04999029708134819
-0.4862992692500008	0.04638424761664618
-0.4862382340937508	0.04277639504929974
-0.4861771989375008	0.039167213845080255
-0.4861161637812508	0.035557160252950276
-0.4860551286250008	0.031946655867872494
-0.4859940934687508	0.028336070790352552
-0.4859330583125008	0.024725707954655955
-0.4858720231562508	0.021115791685027672
-0.4858109880000008	0.01750646103062364
-0.4857499528437508	0.013897766503198484
-0.4856889176875008	0.010289670555839413
-0.4856278825312508	0.006682051875045892
-0.4855668473750008	0.0030747132982964173
-0.4855058122187508	-0.0005326050882561636
-0.4854447770625008	-0.004140208912687081
-0.4853837419062508	-0.0077484312437776075
-0.4853227067500008	-0.011357612188854957
-0.4852616715937508	-0.014968076549307815
-0.4852006364375008	-0.01858011172452065
-0.4851396012812508	-0.022193947815779897
-0.4850785661250008	-0.025809741552561796
-0.4850175309687508	-0.029427563302444164
-0.4849564958125008	-0.033047386707750426
-0.4848954606562508	-0.03666908240000503
-0.4848344255000008	-0.04029241740268825
-0.4847733903437508	-0.043917060562031665
-0.4847123551875008	-0.047542592694775544
-0.4846513200312508	-0.05116852110137548
-0.4845902848750008	-0.05479429795006165
-0.4845292497187508	-0.05841934145539189
-0.4844682145625008	-0.06204306010244053
-0.4844071794062508	-0.0656648786087417
-0.4843461442500008	-0.06928426277962806
-0.4842851090937508	-0.07290074219845155
-0.4842240739375008	-0.07651393085029104
-0.4841630387812508	-0.08012354404228528
-0.4841020036250008	-0.08372940974027152
-0.4840409684687508	-0.08733147448794819
-0.4839799333125008	-0.09092980312029429
-0.4839188981562508	-0.0945245720715325
-0.4838578630000008	-0.09811605794540859
-0.4837968278437508	-0.10170462090115072
-0.4837357926875008	-0.1052906823786644
-0.4836747575312508	-0.10887469941058958
-0.4836137223750008	-0.11245713761099613
-0.4835526872187508	-0.1160384422972867
-0.4834916520625008	-0.11961900806298721
-0.4834306169062508	-0.12319915118599929
-0.4833695817500008	-0.12677908776953573
-0.4833085465937508	-0.13035891688061016
-0.4832475114375008	-0.13393860881732803
-0.4831864762812508	-0.13751799984212645
-0.4831254411250008	-0.1410967940134334
-0.4830644059687508	-0.1446745712223788
-0.4830033708125008	-0.14825080129627607
-0.4829423356562508	-0.15182486535589984
-0.4828813005000008	-0.15539608306978786
-0.4828202653437508	-0.15896374212131884
-0.4827592301875008	-0.1625271286062855
-0.4826981950312508	-0.16608556008255845
-0.4826371598750008	-0.16963841908175228
-0.4825761247187508	-0.1731851813910345
-0.4825150895625008	-0.17672543792338252
-0.4824540544062508	-0.18025891101510036
-0.4823930192500008	-0.1837854646409786
-0.4823319840937508	-0.18730510910977574
-0.4822709489375008	-0.19081799930213586
-0.4822099137812508	-0.19432442338206524
-0.4821488786250008	-0.19782478207348322
-0.4820878434687508	-0.20131956223519337
-0.4820268083125008	-0.2048093074159146
-0.4819657731562508	-0.20829458546412968
-0.4819047380000008	-0.21177595344584524
-0.4818437028437508	-0.21525392238009258
-0.4817826676875008	-0.2187289252816975
-0.4817216325312508	-0.222201290337965
-0.4816605973750008	-0.22567121885118382
-0.4815995622187508	-0.22913876800010302
-0.4815385270625008	-0.23260384075242113
-0.4814774919062508	-0.236066185486076
-0.4814164567500008	-0.2395254051126271
-0.4813554215937508	-0.24298097385224435
-0.4812943864375008	-0.24643226083525765
-0.4812333512812508	-0.24987855940145823
-0.4811723161250008	-0.253319120300034
-0.4811112809687508	-0.25675318750463766
-0.4810502458125008	-0.26018003393136657
-0.4809892106562508	-0.263598994185754
-0.4809281755000008	-0.2670094945356048
-0.4808671403437508	-0.27041107949823184
-0.4808061051875008	-0.2738034312303825
-0.4807450700312508	-0.2771863796998636
-0.4806840348750008	-0.2805599048107234
-0.4806229997187508	-0.2839241315887375
-0.4805619645625008	-0.28727931761555214
-0.4805009294062508	-0.2906258323791096
-0.4804398942500008	-0.29396413119671483
-0.4803788590937508	-0.29729472556399456
-0.4803178239375008	-0.30061815012047804
-0.4802567887812508	-0.3039349285255518
-0.4801957536250008	-0.3072455407299025
-0.4801347184687508	-0.310550392621118
-0.4800736833125008	-0.31384978963659
-0.4800126481562508	-0.317143916507786
-0.4799516130000008	-0.32043282467078615
-0.4798905778437508	-0.323716427201971
-0.4798295426875008	-0.3269945003904746
-0.4797685075312508	-0.33026669249445134
-0.4797074723750008	-0.3335325400116806
-0.4796464372187508	-0.33679148978275714
-0.4795854020625008	-0.3400429251136987
-0.4795243669062508	-0.34328619488756584
-0.4794633317500008	-0.34652064472720906
-0.4794022965937508	-0.3497456481731348
-0.4793412614375008	-0.35296063480838213
-0.4792802262812508	-0.3561651145491861
-0.4792191911250008	-0.35935869805045173
-0.4791581559687508	-0.3625411112825084
-0.4790971208125008	-0.36571220391406645
-0.4790360856562508	-0.36887195192208455
-0.4789750505000008	-0.3720204530127103
-0.4789140153437508	-0.3751579143584396
-0.4788529801875008	-0.3782846346316642
-0.4787919450312508	-0.38140098164205555
-0.4787309098750008	-0.3845073657801617
-0.4786698747187508	-0.38760421177474497
-0.4786088395625008	-0.3906919313801308
-0.4785478044062508	-0.3937708971174737
-0.4784867692500008	-0.39684141791893274
-0.4784257340937508	-0.3999037190632356
-0.4783646989375008	-0.4029579278981982
-0.4783036637812508	-0.40600406555415386
-0.4782426286250008	-0.4090420443813479
-0.4781815934687508	-0.4120716709656806
-0.4781205583125008	-0.41509265501707093
-0.4780595231562508	-0.4181046243256239
-0.4779984880000008	-0.42110714445920183
-0.4779374528437508	-0.42409974020263086
-0.4778764176875008	-0.4270819174390614
-0.4778153825312508	-0.43005318591784547
-0.4777543473750008	-0.43301308129399485
-0.4776933122187508	-0.43596118440610554
-0.4776322770625008	-0.4388971371467787
-0.4775712419062508	-0.4418206533294562
-0.4775102067500008	-0.44473152329694404
-0.4774491715937508	-0.44762961374332527
-0.4773881364375008	-0.4505148639746681
-0.4773271012812508	-0.45338727862182937
-0.4772660661250008	-0.45624691760450053
-0.4772050309687508	-0.4590938839321178
-0.4771439958125008	-0.46192830977769544
-0.4770829606562508	-0.46475034189608094
-0.4770219255000008	-0.46756012805542774
-0.4769608903437508	-0.47035780585325293
-0.4768998551875008	-0.47314349352517504
-0.4768388200312508	-0.47591728259102845
-0.4767777848750008	-0.478679233452512
-0.4767167497187508	-0.4814293738589232
-0.4766557145625008	-0.4841676992428258
-0.4765946794062508	-0.4868941750826572
-0.4765336442500008	-0.4896087413432083
-0.4764726090937508	-0.4923113181377919
-0.4764115739375008	-0.49500181261004206
-0.4763505387812508	-0.4976801266607254
-0.4762895036250008	-0.5003461636037742
-0.4762284684687508	-0.5029998331088579
-0.4761674333125008	-0.5056410552383247
-0.4761063981562508	-0.5082697632983444
-0.4760453630000008	-0.5108859044350894
-0.4759843278437508	-0.5134894377178282
-0.4759232926875008	-0.5160803305218484
-0.4758622575312508	-0.5186585538327985
-0.4758012223750008	-0.5212240761795743
-0.4757401872187508	-0.5237768565095458
-0.4756791520625008	-0.5263168377209257
-0.4756181169062508	-0.5288439415003694
-0.4755570817500008	-0.531358063206731
-0.4754960465937508	-0.5338590669801031
-0.4754350114375008	-0.5363467827488465
-0.4753739762812508	-0.5388210058007409
-0.4753129411250008	-0.5412814990329892
-0.4752519059687508	-0.5437279974963971
-0.4751908708125008	-0.546160214609963
-0.4751298356562508	-0.5485778503465109
-0.4750688005000008	-0.5509806016622354
-0.4750077653437508	-0.5533681744377222
-0.4749467301875008	-0.5557402956533196
-0.4748856950312508	-0.5580967252309107
-0.4748246598750008	-0.5604372673744421
-0.4747636247187508	-0.5627617800162775
-0.4747025895625008	-0.5650701814163015
-0.4746415544062508	-0.5673624544968506
-0.4745805192500008	-0.569638648489687
-0.4745194840937508	-0.5718988765916554
-0.4744584489375008	-0.5741433097702333
-0.4743974137812508	-0.5763721676760336
-0.4743363786250008	-0.578585706723845
-0.4742753434687508	-0.5807842053172886
-0.4742143083125008	-0.5829679474502701
-0.4741532731562508	-0.5851372059113285
-0.4740922380000008	-0.5872922255250598
-0.4740312028437508	-0.5894332074253263
-0.4739701676875008	-0.5915602954975263
-0.4739091325312508	-0.5936735653729867
-0.4738480973750008	-0.595773016860411
-0.4737870622187508	-0.5978585709345566
-0.4737260270625008	-0.5999300709280831
-0.4736649919062508	-0.6019872871663398
-0.4736039567500008	-0.6040299253121684
-0.4735429215937508	-0.6060576386121724
-0.4734818864375008	-0.6080700433249803
-0.4734208512812508	-0.6100667364450021
-0.4733598161250008	-0.612047314887932
-0.4732987809687508	-0.6140113946993047
-0.4732377458125008	-0.6159586288702428
-0.4731767106562508	-0.6178887232882678
-0.4731156755000008	-0.6198014502527065
-0.4730546403437508	-0.6216966582728333
-0.4729936051875008	-0.6235742774118737
-0.4729325700312508	-0.6254343200483451
-0.4728715348750008	-0.6272768767129895
-0.4728104997187508	-0.6291021071291374
-0.4727494645625008	-0.6309102272901151
-0.4726884294062508	-0.6327014934516497
-0.4726273942500008	-0.6344761833822592
-0.4725663590937508	-0.6362345753747418
-0.4725053239375008	-0.6379769270524169
-0.4724442887812508	-0.6397034556759608
-0.4723832536250008	-0.6414143203331127
-0.4723222184687508	-0.6431096070973508
-0.4722611833125008	-0.6447893186106121
-0.4722001481562508	-0.6464533686654467
-0.4721391130000008	-0.6481015820476388
-0.4720780778437508	-0.6497337000695774
-0.4720170426875008	-0.6513493916440805
-0.4719560075312508	-0.6529482690247249
-0.4718949723750008	-0.6545299074424072
-0.4718339372187508	-0.6560938677378556
-0.4717729020625008	-0.6576397205878738
-0.4717118669062508	-0.6591670710086623
-0.4716508317500008	-0.6606755819220334
-0.4715897965937508	-0.662164995030531
-0.4715287614375008	-0.663635147274335
-0.4714677262812508	-0.6650859820321334
-0.4714066911250008	-0.6665175544013612
-0.4713456559687508	-0.6679300297431447
-0.4712846208125008	-0.6693236753779556
-0.4712235856562508	-0.6706988459197062
-0.4711625505000008	-0.6720559627369693
-0.4711015153437508	-0.6733954883627978
-0.4710404801875008	-0.6747178973465698
-0.4709794450312508	-0.6760236453481638
-0.4709184098750008	-0.6773131382370402
-0.4708573747187508	-0.6785867029548657
-0.4707963395625008	-0.6798445620191539
-0.4707353044062508	-0.6810868133858146
-0.4706742692500008	-0.6823134169634885
-0.4706132340937508	-0.6835241888613615
-0.4705521989375008	-0.6847188041269928
-0.4704911637812508	-0.6858968081726216
-0.4704301286250008	-0.6870576365966137
-0.4703690934687508	-0.6882006425117986
-0.4703080583125008	-0.6893251299550457
-0.4702470231562508	-0.6904303916436362
-0.4701859880000008	-0.6915157490090111
-0.4701249528437508	-0.6925805920861353
-0.4700639176875008	-0.6936244167533533
-0.4700028825312508	-0.6946468570033018
-0.4699418473750008	-0.6956477101648807
-0.4698808122187508	-0.696626953288305
-0.4698197770625008	-0.6975847493125401
-0.4697587419062508	-0.6985214422280622
-0.4696977067500008	-0.6994375411562345
-0.4696366715937508	-0.7003336939134435
-0.4695756364375008	-0.7012106513012636
-0.4695146012812508	-0.7020692239836976
