Time	Frequency
-0.5000349659999994	0.5994163796247699
-0.4999739308437494	0.6010222688487831
-0.4999128956874994	0.6026145850116089
-0.4998518605312494	0.6041934645045022
-0.4997908253749994	0.6057589420881273
-0.4997297902187494	0.6073109465816752
-0.4996687550624994	0.6088493066131205
-0.4996077199062494	0.610373765475933
-0.4995466847499994	0.6118840036339749
-0.4994856495937494	0.6133796667741214
-0.4994246144374994	0.6148603964058744
-0.4993635792812494	0.6163258597768724
-0.4993025441249994	0.6177757769279706
-0.4992415089687494	0.6192099426103057
-0.4991804738124994	0.6206282401302826
-0.4991194386562494	0.6220306460025701
-0.4990584034999994	0.6234172259409706
-0.4989973683437494	0.6247881226057722
-0.4989363331874994	0.6261435362341469
-0.4988752980312494	0.6274837004669317
-0.4988142628749994	0.6288088556391602
-0.4987532277187494	0.6301192219151829
-0.4986921925624994	0.6314149750088797
-0.4986311574062494	0.6326962268422033
-0.4985701222499994	0.6339630129703433
-0.4985090870937494	0.6352152876742654
-0.4984480519374994	0.6364529269564432
-0.4983870167812494	0.6376757391840426
-0.4983259816249994	0.6388834818415531
-0.4982649464687494	0.6400758827378842
-0.4982039113124994	0.6412526642195908
-0.4981428761562494	0.642413567654985
-0.4980818409999994	0.6435583752847576
-0.4980208058437494	0.6446869274231479
-0.4979597706874994	0.64579913340831
-0.4978987355312494	0.6468949755291182
-0.4978377003749994	0.6479745060058327
-0.4977766652187494	0.649037837406251
-0.4977156300624994	0.6500851271838622
-0.4976545949062494	0.6511165578568119
-0.4975935597499994	0.6521323150960318
-0.4975325245937494	0.6531325659650291
-0.4974714894374994	0.6541174394878835
-0.4974104542812494	0.6550870116373786
-0.4973494191249994	0.6560412960573646
-0.4972883839687494	0.6569802410459904
-0.4972273488124994	0.6579037330467646
-0.4971663136562494	0.658811606410297
-0.4971052784999994	0.6597036584030889
-0.4970442433437494	0.6605796677089223
-0.4969832081874994	0.6614394143295316
-0.4969221730312494	0.6622826990242301
-0.4968611378749994	0.663109360506718
-0.4968001027187494	0.6639192885351947
-0.4967390675624994	0.6647124315735694
-0.4966780324062494	0.665488798506615
-0.4966169972499994	0.666248454443424
-0.4965559620937494	0.6669915111325415
-0.4964949269374994	0.6677181130129021
-0.4964338917812494	0.6684284203604132
-0.4963728566249994	0.6691225912497496
-0.4963118214687494	0.6698007641244903
-0.4962507863124994	0.670463042700692
-0.4961897511562494	0.671109484549003
-0.4961287159999994	0.671740094299492
-0.4960676808437494	0.6723548221936867
-0.4960066456874994	0.6729535681417075
-0.4959456105312494	0.6735361906992839
-0.4958845753749994	0.674102519820994
-0.4958235402187494	0.6746523719138797
-0.4957625050624994	0.6751855658036935
-0.4957014699062494	0.6757019382732208
-0.4956404347499994	0.6762013575690031
-0.4955793995937494	0.6766837333072425
-0.4955183644374994	0.6771490219222253
-0.4954573292812494	0.677597227541388
-0.4953962941249994	0.6780283984094754
-0.4953352589687494	0.6784426192969936
-0.4952742238124994	0.678840000736098
-0.4952131886562494	0.6792206661717654
-0.4951521534999994	0.6795847383478486
-0.4950911183437494	0.6799323264079972
-0.4950300831874994	0.6802635152406749
-0.4949690480312494	0.6805783580936914
-0.4949080128749994	0.6808768727095006
-0.4948469777187494	0.6811590410490227
-0.4947859425624994	0.6814248126913385
-0.4947249074062494	0.6816741114694362
-0.4946638722499994	0.6819068441083028
-0.4946028370937494	0.6821229094432543
-0.4945418019374994	0.682322207296434
-0.4944807667812494	0.6825046468543879
-0.4944197316249994	0.6826701541181961
-0.4943586964687494	0.682818677003845
-0.4942976613124994	0.6829501872636071
-0.4942366261562494	0.6830646793303501
-0.4941755909999994	0.6831621666508807
-0.4941145558437494	0.683242676611485
-0.4940535206874994	0.6833062445937971
-0.4939924855312494	0.6833529075232242
-0.4939314503749994	0.683382697883093
-0.4938704152187494	0.6833956390305538
-0.4938093800624994	0.683391742473336
-0.4937483449062494	0.6833710075289281
-0.4936873097499994	0.683333422828673
-0.4936262745937494	0.6832789688116022
-0.4935652394374994	0.6832076217562072
-0.4935042042812494	0.683119359651245
-0.4934431691249994	0.6830141679306678
-0.4933821339687494	0.6828920437272161
-0.4933210988124994	0.6827529986627505
-0.4932600636562494	0.68259705927621
-0.4931990284999994	0.6824242650309197
-0.4931379933437494	0.682234665085045
-0.4930769581874994	0.68202831328704
-0.4930159230312494	0.6818052608964241
-0.4929548878749994	0.6815655487237265
-0.4928938527187494	0.681309200088321
-0.4928328175624994	0.6810362151173548
-0.4927717824062494	0.6807465673358177
-0.4927107472499994	0.6804402032106605
-0.4926497120937494	0.6801170446077883
-0.4925886769374994	0.6797769943118065
-0.4925276417812494	0.6794199446720847
-0.4924666066249994	0.6790457883538137
-0.4924055714687494	0.6786544295478424
-0.4923445363124994	0.6782457946126169
-0.4922835011562494	0.6778198417775816
-0.4922224659999994	0.677376568756577
-0.4921614308437494	0.6769160163668739
-0.4921003956874994	0.6764382676743752
-0.4920393605312494	0.6759434440178953
-0.4919783253749994	0.6754316981859063
-0.4919172902187494	0.6749032030526186
-0.4918562550624994	0.674358136488676
-0.4917952199062494	0.6737966661419144
-0.4917341847499994	0.6732189352060369
-0.4916731495937494	0.672625048431079
-0.4916121144374994	0.672015060076817
-0.4915510792812494	0.6713889670980385
-0.4914900441249994	0.6707467083291924
-0.4914290089687494	0.670088168923713
-0.4913679738124994	0.6694131904267049
-0.4913069386562494	0.6687215853751499
-0.4912459034999994	0.6680131537347795
-0.4911848683437494	0.667287700124294
-0.4911238331874994	0.6665450515705944
-0.4910627980312494	0.6657850745513911
-0.4910017628749994	0.665007689795598
-0.4909407277187494	0.6642128828043692
-0.4908796925624994	0.6634007080940545
-0.4908186574062494	0.662571287405821
-0.4907576222499994	0.6617248021026082
-0.4906965870937494	0.6608614794087706
-0.4906355519374994	0.6599815744578391
-0.4905745167812494	0.6590853503088313
-0.4905134816249994	0.6581730572434048
-0.4904524464687494	0.6572449129480596
-0.4903914113124994	0.6563010850589743
-0.4903303761562494	0.6553416772344509
-0.4902693409999994	0.6543667202776948
-0.4902083058437494	0.6533761705807197
-0.4901472706874994	0.652369915644674
-0.4900862355312494	0.6513477845501384
-0.4900252003749994	0.6503095635551756
-0.4899641652187494	0.6492550166726584
-0.4899031300624994	0.6481839086233684
-0.4898420949062494	0.6470960273210447
-0.4897810597499994	0.6459912042160965
-0.4897200245937494	0.6448693314505044
-0.4896589894374994	0.6437303741333836
-0.4895979542812494	0.6425743761082554
-0.4895369191249994	0.641401458113496
-0.4894758839687494	0.6402118083801458
-0.4894148488124994	0.639005667837291
-0.4893538136562494	0.6377833121402554
-0.4892927784999994	0.6365450306234568
-0.4892317433437494	0.6352911015626866
-0.4891707081874994	0.6340217670310238
-0.4891096730312494	0.6327372136506346
-0.4890486378749994	0.6314375604966687
-0.4889876027187494	0.6301228510284098
-0.4889265675624994	0.6287930497758749
-0.4888655324062494	0.6274480466579389
-0.4888044972499994	0.6260876686433057
-0.4887434620937494	0.6247116983935216
-0.4886824269374994	0.6233198984936156
-0.4886213917812494	0.6219120365185486
-0.4885603566249994	0.62048790879728
-0.4884993214687494	0.6190473624049775
-0.4884382863124994	0.6175903120370465
-0.4883772511562494	0.61611674984049
-0.4883162159999994	0.6146267489877778
-0.4882551808437494	0.6131204604405122
-0.4881941456874994	0.6115981025500886
-0.4881331105312494	0.6100599445307684
-0.4880720753749994	0.6085062844501415
-0.4880110402187494	0.6069374249118169
-0.4879500050624994	0.6053536505508744
-0.4878889699062494	0.6037552067948843
-0.4878279347499994	0.6021422791958004
-0.4877668995937494	0.6005149764667954
-0.4877058644374994	0.5988733204605841
-0.4876448292812494	0.597217246164554
-0.4875837941249994	0.5955466128759894
-0.4875227589687494	0.5938612218526919
-0.4874617238124994	0.5921608360011086
-0.4874006886562494	0.5904452024618688
-0.4873396534999994	0.5887140786742543
-0.4872786183437494	0.5869672600108802
-0.4872175831874994	0.5852046057993369
-0.4871565480312494	0.5834260590256601
-0.4870955128749994	0.5816316570343442
-0.4870344777187494	0.5798215327100755
-0.4869734425624994	0.5779959057420502
-0.4869124074062494	0.5761550668319563
-0.4868513722499994	0.5742993573857292
-0.4867903370937494	0.5724291433084936
-0.4867293019374994	0.5705447846501316
-0.4866682667812494	0.5686466055286349
-0.4866072316249994	0.5667348660338233
-0.4865461964687494	0.5648097384563249
-0.4864851613124994	0.5628712918350766
-0.4864241261562494	0.5609194875984612
-0.4863630909999994	0.5589541863379246
-0.4863020558437494	0.5569751629703621
-0.4862410206874994	0.5549821294755717
-0.4861799855312494	0.552974765450953
-0.4861189503749994	0.5509527530814922
-0.4860579152187494	0.5489158118138521
-0.4859968800624994	0.5468637293360908
-0.4859358449062494	0.5447963877117876
-0.4858748097499994	0.5427137825699099
-0.4858137745937494	0.5406160303808512
-0.4857527394374994	0.5385033624487875
-0.4856917042812494	0.5363761091384572
-0.4856306691249994	0.5342346769251913
-0.4855696339687494	0.5320795179019896
-0.4855085988124994	0.5299110923906527
-0.4854475636562494	0.5277298291560788
-0.4853865284999994	0.525536088936638
-0.4853254933437494	0.5233301348500036
-0.4852644581874994	0.5211121115116061
-0.4852034230312494	0.5188820363257968
-0.4851423878749994	0.5166398037486114
-0.4850813527187494	0.5143851979394835
-0.4850203175624994	0.5121179136175119
-0.4849592824062494	0.5098375871918298
-0.4848982472499994	0.5075438349906247
-0.4848372120937494	0.5052362944579979
-0.4847761769374994	0.5029146635307123
-0.4847151417812494	0.5005787333328902
-0.4846541066249994	0.498228411924197
-0.4845930714687494	0.4958637376867072
-0.4845320363124994	0.4934848807459002
-0.4844710011562494	0.4910921319232228
-0.4844099659999994	0.4886858816761927
-0.4843489308437494	0.486266590735552
-0.4842878956874994	0.4838347532281248
-0.4842268605312494	0.4813908566738054
-0.4841658253749994	0.4789353436180568
-0.4841047902187494	0.47646857766590267
-0.4840437550624994	0.4739908164484078
-0.4839827199062494	0.4715021934817063
-0.4839216847499994	0.46900271104173613
-0.4838606495937494	0.46649224644342385
-0.4837996144374994	0.4639705695407522
-0.4837385792812494	0.4614373673318074
-0.4836775441249994	0.45889227672580624
-0.4836165089687494	0.4563349239177879
-0.4835554738124994	0.4537649626918876
-0.4834944386562494	0.45118210842538764
-0.4834334034999994	0.4485861685939354
-0.4833723683437494	0.4459770666861435
-0.4833113331874994	0.44335485390952406
-0.4832502980312494	0.4407197080415447
-0.4831892628749994	0.4380719227424718
-0.4831282277187494	0.43541188696055516
-0.4830671925624994	0.43274005547088096
-0.4830061574062494	0.43005691602916124
-0.4829451222499994	0.4273629532776973
-0.4828840870937494	0.42465860956722223
-0.4828230519374994	0.4219442508992529
-0.4827620167812494	0.41922014329124263
-0.4827009816249994	0.4164864380738993
-0.4826399464687494	0.41374316494377855
-0.4825789113124994	0.4109902338310639
-0.4825178761562494	0.40822744793160415
-0.4824568409999994	0.40545452797575005
-0.4823958058437494	0.4026711426046292
-0.4823347706874994	0.3998769405844465
-0.4822737355312494	0.3970715856474053
-0.4822127003749994	0.39425479224815657
-0.4821516652187494	0.39142635539065185
-0.4820906300624994	0.38858617075849244
-0.4820295949062494	0.3857342476422983
-0.4819685597499994	0.3828707159223148
-0.4819075245937494	0.37999582290963785
-0.4818464894374994	0.3771099178582271
-0.4817854542812494	0.3742134270842115
-0.4817244191249994	0.3713068232907509
-0.4816633839687494	0.36839059302190114
-0.4816023488124994	0.3654652044625138
-0.4815413136562494	0.3625310752569065
-0.4814802784999994	0.35958854348666125
-0.4814192433437494	0.3566378467425193
-0.4813582081874994	0.3536791096735008
-0.4812971730312494	0.3507123389952049
-0.4812361378749994	0.34773742740511526
-0.4811751027187494	0.3447541668439406
-0.4811140675624994	0.3417622695767993
-0.4810530324062494	0.3387613956239357
-0.4809919972499994	0.33575118344102883
-0.4809309620937494	0.3327312818753793
-0.4808699269374994	0.3297013831525768
-0.4808088917812494	0.32666125195674073
-0.4807478566249994	0.3236107461278073
-0.4806868214687494	0.3205498310093641
-0.4806257863124994	0.31747858866442696
-0.4805647511562494	0.3143972195642428
-0.4805037159999994	0.31130603504008475
-0.4804426808437494	0.30820544068782446
-0.4803816456874994	0.3050959144894187
-0.4803206105312494	0.30197798338453447
-0.4802595753749994	0.2988521971769284
-0.4801985402187494	0.2957190999048168
-0.4801375050624994	0.29257920176277763
-0.4800764699062494	0.2894329533415299
-0.4800154347499994	0.286280722547471
-0.4799543995937494	0.28312277493749427
-0.4798933644374994	0.27995925991861786
-0.4798323292812494	0.2767902030222249
-0.4797712941249994	0.2736155023781786
-0.4797102589687494	0.27043493089639514
-0.4796492238124994	0.2672481453389926
-0.4795881886562494	0.26405470218869426
-0.4795271534999994	0.26085408331478005
-0.4794661183437494	0.25764573143530156
-0.4794050831874994	0.2544290893207307
-0.4793440480312494	0.2512036417726445
-0.4792830128749994	0.2479689630364082
-0.4792219777187494	0.24472476224021908
-0.4791609425624994	0.24147091770519497
-0.4790999074062494	0.23820749968611296
-0.4790388722499994	0.23493478089480602
-0.4789778370937494	0.23165323169434224
-0.4789168019374994	0.22836349933647673
-0.4788557667812494	0.22506637168788773
-0.4787947316249994	0.22176272629475444
-0.4787336964687494	0.218453468960126
-0.4786726613124994	0.2151394688288878
-0.4786116261562494	0.21182149449447513
-0.4785505909999994	0.2085001526266792
-0.4784895558437494	0.2051758370612184
-0.4784285206874994	0.20184870021861379
-0.4783674855312494	0.1985186471292128
-0.4783064503749994	0.19518534716757818
-0.4782454152187494	0.19184826466390012
-0.4781843800624994	0.18850670944164205
-0.4781233449062494	0.1851599048325487
-0.4780623097499994	0.1818070652062677
-0.4780012745937494	0.17844747225893132
-0.4779402394374994	0.17508054509149673
-0.4778792042812494	0.17170590046080209
-0.4778181691249994	0.168323396360716
-0.4777571339687494	0.1649331530832305
-0.4776960988124994	0.16153554923647634
-0.4776350636562494	0.15813119549477095
-0.4775740284999994	0.15472088960290542
-0.4775129933437494	0.1513055530677199
-0.4774519581874994	0.14788615413221715
-0.4773909230312494	0.14446362747827543
-0.4773298878749994	0.1410387980100388
-0.4772688527187494	0.1376123106820259
-0.4772078175624994	0.134184574496778
-0.4771467824062494	0.13075573248502478
-0.4770857472499994	0.12732565781330502
-0.4770247120937494	0.12389397245320669
-0.4769636769374994	0.12046009011373178
-0.4769026417812494	0.117023279065455
-0.4768416066249994	0.11358273475108142
-0.4767805714687494	0.1101376571162768
-0.4767195363124994	0.10668733004722225
-0.4766585011562494	0.10323119610723529
-0.4765974659999994	0.09976891643633329
-0.4765364308437494	0.0963004081711885
-0.4764753956874994	0.09282585801824149
-0.4764143605312494	0.08934571355552619
-0.4763533253749994	0.0858606512800025
-0.4762922902187494	0.08237152086368714
-0.4762312550624994	0.07887927244308804
-0.4761702199062494	0.07538487793258913
-0.4761091847499994	0.07188925334685572
-0.4760481495937494	0.068393184863603
-0.4759871144374994	0.06489726360376499
-0.4759260792812494	0.061401837847077374
-0.4758650441249994	0.057906990584294986
-0.4758040089687494	0.054412543881689424
-0.4757429738124994	0.050918085535683874
-0.4756819386562494	0.04742301565140487
-0.4756209034999994	0.043926611926269676
-0.4755598683437494	0.04042810735651727
-0.4754988331874994	0.036926771821380315
-0.4754377980312494	0.03342198940376651
-0.4753767628749994	0.029913323027065994
-0.4753157277187494	0.02640056129323725
-0.4752546925624994	0.022883745507013217
-0.4751936574062494	0.01936317404500652
-0.4751326222499994	0.015839382880706514
-0.4750715870937494	0.012313102338111077
-0.4750105519374994	0.008785192107670769
-0.4749495167812494	0.005256562912976607
-0.4748884816249994	0.0017280957022986483
-0.4748274464687494	-0.001799433873263512
-0.4747664113124994	-0.00532542152629927
-0.4747053761562494	-0.008849485390456357
-0.4746443409999994	-0.012371494838276327
-0.4745833058437494	-0.01589157433353304
-0.4745222706874994	-0.019410082065920712
-0.4744612355312494	-0.022927565117459348
-0.4744002003749994	-0.026444696824594067
-0.4743391652187494	-0.029962201990726373
-0.4742781300624994	-0.033480777013194456
-0.4742170949062494	-0.037001013542567185
-0.4741560597499994	-0.04052333133524426
-0.4740950245937494	-0.04404792456609241
-0.4740339894374994	-0.047574728192416156
-0.4739729542812494	-0.05110341152691697
-0.4739119191249994	-0.05463340020926283
-0.4738508839687494	-0.058163921476999406
-0.4737898488124994	-0.06169406755292095
-0.4737288136562494	-0.06522287207139871
-0.4736677784999994	-0.06874939329180013
-0.4736067433437494	-0.07227279751042291
-0.4735457081874994	-0.07579243359028409
-0.4734846730312494	-0.07930789048507843
-0.4734236378749994	-0.08281903409618357
-0.4733626027187494	-0.08632601940890824
-0.4733015675624994	-0.08982927536727929
-0.4732405324062494	-0.09332946380346628
-0.4731794972499994	-0.09682741495029693
-0.4731184620937494	-0.10032404636863544
-0.4730574269374994	-0.1038202728075169
-0.4729963917812494	-0.10731691211679507
-0.4729353566249994	-0.11081459672118434
-0.4728743214687494	-0.114313701265789
-0.4728132863124994	-0.11781429256884661
-0.4727522511562494	-0.12131610637301875
-0.4726912159999994	-0.124818553473788
-0.4726301808437494	-0.12832075428119696
-0.4725691456874994	-0.13182160039007376
-0.4725081105312494	-0.13531984080673154
-0.4724470753749994	-0.1388141847597756
-0.4723860402187494	-0.14230341069780209
-0.4723250050624994	-0.1457864717182888
-0.4722639699062494	-0.14926258646329618
-0.4722029347499994	-0.15273130852391947
-0.4721418995937494	-0.15619257007960022
-0.4720808644374994	-0.15964669253553673
-0.4720198292812494	-0.163094359573472
-0.4719587941249994	-0.1665365542798767
-0.4718977589687494	-0.16997446766728275
-0.4718367238124994	-0.17340938833263916
-0.4717756886562494	-0.1768425804873244
-0.4717146534999994	-0.18027516067371865
-0.4716536183437494	-0.18370798688175224
-0.4715925831874994	-0.18714156845263552
-0.4715315480312494	-0.19057600406676714
-0.4714705128749994	-0.19401095678432026
-0.4714094777187494	-0.1974456690451371
-0.4713484425624994	-0.20087901453474336
-0.4712874074062494	-0.2043095837445864
-0.4712263722499994	-0.20773579954449423
-0.4711653370937494	-0.2111560512971695
-0.4711043019374994	-0.21456883052349962
-0.4710432667812494	-0.21797285760598856
-0.4709822316249994	-0.22136719344268593
-0.4709211964687494	-0.2247513250684331
-0.4708601613124994	-0.22812521274836176
-0.4707991261562494	-0.231489292526746
-0.4707380909999994	-0.23484443514697834
-0.4706770558437494	-0.23819186546307392
-0.4706160206874994	-0.24153304826471123
-0.4705549855312494	-0.2448695494838321
-0.4704939503749994	-0.24820288470039484
-0.4704329152187494	-0.2515343689303009
-0.4703718800624994	-0.2548649834740148
-0.4703108449062494	-0.25819527332236664
-0.4702498097499994	-0.26152528301796407
-0.4701887745937494	-0.26485453673557346
-0.4701277394374994	-0.2681820674906519
-0.4700667042812494	-0.2715064942907045
-0.4700056691249994	-0.27482613924667826
-0.4699446339687494	-0.27813917299842006
-0.4698835988124994	-0.2814437749520905
-0.4698225636562494	-0.284738296519387
-0.4697615284999994	-0.288021413388617
-0.4697004933437494	-0.29129224815758886
-0.4696394581874994	-0.29455045055434703
-0.4695784230312494	-0.29779622964657565
-0.4695173878749994	-0.3010303333481809
-0.4694563527187494	-0.3042539752821433
-0.4693953175624994	-0.30746871554110206
-0.4693342824062494	-0.3106763064976671
-0.4692732472499994	-0.3138785190364443
-0.4692122120937494	-0.3170769645725142
