Time	Frequency
-0.50003155303125	-0.6544810502691962
-0.499970517875	-0.6550522389619267
-0.49990948271875	-0.6556093068567098
-0.4998484475625	-0.6561521093224847
-0.49978741240625	-0.6566803888697608
-0.49972637725	-0.6571938099910658
-0.49966534209375	-0.6576920060620877
-0.4996043069375	-0.6581746312991625
-0.49954327178125	-0.6586414100475585
-0.499482236625	-0.6590921760486793
-0.49942120146875	-0.6595268959439218
-0.4993601663125	-0.6599456735300283
-0.49929913115625	-0.6603487339455754
-0.499238096	-0.660736389909484
-0.49917706084375	-0.6611089945519747
-0.4991160256875	-0.6614668873982511
-0.49905499053125	-0.6618103415322616
-0.498993955375	-0.6621395200055205
-0.49893292021875	-0.6624544485032313
-0.4988718850625	-0.6627550088208473
-0.49881084990625	-0.663040953716164
-0.49874981475	-0.6633119405215614
-0.49868877959375	-0.6635675790721607
-0.4986277444375	-0.6638074876660134
-0.49856670928125	-0.6640313489381483
-0.498505674125	-0.6642389566140628
-0.49844463896875	-0.6644302456369916
-0.4983836038125	-0.6646053014261916
-0.49832256865625	-0.664764346790762
-0.4982615335	-0.6649077078624014
-0.49820049834375	-0.6650357639271867
-0.4981394631875	-0.665148888973932
-0.49807842803125	-0.665247393929572
-0.498017392875	-0.6653314780286058
-0.49795635771875	-0.6654011969251463
-0.4978953225625	-0.6654564530202269
-0.49783428740625	-0.6654970091561663
-0.49777325225	-0.6655225232209787
-0.49771221709375	-0.6655325987688518
-0.4976511819375	-0.6655268443066013
-0.49759014678125	-0.6655049325713578
-0.497529111625	-0.665466650897973
-0.49746807646875	-0.6654119343782741
-0.4974070413125	-0.665340876117332
-0.49734600615625	-0.665253713318849
-0.497284971	-0.6651507915462201
-0.49722393584375	-0.665032511735382
-0.4971629006875	-0.6648992676528583
-0.49710186553125	-0.6647513842906286
-0.497040830375	-0.6645890672285268
-0.49697979521875	-0.6644123704095302
-0.4969187600625	-0.6642211870900432
-0.49685772490625	-0.664015265092001
-0.49679668975	-0.6637942442349417
-0.49673565459375	-0.6635577115748735
-0.4966746194375	-0.6633052658896449
-0.49661358428125	-0.6630365803427384
-0.496552549125	-0.6627514541667177
-0.49649151396875	-0.6624498453618799
-0.4964304788125	-0.6621318780220761
-0.49636944365625	-0.6617978239899917
-0.4963084085	-0.6614480630700996
-0.49624737334375	-0.6610830264292171
-0.4961863381875	-0.6607031306226849
-0.49612530303125	-0.6603087135615929
-0.496064267875	-0.6598999831401736
-0.49600323271875	-0.6594769859104913
-0.4959421975625	-0.659039600121748
-0.49588116240625	-0.6585875549268042
-0.49582012725	-0.6581204735533591
-0.49575909209375	-0.6576379326152836
-0.4956980569375	-0.6571395277564415
-0.49563702178125	-0.6566249368175322
-0.495575986625	-0.656093970612055
-0.49551495146875	-0.6555466020938452
-0.4954539163125	-0.6549829701709197
-0.49539288115625	-0.6544033589189027
-0.495331846	-0.653808155083479
-0.49527081084375	-0.6531977893661574
-0.4952097756875	-0.6525726705714094
-0.49514874053125	-0.6519331247132112
-0.495087705375	-0.6512793490030302
-0.49502667021875	-0.6506113860440703
-0.4949656350625	-0.6499291211932495
-0.49490459990625	-0.6492323033050951
-0.49484356475	-0.6485205864095297
-0.49478252959375	-0.6477935867550946
-0.4947214944375	-0.6470509452098386
-0.49466045928125	-0.6462923834497133
-0.494599424125	-0.6455177459171101
-0.49453838896875	-0.6447270234415938
-0.4944773538125	-0.6439203548664659
-0.49441631865625	-0.6430980053870742
-0.4943552835	-0.6422603253248406
-0.49429424834375	-0.6414076961485712
-0.4942332131875	-0.6405404728432795
-0.49417217803125	-0.6396589324587553
-0.494111142875	-0.6387632360646122
-0.49405010771875	-0.6378534082568358
-0.4939890725625	-0.6369293370807948
-0.49392803740625	-0.6359907957427094
-0.49386700225	-0.635037482985261
-0.49380596709375	-0.6340690753295567
-0.4937449319375	-0.6330852826547927
-0.49368389678125	-0.6320858963825782
-0.493622861625	-0.6310708225170085
-0.49356182646875	-0.6300400970208166
-0.4935007913125	-0.6289938813487984
-0.49343975615625	-0.6279324380249511
-0.493378721	-0.6268560912519267
-0.49331768584375	-0.6257651783537617
-0.4932566506875	-0.6246599981335365
-0.49319561553125	-0.6235407660865623
-0.493134580375	-0.6224075849797848
-0.49307354521875	-0.6212604337326832
-0.4930125100625	-0.6200991761979316
-0.49295147490625	-0.6189235888287259
-0.49289043975	-0.6177334014954464
-0.49282940459375	-0.616528344919429
-0.4927683694375	-0.6153081979885568
-0.49270733428125	-0.6140728273868125
-0.492646299125	-0.6128222126418083
-0.49258526396875	-0.611556451778377
-0.4925242288125	-0.610275747269713
-0.49246319365625	-0.6089803750492456
-0.4924021585	-0.6076706411044626
-0.49234112334375	-0.6063468337245169
-0.4922800881875	-0.6050091804420633
-0.49221905303125	-0.6036578166288437
-0.492158017875	-0.6022927697799556
-0.49209698271875	-0.6009139610006928
-0.4920359475625	-0.5995212237909179
-0.49197491240625	-0.5981143381868341
-0.49191387725	-0.5966930756731544
-0.49185284209375	-0.5952572463664938
-0.4917918069375	-0.5938067373892937
-0.49173077178125	-0.5923415355853202
-0.491669736625	-0.5908617329467706
-0.49160870146875	-0.5893675136172905
-0.4915476663125	-0.5878591243003266
-0.49148663115625	-0.5863368348458806
-0.491425596	-0.5848008960838155
-0.49136456084375	-0.5832515010788321
-0.4913035256875	-0.5816887565137304
-0.49124249053125	-0.5801126690470589
-0.491181455375	-0.5785231480466474
-0.49112042021875	-0.5769200269293577
-0.4910593850625	-0.5753031018076719
-0.49099834990625	-0.5736721759859248
-0.49093731475	-0.5720271008508737
-0.49087627959375	-0.5703678098256894
-0.4908152444375	-0.5686943392148313
-0.49075420928125	-0.5670068309059582
-0.490693174125	-0.5653055166032593
-0.49063213896875	-0.5635906853179206
-0.4905711038125	-0.5618626390481756
-0.49051006865625	-0.5601216449754691
-0.4904490335	-0.5583678938300758
-0.49038799834375	-0.5566014722183081
-0.4903269631875	-0.554822352351026
-0.49026592803125	-0.5530303996316271
-0.490204892875	-0.5512253974774735
-0.49014385771875	-0.5494070877815126
-0.4900828225625	-0.5475752216061156
-0.49002178740625	-0.5457296090779649
-0.48996075225	-0.5438701584646172
-0.48989971709375	-0.5419968987555853
-0.4898386819375	-0.5401099824558928
-0.48977764678125	-0.5382096698270354
-0.489716611625	-0.5362962967901028
-0.48965557646875	-0.5343702288664478
-0.4895945413125	-0.5324318091082976
-0.48953350615625	-0.5304813094796419
-0.489472471	-0.5285188932037881
-0.48941143584375	-0.5265445931653092
-0.4893504006875	-0.5245583087461746
-0.48928936553125	-0.5225598242616433
-0.489228330375	-0.5205488485307844
-0.48916729521875	-0.5185250677982643
-0.4891062600625	-0.5164882022754139
-0.48904522490625	-0.5144380560353932
-0.48898418975	-0.5123745527110853
-0.48892315459375	-0.5102977560874734
-0.4888621194375	-0.5082078730309705
-0.48880108428125	-0.5061052321590573
-0.488740049125	-0.5039902394646304
-0.48867901396875	-0.5018633221511015
-0.4886179788125	-0.4997248714488627
-0.48855694365625	-0.4975751895957589
-0.4884959085	-0.49541444770279197
-0.48843487334375	-0.49324266489155033
-0.4883738381875	-0.4910597120325885
-0.48831280303125	-0.48886533690704403
-0.488251767875	-0.48665920853035755
-0.48819073271875	-0.48444097480112247
-0.4881296975625	-0.482210324201098
-0.48806866240625	-0.4799670424749862
-0.48800762725	-0.47771105398560054
-0.48794659209375	-0.47544244142395997
-0.4878855569375	-0.47316144315828657
-0.48782452178125	-0.4708684281188941
-0.487763486625	-0.46856384915331595
-0.48770245146875	-0.4662481811960151
-0.4876414163125	-0.4639218557366573
-0.48758038115625	-0.46158520070507103
-0.487519346	-0.4592383941082525
-0.48745831084375	-0.4568814414342054
-0.4873972756875	-0.454514180064861
-0.48733624053125	-0.4521363091145603
-0.487275205375	-0.4497474437745092
-0.48721417021875	-0.4473471861112707
-0.4871531350625	-0.4449351970891927
-0.48709209990625	-0.4425112592661144
-0.48703106475	-0.44007532235009533
-0.48697002959375	-0.437627522642108
-0.4869089944375	-0.43516817331361846
-0.48684795928125	-0.432697726749829
-0.486786924125	-0.43021671241416587
-0.48672588896875	-0.42772566131287976
-0.4866648538125	-0.42522503167589526
-0.48660381865625	-0.4227151448327013
-0.4865427835	-0.4201961385596374
-0.48648174834375	-0.41766794870502344
-0.4864207131875	-0.41513032400961414
-0.48635967803125	-0.4125828705195362
-0.486298642875	-0.4100251200425334
-0.48623760771875	-0.4074566135432346
-0.4861765725625	-0.4048769854295612
-0.48611553740625	-0.4022860345432628
-0.48605450225	-0.39968377073243155
-0.48599346709375	-0.3970704279460715
-0.4859324319375	-0.3944464398237531
-0.48587139678125	-0.39181238373046035
-0.485810361625	-0.38916890366587265
-0.48574932646875	-0.3865166208397133
-0.4856882913125	-0.38385604346058566
-0.48562725615625	-0.38118749010360414
-0.485566221	-0.37851104061353874
-0.48550518584375	-0.37582652692369606
-0.4854441506875	-0.37313356531829905
-0.48538311553125	-0.3704316204136929
-0.485322080375	-0.3677200912004714
-0.48526104521875	-0.3649984108069646
-0.4852000100625	-0.3622661474349131
-0.48513897490625	-0.35952308714706455
-0.48507793975	-0.3567692816052651
-0.48501690459375	-0.354005055900682
-0.4849558694375	-0.3512309772367661
-0.48489483428125	-0.34844778777006014
-0.484833799125	-0.34565630910708756
-0.48477276396875	-0.342857329928208
-0.4847117288125	-0.3400514954198119
-0.48465069365625	-0.33723921637247445
-0.4845896585	-0.33442060857388173
-0.48452862334375	-0.3315954737041433
-0.4844675881875	-0.32876332918651086
-0.48440655303125	-0.32592348056557086
-0.484345517875	-0.3230751227316476
-0.48428448271875	-0.3202174567121469
-0.4842234475625	-0.3173498068608426
-0.48416241240625	-0.31447172222786335
-0.48410137725	-0.3115830490368466
-0.48404034209375	-0.30868396474585885
-0.4839793069375	-0.3057749679413175
-0.48391827178125	-0.30285682500275407
-0.483857236625	-0.2999304820565337
-0.48379620146875	-0.2969969558731369
-0.4837351663125	-0.29405721904498416
-0.48367413115625	-0.29111209247767666
-0.483613096	-0.28816215627551295
-0.48355206084375	-0.285207688761745
-0.4834910256875	-0.2822486397727534
-0.48342999053125	-0.2792846426553154
-0.483368955375	-0.2763150657502778
-0.48330792021875	-0.2733390970506926
-0.4832468850625	-0.2703558522530022
-0.48318584990625	-0.26736449384742217
-0.48312481475	-0.26436434693752364
-0.48306377959375	-0.26135499674207724
-0.4830027444375	-0.2583363511156496
-0.48294170928125	-0.25530865698554933
-0.482880674125	-0.2522724714575293
-0.48281963896875	-0.24922859331246697
-0.4827586038125	-0.2461779592290986
-0.48269756865625	-0.24312151662517256
-0.4826365335	-0.24006009773987932
-0.48257549834375	-0.23699431576554342
-0.4825144631875	-0.23392449298679904
-0.48245342803125	-0.2308506296708457
-0.482392392875	-0.22777242093256886
-0.48233135771875	-0.22468932056913912
-0.4822703225625	-0.22160064004853544
-0.48220928740625	-0.21850566626222698
-0.48214825225	-0.215403781741021
-0.48208721709375	-0.21229456866620147
-0.4820261819375	-0.20917788046583155
-0.48196514678125	-0.20605387043412215
-0.481904111625	-0.20292297148741778
-0.48184307646875	-0.19978583106894984
-0.4817820413125	-0.19664321424437792
-0.48172100615625	-0.19349589074593515
-0.481659971	-0.1903445241923157
-0.48159893584375	-0.1871895817084469
-0.4815379006875	-0.18403127694306437
-0.48147686553125	-0.1808695532346445
-0.481415830375	-0.17770410855040192
-0.48135479521875	-0.17453446040225357
-0.4812937600625	-0.17136004177012537
-0.48123272490625	-0.1681803088949393
-0.48117168975	-0.1649948414245025
-0.48111065459375	-0.16180342070806422
-0.4810496194375	-0.15860607288163692
-0.48098858428125	-0.15540306974493634
-0.480927549125	-0.1521948909785351
-0.48086651396875	-0.1489821547891738
-0.4808054788125	-0.14576552681315183
-0.48074444365625	-0.1425456218489157
-0.4806834085	-0.1393229155075826
-0.48062237334375	-0.13609768048470544
-0.4805613381875	-0.13286995701667545
-0.48050030303125	-0.129639562757371
-0.480439267875	-0.12640614064058084
-0.48037823271875	-0.1231692348363921
-0.4803171975625	-0.1199283802859234
-0.48025616240625	-0.11668319150284795
-0.48019512725	-0.11343343631653466
-0.48013409209375	-0.1101790834230763
-0.4800730569375	-0.10692031921458317
-0.48001202178125	-0.10365752867596525
-0.479950986625	-0.10039123876282119
-0.47988995146875	-0.0971220384071629
-0.4798289163125	-0.09385049421943951
-0.47976788115625	-0.09057707278771657
-0.479706846	-0.08730207809577242
-0.47964581084375	-0.08402561493583033
-0.4795847756875	-0.08074758696568195
-0.47952374053125	-0.07746772982698369
-0.479462705375	-0.07418567120034182
-0.47940167021875	-0.07090100613944841
-0.4793406350625	-0.0676133763118456
-0.47927959990625	-0.06432254086356065
-0.47921856475	-0.06102842485482802
-0.47915752959375	-0.05773113815170963
-0.4790964944375	-0.05443096636851746
-0.47903545928125	-0.05112833579796439
-0.478974424125	-0.047823755640887575
-0.47891338896875	-0.04451774579385712
-0.4788523538125	-0.04121076335828352
-0.47879131865625	-0.037903142689677
-0.4787302835	-0.03459505872839938
-0.47866924834375	-0.031286515932157095
-0.4786082131875	-0.027977362343782966
-0.47854717803125	-0.024667327992265526
-0.478486142875	-0.021356080705559027
-0.47842510771875	-0.018043289006102473
-0.4783640725625	-0.014728685684463803
-0.47830303740625	-0.011412122892910473
-0.47824200225	-0.008093606759073202
-0.47818096709375	-0.004773306773359917
-0.4781199319375	-0.0014515401343156394
-0.47805889678125	0.0018712669573856555
-0.477997861625	0.005194633235755782
-0.47793682646875	0.008518081530681669
-0.4778757913125	0.011841196514447701
-0.47781475615625	0.015163674605495298
-0.477753721	0.018485358333699298
-0.47769268584375	0.021806250035282415
-0.4776316506875	0.025126502427907055
-0.47757061553125	0.02844638597515462
-0.477509580375	0.03176623803136561
-0.47744854521875	0.035086402259641304
-0.4773875100625	0.0384071661893621
-0.47732647490625	0.041728705055355884
-0.47726543975	0.0450510411723415
-0.47720440459375	0.04837402626913604
-0.4771433694375	0.05169734971100791
-0.47708233428125	0.05502057118275127
-0.477021299125	0.0583431735028909
-0.47696026396875	0.061664627705082235
-0.4768992288125	0.06498446065487516
-0.47683819365625	0.06830231642821921
-0.4767771585	0.07161800263006034
-0.47671612334375	0.07493151197465492
-0.4766550881875	0.07824301243239364
-0.47659405303125	0.08155280792784139
-0.476533017875	0.08486127791815358
-0.47647198271875	0.08816880555802668
-0.4764109475625	0.09147570537855357
-0.47634991240625	0.0947821594892497
-0.47628887725	0.09808817035745016
-0.47622784209375	0.10139354246396809
-0.4761668069375	0.10469790142280913
-0.47610577178125	0.10800074626954884
-0.476044736625	0.11130152227523629
-0.47598370146875	0.11459970021018727
-0.4759226663125	0.11789485024390162
-0.47586163115625	0.1211867012808435
-0.475800596	0.12447517542026047
-0.47573956084375	0.1277603881956699
-0.4756785256875	0.1310426146637031
-0.47561749053125	0.1343222289676122
-0.475556455375	0.13759962658838326
-0.47549542021875	0.14087514282467195
-0.4754343850625	0.1441489836314548
-0.47537334990625	0.1474211801140709
-0.47531231475	0.15069157135533157
-0.47525127959375	0.153959816404738
-0.4751902444375	0.15722543489073232
-0.47512920928125	0.16048787230105305
-0.475068174125	0.16374657858243516
-0.47500713896875	0.16700108490241028
-0.4749461038125	0.17025106632388112
-0.47488506865625	0.17349638128352896
-0.4748240335	0.1767370817128994
-0.47476299834375	0.17997339279205662
-0.4747019631875	0.183205665620804
-0.47464092803125	0.186434310021988
-0.474579892875	0.189659719672929
-0.47451885771875	0.19288220202523965
-0.4744578225625	0.19610192073883706
-0.47439678740625	0.19931885734031193
-0.47433575225	0.20253279977951594
-0.47427471709375	0.20574336069962987
-0.4742136819375	0.2089500225794387
-0.47415264678125	0.21215220370407809
-0.474091611625	0.21534933476625093
-0.47403057646875	0.2185409338631533
-0.4739695413125	0.2217266686659184
-0.47390850615625	0.22490639622554473
-0.473847471	0.22808017352449303
-0.47378643584375	0.2312482372381545
-0.4737254006875	0.23441095688344193
-0.47366436553125	0.23756876859356696
-0.473603330375	0.24072209956026472
-0.47354229521875	0.2438712932991931
-0.4734812600625	0.24701654381502053
-0.47342022490625	0.2501578486988353
-0.47335918975	0.25329499308984
-0.47329815459375	0.25642756975003844
-0.4732371194375	0.25955502928149427
-0.47317608428125	0.2626767509555515
-0.473115049125	0.2657921264936334
-0.47305401396875	0.26890064576340733
-0.4729929788125	0.2720019682132937
-0.47293194365625	0.2750959675186324
-0.4728709085	0.2781827443445838
-0.47280987334375	0.2812626039304657
-0.4727488381875	0.2843359995554103
-0.47268780303125	0.2874034504424671
-0.472626767875	0.2904654462738688
-0.47256573271875	0.2935223547552094
-0.4725046975625	0.2965743484965045
-0.47244366240625	0.2996213599477213
-0.47238262725	0.30266307059276043
-0.47232159209375	0.30569894093482003
-0.4722605569375	0.3087282794598582
-0.47219952178125	0.31175033858759726
-0.472138486625	0.3147644228652508
-0.47207745146875	0.31776999373988213
-0.4720164163125	0.32076675361460655
-0.47195538115625	0.32375469366393095
-0.471894346	0.3267340959707833
-0.47183331084375	0.32970548824961204
-0.4717722756875	0.3326695564616631
-0.47171124053125	0.33562702751513607
-0.471650205375	0.33857853999398807
-0.47158917021875	0.34152452276809053
-0.4715281350625	0.34446510012437803
-0.47146709990625	0.3474000406973314
-0.47140606475	0.3503287625866696
-0.47134502959375	0.35325039718324514
-0.4712839944375	0.3561639035616744
-0.47122295928125	0.3590682168797211
-0.471161924125	0.36196240997949014
-0.47110088896875	0.3648458434870213
-0.4710398538125	0.3677182773851394
-0.47097881865625	0.3705799223743075
-0.4709177835	0.37343142061619167
-0.47085674834375	0.37627375686450915
-0.4707957131875	0.37910810974873144
-0.47073467803125	0.3819356618416833
-0.470673642875	0.38475739632646155
-0.47061260771875	0.3875739128283088
-0.4705515725625	0.390385293153685
-0.47049053740625	0.39319104224264134
-0.47042950225	0.39599012068444617
-0.47036846709375	0.398781069175474
-0.4703074319375	0.40156220708249335
-0.47024639678125	0.4043318765953756
-0.470185361625	0.407088698405841
-0.47012432646875	0.40983179805904973
-0.4700632913125	0.4125609630370038
-0.47000225615625	0.41527670284508694
-0.469941221	0.4179801982852308
-0.46988018584375	0.4206731412068307
-0.4698191506875	0.4233574841868613
-0.46975811553125	0.42603513593010156
-0.469697080375	0.4287076488929615
-0.46963604521875	0.4313759480363896
-0.4695750100625	0.43404014368711147
-0.46951397490625	0.4366994620046098
-0.46945293975	0.4393523122982251
-0.46939190459375	0.44199648662040186
-0.4693308694375	0.44462946272825854
-0.46926983428125	0.44724876851280454
-0.469208799125	0.4498523566179214
-0.46914776396875	0.4524389294291355
-0.4690867288125	0.45500816070710903
-0.46902569365625	0.45756077664465
-0.4689646585	0.4600984780153068
-0.46890362334375	0.462623709709336
-0.4688425881875	0.4651393069153189
-0.46878155303125	0.46764806638578166
-0.468720517875	0.4701523075547351
-0.46865948271875	0.4726534913086115
-0.4685984475625	0.4751519564621899
-0.46853741240625	0.4776468188498373
-0.46847637725	0.4801360532091353
-0.46841534209375	0.4826167523430424
-0.4683543069375	0.48508553112947583
-0.46829327178125	0.4875390160021211
-0.468232236625	0.48997434651622107
-0.46817120146875	0.4923896146491287
-0.4681101663125	0.4947841741469908
-0.46804913115625	0.49715876798401515
-0.467988096	0.4995154478012182
-0.46792706084375	0.501857291255098
-0.4678660256875	0.504187954277883
-0.46780499053125	0.5065111215254439
-0.467743955375	0.5088299376243167
-0.46768292021875	0.511146506846398
-0.4676218850625	0.5134615381918237
-0.46756084990625	0.5157741935118643
-0.46749981475	0.5180821695296751
-0.46743877959375	0.5203820078762695
-0.4673777444375	0.522669588552416
-0.46731670928125	0.5249407347808084
-0.467255674125	0.5271918407091185
-0.46719463896875	0.5294204256093317
