Time	Frequency
-0.5000152509374995	-0.6070456181517232
-0.49995421578124954	-0.6051318448882856
-0.49989318062499954	-0.6032026372237057
-0.49983214546874954	-0.6012584595592133
-0.49977111031249954	-0.5992997055092072
-0.49971007515624954	-0.5973266858441992
-0.49964903999999954	-0.5953396189166474
-0.49958800484374954	-0.593338624060178
-0.49952696968749954	-0.5913237184668698
-0.49946593453124954	-0.5892948174982579
-0.49940489937499954	-0.5872517376489701
-0.49934386421874954	-0.5851942021142877
-0.49928282906249954	-0.5831218495343573
-0.49922179390624954	-0.5810342456192128
-0.49916075874999954	-0.5789308972451797
-0.49909972359374954	-0.5768112689438847
-0.49903868843749954	-0.5746748013774
-0.49897765328124954	-0.5725209309572912
-0.49891661812499954	-0.5703491095672765
-0.49885558296874954	-0.5681588236710148
-0.49879454781249954	-0.5659496126606497
-0.49873351265624954	-0.5637210862550909
-0.49867247749999954	-0.5614729398251687
-0.49861144234374954	-0.5592049665737625
-0.49855040718749954	-0.5569170666605329
-0.49848937203124954	-0.5546092532749344
-0.49842833687499954	-0.5522816551424835
-0.49836730171874954	-0.5499345154234185
-0.49830626656249954	-0.5475681868387664
-0.49824523140624954	-0.5451831227745175
-0.49818419624999954	-0.5427798655503974
-0.49812316109374954	-0.5403590324358813
-0.49806212593749954	-0.5379212981918599
-0.49800109078124954	-0.535467374831115
-0.49794005562499954	-0.5329979909578383
-0.49787902046874954	-0.530513871319269
-0.49781798531249954	-0.5280157159867302
-0.49775695015624954	-0.5255041795518746
-0.49769591499999954	-0.5229798521062895
-0.49763487984374954	-0.5204432430356064
-0.49757384468749954	-0.5178947673463655
-0.49751280953124954	-0.5153347343461337
-0.49745177437499954	-0.5127633390360894
-0.49739073921874954	-0.5101806575588713
-0.49732970406249954	-0.5075866474885314
-0.49726866890624954	-0.5049811518419737
-0.49720763374999954	-0.5023639057909495
-0.49714659859374954	-0.4997345466465996
-0.49708556343749954	-0.4970926279464755
-0.49702452828124954	-0.494437636766291
-0.49696349312499954	-0.4917690128400544
-0.49690245796874954	-0.48908616929330295
-0.49684142281249954	-0.4863885144390134
-0.49678038765624954	-0.48367547291230045
-0.49671935249999954	-0.4809465055805199
-0.49665831734374954	-0.47820112883572674
-0.49659728218749954	-0.47543893222676664
-0.49653624703124954	-0.47265959273409536
-0.49647521187499954	-0.4698628859242707
-0.49641417671874954	-0.46704869511641506
-0.49635314156249954	-0.4642170180075051
-0.49629210640624954	-0.4613679687545941
-0.49623107124999954	-0.4585017753899808
-0.49617003609374954	-0.4556187737065602
-0.49610900093749954	-0.45271939752851953
-0.49604796578124954	-0.44980416594432254
-0.49598693062499954	-0.44687366849498955
-0.49592589546874954	-0.443928548252184
-0.49586486031249954	-0.4409694835366764
-0.49580382515624954	-0.43799716910517
-0.49574278999999954	-0.435012296739407
-0.49568175484374954	-0.4320155358065471
-0.49562071968749954	-0.4290075140925925
-0.49555968453124954	-0.42598879965261727
-0.49549864937499954	-0.422959886225728
-0.49543761421874954	-0.41992118264126205
-0.49537657906249954	-0.41687300400691063
-0.49531554390624954	-0.41381556506591877
-0.49525450874999954	-0.41074897786489406
-0.49519347359374954	-0.40767325325025366
-0.49513243843749954	-0.4045883049285774
-0.49507140328124954	-0.4014939565160397
-0.49501036812499954	-0.39838995165795643
-0.49494933296874954	-0.39527596600107495
-0.49488829781249954	-0.3921516206977289
-0.49482726265624954	-0.3890164982520635
-0.49476622749999954	-0.38587016000568
-0.49470519234374954	-0.3827121632868653
-0.49464415718749954	-0.3795420776861939
-0.49458312203124954	-0.37635950113064404
-0.49452208687499954	-0.37316407538341023
-0.49446105171874954	-0.3699554993983723
-0.49440001656249954	-0.36673353974520434
-0.49433898140624954	-0.3634980384452741
-0.49427794624999954	-0.3602489185837299
-0.49421691109374954	-0.3569861881614142
-0.49415587593749954	-0.35370994171162257
-0.49409484078124954	-0.3504203584631289
-0.49403380562499954	-0.3471176972043578
-0.49397277046874954	-0.34380228846680283
-0.49391173531249954	-0.3404745249564351
-0.49385070015624954	-0.33713485097565404
-0.49378966499999954	-0.3337837500358305
-0.49372862984374954	-0.33042173111732204
-0.49366759468749954	-0.32704931500555384
-0.49360655953124954	-0.3236670206329466
-0.49354552437499954	-0.3202753516558156
-0.49348448921874954	-0.3168747837098866
-0.49342345406249954	-0.3134657524027721
-0.49336241890624954	-0.3100486435574845
-0.49330138374999954	-0.30662378637193766
-0.49324034859374954	-0.3031914479925638
-0.49317931343749954	-0.29975182946258044
-0.49311827828124954	-0.29630506417569197
-0.49305724312499954	-0.292851218548071
-0.49299620796874954	-0.2893902942770703
-0.49293517281249954	-0.28592223315945414
-0.49287413765624954	-0.28244692491244217
-0.49281310249999954	-0.2789642160701953
-0.49275206734374954	-0.2754739187705442
-0.49269103218749954	-0.2719758202808744
-0.49262999703124954	-0.2684696940836817
-0.49256896187499954	-0.2649553112005817
-0.49250792671874954	-0.26143244998463167
-0.49244689156249954	-0.2579009055830476
-0.49238585640624954	-0.25436050024462975
-0.49232482124999954	-0.2508110928089426
-0.49226378609374954	-0.2472525854121764
-0.49220275093749954	-0.24368492750022516
-0.49214171578124954	-0.24010811858633185
-0.49208068062499954	-0.23652220992994255
-0.49201964546874954	-0.2329273044133787
-0.49195861031249954	-0.22932355477324984
-0.49189757515624954	-0.22571116082420822
-0.49183653999999954	-0.2220903651775238
-0.49177550484374954	-0.21846144651896443
-0.49171446968749954	-0.21482471169035205
-0.49165343453124954	-0.21118048757230645
-0.49159239937499954	-0.2075291122911415
-0.49153136421874954	-0.20387092684757244
-0.49147032906249954	-0.2002062678374196
-0.49140929390624954	-0.19653545998392802
-0.49134825874999954	-0.19285880820307355
-0.49128722359374954	-0.18917659061086262
-0.49122618843749954	-0.1854890537351179
-0.49116515328124954	-0.18179640942198402
-0.49110411812499954	-0.1780988320857821
-0.49104308296874954	-0.17439645692184924
-0.49098204781249954	-0.17068938049854507
-0.49092101265624954	-0.1669776629826808
-0.49085997749999954	-0.1632613311332072
-0.49079894234374954	-0.15954038250473454
-0.49073790718749954	-0.15581479037088963
-0.49067687203124954	-0.15208450852067731
-0.49061583687499954	-0.14834947702287124
-0.49055480171874954	-0.14460962968335664
-0.49049376656249954	-0.1408649008604572
-0.49043273140624954	-0.13711523056230204
-0.49037169624999954	-0.13336056992430134
-0.49031066109374954	-0.12960088759663335
-0.49024962593749954	-0.125836174957601
-0.49018859078124954	-0.12206644893175819
-0.49012755562499954	-0.11829175361034702
-0.49006652046874954	-0.11451216145992973
-0.49000548531249954	-0.1107277735377034
-0.48994445015624954	-0.10693871899582912
-0.48988341499999954	-0.10314515387538435
-0.48982237984374954	-0.09934725851038337
-0.48976134468749954	-0.09554523422089788
-0.48970030953124954	-0.0917392995763778
-0.48963927437499954	-0.0879296853946444
-0.48957823921874954	-0.08411662912057663
-0.48951720406249954	-0.08030036975589942
-0.48945616890624954	-0.0764811434429079
-0.48939513374999954	-0.07265917917516715
-0.48933409859374954	-0.06883469429168233
-0.48927306343749954	-0.06500789070905162
-0.48921202828124954	-0.06117895217403391
-0.48915099312499954	-0.057348041835125936
-0.48908995796874954	-0.05351530088254482
-0.48902892281249954	-0.04968084826622612
-0.48896788765624954	-0.04584478092336418
-0.48890685249999954	-0.04200717502092574
-0.48884581734374954	-0.03816808704399035
-0.48878478218749954	-0.034327554426299256
-0.48872374703124954	-0.030485598261124874
-0.48866271187499954	-0.026642227842238443
-0.48860167671874954	-0.022797444521188665
-0.48854064156249954	-0.018951245149719225
-0.48847960640624954	-0.015103626221796493
-0.48841857124999954	-0.011254588049728719
-0.48835753609374954	-0.007404138436645374
-0.48829650093749954	-0.003552296028122087
-0.48823546578124954	0.00030090689448613364
-0.48817443062499954	0.004155421899332028
-0.48811339546874954	0.008011182041316617
-0.48805236031249954	0.01186810088915204
-0.48799132515624954	0.015726072436639375
-0.48793028999999954	0.01958497080971971
-0.48786925484374954	0.023444650997301652
-0.48780821968749954	0.027304950419199
-0.48774718453124954	0.031165689974970632
-0.48768614937499954	0.03502667562331511
-0.48762511421874954	0.0388877018414863
-0.48756407906249954	0.04274855617743939
-0.48750304390624954	0.04660902342223848
-0.48744200874999954	0.05046888850756937
-0.48738097359374954	0.05432793824258616
-0.48731993843749954	0.05818596356239089
-0.48725890328124954	0.06204276310323275
-0.48719786812499954	0.06589814669190555
-0.48713683296874954	0.06975193730597895
-0.48707579781249954	0.07360397193757516
-0.48701476265624954	0.07745410289282073
-0.48695372749999954	0.08130219927551736
-0.48689269234374954	0.08514814756724566
-0.48683165718749954	0.08899185150099041
-0.48677062203124954	0.0928332316154447
-0.48670958687499954	0.0966722244045901
-0.48664855171874954	0.10050878088450764
-0.48658751656249954	0.1043428643892981
-0.48652648140624954	0.10817444782807888
-0.48646544624999954	0.11200351137531894
-0.48640441109374954	0.1158300406779356
-0.48634337593749954	0.11965402501583641
-0.48628234078124954	0.1234754554321119
-0.48622130562499954	0.12729432236173013
-0.48616027046874954	0.13111061254692788
-0.48609923531249954	0.13492430566518632
-0.48603820015624954	0.13873537118461776
-0.48597716499999954	0.14254376661603713
-0.48591612984374954	0.1463494370451872
-0.48585509468749954	0.15015231382013572
-0.48579405953124954	0.15395231219574176
-0.48573302437499954	0.15774933023957047
-0.48567198921874954	0.16154324972981998
-0.48561095406249954	0.16533393732759527
-0.48554991890624954	0.16912124456928918
-0.48548888374999954	0.1729050075592077
-0.48542784859374954	0.17668504800205137
-0.48536681343749954	0.1804611751221695
-0.48530577828124954	0.18423318733085645
-0.48524474312499954	0.18800087410675903
-0.48518370796874954	0.19176401856945008
-0.48512267281249954	0.19552239982092068
-0.48506163765624954	0.19927579497376485
-0.48500060249999954	0.2030239819823389
-0.48493956734374954	0.20676674277616597
-0.48487853218749954	0.2105038659488581
-0.48481749703124954	0.2142351496397699
-0.48475646187499954	0.21796040477464637
-0.48469542671874954	0.22167945830705824
-0.48463439156249954	0.22539215563605702
-0.48457335640624954	0.22909836182692433
-0.48451232124999954	0.2327979627592731
-0.48445128609374954	0.2364908661105948
-0.48439025093749954	0.24017700129395828
-0.48432921578124954	0.24385631889494483
-0.48426818062499954	0.24752878984761761
-0.48420714546874954	0.25119440440273016
-0.48414611031249954	0.2548531708334222
-0.48408507515624954	0.2585051126235726
-0.48402403999999954	0.2621502642848206
-0.48396300484374954	0.26578866701281045
-0.48390196968749954	0.2694203640723296
-0.48384093453124954	0.27304539588954957
-0.48377989937499954	0.276663795304415
-0.48371886421874954	0.2802755836327367
-0.48365782906249954	0.2838807675819775
-0.48359679390624954	0.28747933562470046
-0.48353575874999954	0.2910712537326691
-0.48347472359374954	0.29465646184992833
-0.48341368843749954	0.2982348718698988
-0.48335265328124954	0.3018063673395733
-0.48329161812499954	0.3053708038234382
-0.48323058296874954	0.3089280089938025
-0.48316954781249954	0.3124777838139202
-0.48310851265624954	0.31601990567988547
-0.48304747749999954	0.31955413232891766
-0.48298644234374954	0.32308020563506507
-0.48292540718749954	0.3265978555806644
-0.48286437203124954	0.3301068051452886
-0.48280333687499954	0.3336067759578454
-0.48274230171874954	0.33709749383287263
-0.48268126656249954	0.34057869422072073
-0.48262023140624954	0.34405012760781545
-0.48255919624999954	0.347511564544467
-0.48249816109374954	0.3509627999034168
-0.48243712593749954	0.35440365612184027
-0.48237609078124954	0.3578339860119843
-0.48231505562499954	0.36125367488665056
-0.48225402046874954	0.36466264127678333
-0.48219298531249954	0.3680608365548994
-0.48213195015624954	0.37144824352610806
-0.48207091499999954	0.3748248736954663
-0.48200987984374954	0.37819076344152064
-0.48194884468749954	0.38154596960447834
-0.48188780953124954	0.3848905648642766
-0.48182677437499954	0.3882246326355457
-0.48176573921874954	0.3915482610190466
-0.48170470406249954	0.3948615362995224
-0.48164366890624954	0.39816453644728356
-0.48158263374999954	0.4014573249718272
-0.48152159859374954	0.4047399458425306
-0.48146056343749954	0.40801241899095203
-0.48139952828124954	0.4112747360241846
-0.48133849312499954	0.4145268571493485
-0.48127745796874954	0.41776870951615397
-0.48121642281249954	0.4210001865553309
-0.48115538765624954	0.42422114850122994
-0.48109435249999954	0.42743142396385164
-0.48103331734374954	0.430630812305839
-0.48097228218749954	0.43381908729019963
-0.48091124703124954	0.43699600217383455
-0.48085021187499954	0.44016129552416355
-0.48078917671874954	0.4433146968935711
-0.48072814156249954	0.4464559324209007
-0.48066710640624954	0.4495847311019414
-0.48060607124999954	0.452700831249529
-0.48054503609374954	0.455803985998736
-0.48048400093749954	0.4588939682067113
-0.48042296578124954	0.46197057536048197
-0.48036193062499954	0.46503363369119266
-0.48030089546874954	0.4680830006618828
-0.48023986031249954	0.47111856633741483
-0.48017882515624954	0.47414025404441545
-0.48011778999999954	0.4771480195190781
-0.48005675484374954	0.4801418484365582
-0.47999571968749954	0.48312175302216814
-0.47993468453124954	0.48608776785672936
-0.47987364937499954	0.48903994524335437
-0.47981261421874954	0.4919783503019993
-0.47975157906249954	0.494903055186593
-0.47969054390624954	0.4978141326335782
-0.47962950874999954	0.5007116497118216
-0.47956847359374954	0.503595662089957
-0.47950743843749954	0.5064662086292142
-0.47944640328124954	0.5093233065364654
-0.47938536812499954	0.5121669477464967
-0.47932433296874954	0.5149970964619419
-0.47926329781249954	0.5178136875845565
-0.47920226265624954	0.5206166261822933
-0.47914122749999954	0.5234057881674
-0.47908019234374954	0.5261810222005583
-0.47901915718749954	0.5289421522543457
-0.47895812203124954	0.5316889809174957
-0.47889708687499954	0.5344212944392814
-0.47883605171874954	0.5371388689863855
-0.47877501656249954	0.5398414765952423
-0.47871398140624954	0.5425288908250374
-0.47865294624999954	0.5452008927817166
-0.47859191109374954	0.5478572773578364
-0.47853087593749954	0.5504978587865196
-0.47846984078124954	0.5531224747603344
-0.47840880562499954	0.5557309897090137
-0.47834777046874954	0.558323297644592
-0.47828673531249954	0.5608993236593067
-0.47822570015624954	0.563459023603209
-0.47816466499999954	0.5660023824123963
-0.47810362984374954	0.5685294116004159
-0.47804259468749954	0.5710401456726019
-0.47798155953124954	0.5735346372131058
-0.47792052437499954	0.5760129514137902
-0.47785948921874954	0.578475160225689
-0.47779845406249954	0.5809213357043416
-0.47773741890624954	0.5833515431825808
-0.47767638374999954	0.5857658348000833
-0.47761534859374954	0.5881642433041562
-0.47755431343749954	0.5905467765877
-0.47749327828124954	0.5929134135619318
-0.47743224312499954	0.5952641011789345
-0.47737120796874954	0.5975987521799214
-0.47731017281249954	0.599917244093715
-0.47724913765624954	0.6022194200039072
-0.47718810249999954	0.6045050907149576
-0.47712706734374954	0.6067740384231799
-0.47706603218749954	0.6090260219347087
-0.47700499703124954	0.6112607828088045
-0.47694396187499954	0.6134780523345045
-0.47688292671874954	0.6156775593026209
-0.47682189156249954	0.6178590382710704
-0.47676085640624954	0.6200222381703897
-0.47669982124999954	0.6221669307097802
-0.47663878609374954	0.6242929178378489
-0.47657775093749954	0.6264000380970776
-0.47651671578124954	0.628488171966739
-0.47645568062499954	0.6305572459646231
-0.47639464546874954	0.6326072351637322
-0.47633361031249954	0.634638163975768
-0.47627257515624954	0.6366501052325588
-0.47621153999999954	0.6386431773042424
-0.47615050484374954	0.6406175391406943
-0.47608946968749954	0.6425733838064234
-0.47602843453124954	0.6445109306645628
-0.47596739937499954	0.6464304161981383
-0.47590636421874954	0.6483320839435486
-0.47584532906249954	0.6502161737085443
-0.47578429390624954	0.6520829104618058
-0.47572325874999954	0.6539324937190533
-0.47566222359374954	0.6557650875957022
-0.47560118843749954	0.6575808114563793
-0.47554015328124954	0.6593797316107843
-0.47547911812499954	0.6611618545128716
-0.47541808296874954	0.6629271218584277
-0.47535704781249954	0.664675407999301
-0.47529601265624954	0.6664065196494903
-0.47523497749999954	0.6681201977791692
-0.47517394234374954	0.669816121844317
-0.47511290718749954	0.6714939163863729
-0.47505187203124954	0.6731531599777153
-0.47499083687499954	0.6747933963690356
-0.47492980171874954	0.6764141473878211
-0.47486876656249954	0.6780149271403306
-0.47480773140624954	0.6795952570577184
-0.47474669624999954	0.6811546811747408
-0.47468566109374954	0.6826927810879835
-0.47462462593749954	0.6842091900748373
-0.47456359078124954	0.6857036057825242
-0.47450255562499954	0.6871758008403122
-0.47444152046874954	0.6886256309311841
-0.47438048531249954	0.6900530401669024
-0.47431945015624954	0.6914580634723784
-0.47425841499999954	0.6928408255775887
-0.47419737984374954	0.6942015365803723
-0.47413634468749954	0.6955404842666554
-0.47407530953124954	0.6968580234276405
-0.47401427437499954	0.6981545625783089
-0.47395323921874954	0.6994305485738586
-0.47389220406249954	0.700686449622877
-0.47383116890624954	0.7019227372568402
-0.47377013374999954	0.7031398679836974
-0.47370909859374954	0.7043382654284867
-0.47364806343749954	0.7055183036262105
-0.47358702828124954	0.7066802920480677
-0.47352599312499954	0.7078244629461226
-0.47346495796874954	0.7089509615267485
-0.47340392281249954	0.7100598393497854
-0.47334288765624954	0.711151051207612
-0.47328185249999954	0.7122244555960385
-0.47322081734374954	0.7132798188273247
-0.47315978218749954	0.7143168226759312
-0.47309874703124954	0.7153350751649428
-0.47303771187499954	0.7163341240105867
-0.47297667671874954	0.7173134722843227
-0.47291564156249954	0.7182725957362596
-0.47285460640624954	0.7192109610346168
-0.47279357124999954	0.7201280441347226
-0.47273253609374954	0.7210233480788488
-0.47267150093749954	0.7218964196149992
-0.47261046578124954	0.7227468640343735
-0.47254943062499954	0.7235743576164261
-0.47248839546874954	0.7243786571947222
-0.47242736031249954	0.7251596065124617
-0.47236632515624954	0.7259171391184789
-0.47230528999999954	0.7266512777866987
-0.47224425484374954	0.7273621306360715
-0.47218321968749954	0.7280498840628279
-0.47212218453124954	0.7287147927965517
-0.47206114937499954	0.7293571677048835
-0.47200011421874954	0.7299773618213582
-0.47193907906249954	0.7305757550344207
-0.47187804390624954	0.7311527380949752
-0.47181700874999954	0.731708696618619
-0.47175597359374954	0.7322439958152802
-0.47169493843749954	0.7327589665210036
-0.47163390328124954	0.7332538928405762
-0.47157286812499954	0.7337290019723035
-0.47151183296874954	0.7341844567704496
-0.47145079781249954	0.7346203511413085
-0.47138976265624954	0.7350367082495525
-0.47132872749999954	0.7354334815223611
-0.47126769234374954	0.7358105583062329
-0.47120665718749954	0.7361677658067064
-0.47114562203124954	0.7365048791293087
-0.47108458687499954	0.736821631451464
-0.47102355171874954	0.7371177255697786
-0.47096251656249954	0.7373928456542199
-0.47090148140624954	0.7376466689851577
-0.47084044624999954	0.7378788778073592
-0.47077941109374954	0.7380891706343817
-0.47071837593749954	0.7382772722303599
-0.47065734078124954	0.7384429420868337
-0.47059630562499954	0.7385859812397558
-0.47053527046874954	0.7387062370837226
-0.47047423531249954	0.7388036060648988
-0.47041320015624954	0.7388780345035648
-0.47035216499999954	0.7389295178823749
-0.47029112984374954	0.738958098623879
-0.47023009468749954	0.7389638621015318
-0.47016905953124954	0.7389469311165502
-0.47010802437499954	0.7389074595640779
