Time	Frequency
-0.5000457691250002	6.6882042785163145e-22
-0.4999847339687502	6.694190350206156e-22
-0.4999236988125002	6.7000045741925025e-22
-0.4998626636562502	6.705651124066102e-22
-0.4998016285000002	6.711133188595898e-22
-0.4997405933437502	6.71645288241546e-22
-0.4996795581875002	6.721611197043826e-22
-0.4996185230312502	6.726607992914512e-22
-0.4995574878750002	6.73144203117322e-22
-0.4994964527187502	6.736111043034928e-22
-0.4994354175625002	6.740611833562925e-22
-0.4993743824062502	6.7449404154171275e-22
-0.4993133472500002	6.749092165934408e-22
-0.4992523120937502	6.753062000310948e-22
-0.4991912769375002	6.756844554999648e-22
-0.4991302417812502	6.760434374881395e-22
-0.4990692066250002	6.763826095824755e-22
-0.4990081714687502	6.767014616254254e-22
-0.4989471363125002	6.7699952547837115e-22
-0.4988861011562502	6.772763887703242e-22
-0.4988250660000002	6.775317058611468e-22
-0.4987640308437502	6.777652059951658e-22
-0.4987029956875002	6.779766987840144e-22
-0.4986419605312502	6.781660766250492e-22
-0.4985809253750002	6.783333138838215e-22
-0.4985198902187502	6.784784632033372e-22
-0.4984588550625002	6.78601649403871e-22
-0.4983978199062502	6.787030613778484e-22
-0.4983367847500002	6.787829422428481e-22
-0.4982757495937502	6.788415782087151e-22
-0.4982147144375002	6.78879286817658e-22
-0.4981536792812502	6.788964049395068e-22
-0.4980926441250002	6.788932768943554e-22
-0.4980316089687502	6.788702430857907e-22
-0.4979705738125002	6.788276293653794e-22
-0.4979095386562502	6.787657375066896e-22
-0.4978485035000002	6.786848373404382e-22
-0.4977874683437502	6.785851608687157e-22
-0.4977264331875002	6.784668981666241e-22
-0.4976653980312502	6.783301949314691e-22
-0.4976043628750002	6.781751518294116e-22
-0.4975433277187502	6.7800182554010165e-22
-0.4974822925625002	6.778102311246593e-22
-0.4974212574062502	6.776003454288188e-22
-0.4973602222500002	6.77372111356882e-22
-0.4972991870937502	6.771254428522433e-22
-0.4972381519375002	6.768602305074209e-22
-0.4971771167812502	6.765763471459907e-22
-0.4971160816250002	6.762736524858639e-22
-0.4970550464687502	6.759519973479396e-22
-0.4969940113125002	6.756112280128914e-22
-0.4969329761562502	6.752511901345685e-22
-0.4968719410000002	6.748717315819329e-22
-0.4968109058437502	6.744727042820834e-22
-0.4967498706875002	6.74053965655167e-22
-0.4966888355312502	6.736153800367873e-22
-0.4966278003750002	6.7315681965946305e-22
-0.4965667652187502	6.726781645604507e-22
-0.4965057300625002	6.721793020440314e-22
-0.4964446949062502	6.716601268611176e-22
-0.4963836597500002	6.711205418407158e-22
-0.4963226245937502	6.705604584931132e-22
-0.4962615894375002	6.699797977634187e-22
-0.4962005542812502	6.693784910633625e-22
-0.4961395191250002	6.687564819502019e-22
-0.4960784839687502	6.6811372837012655e-22
-0.4960174488125002	6.674502050909149e-22
-0.4959564136562502	6.667659065690317e-22
-0.4958953785000002	6.660608501247171e-22
-0.4958343433437502	6.653350787190887e-22
-0.4957733081875002	6.645886630546412e-22
-0.4957122730312502	6.638217032271933e-22
-0.4956512378750002	6.630343299772393e-22
-0.4955902027187502	6.622267048909631e-22
-0.4955291675625002	6.613990188959373e-22
-0.4954681324062502	6.605514895956676e-22
-0.4954070972500002	6.596843581109357e-22
-0.4953460620937502	6.587978850319889e-22
-0.4952850269375002	6.578923451962617e-22
-0.4952239917812502	6.569680210597196e-22
-0.4951629566250002	6.560251943899151e-22
-0.4951019214687502	6.550641370574966e-22
-0.4950408863125002	6.540851018035425e-22
-0.4949798511562502	6.530883132501385e-22
-0.4949188160000002	6.520739594323092e-22
-0.4948577808437502	6.5104218424816055e-22
-0.4947967456875002	6.4999308100641605e-22
-0.4947357105312502	6.489266871707937e-22
-0.4946746753750002	6.478429808051734e-22
-0.4946136402187502	6.467418792978182e-22
-0.4945526050625002	6.456232405860239e-22
-0.4944915699062502	6.44486866259666e-22
-0.4944305347500002	6.433325061863798e-22
-0.4943694995937502	6.421598656786633e-22
-0.4943084644375002	6.409686152556606e-22
-0.4942474292812502	6.397584017125783e-22
-0.4941863941250002	6.385288602295511e-22
-0.4941253589687502	6.372796275345003e-22
-0.4940643238125002	6.360103553999915e-22
-0.4940032886562502	6.347207241374516e-22
-0.4939422535000002	6.33410455887592e-22
-0.4938812183437502	6.320793270759007e-22
-0.4938201831875002	6.307271791197758e-22
-0.4937591480312502	6.293539265886722e-22
-0.4936981128750002	6.279595627581394e-22
-0.4936370777187502	6.265441626729627e-22
-0.4935760425625002	6.251078836017878e-22
-0.4935150074062502	6.236509627713669e-22
-0.4934539722500002	6.221737121648405e-22
-0.4933929370937502	6.206765103592881e-22
-0.4933319019375002	6.191597917668431e-22
-0.4932708667812502	6.176240334123116e-22
-0.4932098316250002	6.160697396703027e-22
-0.4931487964687502	6.144974261260991e-22
-0.4930877613125002	6.129076029663262e-22
-0.4930267261562502	6.113007582604546e-22
-0.4929656910000002	6.096773423433101e-22
-0.4929046558437502	6.080377534952344e-22
-0.4928436206875002	6.063823245499813e-22
-0.4927825855312502	6.047113114080661e-22
-0.4927215503750002	6.030248849434257e-22
-0.4926605152187502	6.013231265101968e-22
-0.4925994800625002	5.996060264034794e-22
-0.4925384449062502	5.9787348541786495e-22
-0.4924774097500002	5.9612532029774275e-22
-0.4924163745937502	5.943612722768129e-22
-0.4923553394375002	5.925810170949052e-22
-0.4922943042812502	5.907841774840591e-22
-0.4922332691250002	5.889703392860295e-22
-0.4921722339687502	5.871390690007681e-22
-0.4921111988125002	5.852899304957145e-22
-0.4920501636562502	5.834225013612596e-22
-0.4919891285000002	5.81536389573831e-22
-0.4919280933437502	5.796312494203315e-22
-0.4918670581875002	5.777067955942869e-22
-0.4918060230312502	5.75762815382062e-22
-0.4917449878750002	5.737991778831005e-22
-0.4916839527187502	5.718158388250547e-22
-0.4916229175625002	5.698128424404552e-22
-0.4915618824062502	5.6779032145688905e-22
-0.4915008472500002	5.657484935447652e-22
-0.4914398120937502	5.636876541528595e-22
-0.4913787769375002	5.616081669874985e-22
-0.4913177417812502	5.595104524896726e-22
-0.4912567066250002	5.573949741657359e-22
-0.4911956714687502	5.552622229976117e-22
-0.4911346363125002	5.531127010808633e-22
-0.4910736011562502	5.509469054358989e-22
-0.4910125660000002	5.487653127157057e-22
-0.4909515308437502	5.465683651038352e-22
-0.4908904956875002	5.443564569932657e-22
-0.4908294605312502	5.421299230436137e-22
-0.4907684253750002	5.398890290202701e-22
-0.4907073902187502	5.37633966338631e-22
-0.4906463550625002	5.353648497693492e-22
-0.4905853199062502	5.330817170046328e-22
-0.4905242847500002	5.307845304187146e-22
-0.4904632495937502	5.284731821063399e-22
-0.4904022144375002	5.261475020285805e-22
-0.4903411792812502	5.238072683677475e-22
-0.4902801441250002	5.214522190422586e-22
-0.4902191089687502	5.19082063604086e-22
-0.4901580738125002	5.166964962053898e-22
-0.4900970386562502	5.142952104437446e-22
-0.4900360035000002	5.118779144640635e-22
-0.4899749683437502	5.094443437270106e-22
-0.4899139331875002	5.069942711728588e-22
-0.4898528980312502	5.045275164748437e-22
-0.4897918628750002	5.020439543783197e-22
-0.4897308277187502	4.995435204404612e-22
-0.4896697925625002	4.970262139840377e-22
-0.4896087574062502	4.944920991594052e-22
-0.4895477222500002	4.919413042049003e-22
-0.4894866870937502	4.893740181384541e-22
-0.4894256519375002	4.867904841857102e-22
-0.4893646167812502	4.841909904273781e-22
-0.4893035816250002	4.815758596891528e-22
-0.4892425464687502	4.789454401519071e-22
-0.4891815113125002	4.763000954642209e-22
-0.4891204761562502	4.73640192796821e-22
-0.4890594410000002	4.709660901726701e-22
-0.4889984058437502	4.682781256180599e-22
-0.4889373706875002	4.655766085419494e-22
-0.4888763355312502	4.62861812241222e-22
-0.4888153003750002	4.601339670490892e-22
-0.4887542652187502	4.573932546013042e-22
-0.4886932300625002	4.546398045086027e-22
-0.4886321949062502	4.518736945708333e-22
-0.4885711597500002	4.490949540847542e-22
-0.4885101245937502	4.463035680389041e-22
-0.4884490894375002	4.434994807606783e-22
-0.4883880542812502	4.406826010463756e-22
-0.4883270191250002	4.378528106250399e-22
-0.4882659839687502	4.350099739388524e-22
-0.4882049488125002	4.32153946707781e-22
-0.4881439136562502	4.292845838881119e-22
-0.4880828785000002	4.264017494638557e-22
-0.4880218433437502	4.2350532726315493e-22
-0.4879608081875002	4.2059522915683918e-22
-0.4878997730312502	4.1767140001501597e-22
-0.4878387378750002	4.1473382137715017e-22
-0.4877777027187502	4.117825145875108e-22
-0.4877166675625002	4.0881754256773435e-22
-0.4876556324062502	4.0583901005204474e-22
-0.4875945972500002	4.028470627892272e-22
-0.4875335620937502	3.9984188465309304e-22
-0.4874725269375002	3.9682369204967173e-22
-0.4874114917812502	3.9379272698533395e-22
-0.4873504566250002	3.907492496134456e-22
-0.4872894214687502	3.876935301563879e-22
-0.4872283863125002	3.8462584070529164e-22
-0.4871673511562502	3.8154644749513214e-22
-0.4871063160000002	3.7845560372101844e-22
-0.4870452808437502	3.7535354292352225e-22
-0.4869842456875002	3.7224047276069016e-22
-0.4869232105312502	3.6911656946960436e-22
-0.4868621753750002	3.659819740912578e-22
-0.4868011402187502	3.6283679082886136e-22
-0.4867401050625002	3.5968108669247726e-22
-0.4866790699062502	3.565148918077262e-22
-0.4866180347500002	3.533382016098106e-22
-0.4865569995937502	3.501509819015398e-22
-0.4864959644375002	3.469531746309579e-22
-0.4864349292812502	3.437447032539563e-22
-0.4863738941250002	3.40525480176508e-22
-0.4863128589687502	3.3729541596655605e-22
-0.4862518238125002	3.340544274025943e-22
-0.4861907886562502	3.308024449287197e-22
-0.4861297535000002	3.2753942078966708e-22
-0.4860687183437502	3.2426533600239847e-22
-0.4860076831875002	3.2098020443238044e-22
-0.4859466480312502	3.176840752585321e-22
-0.4858856128750002	3.143770352288573e-22
-0.4858245777187502	3.110592096375299e-22
-0.4857635425625002	3.077307611023637e-22
-0.4857025074062502	3.0439188692047925e-22
-0.4856414722500002	3.010428158562352e-22
-0.4855804370937502	2.976838037509094e-22
-0.4855194019375002	2.9431512670634775e-22
-0.4854583667812502	2.9093707281025376e-22
-0.4853973316250002	2.8754993396169528e-22
-0.4853362964687502	2.841539972421187e-22
-0.4852752613125002	2.8074953602805546e-22
-0.4852142261562502	2.7733680233859754e-22
-0.4851531910000002	2.73916020484778e-22
-0.4850921558437502	2.7048738140203934e-22
-0.4850311206875002	2.670510377995189e-22
-0.4849700855312502	2.636071009841677e-22
-0.4849090503750002	2.6015564009722164e-22
-0.4848480152187502	2.566966833011003e-22
-0.4847869800625002	2.5323022009479764e-22
-0.4847259449062502	2.4975620480576713e-22
-0.4846649097500002	2.4627456187405133e-22
-0.4846038745937502	2.4278519286658093e-22
-0.4845428394375002	2.392879847072728e-22
-0.4844818042812502	2.3578281932759996e-22
-0.4844207691250002	2.322695837832196e-22
-0.4843597339687502	2.2874817894915386e-22
-0.4842986988125002	2.252185274064141e-22
-0.4842376636562502	2.2168058134708755e-22
-0.4841766285000002	2.1813432885795052e-22
-0.4841155933437502	2.145797984533387e-22
-0.4840545581875002	2.110170632849953e-22
-0.4839935230312502	2.0744624330706286e-22
-0.4839324878750002	2.038675036205791e-22
-0.4838714527187502	2.0028105116756887e-22
-0.4838104175625002	1.966871314545992e-22
-0.4837493824062502	1.930860242204647e-22
-0.4836883472500002	1.894780371689808e-22
-0.4836273120937502	1.85863497938346e-22
-0.4835662769375002	1.8224274491852625e-22
-0.4835052417812502	1.7861611773514382e-22
-0.4834442066250002	1.7498394779970237e-22
-0.4833831714687502	1.7134654883805266e-22
-0.4833221363125002	1.6770420790933516e-22
-0.4832611011562502	1.6405717799164343e-22
-0.4832000660000002	1.6040567231798335e-22
-0.4831390308437502	1.5674985991203877e-22
-0.4830779956875002	1.5308986236807918e-22
-0.4830169605312502	1.4942575300771392e-22
-0.4829559253750002	1.457575588655068e-22
-0.4828948902187502	1.4208526367948068e-22
-0.4828338550625002	1.3840881090567906e-22
-0.4827728199062502	1.3472810919519121e-22
-0.4827117847500002	1.3104304125033613e-22
-0.4826507495937502	1.273534729462624e-22
-0.4825897144375002	1.2365926213074737e-22
-0.4825286792812502	1.1996026914546844e-22
-0.4824676441250002	1.162563680433725e-22
-0.4824066089687502	1.1254745605720007e-22
-0.4823455738125002	1.088334610063052e-22
-0.4822845386562502	1.0511434813009362e-22
-0.4822235035000002	1.0139012644020512e-22
-0.4821624683437502	9.766085313121935e-23
-0.4821014331875002	9.392663550969891e-23
-0.4820403980312502	9.018763065083424e-23
-0.4819793628750002	8.644404390838801e-23
-0.4819183277187502	8.269612628736962e-23
-0.4818572925625002	7.894416852988225e-23
-0.4817962574062502	7.518849291080579e-23
-0.4817352222500002	7.142944598523902e-23
-0.4816741870937502	6.766739099174582e-23
-0.4816131519375002	6.390269736334238e-23
-0.4815521167812502	6.013572942506246e-23
-0.4814910816250002	5.63668368377399e-23
-0.4814300464687502	5.259634584347553e-23
-0.4813690113125002	4.8824550087899765e-23
-0.4813079761562502	4.505170216607162e-23
-0.4812469410000002	4.127800749390545e-23
-0.4811859058437502	3.750362077135498e-23
-0.4811248706875002	3.372864472256461e-23
-0.4810638355312502	2.9953131070776696e-23
-0.4810028003750002	2.61770835285568e-23
-0.4809417652187502	2.2400461871293313e-23
-0.4808807300625002	1.8623186537199066e-23
-0.4808196949062502	1.484514475374369e-23
-0.4807586597500002	1.1066199698260388e-23
-0.4806976245937502	7.286201720736221e-24
-0.4806365894375002	3.504998781222176e-24
-0.4805755542812502	-2.775544127270037e-25
-0.4805145191250002	-4.061587546150432e-24
-0.4804534839687502	-7.847205651833786e-24
-0.4803924488125002	-1.1634479770778135e-23
-0.4803314136562502	-1.542343840970511e-23
-0.4802703785000002	-1.9214061479663677e-23
-0.4802093433437502	-2.3006277495152658e-23
-0.4801483081875002	-2.6799963080692295e-23
-0.4800872730312502	-3.0594943055558536e-23
-0.4800262378750002	-3.439099158437712e-23
-0.4799652027187502	-3.8187836535153704e-23
-0.4799041675625002	-4.1985166947261807e-23
-0.4798431324062502	-4.578264150433573e-23
-0.4797820972500002	-4.957989714962201e-23
-0.4797210620937502	-5.337655802497344e-23
-0.4796600269375002	-5.717224462533302e-23
-0.4795989917812502	-6.096658332548278e-23
-0.4795379566250002	-6.475921655672002e-23
-0.4794769214687502	-6.854981336106438e-23
-0.4794158863125002	-7.233807909316064e-23
-0.4793548511562502	-7.612376266828127e-23
-0.4792938160000002	-7.990666180489477e-23
-0.4792327808437502	-8.368662770956375e-23
-0.4791717456875002	-8.746356759192898e-23
-0.4791107105312502	-9.123744275349364e-23
-0.4790496753750002	-9.500826413694595e-23
-0.4789886402187502	-9.877608751645543e-23
-0.4789276050625002	-1.0254100769062193e-22
-0.4788665699062502	-1.0630315137143964e-22
-0.4788055347500002	-1.100626680731885e-22
-0.4787444995937502	-1.1381971875721693e-22
-0.4786834644375002	-1.1757446442273878e-22
-0.4786224292812502	-1.2132705545823196e-22
-0.4785613941250002	-1.250776213920544e-22
-0.4785003589687502	-1.2882626132405798e-22
-0.4784393238125002	-1.32573034422922e-22
-0.4783782886562502	-1.3631795158766149e-22
-0.4783172535000002	-1.4006097108012136e-22
-0.4782562183437502	-1.4380199677640084e-22
-0.4781951831875002	-1.4754087648778816e-22
-0.4781341480312502	-1.5127740199786242e-22
-0.4780731128750002	-1.5501131260588764e-22
-0.4780120777187502	-1.587423018500142e-22
-0.4779510425625002	-1.6247002618575788e-22
-0.4778900074062502	-1.6619411426080781e-22
-0.4778289722500002	-1.6991417681431032e-22
-0.4777679370937502	-1.7362981793732086e-22
-0.4777069019375002	-1.7734064727675493e-22
-0.4776458667812502	-1.8104629152037748e-22
-0.4775848316250002	-1.8474640499332995e-22
-0.4775237964687502	-1.88440680505318e-22
-0.4774627613125002	-1.9212885922129572e-22
-0.4774017261562502	-1.9581073740131568e-22
-0.4773406910000002	-1.9948616997556233e-22
-0.4772796558437502	-2.0315507214033987e-22
-0.4772186206875002	-2.0681741965196883e-22
-0.4771575855312502	-2.1047324659341922e-22
-0.4770965503750002	-2.141226391054685e-22
-0.4770355152187502	-2.177657268866307e-22
-0.4769744800625002	-2.2140267424592557e-22
-0.4769134449062502	-2.2503366929277138e-22
-0.4768524097500002	-2.2865891126286554e-22
-0.4767913745937502	-2.3227859760393666e-22
-0.4767303394375002	-2.358929107635721e-22
-0.4766693042812502	-2.3950200485664633e-22
-0.4766082691250002	-2.431059937914535e-22
-0.4765472339687502	-2.467049412735206e-22
-0.4764861988125002	-2.502988520651407e-22
-0.4764251636562502	-2.538876657976042e-22
-0.4763641285000002	-2.574712545240073e-22
-0.4763030933437502	-2.6104942259796784e-22
-0.4762420581875002	-2.6462190841479635e-22
-0.4761810230312502	-2.6818838917783546e-22
-0.4761199878750002	-2.7174848830148434e-22
-0.4760589527187502	-2.7530178512349e-22
-0.4759979175625002	-2.7884782791433194e-22
-0.4759368824062502	-2.8238614863857696e-22
-0.4758758472500002	-2.85916276980389e-22
-0.4758148120937502	-2.8943775464887837e-22
-0.4757537769375002	-2.9295015089112593e-22
-0.4756927417812502	-2.9645307709900256e-22
-0.4756317066250002	-2.9994619908275134e-22
-0.4755706714687502	-3.0342924784280255e-22
-0.4755096363125002	-3.069020286312922e-22
-0.4754486011562502	-3.103644261758116e-22
-0.4753875660000002	-3.1381640582925196e-22
-0.4753265308437502	-3.172580126513779e-22
-0.4752654956875002	-3.2068936842498877e-22
-0.4752044605312502	-3.2411066451545824e-22
-0.4751434253750002	-3.27522150755488e-22
-0.4750823902187502	-3.309241230755396e-22
-0.4750213550625002	-3.3431691021657446e-22
-0.4749603199062502	-3.3770085782761565e-22
-0.4748992847500002	-3.410763109332316e-22
-0.4748382495937502	-3.4444359694760605e-22
-0.4747772144375002	-3.4780300938065056e-22
-0.4747161792812502	-3.511547918104408e-22
-0.4746551441250002	-3.5449912260613604e-22
-0.4745941089687502	-3.578361012452878e-22
-0.4745330738125002	-3.6116573768829574e-22
-0.4744720386562502	-3.644879457130476e-22
-0.4744110035000002	-3.67802539304704e-22
-0.4743499683437502	-3.7110923242802943e-22
-0.4742889331875002	-3.7440764366528393e-22
-0.4742278980312502	-3.7769730505937133e-22
-0.4741668628750002	-3.80977674084878e-22
-0.4741058277187502	-3.842481490508285e-22
-0.4740447925625002	-3.875080877552559e-22
-0.4739837574062502	-3.9075682820079773e-22
-0.4739227222500002	-3.939937099868444e-22
-0.4738616870937502	-3.9721809537629605e-22
-0.4738006519375002	-4.0042939024323583e-22
-0.4737396167812502	-4.0362706497471853e-22
-0.4736785816250002	-4.0681067344224615e-22
-0.4736175464687502	-4.099798679425833e-22
-0.4735565113125002	-4.1313440975572304e-22
-0.4734954761562502	-4.162741757481746e-22
-0.4734344410000002	-4.193991611212245e-22
-0.4733734058437502	-4.225094779291404e-22
-0.4733123706875002	-4.25605348585659e-22
-0.4732513355312502	-4.2868709448622625e-22
-0.4731903003750002	-4.317551207190278e-22
-0.4731292652187502	-4.348098970800419e-22
-0.4730682300625002	-4.378519359109535e-22
-0.4730071949062502	-4.4088176818433735e-22
-0.4729461597500002	-4.4389991860099885e-22
-0.4728851245937502	-4.469068802418929e-22
-0.4728240894375002	-4.499030903632342e-22
-0.4727630542812502	-4.528889092592446e-22
-0.4727020191250002	-4.558646027620595e-22
-0.4726409839687502	-4.588303278068203e-22
-0.4725799488125002	-4.617861218238997e-22
-0.4725189136562502	-4.647318975116005e-22
-0.4724578785000002	-4.676674429133814e-22
-0.4723968433437502	-4.705924265268276e-22
-0.4723358081875002	-4.735064075397332e-22
-0.4722747730312502	-4.7640885025200305e-22
-0.4722137378750002	-4.792991419504751e-22
-0.4721527027187502	-4.821766143872327e-22
-0.4720916675625002	-4.850405684945837e-22
-0.4720306324062502	-4.878903005725003e-22
-0.4719695972500002	-4.907251281891923e-22
-0.4719085620937502	-4.935444150613572e-22
-0.4718475269375002	-4.963475937002243e-22
-0.4717864917812502	-4.991341848812932e-22
-0.4717254566250002	-5.019038138476776e-22
-0.4716644214687502	-5.046562220788207e-22
-0.4716033863125002	-5.07391273503131e-22
-0.4715423511562502	-5.101089556063117e-22
-0.4714813160000002	-5.128093757335497e-22
