Time	Frequency
-0.5000458583749996	8.80611762015676e-22
-0.4999848232187496	8.786821403297242e-22
-0.4999237880624996	8.767319597956488e-22
-0.4998627529062496	8.74760887492983e-22
-0.4998017177499996	8.727686208389785e-22
-0.4997406825937496	8.707550312720799e-22
-0.4996796474374996	8.687202353583011e-22
-0.4996186122812496	8.666645616241642e-22
-0.4995575771249996	8.645884260358181e-22
-0.4994965419687496	8.624921715311924e-22
-0.4994355068124996	8.603759445476455e-22
-0.4993744716562496	8.582396619105647e-22
-0.4993134364999996	8.560830706905233e-22
-0.4992524013437496	8.539058682006692e-22
-0.4991913661874996	8.517078415452193e-22
-0.4991303310312496	8.494889763887958e-22
-0.4990692958749996	8.472494845338079e-22
-0.4990082607187496	8.449897308052236e-22
-0.4989472255624996	8.427100910617789e-22
-0.4988861904062496	8.404108113097798e-22
-0.4988251552499996	8.38091931559149e-22
-0.4987641200937496	8.35753297378691e-22
-0.4987030849374996	8.333946453666107e-22
-0.4986420497812496	8.310157332834142e-22
-0.4985810146249996	8.286164672995623e-22
-0.4985199794687496	8.261969648843317e-22
-0.4984589443124996	8.237575252880307e-22
-0.4983979091562496	8.212985239509526e-22
-0.4983368739999996	8.188202673271733e-22
-0.4982758388437496	8.163228735453581e-22
-0.4982148036874996	8.138062419195125e-22
-0.4981537685312496	8.112701197696134e-22
-0.4980927333749996	8.087142353631131e-22
-0.4980316982187496	8.061384396512755e-22
-0.4979706630624996	8.035427920904258e-22
-0.4979096279062496	8.009275617633415e-22
-0.4978485927499996	7.982931476047266e-22
-0.4977875575937496	7.956399393543014e-22
-0.4977265224374996	7.929681683084484e-22
-0.4976654872812496	7.902778178500524e-22
-0.4976044521249996	7.875686464220939e-22
-0.4975434169687496	7.848403139639093e-22
-0.4974823818124996	7.82092549909045e-22
-0.4974213466562496	7.793252963871715e-22
-0.4973603114999996	7.765387648596938e-22
-0.4972992763437496	7.737333746694166e-22
-0.4972382411874996	7.709096101794873e-22
-0.4971772060312496	7.680678495569584e-22
-0.4971161708749996	7.652082224418611e-22
-0.4970551357187496	7.623305766054358e-22
-0.4969941005624996	7.594345703305208e-22
-0.4969330654062496	7.565198330128327e-22
-0.4968720302499996	7.535861375801323e-22
-0.4968109950937496	7.506335250010987e-22
-0.4967499599374996	7.476623207284974e-22
-0.4966889247812496	7.446730309480483e-22
-0.4966278896249996	7.41666162618045e-22
-0.4965668544687496	7.386420405848237e-22
-0.4965058193124996	7.356006981146958e-22
-0.4964447841562496	7.325418882485627e-22
-0.4963837489999996	7.29465207752303e-22
-0.4963227138437496	7.2637028315605955e-22
-0.4962616786874996	7.232569515213023e-22
-0.4962006435312496	7.201253609842446e-22
-0.4961396083749996	7.169759447980863e-22
-0.4960785732187496	7.138092805075274e-22
-0.4960175380624996	7.106258855793729e-22
-0.4959565029062496	7.074260332643003e-22
-0.4958954677499996	7.042096718503535e-22
-0.4958344325937496	7.009764728412357e-22
-0.4957733974374996	6.977259845953425e-22
-0.4957123622812496	6.944578394440167e-22
-0.4956513271249996	6.911719368418807e-22
-0.4955902919687496	6.878685212369578e-22
-0.4955292568124996	6.845481110703501e-22
-0.4954682216562496	6.812113155627969e-22
-0.4954071864999996	6.778586234507918e-22
-0.4953461513437496	6.744902387166506e-22
-0.4952851161874996	6.711060289022554e-22
-0.4952240810312496	6.677056134357003e-22
-0.4951630458749996	6.642885486324343e-22
-0.4951020107187496	6.608545314974295e-22
-0.4950409755624996	6.574035485266689e-22
-0.4949799404062496	6.539359122692869e-22
-0.4949189052499996	6.504521644607591e-22
-0.4948578700937496	6.469528836805633e-22
-0.4947968349374996	6.434384828436387e-22
-0.4947357997812496	6.399090782293405e-22
-0.4946747646249996	6.363644791049951e-22
-0.4946137294687496	6.328043052076696e-22
-0.4945526943124996	6.292281767200752e-22
-0.4944916591562496	6.256358931685167e-22
-0.4944306239999996	6.220275433884189e-22
-0.4943695888437496	6.184035045862471e-22
-0.4943085536874996	6.147643170056319e-22
-0.4942475185312496	6.11110485904258e-22
-0.4941864833749996	6.074423071472073e-22
-0.4941254482187496	6.0375979439588765e-22
-0.4940644130624996	6.000627175126893e-22
-0.4940033779062496	5.963507212262977e-22
-0.4939423427499996	5.926234934034572e-22
-0.4938813075937496	5.88880928417628e-22
-0.4938202724374996	5.85123204340111e-22
-0.4937592372812496	5.813507340513958e-22
-0.4936982021249996	5.775640295969966e-22
-0.4936371669687496	5.737635390141624e-22
-0.4935761318124996	5.699495033270595e-22
-0.4935150966562496	5.66121896203827e-22
-0.4934540614999996	5.622804795417328e-22
-0.4933930263437496	5.584249351519799e-22
-0.4933319911874996	5.545550127664742e-22
-0.4932709560312496	5.506706535782818e-22
-0.4932099208749996	5.467720452243758e-22
-0.4931488857187496	5.428595759554413e-22
-0.4930878505624996	5.389337148595512e-22
-0.4930268154062496	5.349948756326688e-22
-0.4929657802499996	5.310433009890223e-22
-0.4929047450937496	5.270790053403218e-22
-0.4928437099374996	5.231018091042333e-22
-0.4927826747812496	5.191114496753193e-22
-0.4927216396249996	5.15107715605305e-22
-0.4926606044687496	5.110905513867727e-22
-0.4925995693124996	5.070601032658647e-22
-0.4925385341562496	5.030166898197768e-22
-0.4924774989999996	4.989607038663016e-22
-0.4924164638437496	4.948924946038028e-22
-0.4923554286874996	4.908122799983705e-22
-0.4922943935312496	4.867201143869778e-22
-0.4922333583749996	4.826159182244409e-22
-0.4921723232187496	4.784995541941641e-22
-0.4921112880624996	4.743709175180349e-22
-0.4920502529062496	4.702300020096106e-22
-0.4919892177499996	4.660769200008489e-22
-0.4919281825937496	4.619118810903579e-22
-0.4918671474374996	4.577351401985586e-22
-0.4918061122812496	4.535469327362394e-22
-0.4917450771249996	4.4934742680437025e-22
-0.4916840419687496	4.451367134450421e-22
-0.4916230068124996	4.409148316613844e-22
-0.4915619716562496	4.366818064682468e-22
-0.4915009364999996	4.324376759912287e-22
-0.4914399013437496	4.281824978565227e-22
-0.4913788661874996	4.23916345073636e-22
-0.4913178310312496	4.1963930444576873e-22
-0.4912567958749996	4.1535148012856057e-22
-0.4911957607187496	4.110529928822572e-22
-0.4911347255624996	4.0674397185125873e-22
-0.4910736904062496	4.024245548352267e-22
-0.4910126552499996	3.9809489529935405e-22
-0.4909516200937496	3.937551534574272e-22
-0.4908905849374996	3.8940546677100603e-22
-0.4908295497812496	3.8504592055800675e-22
-0.4907685146249996	3.8067653988796275e-22
-0.4907074794687496	3.7629730630182777e-22
-0.4906464443124996	3.7190819627569745e-22
-0.4905854091562496	3.675092307642054e-22
-0.4905243739999996	3.631005138442352e-22
-0.4904633388437496	3.586822470426717e-22
-0.4904023036874996	3.542547154855271e-22
-0.4903412685312496	3.4981823426751786e-22
-0.4902802333749996	3.4537305956930085e-22
-0.4902191982187496	3.409193113308307e-22
-0.4901581630624996	3.364569538572081e-22
-0.4900971279062496	3.319858388617335e-22
-0.4900360927499996	3.275057902996133e-22
-0.4899750575937496	3.230167065452182e-22
-0.4899140224374996	3.1851864907177965e-22
-0.4898529872812496	3.1401187556538257e-22
-0.4897919521249996	3.0949678802557067e-22
-0.4897309169687496	3.0497382018714993e-22
-0.4896698818124996	3.004433166911146e-22
-0.4896088466562496	2.9590544222088937e-22
-0.4895478114999996	2.9136015507872164e-22
-0.4894867763437496	2.8680725424040553e-22
-0.4894257411874996	2.822464782806747e-22
-0.4893647060312496	2.7767763786210274e-22
-0.4893036708749996	2.731007411659311e-22
-0.4892426357187496	2.6851604337878097e-22
-0.4891816005624996	2.639239903758198e-22
-0.4891205654062496	2.5932508866891666e-22
-0.4890595302499996	2.5471975857324916e-22
-0.4889984950937496	2.501082175616807e-22
-0.4889374599374996	2.4549042497730326e-22
-0.4888764247812496	2.4086612554412678e-22
-0.4888153896249996	2.3623499561781355e-22
-0.4887543544687496	2.3159681682727465e-22
-0.4886933193124996	2.2695159437242153e-22
-0.4886322841562496	2.2229959164159956e-22
-0.4885712489999996	2.1764128083744676e-22
-0.4885102138437496	2.129772141228428e-22
-0.4884491786874996	2.0830784590278027e-22
-0.4883881435312496	2.0363338455809893e-22
-0.4883271083749996	1.9895375055744628e-22
-0.4882660732187496	1.9426865677301974e-22
-0.4882050380624996	1.8957776758387154e-22
-0.4881440029062496	1.8488086633627788e-22
-0.4880829677499996	1.8017797669754306e-22
-0.4880219325937496	1.7546940044895343e-22
-0.4879608974374996	1.7075564852745025e-22
-0.4878998622812496	1.660372888637068e-22
-0.4878388271249996	1.6131476961989216e-22
-0.4877777919687496	1.5658828764933346e-22
-0.4877167568124996	1.5185775622421704e-22
-0.4876557216562496	1.471228748204593e-22
-0.4875946864999996	1.4238328049614248e-22
-0.4875336513437496	1.376387409676241e-22
-0.4874726161874996	1.3288929718490444e-22
-0.4874115810312496	1.28135284336293e-22
-0.4873505458749996	1.2337723869887592e-22
-0.4872895107187496	1.1861573229298715e-22
-0.4872284755624996	1.1385119778047852e-22
-0.4871674404062496	1.090838090562772e-22
-0.4871064052499996	1.0431345573258117e-22
-0.4870453700937496	9.953982653495377e-23
-0.4869843349374996	9.476258046781607e-23
-0.4869232997812496	8.998153149201036e-23
-0.4868622646249996	8.519676056036877e-23
-0.4868012294687496	8.040861854432011e-23
-0.4867401943124996	7.561763098991668e-23
-0.4866791591562496	7.0824340409499e-23
-0.4866181239999996	6.602913981455734e-23
-0.4865570888437496	6.123215999664033e-23
-0.4864960536874996	5.643326602460449e-23
-0.4864350185312496	5.1632167163842047e-23
-0.4863739833749996	4.6828583004870716e-23
-0.4863129482187496	4.202239514615482e-23
-0.4862519130624996	3.7213731896884357e-23
-0.4861908779062496	3.2402957305941667e-23
-0.4861298427499996	2.759056886893007e-23
-0.4860688075937496	2.2777044496011094e-23
-0.4860077724374996	1.7962696652936094e-23
-0.4859467372812496	1.3147595724372314e-23
-0.4858857021249996	8.331600650175847e-24
-0.4858246669687496	3.51446770281303e-24
-0.4857636318124996	-1.3040156197522477e-24
-0.4857025966562496	-6.123902012246016e-24
-0.4856415614999996	-1.0945009684077744e-23
-0.4855805263437496	-1.5766953776082604e-23
-0.4855194911874996	-2.0589271220741495e-23
-0.4854584560312496	-2.541156987874422e-23
-0.4853974208749996	-3.0233636610111824e-23
-0.4853363857187496	-3.505546676958973e-23
-0.4852753505624996	-3.9877204152770047e-23
-0.4852143154062496	-4.4699021645736934e-23
-0.4851532802499996	-4.952100447299335e-23
-0.4850922450937496	-5.434308405906669e-23
-0.4850312099374996	-5.916503410564731e-23
-0.4849701747812496	-6.398651978125593e-23
-0.4849091396249996	-6.880718761065584e-23
-0.4848481044687496	-7.362676835532954e-23
-0.4847870693124996	-7.844513847180092e-23
-0.4847260341562496	-8.3262309657865e-23
-0.4846649989999996	-8.807837280014671e-23
-0.4846039638437496	-9.28934212786081e-23
-0.4845429286874996	-9.770746214182698e-23
-0.4844818935312496	-1.0252035091497441e-22
-0.4844208583749996	-1.0733179639503168e-22
-0.4843598232187496	-1.121414437140766e-22
-0.4842987880624996	-1.169489899636469e-22
-0.4842377529062496	-1.2175427067765337e-22
-0.4841767177499996	-1.2655728767339312e-22
-0.4841156825937496	-1.3135817138101528e-22
-0.4840546474374996	-1.361570805263958e-22
-0.4839936122812496	-1.4095407395235442e-22
-0.4839325771249996	-1.4574901769293015e-22
-0.4838715419687496	-1.5054157553474975e-22
-0.4838105068124996	-1.5533128886936594e-22
-0.4837494716562496	-1.6011771663358507e-22
-0.4836884364999996	-1.6490058216404996e-22
-0.4836274013437496	-1.6967986610477913e-22
-0.4835663661874996	-1.7445579697366381e-22
-0.4835053310312496	-1.792287288246356e-22
-0.4834442958749996	-1.839989586245897e-22
-0.4833832607187496	-1.8876656038446783e-22
-0.4833222255624996	-1.9353128860259576e-22
-0.4832611904062496	-1.9829259442695504e-22
-0.4832001552499996	-2.0304977011419536e-22
-0.4831391200937496	-2.0780217019480377e-22
-0.4830780849374996	-2.1254942278484317e-22
-0.4830170497812496	-2.1729155085514288e-22
-0.4829560146249996	-2.2202895485247285e-22
-0.4828949794687496	-2.267622590442825e-22
-0.4828339443124996	-2.3149207435565024e-22
-0.4827729091562496	-2.3621876165264896e-22
-0.4827118739999996	-2.409422682366329e-22
-0.4826508388437496	-2.456620862465824e-22
-0.4825898036874996	-2.5037735690227885e-22
-0.4825287685312496	-2.5508708012764505e-22
-0.4824677333749996	-2.597903402404947e-22
-0.4824066982187496	-2.644864918189768e-22
-0.4823456630624996	-2.6917528309074033e-22
-0.4822846279062496	-2.738568822369143e-22
-0.4822235927499996	-2.785317998956311e-22
-0.4821625575937496	-2.8320074660952e-22
-0.4821015224374996	-2.8786444748118705e-22
-0.4820404872812496	-2.9252342883033224e-22
-0.4819794521249996	-2.971778438847114e-22
-0.4819184169687496	-3.018274082964716e-22
-0.4818573818124996	-3.0647145624870543e-22
-0.4817963466562496	-3.111091036315283e-22
-0.4817353114999996	-3.15739489179469e-22
-0.4816742763437496	-3.203620122995377e-22
-0.4816132411874996	-3.249764701375023e-22
-0.4815522060312496	-3.295830524226269e-22
-0.4814911708749996	-3.34182212225083e-22
-0.4814301357187496	-3.387744603778003e-22
-0.4813691005624996	-3.4336015666437103e-22
-0.4813080654062496	-3.4793937404863583e-22
-0.4812470302499996	-3.525118756119215e-22
-0.4811859950937496	-3.570771909224764e-22
-0.4811249599374996	-3.616347439349658e-22
-0.4810639247812496	-3.661839962102875e-22
-0.4810028896249996	-3.7072458091762275e-22
-0.4809418544687496	-3.7525638466374056e-22
-0.4808808193124996	-3.7977953957302535e-22
-0.4808197841562496	-3.8429432575161093e-22
-0.4807587489999996	-3.8880102818285895e-22
-0.4806977138437496	-3.9329980996685043e-22
-0.4806366786874996	-3.977906388779127e-22
-0.4805756435312496	-4.022732768706835e-22
-0.4805146083749996	-4.0674732861333196e-22
-0.4804535732187496	-4.112123342201269e-22
-0.4803925380624996	-4.1566788487060707e-22
-0.4803315029062496	-4.201137269134339e-22
-0.4802704677499996	-4.245498084489056e-22
-0.4802094325937496	-4.289762518683748e-22
-0.4801483974374996	-4.333932731039936e-22
-0.4800873622812496	-4.3780107150736845e-22
-0.4800263271249996	-4.421997273382653e-22
-0.4799652919687496	-4.465891458678329e-22
-0.4799042568124996	-4.509690557098047e-22
-0.4798432216562496	-4.553390609960613e-22
-0.4797821864999996	-4.596987385347734e-22
-0.4797211513437496	-4.640477413444777e-22
-0.4796601161874996	-4.683858721561787e-22
-0.4795990810312496	-4.727131135384527e-22
-0.4795380458749996	-4.770296053026337e-22
-0.4794770107187496	-4.813355646124323e-22
-0.4794159755624996	-4.856311710849712e-22
-0.4793549404062496	-4.899164618202166e-22
-0.4792939052499996	-4.941912755157676e-22
-0.4792328700937496	-4.984552683803216e-22
-0.4791718349374996	-5.027079999703883e-22
-0.4791107997812496	-5.0694905093207685e-22
-0.4790497646249996	-5.111781321615034e-22
-0.4789887294687496	-5.153951609550497e-22
-0.4789276943124996	-5.196002694046729e-22
-0.4788666591562496	-5.237937240962393e-22
-0.4788056239999996	-5.279757851007976e-22
-0.4787445888437496	-5.32146559276574e-22
-0.4786835536874996	-5.363059029272851e-22
-0.4786225185312496	-5.404534162512362e-22
-0.4785614833749996	-5.445885408813654e-22
-0.4785004482187496	-5.487107298897922e-22
-0.4784394130624996	-5.528196318946471e-22
-0.4783783779062496	-5.569152133506927e-22
-0.4783173427499996	-5.609977500666689e-22
-0.4782563075937496	-5.650676878380947e-22
-0.4781952724374996	-5.691254360032586e-22
-0.4781342372812496	-5.731711646180302e-22
-0.4780732021249996	-5.772046818967458e-22
-0.4780121669687496	-5.812254590886138e-22
-0.4779511318124996	-5.85232795970354e-22
-0.4778900966562496	-5.892260464128237e-22
-0.4778290614999996	-5.932048177265928e-22
-0.4777680263437496	-5.971690794972692e-22
-0.4777069911874996	-6.011191411504739e-22
-0.4776459560312496	-6.050555051006383e-22
-0.4775849208749996	-6.089786478802386e-22
-0.4775238857187496	-6.128888040854346e-22
-0.4774628505624996	-6.167858386500882e-22
-0.4774018154062496	-6.206692651903714e-22
-0.4773407802499996	-6.245383973169711e-22
-0.4772797450937496	-6.283925688818432e-22
-0.4772187099374996	-6.32231347712246e-22
-0.4771576747812496	-6.360546634442221e-22
-0.4770966396249996	-6.398627932192366e-22
-0.4770356044687496	-6.436562137321928e-22
-0.4769745693124996	-6.4743538224458265e-22
-0.4769135341562496	-6.512005248084794e-22
-0.4768524989999996	-6.549515083988825e-22
-0.4767914638437496	-6.586878570396426e-22
-0.4767304286874996	-6.624089131817826e-22
-0.4766693935312496	-6.661140683566319e-22
-0.4766083583749996	-6.69802961950588e-22
-0.4765473232187496	-6.734755771100613e-22
-0.4764862880624996	-6.771322059839813e-22
-0.4764252529062496	-6.807732992211129e-22
-0.4763642177499996	-6.843992559563762e-22
-0.4763031825937496	-6.88010237007758e-22
-0.4762421474374996	-6.916060706046752e-22
-0.4761811122812496	-6.951862805387067e-22
-0.4761200771249996	-6.987502309535878e-22
-0.4760590419687496	-7.022973351569932e-22
-0.4759980068124996	-7.058272422613553e-22
-0.4759369716562496	-7.093399335665819e-22
-0.4758759364999996	-7.1283569521014495e-22
-0.4758149013437496	-7.163149741792722e-22
-0.4757538661874996	-7.197781761389521e-22
-0.4756928310312496	-7.232254856933947e-22
-0.4756317958749996	-7.266567754826895e-22
-0.4755707607187496	-7.300716336087563e-22
-0.4755097255624996	-7.334694898089053e-22
-0.4754486904062496	-7.3684978991524035e-22
-0.4753876552499996	-7.402121585570462e-22
-0.4753266200937496	-7.435564938500164e-22
-0.4752655849374996	-7.468829612253648e-22
-0.4752045497812496	-7.501918921137147e-22
-0.4751435146249996	-7.534836288880544e-22
-0.4750824794687496	-7.567583723871302e-22
-0.4750214443124996	-7.600160879180195e-22
-0.4749604091562496	-7.632565020018652e-22
-0.4748993739999996	-7.664791818329198e-22
-0.4748383388437496	-7.696836675926619e-22
-0.4747773036874996	-7.728696102951653e-22
-0.4747162685312496	-7.760368591639558e-22
-0.4746552333749996	-7.79185471698372e-22
-0.4745941982187496	-7.823156520090346e-22
-0.4745331630624996	-7.854276390157259e-22
-0.4744721279062496	-7.88521585986552e-22
-0.4744110927499996	-7.915974794627566e-22
-0.4743500575937496	-7.946551242414595e-22
-0.4742890224374996	-7.97694196022522e-22
-0.4742279872812496	-8.007143414804557e-22
-0.4741669521249996	-8.037152842774058e-22
-0.4741059169687496	-8.066968944844215e-22
-0.4740448818124996	-8.096591998323194e-22
-0.4739838466562496	-8.1260234171686045e-22
-0.4739228114999996	-8.155264926368808e-22
-0.4738617763437496	-8.184317583289838e-22
-0.4738007411874996	-8.213181031548201e-22
-0.4737397060312496	-8.24185335301603e-22
-0.4736786708749996	-8.27033152903389e-22
-0.4736176357187496	-8.29861229616489e-22
-0.4735566005624996	-8.326693139122357e-22
-0.4734955654062496	-8.354573039306602e-22
-0.4734345302499996	-8.382252620945343e-22
-0.4733734950937496	-8.409733605930888e-22
-0.4733124599374996	-8.437017792032981e-22
-0.4732514247812496	-8.46410599638391e-22
-0.4731903896249996	-8.49099743167197e-22
-0.4731293544687496	-8.517689769726442e-22
-0.4730683193124996	-8.544179846874317e-22
-0.4730072841562496	-8.570464716219736e-22
-0.4729462489999996	-8.596542618358988e-22
-0.4728852138437496	-8.622413466042803e-22
-0.4728241786874996	-8.648078601635454e-22
-0.4727631435312496	-8.673539887975921e-22
-0.4727021083749996	-8.698798534228274e-22
-0.4726410732187496	-8.723854179010967e-22
-0.4725800380624996	-8.748704647321012e-22
-0.4725190029062496	-8.773346562802752e-22
-0.4724579677499996	-8.797776600655186e-22
-0.4723969325937496	-8.821992797281752e-22
-0.4723358974374996	-8.845995292010992e-22
-0.4722748622812496	-8.869786145847924e-22
-0.4722138271249996	-8.893368247894842e-22
-0.4721527919687496	-8.916743730254636e-22
-0.4720917568124996	-8.939912623243105e-22
-0.4720307216562496	-8.962872366969296e-22
-0.4719696864999996	-8.985618396611322e-22
-0.4719086513437496	-9.008145668022852e-22
-0.4718476161874996	-9.03045059348207e-22
-0.4717865810312496	-9.052532543374811e-22
-0.4717255458749996	-9.07439419150527e-22
-0.4716645107187496	-9.096040445432735e-22
-0.4716034755624996	-9.117476297341105e-22
-0.4715424404062496	-9.138704436663193e-22
