Time	Frequency
-0.5000457691250002	0.704496559899505
-0.4999847339687502	0.7051270978940365
-0.4999236988125002	0.7057395344504391
-0.4998626636562502	0.7063343091905013
-0.4998016285000002	0.7069117580006071
-0.4997405933437502	0.7074721036239646
-0.4996795581875002	0.708015450501425
-0.4996185230312502	0.7085417839318667
-0.4995574878750002	0.709050973421579
-0.4994964527187502	0.7095427799899368
-0.4994354175625002	0.7100168671008787
-0.4993743824062502	0.7104728147511791
-0.4993133472500002	0.7109101360163753
-0.4992523120937502	0.7113282952927921
-0.4991912769375002	0.7117267276155563
-0.4991302417812502	0.712104858374131
-0.4990692066250002	0.7124621225420928
-0.4990081714687502	0.7127979827491377
-0.4989471363125002	0.7131119458852581
-0.4988861011562502	0.7134035775828258
-0.4988250660000002	0.7136725137646119
-0.4987640308437502	0.7139184692323298
-0.4987029956875002	0.7141412434419412
-0.4986419605312502	0.7143407230510763
-0.4985809253750002	0.7145168810578971
-0.4985198902187502	0.7146697729134857
-0.4984588550625002	0.7147995300962633
-0.4983978199062502	0.714906351574531
-0.4983367847500002	0.7149904934342132
-0.4982757495937502	0.7150522571521234
-0.4982147144375002	0.7150919772087649
-0.4981536792812502	0.7151100084432348
-0.4980926441250002	0.7151067135423045
-0.4980316089687502	0.7150824510673247
-0.4979705738125002	0.7150375642513941
-0.4979095386562502	0.7149723709652466
-0.4978485035000002	0.7148871554328744
-0.4977874683437502	0.7147821620317929
-0.4977264331875002	0.7146575909760653
-0.4976653980312502	0.7145135957347646
-0.4976043628750002	0.7143502823437725
-0.4975433277187502	0.7141677105061381
-0.4974822925625002	0.7139658960863693
-0.4974212574062502	0.7137448146951086
-0.4973602222500002	0.7135044061910665
-0.4972991870937502	0.7132445799272173
-0.4972381519375002	0.7129652206600794
-0.4971771167812502	0.7126661944294004
-0.4971160816250002	0.7123473534701826
-0.4970550464687502	0.7120085406458335
-0.4969940113125002	0.7116495940373501
-0.4969329761562502	0.7112703510654692
-0.4968719410000002	0.710870651484199
-0.4968109058437502	0.7104503393221526
-0.4967498706875002	0.7100092643940014
-0.4966888355312502	0.7095472837987566
-0.4966278003750002	0.70906426295358
-0.4965667652187502	0.7085600754966918
-0.4965057300625002	0.708034602720972
-0.4964446949062502	0.7074877337631503
-0.4963836597500002	0.7069193662689507
-0.4963226245937502	0.7063294070284536
-0.4962615894375002	0.7057177727698324
-0.4962005542812502	0.7050843912461906
-0.4961395191250002	0.7044292030040243
-0.4960784839687502	0.7037521637462943
-0.4960174488125002	0.7030532468948452
-0.4959564136562502	0.7023324466104394
-0.4958953785000002	0.7015897811372106
-0.4958343433437502	0.7008252957279026
-0.4957733081875002	0.7000390648564134
-0.4957122730312502	0.6992311939578603
-0.4956512378750002	0.6984018207466793
-0.4955902027187502	0.6975511154283641
-0.4955291675625002	0.6966792791149207
-0.4954681324062502	0.6957865410172326
-0.4954070972500002	0.6948731551179147
-0.4953460620937502	0.6939393959075854
-0.4952850269375002	0.6929855528840219
-0.4952239917812502	0.6920119235699188
-0.4951629566250002	0.6910188047628367
-0.4951019214687502	0.6900064828355129
-0.4950408863125002	0.6889752240107073
-0.4949798511562502	0.6879252648922676
-0.4949188160000002	0.6868568035453583
-0.4948577808437502	0.6857699915438794
-0.4947967456875002	0.6846649271738161
-0.4947357105312502	0.6835416498972711
-0.4946746753750002	0.6824001366080106
-0.4946136402187502	0.6812403002876332
-0.4945526050625002	0.6800619912955446
-0.4944915699062502	0.678865000638053
-0.4944305347500002	0.6776490648402659
-0.4943694995937502	0.6764138734954989
-0.4943084644375002	0.6751590795477714
-0.4942474292812502	0.6738843109516857
-0.4941863941250002	0.6725891834272028
-0.4941253589687502	0.6712733143246323
-0.4940643238125002	0.6699363368414372
-0.4940032886562502	0.6685779142362582
-0.4939422535000002	0.6671977538282728
-0.4938812183437502	0.6657956201170869
-0.4938201831875002	0.6643713460610062
-0.4937591480312502	0.6629248416724607
-0.4936981128750002	0.6614560998683044
-0.4936370777187502	0.6599651996963523
-0.4935760425625002	0.6584523068142534
-0.4935150074062502	0.656917671102878
-0.4934539722500002	0.6553616211871315
-0.4933929370937502	0.6537845558381021
-0.4933319019375002	0.6521869326402785
-0.4932708667812502	0.6505692540638618
-0.4932098316250002	0.648932051387746
-0.4931487964687502	0.6472758676994966
-0.4930877613125002	0.6456012404000475
-0.4930267261562502	0.6439086835934074
-0.4929656910000002	0.6421986716361036
-0.4929046558437502	0.640471624053496
-0.4928436206875002	0.6387278914333129
-0.4927825855312502	0.6369677433262818
-0.4927215503750002	0.6351913597210744
-0.4926605152187502	0.6333988263114092
-0.4925994800625002	0.6315901328747092
-0.4925384449062502	0.6297651749137632
-0.4924774097500002	0.627923759397764
-0.4924163745937502	0.6260656137573336
-0.4923553394375002	0.6241903964356577
-0.4922943042812502	0.6222977100405975
-0.4922332691250002	0.6203871183219328
-0.4921722339687502	0.6184581646559122
-0.4921111988125002	0.616510389645849
-0.4920501636562502	0.6145433483500162
-0.4919891285000002	0.6125566278335705
-0.4919280933437502	0.6105498639424323
-0.4918670581875002	0.6085227561513468
-0.4918060230312502	0.6064750804001359
-0.4917449878750002	0.6044066988057625
-0.4916839527187502	0.6023175647343091
-0.4916229175625002	0.6002077247777521
-0.4915618824062502	0.5980773187436164
-0.4915008472500002	0.5959265759132576
-0.4914398120937502	0.5937558074952418
-0.4913787769375002	0.5915653965966706
-0.4913177417812502	0.589355786085643
-0.4912567066250002	0.5871274641928088
-0.4911956714687502	0.5848809480899846
-0.4911346363125002	0.5826167666554499
-0.4910736011562502	0.5803354434216107
-0.4910125660000002	0.5780374804670159
-0.4909515308437502	0.5757233435621141
-0.4908904956875002	0.5733934481375423
-0.4908294605312502	0.5710481467042868
-0.4907684253750002	0.5686877192041612
-0.4907073902187502	0.5663123672630169
-0.4906463550625002	0.563922211773588
-0.4905853199062502	0.5615172924386553
-0.4905242847500002	0.559097569625423
-0.4904632495937502	0.556662929672768
-0.4904022144375002	0.5542131934715683
-0.4903411792812502	0.5517481273719643
-0.4902801441250002	0.5492674553124524
-0.4902191089687502	0.5467708713519638
-0.4901580738125002	0.5442580533281631
-0.4900970386562502	0.5417286784945471
-0.4900360035000002	0.5391824394279325
-0.4899749683437502	0.5366190574779608
-0.4899139331875002	0.5340382934731144
-0.4898528980312502	0.531439957467662
-0.4897918628750002	0.5288239175256413
-0.4897308277187502	0.5261901057667261
-0.4896697925625002	0.5235385214775607
-0.4896087574062502	0.5208692322304015
-0.4895477222500002	0.5181823731040576
-0.4894866870937502	0.5154781431990294
-0.4894256519375002	0.5127567987150713
-0.4893646167812502	0.5100186430996566
-0.4893035816250002	0.5072640163986063
-0.4892425464687502	0.5044932853654119
-0.4891815113125002	0.5017068330463488
-0.4891204761562502	0.49890504619771653
-0.4890594410000002	0.4960883019400924
-0.4889984058437502	0.49325695633072214
-0.4889373706875002	0.49041133528301684
-0.4888763355312502	0.4875517266720265
-0.4888153003750002	0.4846783731173671
-0.4887542652187502	0.4817914659435822
-0.4886932300625002	0.47889114167508645
-0.4886321949062502	0.4759774822617184
-0.4885711597500002	0.4730505185629797
-0.4885101245937502	0.47011023476666963
-0.4884490894375002	0.46715657223050283
-0.4883880542812502	0.4641894348858019
-0.4883270191250002	0.4612086981528168
-0.4882659839687502	0.4582142192428213
-0.4882049488125002	0.4552058461796166
-0.4881439136562502	0.45218342618258633
-0.4880828785000002	0.449146815980394
-0.4880218433437502	0.44609589320435805
-0.4879608081875002	0.4430305650243329
-0.4878997730312502	0.43995077336969485
-0.4878387378750002	0.4368564987951892
-0.4877777027187502	0.4337477637836282
-0.4877166675625002	0.43062463461300604
-0.4876556324062502	0.42748722160426567
-0.4875945972500002	0.42433567828070545
-0.4875335620937502	0.4211701983243096
-0.4874725269375002	0.4179910096846097
-0.4874114917812502	0.4147983672770488
-0.4873504566250002	0.4115925451320595
-0.4872894214687502	0.4083738278861901
-0.4872283863125002	0.4051425021444213
-0.4871673511562502	0.4018988483431997
-0.4871063160000002	0.39864313318353445
-0.4870452808437502	0.3953756026634882
-0.4869842456875002	0.39209647551797594
-0.4869232105312502	0.3888059373848954
-0.4868621753750002	0.3855041368286298
-0.4868011402187502	0.3821911836107839
-0.4867401050625002	0.3788671483158622
-0.4866790699062502	0.3755320626764424
-0.4866180347500002	0.37218592188423194
-0.4865569995937502	0.36882868991789786
-0.4864959644375002	0.3654603056288845
-0.4864349292812502	0.3620806883900775
-0.4863738941250002	0.35868974593502045
-0.4863128589687502	0.3552873840611836
-0.4862518238125002	0.3518735151078702
-0.4861907886562502	0.3484480658089351
-0.4861297535000002	0.3450109858617577
-0.4860687183437502	0.34156225527070944
-0.4860076831875002	0.3381018886408668
-0.4859466480312502	0.33462993777444466
-0.4858856128750002	0.33114649404674684
-0.4858245777187502	0.32765168943537304
-0.4857635425625002	0.3241456952324755
-0.4857025074062502	0.320628719259372
-0.4856414722500002	0.3171010024831397
-0.4855804370937502	0.3135628143921089
-0.4855194019375002	0.310014445815914
-0.4854583667812502	0.30645620020939524
-0.4853973316250002	0.3028883850420626
-0.4853362964687502	0.29931130270882333
-0.4852752613125002	0.29572524116862436
-0.4852142261562502	0.2921304658837271
-0.4851531910000002	0.28852721313033436
-0.4850921558437502	0.2849156840287422
-0.4850311206875002	0.28129603943387893
-0.4849700855312502	0.277668396590016
-0.4849090503750002	0.2740328283265124
-0.4848480152187502	0.2703893643080239
-0.4847869800625002	0.26673799347340116
-0.4847259449062502	0.26307866771383825
-0.4846649097500002	0.2594113074388683
-0.4846038745937502	0.2557358089648181
-0.4845428394375002	0.25205205318391477
-0.4844818042812502	0.24835991572963542
-0.4844207691250002	0.24465927763297474
-0.4843597339687502	0.24095003448144348
-0.4842986988125002	0.2372321047263791
-0.4842376636562502	0.2335054380097057
-0.4841766285000002	0.22977002178272635
-0.4841155933437502	0.2260258860807841
-0.4840545581875002	0.2222731079576734
-0.4839935230312502	0.21851181376611464
-0.4839324878750002	0.2147421774139437
-0.4838714527187502	0.21096441688185977
-0.4838104175625002	0.20717879077220935
-0.4837493824062502	0.20338559374557705
-0.4836883472500002	0.1995851499192752
-0.4836273120937502	0.19577780440833653
-0.4835662769375002	0.1919639136530806
-0.4835052417812502	0.18814383539539525
-0.4834442066250002	0.18431791872489353
-0.4833831714687502	0.18048649410214956
-0.4833221363125002	0.17664986389857482
-0.4832611011562502	0.1728082945865877
-0.4832000660000002	0.1689620107734412
-0.4831390308437502	0.1651111904988584
-0.4830779956875002	0.1612559618431743
-0.4830169605312502	0.15739640203911004
-0.4829559253750002	0.15353253956330373
-0.4828948902187502	0.1496643572863337
-0.4828338550625002	0.14579179564808328
-0.4827728199062502	0.14191475842692017
-0.4827117847500002	0.13803312206828552
-0.4826507495937502	0.13414674529285764
-0.4825897144375002	0.1302554783657485
-0.4825286792812502	0.12635917417899958
-0.4824676441250002	0.12245770006730658
-0.4824066089687502	0.11855094778161233
-0.4823455738125002	0.11463884129102002
-0.4822845386562502	0.11072134398074054
-0.4822235035000002	0.10679846534311117
-0.4821624683437502	0.10287026562357722
-0.4821014331875002	0.09893685785263437
-0.4820403980312502	0.09499840748415724
-0.4819793628750002	0.09105513082586233
-0.4819183277187502	0.08710729227183521
-0.4818572925625002	0.08315519807290636
-0.4817962574062502	0.07919918769470058
-0.4817352222500002	0.07523962617821331
-0.4816741870937502	0.07127689613783268
-0.4816131519375002	0.06731138671282252
-0.4815521167812502	0.06334348166199526
-0.4814910816250002	0.059373549297747026
-0.4814300464687502	0.055401933264542
-0.4813690113125002	0.05142894287161811
-0.4813079761562502	0.04745484418792662
-0.4812469410000002	0.04347985358665083
-0.4811859058437502	0.039504134019729374
-0.4811248706875002	0.03552779369080461
-0.4810638355312502	0.03155088708213324
-0.4810028003750002	0.027573418104316173
-0.4809417652187502	0.02359534438708583
-0.4808807300625002	0.019616582124680728
-0.4808196949062502	0.015637012529072597
-0.4807586597500002	0.011656491479217844
-0.4806976245937502	0.007674861342492134
-0.4806365894375002	0.0036919619688511023
-0.4805755542812502	-0.0002923596843212798
-0.4805145191250002	-0.004278240219706672
-0.4804534839687502	-0.008265790272735812
-0.4803924488125002	-0.01225508467386964
-0.4803314136562502	-0.016246153450431337
-0.4802703785000002	-0.020238975441887935
-0.4802093433437502	-0.024233475349567626
-0.4801483081875002	-0.028229523216912182
-0.4800872730312502	-0.032226934518730266
-0.4800262378750002	-0.036225471373166264
-0.4799652027187502	-0.040224847132196664
-0.4799041675625002	-0.04422473424797365
-0.4798431324062502	-0.04822477319767828
-0.4797820972500002	-0.05222458155843131
-0.4797210620937502	-0.05622376342310946
-0.4796600269375002	-0.06022191904314603
-0.4795989917812502	-0.06421865486345553
-0.4795379566250002	-0.0682135942419521
-0.4794769214687502	-0.07220638856673782
-0.4794158863125002	-0.07619672747552324
-0.4793548511562502	-0.08018434649025245
-0.4792938160000002	-0.08416903253931861
-0.4792327808437502	-0.0881506288923645
-0.4791717456875002	-0.09212903780941938
-0.4791107105312502	-0.09610421852773623
-0.4790496753750002	-0.10007618257370672
-0.4789886402187502	-0.10404498869659903
-0.4789276050625002	-0.10801073675174755
-0.4788665699062502	-0.11197356021020076
-0.4788055347500002	-0.11593361656161
-0.4787444995937502	-0.11989107535330308
-0.4786834644375002	-0.12384610617249293
-0.4786224292812502	-0.12779886742966015
-0.4785613941250002	-0.13174949556244755
-0.4785003589687502	-0.13569809495687826
-0.4784393238125002	-0.13964472793779964
-0.4783782886562502	-0.1435894059856008
-0.4783172535000002	-0.1475320851357352
-0.4782562183437502	-0.15147266413687335
-0.4781951831875002	-0.155410982682273
-0.4781341480312502	-0.1593468214488598
-0.4780731128750002	-0.16327990582963378
-0.4780120777187502	-0.16720991301549698
-0.4779510425625002	-0.17113648113666005
-0.4778900074062502	-0.17505921903218555
-0.4778289722500002	-0.17897771667731807
-0.4777679370937502	-0.18289155704458984
-0.4777069019375002	-0.18680032895875318
-0.4776458667812502	-0.19070363919440048
-0.4775848316250002	-0.19460112363772966
-0.4775237964687502	-0.19849245871234203
-0.4774627613125002	-0.2023773717764462
-0.4774017261562502	-0.20625564822222542
-0.4773406910000002	-0.2101271352415687
-0.4772796558437502	-0.2139917435071922
-0.4772186206875002	-0.21784944748221344
-0.4771575855312502	-0.221700283067652
-0.4770965503750002	-0.22554434099919562
-0.4770355152187502	-0.22938175789371917
-0.4769744800625002	-0.23321270682479248
-0.4769134449062502	-0.2370373859359421
-0.4768524097500002	-0.24085600509047006
-0.4767913745937502	-0.24466877226833586
-0.4767303394375002	-0.24847587964922258
-0.4766693042812502	-0.25227748956878
-0.4766082691250002	-0.25607372201138334
-0.4765472339687502	-0.25986464408073207
-0.4764861988125002	-0.26365026079314846
-0.4764251636562502	-0.26743050855974343
-0.4763641285000002	-0.27120525260868594
-0.4763030933437502	-0.27497428685745035
-0.4762420581875002	-0.27873733574686416
-0.4761810230312502	-0.2824940592616926
-0.4761199878750002	-0.2862440607285546
-0.4760589527187502	-0.28998689704628605
-0.4759979175625002	-0.2937220923892695
-0.4759368824062502	-0.29744915375618636
-0.4758758472500002	-0.30116758574367497
-0.4758148120937502	-0.30487690561475245
-0.4757537769375002	-0.30857665963933356
-0.4756927417812502	-0.3122664384802051
-0.4756317066250002	-0.31594589012130386
-0.4755706714687502	-0.31961473121412004
-0.4755096363125002	-0.3232727566225745
-0.4754486011562502	-0.326919844925413
-0.4753875660000002	-0.3305559596273852
-0.4753265308437502	-0.3341811481918278
-0.4752654956875002	-0.33779553889766223
-0.4752044605312502	-0.3413993333180491
-0.4751434253750002	-0.34499279461223314
-0.4750823902187502	-0.3485762344961604
-0.4750213550625002	-0.35214999924644974
-0.4749603199062502	-0.35571445294968923
-0.4748992847500002	-0.3592699590347023
-0.4748382495937502	-0.3628168623805579
-0.4747772144375002	-0.36635547215353487
-0.4747161792812502	-0.36988604492461846
-0.4746551441250002	-0.3734087685775125
-0.4745941089687502	-0.37692374789608735
-0.4745330738125002	-0.3804309933720491
-0.4744720386562502	-0.38393041418403656
-0.4744110035000002	-0.38742181439483125
-0.4743499683437502	-0.3909048927115434
-0.4742889331875002	-0.39437924737089786
-0.4742278980312502	-0.39784438545409234
-0.4741668628750002	-0.401299735496393
-0.4741058277187502	-0.4047446637115027
-0.4740447925625002	-0.4081784936412014
-0.4739837574062502	-0.41160052797594954
-0.4739227222500002	-0.41501007108813387
-0.4738616870937502	-0.41840645122256537
-0.4738006519375002	-0.4217890425615405
-0.4737396167812502	-0.4251572872415692
-0.4736785816250002	-0.42851071533682533
-0.4736175464687502	-0.43184896059693306
-0.4735565113125002	-0.43517177156811354
-0.4734954761562502	-0.43847901854870514
-0.4734344410000002	-0.4417706964840222
-0.4733734058437502	-0.44504692340551666
-0.4733123706875002	-0.44830793359088994
-0.4732513355312502	-0.4515540655794219
-0.4731903003750002	-0.4547857460674594
-0.4731292652187502	-0.45800346991077623
-0.4730682300625002	-0.46120777678032077
-0.4730071949062502	-0.46439922597173733
-0.4729461597500002	-0.46757837017435344
-0.4728851245937502	-0.4707457287709841
-0.4728240894375002	-0.473901762341908
-0.4727630542812502	-0.47704685040011446
-0.4727020191250002	-0.480181272957722
-0.4726409839687502	-0.4833051953210861
-0.4725799488125002	-0.4864186569171853
-0.4725189136562502	-0.48952156578748623
-0.4724578785000002	-0.4926136986692904
-0.4723968433437502	-0.4956947063772238
-0.4723358081875002	-0.4987641245853336
-0.4722747730312502	-0.5018213890182798
-0.4722137378750002	-0.5048658542796347
-0.4721527027187502	-0.5078968164758886
-0.4720916675625002	-0.5109135392497715
-0.4720306324062502	-0.5139152813645801
-0.4719695972500002	-0.5169013239863374
-0.4719085620937502	-0.5198709968911998
-0.4718475269375002	-0.5228237023194845
-0.4717864917812502	-0.5257589354839604
-0.4717254566250002	-0.5286763016375078
-0.4716644214687502	-0.5315755284696007
-0.4716033863125002	-0.5344564726503341
-0.4715423511562502	-0.5373191209978756
-0.4714813160000002	-0.5401635865834047
-0.4714202808437502	-0.5429900991674786
-0.4713592456875002	-0.5457989900881488
-0.4712982105312502	-0.5485906729514901
-0.4712371753750002	-0.5513656214809763
-0.4711761402187502	-0.5541243448804418
-0.4711151050625002	-0.556867361011189
-0.4710540699062502	-0.5595951690882952
-0.4709930347500002	-0.5623082240295056
-0.4709319995937502	-0.5650069135667097
-0.4708709644375002	-0.567691538358645
-0.4708099292812502	-0.5703622958018835
-0.4707488941250002	-0.5730192685797415
-0.4706878589687502	-0.5756624179715002
-0.4706268238125002	-0.5782915821544988
-0.4705657886562502	-0.580906480167687
-0.4705047535000002	-0.5835067211990372
-0.4704437183437502	-0.58609181849132
-0.4703826831875002	-0.5886612075941304
-0.4703216480312502	-0.5912142685929898
-0.4702606128750002	-0.593750350810175
-0.4701995777187502	-0.5962687981802657
-0.4701385425625002	-0.5987689743840318
-0.4700775074062502	-0.6012502868295638
-0.4700164722500002	-0.603712208480142
-0.4699554370937502	-0.6061542968246739
-0.4698944019375002	-0.6085762091881954
-0.4698333667812502	-0.6109777137174944
-0.4697723316250002	-0.6133586955185611
-0.4697112964687502	-0.6157191573802951
-0.4696502613125002	-0.6180592154100688
-0.4695892261562502	-0.6203790903206647
-0.4695281910000002	-0.6226790941897693
-0.4694671558437502	-0.6249596129685171
-0.4694061206875002	-0.6272210864000234
