Time	Frequency
-0.5000044326249995	-0.6603249115540573
-0.4999433974687495	-0.6590299647485194
-0.4998823623124995	-0.6577165926287971
-0.4998213271562495	-0.6563849461088923
-0.4997602919999995	-0.655035170985993
-0.4996992568437495	-0.6536674034488312
-0.4996382216874995	-0.6522817662823744
-0.4995771865312495	-0.6508783655059193
-0.4995161513749995	-0.6494572868989089
-0.4994551162187495	-0.6480185921993904
-0.4993940810624995	-0.6465623160487435
-0.4993330459062495	-0.6450884647020276
-0.4992720107499995	-0.643597015696098
-0.4992109755937495	-0.6420879180520749
-0.4991499404374995	-0.6405610936930377
-0.4990889052812495	-0.6390164398150652
-0.4990278701249995	-0.6374538317964791
-0.4989668349687495	-0.6358731268287192
-0.4989057998124995	-0.6342741683195441
-0.4988447646562495	-0.632656791103565
-0.4987837294999995	-0.6310208272468091
-0.4987226943437495	-0.6293661120475733
-0.4986616591874995	-0.6276924901834069
-0.4986006240312495	-0.6259998218494242
-0.4985395888749995	-0.6242879883003482
-0.4984785537187495	-0.6225568968578677
-0.4984175185624995	-0.6208064857855435
-0.4983564834062495	-0.6190367285519686
-0.4982954482499995	-0.6172476369749097
-0.4982344130937495	-0.6154392631824114
-0.4981733779374995	-0.6136117005218464
-0.4981123427812495	-0.6117650837911621
-0.4980513076249995	-0.6098995891040041
-0.4979902724687495	-0.6080154325154388
-0.4979292373124995	-0.6061128661307187
-0.4978682021562495	-0.604192172853567
-0.4978071669999995	-0.6022536610569751
-0.4977461318437495	-0.600297658553871
-0.4976850966874995	-0.5983245059927298
-0.4976240615312495	-0.5963345498315664
-0.4975630263749995	-0.5943281343460233
-0.4975019912187495	-0.59230559324997
-0.4974409560624995	-0.5902672419921872
-0.4973799209062495	-0.5882133707431559
-0.4973188857499995	-0.586144237385347
-0.4972578505937495	-0.5840600605443685
-0.4971968154374995	-0.5819610136559642
-0.4971357802812495	-0.5798472206824439
-0.4970747451249995	-0.5777187532151002
-0.4970137099687495	-0.5755756287848068
-0.4969526748124995	-0.5734178106112169
-0.4968916396562495	-0.5712452086665296
-0.4968306044999995	-0.5690576815918105
-0.4967695693437495	-0.5668550400185945
-0.4967085341874995	-0.5646370519667052
-0.4966474990312495	-0.5624034492923454
-0.4965864638749995	-0.5601539349057303
-0.4965254287187495	-0.5578881918653252
-0.4964643935624995	-0.5556058936390397
-0.4964033584062495	-0.5533067138812645
-0.4963423232499995	-0.5509903360407957
-0.4962812880937495	-0.5486564636332012
-0.4962202529374995	-0.546304830449337
-0.4961592177812495	-0.543935209947249
-0.4960981826249995	-0.5415474235587675
-0.4960371474687495	-0.5391413475518055
-0.4959761123124995	-0.536716918981995
-0.4959150771562495	-0.5342741409826668
-0.4958540419999995	-0.5318130862857812
-0.4957930068437495	-0.5293338986926391
-0.4957319716874995	-0.526836792976201
-0.4956709365312495	-0.524322052558511
-0.4956099013749995	-0.5217900245973776
-0.4955488662187495	-0.5192411135516395
-0.4954878310624995	-0.5166757737923927
-0.4954267959062495	-0.5140945007418859
-0.4953657607499995	-0.5114978203373644
-0.4953047255937495	-0.508886277372674
-0.4952436904374995	-0.5062604234474278
-0.4951826552812495	-0.5036208047609542
-0.4951216201249995	-0.5009679496459986
-0.4950605849687495	-0.49830235588079147
-0.4949995498124995	-0.4956244780013816
-0.4949385146562495	-0.4929347158026846
-0.4948774794999995	-0.49023340521563386
-0.4948164443437495	-0.4875208106480054
-0.4947554091874995	-0.4847971181841607
-0.4946943740312495	-0.4820624308848921
-0.4946333388749995	-0.47931676670909823
-0.4945723037187495	-0.47656005834197523
-0.4945112685624995	-0.47379215456797596
-0.4944502334062495	-0.471012824464464
-0.4943891982499995	-0.46822176497104523
-0.4943281630937495	-0.4654186097752816
-0.4942671279374995	-0.462602939179081
-0.4942060927812495	-0.45977429280248633
-0.4941450576249995	-0.45693218450639794
-0.4940840224687495	-0.45407611700948775
-0.4940229873124995	-0.45120559563295903
-0.4939619521562495	-0.448320142686628
-0.4939009169999995	-0.4454193133075068
-0.4938398818437495	-0.44250271159772947
-0.4937788466874995	-0.4395700046713581
-0.4937178115312495	-0.4366209334803516
-0.4936567763749995	-0.4336553218648439
-0.4935957412187495	-0.430673085299512
-0.4935347060624995	-0.4276742381664363
-0.4934736709062495	-0.4246588971310183
-0.4934126357499995	-0.421627280868085
-0.4933516005937495	-0.4185797077915984
-0.4932905654374995	-0.4155165913784431
-0.4932295302812495	-0.4124384323963962
-0.4931684951249995	-0.4093458084877146
-0.4931074599687495	-0.4062393615161105
-0.4930464248124995	-0.40311978349115934
-0.4929853896562495	-0.3999878017797412
-0.4929243544999995	-0.396844162645934
-0.4928633193437495	-0.393689613026444
-0.4928022841874995	-0.3905248820830717
-0.4927412490312495	-0.3873506630653425
-0.4926802138749995	-0.38416759586004284
-0.4926191787187495	-0.380976251397245
-0.4925581435624995	-0.377777118528467
-0.4924971084062495	-0.37457059285737104
-0.4924360732499995	-0.3713569673368341
-0.4923750380937495	-0.36813642537759655
-0.4923140029374995	-0.3649090367014371
-0.4922529677812495	-0.361674756340784
-0.4921919326249995	-0.3584334277527507
-0.4921308974687495	-0.35518478909474444
-0.4920698623124995	-0.3519284809302351
-0.4920088271562495	-0.34866405632624153
-0.4919477919999995	-0.3453909947354331
-0.4918867568437495	-0.3421087182512856
-0.4918257216874995	-0.338816608703569
-0.4917646865312495	-0.33551402659517415
-0.4917036513749995	-0.33220033199953025
-0.4916426162187495	-0.3288749048766448
-0.4915815810624995	-0.3255371637502949
-0.4915205459062495	-0.32218658379745885
-0.4914595107499995	-0.3188227143327556
-0.4913984755937495	-0.315445194568078
-0.4913374404374995	-0.31205376654316475
-0.4912764052812495	-0.30864828500175917
-0.4912153701249995	-0.3052287251047798
-0.4911543349687495	-0.3017951874886206
-0.4910932998124995	-0.2983478989888059
-0.4910322646562495	-0.2948872093905577
-0.4909712294999995	-0.29141358533543044
-0.4909101943437495	-0.28792760101204096
-0.4908491591874995	-0.28442992557295305
-0.4907881240312495	-0.280921308166536
-0.4907270888749995	-0.2774025610708027
-0.4906660537187495	-0.2738745413397722
-0.4906050185624995	-0.2703381310900635
-0.4905439834062495	-0.26679421598321906
-0.4904829482499995	-0.2632436626331449
-0.4904219130937495	-0.25968729709693394
-0.4903608779374995	-0.2561258851407481
-0.4902998427812495	-0.25256011362029085
-0.4902388076249995	-0.2489905739752159
-0.4901777724687495	-0.24541774847182496
-0.4901167373124995	-0.2418419984136656
-0.4900557021562495	-0.23826355552614767
-0.4899946669999995	-0.23468251801394732
-0.4899336318437495	-0.23109885007253417
-0.4898725966874995	-0.22751238428140014
-0.4898115615312495	-0.22392282827660376
-0.4897505263749995	-0.22032977493448674
-0.4896894912187495	-0.21673271497066565
-0.4896284560624995	-0.2131310531751038
-0.4895674209062495	-0.20952412761813463
-0.4895063857499995	-0.2059112299641172
-0.4894453505937495	-0.202291627092389
-0.4893843154374995	-0.1986645842150263
-0.4893232802812495	-0.19502938849658064
-0.4892622451249995	-0.19138537201670963
-0.4892012099687495	-0.18773193333560947
-0.4891401748124995	-0.1840685572351222
-0.4890791396562495	-0.18039483172171533
-0.4890181044999995	-0.1767104621443745
-0.4889570693437495	-0.17301528359320784
-0.4888960341874995	-0.16930927075226487
-0.4888349990312495	-0.16559254267209075
-0.4887739638749995	-0.16186536226425252
-0.4887129287187495	-0.15812813204002724
-0.4886518935624995	-0.15438138635836934
-0.4885908584062495	-0.15062577988003567
-0.4885298232499995	-0.14686207270828808
-0.4884687880937495	-0.14309111275765243
-0.4884077529374995	-0.13931381583562308
-0.4883467177812495	-0.13553114387160622
-0.4882856826249995	-0.13174408114038186
-0.4882246474687495	-0.12795360882792092
-0.4881636123124995	-0.12416067978542676
-0.4881025771562495	-0.12036619513653347
-0.4880415419999995	-0.11657098230740907
-0.4879805068437495	-0.11277577377474055
-0.4879194716874995	-0.1089811882139962
-0.4878584365312495	-0.10518771605647893
-0.4877974013749995	-0.10139570957381322
-0.4877363662187495	-0.09760537639977097
-0.4876753310624995	-0.09381677507630001
-0.4876142959062495	-0.09002981380730628
-0.4875532607499995	-0.08624425532745277
-0.4874922255937495	-0.08245972741206299
-0.4874311904374995	-0.07867573644499905
-0.4873701552812495	-0.07489168327369118
-0.4873091201249995	-0.0711068823293473
-0.4872480849687495	-0.06732058401171714
-0.4871870498124995	-0.06353199894469605
-0.4871260146562495	-0.05974032352336743
-0.4870649794999995	-0.05594476599649878
-0.4870039443437495	-0.05214457168471072
-0.4869429091874995	-0.04833904699818204
-0.4868818740312495	-0.04452758223802186
-0.4868208388749995	-0.040709672788419096
-0.4867598037187495	-0.03688493782252855
-0.4866987685624995	-0.03305313502757483
-0.4866377334062495	-0.029214171077404972
-0.4865766982499995	-0.0253681077136324
-0.4865156630937495	-0.021515162481232027
-0.4864546279374995	-0.017655705881664485
-0.4863935927812495	-0.013790256386176725
-0.4863325576249995	-0.009919470647961528
-0.4862715224687495	-0.006044127629779736
-0.4862104873124995	-0.0021651087016916915
-0.4861494521562495	0.001716624319002933
-0.4860884169999995	0.005600052813022895
-0.4860273818437495	0.009484127353893843
-0.4859663466874995	0.01336779493391601
-0.4859053115312495	0.017250026081653977
-0.4858442763749995	0.021129842117231828
-0.4857832412187495	0.02500634075862411
-0.4857222060624995	0.028878718389545584
-0.4856611709062495	0.03274628977690745
-0.4856001357499995	0.036608505380024955
-0.4855391005937495	0.04046496547479321
-0.4854780654374995	0.04431542952011889
-0.4854170302812495	0.04815981981179805
-0.4853559951249995	0.05199822092548518
-0.4852949599687495	0.055830875369099
-0.4852339248124995	0.05965817417755054
-0.4851728896562495	0.06348064282230331
-0.4851118544999995	0.06729892352558246
-0.4850508193437495	0.07111375399290602
-0.4849897841874995	0.0749259424327094
-0.4849287490312495	0.07873634060527625
-0.4848677138749995	0.08254581707998249
-0.4848066787187495	0.08635522983660592
-0.4847456435624995	0.09016539746699122
-0.4846846084062495	0.09397707115227574
-0.4846235732499995	0.09779090934561875
-0.4845625380937495	0.10160745513843801
-0.4845015029374995	0.10542711577105043
-0.4844404677812495	0.10925014561382539
-0.4843794326249995	0.1130766347049914
-0.4843183974687495	0.11690650278584293
-0.4842573623124995	0.12073949769512426
-0.4841963271562495	0.1245751984483471
-0.4841352919999995	0.12841302411758398
-0.4840742568437495	0.13225224769835198
-0.4840132216874995	0.13609201297779597
-0.4839521865312495	0.13993135495117573
-0.4838911513749995	0.1437692252858631
-0.4838301162187495	0.14760452041515473
-0.4837690810624995	0.1514361096893927
-0.4837080459062495	0.15526286520114962
-0.4836470107499995	0.15908369318071022
-0.4835859755937495	0.16289756351754722
-0.4835249404374995	0.16670353647158834
-0.4834639052812495	0.17050078752768372
-0.4834028701249995	0.174288629966766
-0.4833418349687495	0.1780665337087693
-0.4832807998124995	0.18183413864183318
-0.4832197646562495	0.18559126210405624
-0.4831587294999995	0.1893379013953773
-0.4830976943437495	0.19307423116196076
-0.4830366591874995	0.19680059565761504
-0.4829756240312495	0.20051749671524377
-0.4829145888749995	0.20422557731440047
-0.4828535537187495	0.2079255998729456
-0.4827925185624995	0.211618419579437
-0.4827314834062495	0.21530495473706626
-0.4826704482499995	0.21898615629743373
-0.4826094130937495	0.22266297732866838
-0.4825483779374995	0.22633634187466375
-0.4824873427812495	0.23000711346308983
-0.4824263076249995	0.2336760653556832
-0.4823652724687495	0.23734385458714938
-0.4823042373124995	0.24101099954004135
-0.4822432021562495	0.2446778599545117
-0.4821821669999995	0.24834462069201882
-0.4821211318437495	0.2520112815344368
-0.4820600966874995	0.2556776534084265
-0.4819990615312495	0.2593433605261739
-0.4819380263749995	0.2630078480444585
-0.4818769912187495	0.26667039497695155
-0.4818159560624995	0.2703301318293158
-0.4817549209062495	0.2739860624948107
-0.4816938857499995	0.2776370902265029
-0.4816328505937495	0.2812820467983929
-0.4815718154374995	0.2849197242447446
-0.4815107802812495	0.28854890823028945
-0.4814497451249995	0.2921684114639029
-0.4813887099687495	0.2957771068474079
-0.4813276748124995	0.2993739591644271
-0.4812666396562495	0.3029580533449787
-0.4812056044999995	0.3065286191342493
-0.4811445693437495	0.3100850517842566
-0.4810835341874995	0.31362692787115787
-0.4810224990312495	0.3171540155389215
-0.4809614638749995	0.3206662789389812
-0.4809004287187495	0.324163877885177
-0.4808393935624995	0.327647162130025
-0.4807783584062495	0.33111665840563215
-0.4807173232499995	0.3345730509073652
-0.4806562880937495	0.33801715758205225
-0.4805952529374995	0.3414499033849732
-0.4805342177812495	0.34487229012173026
-0.4804731826249995	0.3482853629641666
-0.4804121474687495	0.35169017522617674
-0.4803511123124995	0.355087753254275
-0.4802900771562495	0.35847906197268187
-0.4802290419999995	0.3618649714963177
-0.4801680068437495	0.3652462270231798
-0.4801069716874995	0.36862342375511276
-0.4800459365312495	0.37199698625621314
-0.4799849013749995	0.3753671515840852
-0.4799238662187495	0.37873395758194356
-0.4798628310624995	0.3820972379485621
-0.4798017959062495	0.38545662352997384
-0.4797407607499995	0.38881154954474695
-0.4796797255937495	0.39216126941505763
-0.4796186904374995	0.39550487414960994
-0.4795576552812495	0.398841316189088
-0.4794966201249995	0.40216943782637904
-0.4794355849687495	0.40548800365259324
-0.4793745498124995	0.40879573536152486
-0.4793135146562495	0.41209134705825706
-0.4792524794999995	0.41537358065813684
-0.4791914443437495	0.41864124140926423
-0.4791304091874995	0.4218932318018173
-0.4790693740312495	0.4251285824051487
-0.4790083388749995	0.4283464793791531
-0.4789473037187495	0.4315462871204576
-0.4788862685624995	0.4347275646647775
-0.4788252334062495	0.4378900764832563
-0.4787641982499995	0.44103379778171653
-0.4787031630937495	0.4441589132518616
-0.4786421279374995	0.447265808872588
-0.4785810927812495	0.4503550573041422
-0.4785200576249995	0.45342739805893495
-0.4784590224687495	0.4564837131207098
-0.4783979873124995	0.4595249977610101
-0.4783369521562495	0.4625523271360621
-0.4782759169999995	0.46556682014604284
-0.4782148818437495	0.4685696022703254
-0.4781538466874995	0.47156176916648535
-0.4780928115312495	0.4745443515322343
-0.4780317763749995	0.477518280997892
-0.4779707412187495	0.48048435811362544
-0.4779097060624995	0.48344322435250986
-0.4778486709062495	0.4863953396043958
-0.4777876357499995	0.48934096571191826
-0.4777266005937495	0.49228015576345
-0.4776655654374995	0.4952127492586172
-0.4776045302812495	0.49813837394836685
-0.4775434951249995	0.5010564543809324
-0.4774824599687495	0.5039662263265547
-0.4774214248124995	0.5068667565402717
-0.4773603896562495	0.5097569678385888
-0.4772993544999995	0.5126356691027812
-0.4772383193437495	0.5155015887321556
-0.4771772841874995	0.5183534101315547
-0.4771162490312495	0.5211898087003628
-0.4770552138749995	0.5240094892299023
-0.4769941787187495	0.5268112221260209
-0.4769331435624995	0.5295938775498945
-0.4768721084062495	0.5323564568000138
-0.4768110732499995	0.5350981199126805
-0.4767500380937495	0.53781820819102
-0.4766890029374995	0.5405162612041391
-0.4766279677812495	0.5431920282488866
-0.4765669326249995	0.5458454733650199
-0.4765058974687495	0.5484767736129958
-0.4764448623124995	0.5510863112929655
-0.4763838271562495	0.553674660410276
-0.4763227919999995	0.5562425674942713
-0.4762617568437495	0.5587909271437516
-0.4762007216874995	0.5613207533414581
-0.4761396865312495	0.5638331473102525
-0.4760786513749995	0.5663292624223827
-0.4760176162187495	0.5688102679189636
-0.4759565810624995	0.5712773129796777
-0.4758955459062495	0.5737314915123761
-0.4758345107499995	0.576173808303067
-0.4757734755937495	0.5786051477133626
-0.4757124404374995	0.581026246185864
-0.4756514052812495	0.5834376693493205
-0.4755903701249995	0.5858397939785654
-0.4755293349687495	0.5882327952781937
-0.4754682998124995	0.5906166400571229
-0.4754072646562495	0.5929910859133534
-0.4753462294999995	0.5953556863280709
-0.4752851943437495	0.5977098015302573
-0.4752241591874995	0.6000526148549343
-0.4751631240312495	0.6023831540576504
-0.4751020888749995	0.6047003168889209
-0.4750410537187495	0.6070029003267965
-0.4749800185624995	0.6092896327099635
-0.4749189834062495	0.6115592078040325
-0.4748579482499995	0.6138103199007605
-0.4747969130937495	0.6160416988574886
-0.4747358779374995	0.6182521440577412
-0.4746748427812495	0.6204405567294751
-0.4746138076249995	0.6226059695054557
-0.4745527724687495	0.6247475716883545
-0.4744917373124995	0.6268647298389403
-0.4744307021562495	0.6289570038372115
-0.4743696669999995	0.6310241576682327
-0.4743086318437495	0.6330661640742126
-0.4742475966874995	0.6350832031056369
-0.4741865615312495	0.6370756549125778
-0.4741255263749995	0.6390440869285219
-0.4740644912187495	0.6409892356868224
-0.4740034560624995	0.6429119837092058
-0.4739424209062495	0.6448133322086729
-0.4738813857499995	0.6466943706341538
-0.4738203505937495	0.6485562438958146
-0.4737593154374995	0.6504001179288452
-0.4736982802812495	0.6522271446201583
-0.4736372451249995	0.65403842720502
-0.4735762099687495	0.6558349869758344
-0.4735151748124995	0.6576177324575075
-0.4734541396562495	0.65938743212197
-0.4733931044999995	0.6611446910495304
-0.4733320693437495	0.662889932060073
-0.4732710341874995	0.6646233821004446
-0.4732099990312495	0.666345064363742
-0.4731489638749995	0.6680547963718814
-0.4730879287187495	0.6697521941084048
-0.4730268935624995	0.6714366818889634
-0.4729658584062495	0.6731075076439619
-0.4729048232499995	0.6747637635302123
-0.4728437880937495	0.6764044111470261
-0.4727827529374995	0.6780283103189059
-0.4727217177812495	0.6796342509177645
-0.4726606826249995	0.6812209868842117
-0.4725996474687495	0.6827872712251812
-0.4725386123124995	0.6843318910408643
-0.4724775771562495	0.6858537016502829
-0.4724165419999995	0.6873516587764825
-0.4723555068437495	0.6888248477855285
-0.4722944716874995	0.6902725090829158
-0.4722334365312495	0.6916940589689968
-0.4721724013749995	0.693089105339216
-0.4721113662187495	0.6944574577376275
-0.4720503310624995	0.6957991315438857
-0.4719892959062495	0.6971143461140358
-0.4719282607499995	0.6984035167599952
-0.4718672255937495	0.699667240813037
-0.4718061904374995	0.7009062782462123
-0.4717451552812495	0.702121527431194
-0.4716841201249995	0.7033139967193536
-0.4716230849687495	0.704484772670767
-0.4715620498124995	0.7056349859092952
-0.4715010146562495	0.7067657756310054
-0.4714399794999995	0.7078782538027607
-0.4713789443437495	0.7089734701208288
-0.4713179091874995	0.7100523788105517
-0.4712568740312495	0.7111158083107391
-0.4711958388749995	0.7121644348087944
-0.4711348037187495	0.713198760429501
-0.4710737685624995	0.7142190966849492
-0.4710127334062495	0.715225553725617
-0.4709516982499995	0.7162180358043894
-0.4708906630937495	0.7171962431298164
-0.4708296279374995	0.7181596800945113
-0.4707685927812495	0.719107669618707
-0.4707075576249995	0.7200393730934546
-0.4706465224687495	0.720953815287158
-0.4705854873124995	0.7218499135733328
-0.4705244521562495	0.7227265106420593
-0.4704634169999995	0.7235824095088126
-0.4704023818437495	0.724416409730639
-0.4703413466874995	0.7252273438881125
-0.4702803115312495	0.7260141130985829
-0.4702192763749995	0.7267757203332862
-0.4701582412187495	0.7275113005825271
-0.4700972060624995	0.7282201469351198
-0.4700361709062495	0.7289017317561358
-0.4699751357499995	0.7295557223153509
-0.4699141005937495	0.7301819903166555
-0.4698530654374995	0.730780615013957
-0.4697920302812495	0.731351879815829
-0.4697309951249995	0.7318962625370471
-0.4696699599687495	0.7324144196297037
-0.4696089248124995	0.7329071647096427
-0.4695478896562495	0.7333754421076116
-0.4694868544999995	0.7338202966133484
-0.4694258193437495	0.7342428403649293
-0.4693647841874995	0.7346442176371538
