Time	Frequency
-0.5000180977812496	9.18694201948948e-22
-0.4999570626249996	9.174046147259865e-22
-0.4998960274687496	9.160926182936401e-22
-0.4998349923124996	9.147583560269178e-22
-0.4997739571562496	9.13401998288441e-22
-0.4997129219999996	9.120237302990095e-22
-0.4996518868437496	9.106237399526396e-22
-0.4995908516874996	9.092022053385501e-22
-0.4995298165312496	9.077592827511873e-22
-0.4994687813749996	9.062950971644844e-22
-0.4994077462187496	9.048097361359593e-22
-0.4993467110624996	9.033032462496242e-22
-0.4992856759062496	9.017756319572084e-22
-0.4992246407499996	9.002268581734683e-22
-0.4991636055937496	8.986568564358282e-22
-0.4991025704374996	8.970655337208693e-22
-0.4990415352812496	8.95452783467748e-22
-0.4989805001249996	8.938184975303945e-22
-0.4989194649687496	8.921625774801536e-22
-0.4988584298124996	8.904849443662791e-22
-0.4987973946562496	8.887855465908613e-22
-0.4987363594999996	8.8706436530013e-22
-0.4986753243437496	8.853214173721534e-22
-0.4986142891874996	8.835567569339743e-22
-0.4985532540312496	8.81770474283825e-22
-0.4984922188749996	8.799626903190499e-22
-0.4984311837187496	8.781335483412389e-22
-0.4983701485624996	8.762832063739426e-22
-0.4983091134062496	8.744118294639508e-22
-0.4982480782499996	8.725195799600168e-22
-0.4981870430937496	8.706066066747602e-22
-0.4981260079374996	8.686730356424195e-22
-0.4980649727812496	8.667189637946604e-22
-0.4980039376249996	8.647444563888596e-22
-0.4979429024687496	8.627495475939793e-22
-0.4978818673124996	8.607342414925902e-22
-0.4978208321562496	8.58698513854003e-22
-0.4977597969999996	8.566423174056076e-22
-0.4976987618437496	8.545655900406906e-22
-0.4976377266874996	8.524682630830905e-22
-0.4975766915312496	8.503502694018862e-22
-0.4975156563749996	8.482115527003925e-22
-0.4974546212187496	8.460520753862149e-22
-0.4973935860624996	8.438718226631607e-22
-0.4973325509062496	8.41670805361366e-22
-0.4972715157499996	8.394490627401132e-22
-0.4972104805937496	8.372066627592102e-22
-0.4971494454374996	8.349436989510632e-22
-0.4970884102812496	8.326602860920223e-22
-0.4970273751249996	8.303565555191234e-22
-0.4969663399687496	8.280326482711011e-22
-0.4969053048124996	8.25688706608888e-22
-0.4968442696562496	8.233248675214995e-22
-0.4967832344999996	8.209412580681401e-22
-0.4967221993437496	8.185379898910802e-22
-0.4966611641874996	8.161151543098298e-22
-0.4966001290312496	8.136728201777599e-22
-0.4965390938749996	8.112110326117024e-22
-0.4964780587187496	8.087298117261404e-22
-0.4964170235624996	8.062291552809767e-22
-0.4963559884062496	8.037090459646457e-22
-0.4962949532499996	8.011694589135648e-22
-0.4962339180937496	7.986103688457932e-22
-0.4961728829374996	7.960317577318409e-22
-0.4961118477812496	7.934336196592835e-22
-0.4960508126249996	7.908159633463117e-22
-0.4959897774687496	7.881788167980359e-22
-0.4959287423124996	7.855222315266862e-22
-0.4958677071562496	7.828462821175475e-22
-0.4958066719999996	7.8015106331652e-22
-0.4957456368437496	7.774366873884466e-22
-0.4956846016874996	7.747032812764019e-22
-0.4956235665312496	7.71950980456428e-22
-0.4955625313749996	7.691799190329729e-22
-0.4955014962187496	7.6639022175992475e-22
-0.4954404610624996	7.635820001846081e-22
-0.4953794259062496	7.607553485046121e-22
-0.4953183907499996	7.579103375874159e-22
-0.4952573555937496	7.550470112046259e-22
-0.4951963204374996	7.521653878358703e-22
-0.4951352852812496	7.492654658192233e-22
-0.4950742501249996	7.46347228887431e-22
-0.4950132149687496	7.434106525518431e-22
-0.4949521798124996	7.404557114086192e-22
-0.4948911446562496	7.374823877906171e-22
-0.4948301094999996	7.344906826631731e-22
-0.4947690743437496	7.314806248337873e-22
-0.4947080391874996	7.284522737894002e-22
-0.4946470040312496	7.254057184243342e-22
-0.4945859688749996	7.223410767729278e-22
-0.4945249337187496	7.192584965777242e-22
-0.4944638985624996	7.161581516735919e-22
-0.4944028634062496	7.130402326371972e-22
-0.4943418282499996	7.0990493575784085e-22
-0.4942807930937496	7.067524517412901e-22
-0.4942197579374996	7.035829539727383e-22
-0.4941587227812496	7.003965891504198e-22
-0.4940976876249996	6.971934709034153e-22
-0.4940366524687496	6.939736756107815e-22
-0.4939756173124996	6.907372401079664e-22
-0.4939145821562496	6.874841614370797e-22
-0.4938535469999996	6.84214401252186e-22
-0.4937925118437496	6.809278945740157e-22
-0.4937314766874996	6.776245597828533e-22
-0.4936704415312496	6.74304308762196e-22
-0.4936094063749996	6.7096705758617255e-22
-0.4935483712187496	6.676127395931986e-22
-0.4934873360624996	6.642413201297628e-22
-0.4934263009062496	6.6085280840156565e-22
-0.4933652657499996	6.574472640820652e-22
-0.4933042305937496	6.540247989140182e-22
-0.4932431954374996	6.505855739485568e-22
-0.4931821602812496	6.471297940204183e-22
-0.4931211251249996	6.43657700401645e-22
-0.4930600899687496	6.401695597950718e-22
-0.4929990548124996	6.366656486660134e-22
-0.4929380196562496	6.331462368030946e-22
-0.4928769844999996	6.29611572890207e-22
-0.4928159493437496	6.260618706321031e-22
-0.4927549141874996	6.224972972224972e-22
-0.4926938790312496	6.189179672573134e-22
-0.4926328438749996	6.15323939579971e-22
-0.4925718087187496	6.117152155969047e-22
-0.4925107735624996	6.080917426078549e-22
-0.4924497384062496	6.044534238901521e-22
-0.4923887032499996	6.008001334974242e-22
-0.4923276680937496	5.971317332739817e-22
-0.4922666329374996	5.934480910051439e-22
-0.4922055977812496	5.897490984603538e-22
-0.4921445626249996	5.86034687726322e-22
-0.4920835274687496	5.823048442553e-22
-0.4920224923124996	5.785596142018259e-22
-0.4919614571562496	5.747991072799863e-22
-0.4919004219999996	5.710234974902021e-22
-0.4918393868437496	5.672330182938864e-22
-0.4917783516874996	5.634279511891909e-22
-0.4917173165312496	5.596086110459915e-22
-0.4916562813749996	5.557753278448479e-22
-0.4915952462187496	5.519284256290966e-22
-0.4915342110624996	5.480682021321832e-22
-0.4914731759062496	5.441949090911101e-22
-0.4914121407499996	5.403087348413052e-22
-0.4913511055937496	5.364097945962786e-22
-0.4912900704374996	5.32498128870398e-22
-0.4912290352812496	5.285737059829467e-22
-0.4911680001249996	5.246364289730162e-22
-0.4911069649687496	5.20686149716508e-22
-0.4910459298124996	5.167226899320356e-22
-0.4909848946562496	5.127458660540042e-22
-0.4909238594999996	5.0875551420508195e-22
-0.4908628243437496	5.047515143742193e-22
-0.4908017891874996	5.007338125482664e-22
-0.4907407540312496	4.967024355944991e-22
-0.4906797188749996	4.926574980919612e-22
-0.4906186837187496	4.885992033603051e-22
-0.4905576485624996	4.845278357554222e-22
-0.4904966134062496	4.80443744050129e-22
-0.4904355782499996	4.763473203956751e-22
-0.4903745430937496	4.722389761393048e-22
-0.4903135079374996	4.681191142066472e-22
-0.4902524727812496	4.639880993684935e-22
-0.4901914376249996	4.59846230580983e-22
-0.4901304024687496	4.556937193203859e-22
-0.4900693673124996	4.515306752020481e-22
-0.4900083321562496	4.473571011968827e-22
-0.4899472969999996	4.431728991790417e-22
-0.4898862618437496	4.389778839280274e-22
-0.4898252266874996	4.34771806173048e-22
-0.4897641915312496	4.305543837381492e-22
-0.4897031563749996	4.2632533466175e-22
-0.4896421212187496	4.2208441011748317e-22
-0.4895810860624996	4.1783142896575385e-22
-0.4895200509062496	4.1356630861084115e-22
-0.4894590157499996	4.092890844202413e-22
-0.4893979805937496	4.0499991753172375e-22
-0.4893369454374996	4.0069909307206073e-22
-0.4892759102812496	3.9638700682218035e-22
-0.4892148751249996	3.9206414022255453e-22
-0.4891538399687496	3.877310286061024e-22
-0.4890928048124996	3.833882250055135e-22
-0.4890317696562496	3.7903625996359525e-22
-0.4889707344999996	3.7467560129935237e-22
-0.4889096993437496	3.703066185100722e-22
-0.4888486641874996	3.6592955608452796e-22
-0.4887876290312496	3.6154451803872106e-22
-0.4887265938749996	3.5715146269256254e-22
-0.4886655587187496	3.5275020887504866e-22
-0.4886045235624996	3.4834045751492042e-22
-0.4885434884062496	3.4392182676519105e-22
-0.4884824532499996	3.394938927632615e-22
-0.4884214180937496	3.3505623411130904e-22
-0.4883603829374996	3.3060848058822094e-22
-0.4882993477812496	3.2615035914760143e-22
-0.4882383126249996	3.2168173143509465e-22
-0.4881772774687496	3.172026191985654e-22
-0.4881162423124996	3.1271321378065097e-22
-0.4880552071562496	3.082138719044438e-22
-0.4879941719999996	3.037050994841604e-22
-0.4879331368437496	2.991875217700373e-22
-0.4878721016874996	2.9466184044048887e-22
-0.4878110665312496	2.90128780998567e-22
-0.4877500313749996	2.855890368932392e-22
-0.4876889962187496	2.810432159312867e-22
-0.4876279610624996	2.7649179195243168e-22
-0.4875669259062496	2.7193506802602615e-22
-0.4875058907499996	2.67373157186445e-22
-0.4874448555937496	2.6280597964312946e-22
-0.4873838204374996	2.5823327354581746e-22
-0.4873227852812496	2.536546209569595e-22
-0.4872617501249996	2.490694913590027e-22
-0.4872007149687496	2.4447729707822553e-22
-0.4871396798124996	2.398774517046341e-22
-0.4870786446562496	2.352694303182135e-22
-0.4870176094999996	2.3065282992676206e-22
-0.4869565743437496	2.260274192458853e-22
-0.4868955391874996	2.213931706678304e-22
-0.4868345040312496	2.167502765012967e-22
-0.4867734688749996	2.120991480851672e-22
-0.4867124337187496	2.0744039442155822e-22
-0.4866513985624996	2.0277478302982285e-22
-0.4865903634062496	1.981031862722328e-22
-0.4865293282499996	1.9342651566960002e-22
-0.4864682930937496	1.8874565083680735e-22
-0.4864072579374996	1.8406137261534995e-22
-0.4863462227812496	1.7937430537317458e-22
-0.4862851876249996	1.7468486932880285e-22
-0.4862241524687496	1.6999324836324186e-22
-0.4861631173124996	1.6529937879590078e-22
-0.4861020821562496	1.6060296037994123e-22
-0.4860410469999996	1.5590348832716157e-22
-0.4859800118437496	1.5120030102417302e-22
-0.4859189766874996	1.464926411691e-22
-0.4858579415312496	1.4177972986384563e-22
-0.4857969063749996	1.3706084478731644e-22
-0.4857358712187496	1.3233539259569387e-22
-0.4856748360624996	1.2760296986054177e-22
-0.4856138009062496	1.2286340853681929e-22
-0.4855527657499996	1.181168049133378e-22
-0.4854917305937496	1.1336352766493923e-22
-0.4854306954374996	1.0860419997510813e-22
-0.4853696602812496	1.0383965856013458e-22
-0.4853086251249996	9.907089429558632e-23
-0.4852475899687496	9.429897955327341e-23
-0.4851865548124996	8.952498929496371e-23
-0.4851255196562496	8.474992026548846e-23
-0.4850644844999996	7.997461349592058e-23
-0.4850034493437496	7.519968938704528e-23
-0.4849424141874996	7.04255025506811e-23
-0.4848813790312496	6.565211978130856e-23
-0.4848203438749996	6.087932145609107e-23
-0.4847593087187496	5.61066237673995e-23
-0.4846982735624996	5.133332181785722e-23
-0.4846372384062496	4.655855559159856e-23
-0.4845762032499996	4.1781393449691906e-23
-0.4845151680937496	3.700092133717665e-23
-0.4844541329374996	3.221632986125154e-23
-0.4843930977812496	2.742699341619206e-23
-0.4843320626249996	2.263253284092593e-23
-0.4842710274687496	1.7832858291079115e-23
-0.4842099923124996	1.3028192431192247e-23
-0.4841489571562496	8.219068215574559e-24
-0.4840879219999996	3.406296825863213e-24
-0.4840268868437496	-1.4090893470180802e-24
-0.4839658516874996	-6.225911971079945e-24
-0.4839048165312496	-1.104293562957365e-23
-0.4838437813749996	-1.5858962702299602e-23
-0.4837827462187496	-2.067292412432345e-23
-0.4837217110624996	-2.5483957483660976e-23
-0.4836606759062496	-3.0291469637637486e-23
-0.4835996407499996	-3.509518137479914e-23
-0.4835386055937496	-3.989514545598621e-23
-0.4834775704374996	-4.469173416249667e-23
-0.4834165352812496	-4.948560122788401e-23
-0.4833555001249996	-5.427762115739638e-23
-0.4832944649687496	-5.906880872988248e-23
-0.4832334298124996	-6.386022809577193e-23
-0.4831723946562496	-6.865290003520361e-23
-0.4831113594999996	-7.344771051428848e-23
-0.4830503243437496	-7.824532871781888e-23
-0.4829892891874996	-8.304614510037329e-23
-0.4829282540312496	-8.785023179251473e-23
-0.4828672188749996	-9.26573261144745e-23
-0.4828061837187496	-9.746684066018506e-23
-0.4827451485624996	-1.0227790086193779e-22
-0.4826841134062496	-1.0708940540625215e-22
-0.4826230782499996	-1.1190010186225654e-22
-0.4825620430937496	-1.1670867197716898e-22
-0.4825010079374996	-1.2151382163065816e-22
-0.4824399727812496	-1.2631436781138763e-22
-0.4823789376249996	-1.3110931402220105e-22
-0.4823179024687496	-1.3589790900917863e-22
-0.4822568673124996	-1.4067968693969876e-22
-0.4821958321562496	-1.454544852351858e-22
-0.4821347969999996	-1.5022243809474578e-22
-0.4820737618437496	-1.5498394896993312e-22
-0.4820127266874996	-1.5973964452965627e-22
-0.4819516915312496	-1.6449031486278764e-22
-0.4818906563749996	-1.6923684877334454e-22
-0.4818296212187496	-1.739801666076945e-22
-0.4817685860624996	-1.7872115128851973e-22
-0.4817075509062496	-1.834605858605411e-22
-0.4816465157499996	-1.8819910411774534e-22
-0.4815854805937496	-1.9293715475118174e-22
-0.4815244454374996	-1.9767497835407254e-22
-0.4814634102812496	-2.0241259678504475e-22
-0.4814023751249996	-2.0714981600770233e-22
-0.4813413399687496	-2.1188624172635876e-22
-0.4812803048124996	-2.1662130433736845e-22
-0.4812192696562496	-2.2135429378514905e-22
-0.4811582344999996	-2.260844027711269e-22
-0.4810971993437496	-2.3081077072835497e-22
-0.4810361641874996	-2.3553252677692393e-22
-0.4809751290312496	-2.4024883379717667e-22
-0.4809140938749996	-2.4495893102399603e-22
-0.4808530587187496	-2.4966217114569476e-22
-0.4807920235624996	-2.5435804786741558e-22
-0.4807309884062496	-2.590462111317568e-22
-0.4806699532499996	-2.63726472178731e-22
-0.4806089180937496	-2.6839880095853497e-22
-0.4805478829374996	-2.7306331487545724e-22
-0.4804868477812496	-2.777202575462691e-22
-0.4804258126249996	-2.823699707493901e-22
-0.4803647774687496	-2.870128648832694e-22
-0.4803037423124996	-2.916493861957196e-22
-0.4802427071562496	-2.962799782493689e-22
-0.4801816719999996	-3.0090504372768377e-22
-0.4801206368437496	-3.055249112967951e-22
-0.4800596016874996	-3.101398075619238e-22
-0.4799985665312496	-3.1474983702265684e-22
-0.4799375313749996	-3.1935497305491774e-22
-0.4798764962187496	-3.2395505802409553e-22
-0.4798154610624996	-3.285498090801201e-22
-0.4797544259062496	-3.331388314278163e-22
-0.4796933907499996	-3.377216413574927e-22
-0.4796323555937496	-3.4229769509570176e-22
-0.4795713204374996	-3.468664207971521e-22
-0.4795102852812496	-3.5142725254021954e-22
-0.4794492501249996	-3.5597966106568425e-22
-0.4793882149687496	-3.605231787098649e-22
-0.4793271798124996	-3.6505742097804726e-22
-0.4792661446562496	-3.695821041426428e-22
-0.4792051094999996	-3.7409705494304236e-22
-0.4791440743437496	-3.7860221086746356e-22
-0.4790830391874996	-3.8309761243298914e-22
-0.4790220040312496	-3.875833892987126e-22
-0.4789609688749996	-3.9205974111704927e-22
-0.4788999337187496	-3.9652691453026065e-22
-0.4788388985624996	-4.0098517821990505e-22
-0.4787778634062496	-4.0543479672298227e-22
-0.4787168282499996	-4.0987600461315424e-22
-0.4786557930937496	-4.1430898407130523e-22
-0.4785947579374996	-4.1873384821546822e-22
-0.4785337227812496	-4.231506303499533e-22
-0.4784726876249996	-4.275592780983684e-22
-0.4784116524687496	-4.319596540056038e-22
-0.4783506173124996	-4.363515429149754e-22
-0.4782895821562496	-4.407346625584916e-22
-0.4782285469999996	-4.451086771574689e-22
-0.4781675118437496	-4.494732167368135e-22
-0.4781064766874996	-4.538279007068218e-22
-0.4780454415312496	-4.581723589781603e-22
-0.4779844063749996	-4.625062463623815e-22
-0.4779233712187496	-4.668292540572623e-22
-0.4778623360624996	-4.711411207539062e-22
-0.4778013009062496	-4.754416391992617e-22
-0.4777402657499996	-4.797306561937354e-22
-0.4776792305937496	-4.840080690588342e-22
-0.4776181954374996	-4.88273819578115e-22
-0.4775571602812496	-4.925278835607038e-22
-0.4774961251249996	-4.967702569217104e-22
-0.4774350899687496	-5.010009422299053e-22
-0.4773740548124996	-5.052199386443959e-22
-0.4773130196562496	-5.094272356151656e-22
-0.4772519844999996	-5.136228101857099e-22
-0.4771909493437496	-5.178066273649939e-22
-0.4771299141874996	-5.219786427198103e-22
-0.4770688790312496	-5.261388071405796e-22
-0.4770078438749996	-5.302870727445017e-22
-0.4769468087187496	-5.34423398950129e-22
-0.4768857735624996	-5.385477583739202e-22
-0.4768247384062496	-5.426601395482745e-22
-0.4767637032499996	-5.467605441189739e-22
-0.4767026680937496	-5.508489797351075e-22
-0.4766416329374996	-5.549254495773407e-22
-0.4765805977812496	-5.589899393445895e-22
-0.4765195626249996	-5.630424034889201e-22
-0.4764585274687496	-5.670827510023346e-22
-0.4763974923124996	-5.711108314269216e-22
-0.4763364571562496	-5.751264253078979e-22
-0.4762754219999996	-5.791292430699672e-22
-0.4762143868437496	-5.8311893190551375e-22
-0.4761533516874996	-5.870950881268455e-22
-0.4760923165312496	-5.910572750750202e-22
-0.4760312813749996	-5.950050480862187e-22
-0.4759702462187496	-5.989379842129388e-22
-0.4759092110624996	-6.02855713970362e-22
-0.4758481759062496	-6.067579529825639e-22
-0.4757871407499996	-6.106445275432505e-22
-0.4757261055937496	-6.145153901466314e-22
-0.4756650704374996	-6.183706255348375e-22
-0.4756040352812496	-6.222104468052126e-22
-0.4755430001249996	-6.260351795004555e-22
-0.4754819649687496	-6.298452321425966e-22
-0.4754209298124996	-6.336410568928307e-22
-0.4753598946562496	-6.374231058625679e-22
-0.4752988594999996	-6.411917835991184e-22
-0.4752378243437496	-6.449473994842718e-22
-0.4751767891874996	-6.486901273324976e-22
-0.4751157540312496	-6.5241997463788235e-22
-0.4750547188749996	-6.56136764932905e-22
-0.4749936837187496	-6.59840137160317e-22
-0.4749326485624996	-6.63529560633557e-22
-0.4748716134062496	-6.672043649591417e-22
-0.4748105782499996	-6.708637843591144e-22
-0.4747495430937496	-6.745070121813876e-22
-0.4746885079374996	-6.781332621986764e-22
-0.4746274727812496	-6.817418314762489e-22
-0.4745664376249996	-6.853321563393504e-22
-0.4745054024687496	-6.889038570263386e-22
-0.4744443673124996	-6.924567686763123e-22
-0.4743833321562496	-6.959909538089085e-22
-0.4743222969999996	-6.995066943783436e-22
-0.4742612618437496	-7.030044654130921e-22
-0.4742002266874996	-7.0648489134064585e-22
-0.4741391915312496	-7.099486866526761e-22
-0.4740781563749996	-7.1339658551824715e-22
-0.4740171212187496	-7.1682926771457355e-22
-0.4739560860624996	-7.202472900739247e-22
-0.4738950509062496	-7.236510289054374e-22
-0.4738340157499996	-7.270406345104968e-22
-0.4737729805937496	-7.304160029527243e-22
-0.4737119454374996	-7.337767721105994e-22
-0.4736509102812496	-7.371223420721706e-22
-0.4735898751249996	-7.4045191588906135e-22
-0.4735288399687496	-7.437645580189169e-22
-0.4734678048124996	-7.470592671935781e-22
-0.4734067696562496	-7.503350577403271e-22
-0.4733457344999996	-7.535910418926978e-22
-0.4732846993437496	-7.5682650430098035e-22
-0.4732236641874996	-7.600409613918292e-22
-0.4731626290312496	-7.632342022803303e-22
-0.4731015938749996	-7.66406307060483e-22
-0.4730405587187496	-7.695576380402257e-22
-0.4729795235624996	-7.726888052125928e-22
-0.4729184884062496	-7.758006098877746e-22
-0.4728574532499996	-7.788939689026039e-22
-0.4727964180937496	-7.819698248724261e-22
-0.4727353829374996	-7.85029052653174e-22
-0.4726743477812496	-7.880723714640008e-22
-0.4726133126249996	-7.911002693190689e-22
-0.4725522774687496	-7.941129454020221e-22
-0.4724912423124996	-7.971102765375105e-22
-0.4724302071562496	-8.000918127640335e-22
-0.4723691719999996	-8.030568033017859e-22
-0.4723081368437496	-8.060042508295324e-22
-0.4722471016874996	-8.089329892427395e-22
-0.4721860665312496	-8.118417785272884e-22
-0.4721250313749996	-8.147294096684355e-22
-0.4720639962187496	-8.175948106182556e-22
-0.4720029610624996	-8.204371423980588e-22
-0.4719419259062496	-8.232558753089717e-22
-0.4718808907499996	-8.26050838797602e-22
-0.4718198555937496	-8.288222408466038e-22
-0.4717588204374996	-8.315706532609156e-22
-0.4716977852812496	-8.342969624810233e-22
-0.4716367501249996	-8.370022905909479e-22
-0.4715757149687496	-8.3968789305512155e-22
-0.4715146798124996	-8.423550405257556e-22
-0.4714536446562496	-8.450048944636766e-22
