Time	Frequency
-0.5000523553437493	4.629857550582851e-22
-0.49999132018749926	4.64357023582348e-22
-0.49993028503124926	4.657135012212881e-22
-0.49986924987499926	4.670551176220751e-22
-0.49980821471874926	4.683817492271812e-22
-0.49974717956249926	4.696932283680626e-22
-0.49968614440624926	4.709893577548842e-22
-0.49962510924999926	4.722699283548142e-22
-0.49956407409374926	4.735347393699558e-22
-0.49950303893749926	4.7478361796876995e-22
-0.49944200378124926	4.76016435630395e-22
-0.49938096862499926	4.772331188257443e-22
-0.49931993346874926	4.784336528547949e-22
-0.49925889831249926	4.796180784624192e-22
-0.49919786315624926	4.807864816305403e-22
-0.49913682799999926	4.819389777050998e-22
-0.49907579284374926	4.830756918309808e-22
-0.49901475768749926	4.841967381349576e-22
-0.49895372253124926	4.853022001896899e-22
-0.49889268737499926	4.8639211526842305e-22
-0.49883165221874926	4.874664643722011e-22
-0.49877061706249926	4.885251693004849e-22
-0.49870958190624926	4.89568097256222e-22
-0.49864854674999926	4.9059507237173805e-22
-0.49858751159374926	4.91605892662756e-22
-0.49852647643749926	4.926003503059243e-22
-0.49846544128124926	4.935782527501386e-22
-0.49840440612499926	4.94539442042983e-22
-0.49834337096874926	4.954838098511595e-22
-0.49828233581249926	4.964113064475325e-22
-0.49822130065624926	4.973219427257174e-22
-0.49816026549999926	4.982157846968781e-22
-0.49809923034374926	4.990929409875655e-22
-0.49803819518749926	4.999535451052839e-22
-0.49797716003124926	5.007977346985943e-22
-0.49791612487499926	5.016256302417355e-22
-0.49785508971874926	5.024373158230683e-22
-0.49779405456249926	5.032328245577418e-22
-0.49773301940624926	5.040121304797899e-22
-0.49767198424999926	5.047751479124833e-22
-0.49761094909374926	5.055217383917577e-22
-0.49754991393749926	5.062517242999543e-22
-0.49748887878124926	5.069649075623132e-22
-0.49742784362499926	5.076610910234161e-22
-0.49736680846874926	5.083400996849702e-22
-0.49730577331249926	5.090017990889836e-22
-0.49724473815624926	5.096461085749351e-22
-0.49718370299999926	5.102730077843681e-22
-0.49712266784374926	5.108825356436823e-22
-0.49706163268749926	5.114747820292724e-22
-0.49700059753124926	5.120498731684806e-22
-0.49693956237499926	5.126079525390357e-22
-0.49687852721874926	5.1314915973642e-22
-0.49681749206249926	5.136736100442446e-22
-0.49675645690624926	5.14181377149881e-22
-0.49669542174999926	5.146724812297262e-22
-0.49663438659374926	5.151468840928062e-22
-0.49657335143749926	5.156044918343184e-22
-0.49651231628124926	5.160451645029194e-22
-0.49645128112499926	5.1646873165833845e-22
-0.49639024596874926	5.168750118688844e-22
-0.49632921081249926	5.172638335948218e-22
-0.49626817565624926	5.176350547561855e-22
-0.49620714049999926	5.179885785588795e-22
-0.49614610534374926	5.183243635738298e-22
-0.49608507018749926	5.186424266861078e-22
-0.49602403503124926	5.189428386809338e-22
-0.49596299987499926	5.192257130879965e-22
-0.49590196471874926	5.194911894893721e-22
-0.49584092956249926	5.197394136317599e-22
-0.49577989440624926	5.199705171418173e-22
-0.49571885924999926	5.201845991049147e-22
-0.49565782409374926	5.203817116765414e-22
-0.49559678893749926	5.205618519404376e-22
-0.49553575378124926	5.207249614343442e-22
-0.49547471862499926	5.208709331804103e-22
-0.49541368346874926	5.209996248323005e-22
-0.49535264831249926	5.211108762454476e-22
-0.49529161315624926	5.21204529340471e-22
-0.49523057799999926	5.212804477194514e-22
-0.49516954284374926	5.213385334691743e-22
-0.49510850768749926	5.213787385966111e-22
-0.49504747253124926	5.214010695990556e-22
-0.49498643737499926	5.214055852079647e-22
-0.49492540221874926	5.213923877598168e-22
-0.49486436706249926	5.213616089531359e-22
-0.49480333190624926	5.21313391820978e-22
-0.49474229674999926	5.212478715198292e-22
-0.49468126159374926	5.211651572419865e-22
-0.49462022643749926	5.210653174708408e-22
-0.49455919128124926	5.209483709785938e-22
-0.49449815612499926	5.208142847921181e-22
-0.49443712096874926	5.206629791179555e-22
-0.49437608581249926	5.204943386375453e-22
-0.49431505065624926	5.203082284730032e-22
-0.49425401549999926	5.20104512391315e-22
-0.49419298034374926	5.19883071023887e-22
-0.49413194518749926	5.196438179802515e-22
-0.49407091003124926	5.193867115416673e-22
-0.49400987487499926	5.191117601242459e-22
-0.49394883971874926	5.188190209908362e-22
-0.49388780456249926	5.18508592643656e-22
-0.49382676940624926	5.181806020081115e-22
-0.49376573424999926	5.178351882292384e-22
-0.49370469909374926	5.174724849593943e-22
-0.49364366393749926	5.170926032428501e-22
-0.49358262878124926	5.166956179048914e-22
-0.49352159362499926	5.162815593117585e-22
-0.49346055846874926	5.158504106974238e-22
-0.49339952331249926	5.154021118437553e-22
-0.49333848815624926	5.1493656914479755e-22
-0.49327745299999926	5.144536697346511e-22
-0.49321641784374926	5.139532978822271e-22
-0.49315538268749926	5.134353522993091e-22
-0.49309434753124926	5.1289976162549325e-22
-0.49303331237499926	5.123464954791347e-22
-0.49297227721874926	5.117755696618942e-22
-0.49291124206249926	5.111870450487933e-22
-0.49285020690624926	5.105810206197317e-22
-0.49278917174999926	5.09957621668454e-22
-0.49272813659374926	5.093169847593619e-22
-0.49266710143749926	5.08659241927761e-22
-0.49260606628124926	5.079845059989209e-22
-0.49254503112499926	5.072928579173084e-22
-0.49248399596874926	5.06584338047014e-22
-0.49242296081249926	5.058589435015849e-22
-0.49236192565624926	5.051166319566377e-22
-0.49230089049999926	5.043573308496638e-22
-0.49223985534374926	5.035809499659316e-22
-0.49217882018749926	5.027873960786106e-22
-0.49211778503124926	5.019765886498674e-22
-0.49205674987499926	5.011484741712833e-22
-0.49199571471874926	5.003030362005556e-22
-0.49193467956249926	4.994402999061516e-22
-0.49187364440624926	4.9856033147946655e-22
-0.49181260924999926	4.976632324529914e-22
-0.49175157409374926	4.967491287692191e-22
-0.49169053893749926	4.958181561457617e-22
-0.49162950378124926	4.948704448779387e-22
-0.49156846862499926	4.93906106415046e-22
-0.49150743346874926	4.929252225868184e-22
-0.49144639831249926	4.919278386918761e-22
-0.49138536315624926	4.909139618124156e-22
-0.49132432799999926	4.8988356401822e-22
-0.49126329284374926	4.888365898105892e-22
-0.49120225768749926	4.877729677981312e-22
-0.49114122253124926	4.866926250941986e-22
-0.49108018737499926	4.8559550163901e-22
-0.49101915221874926	4.844815622195304e-22
-0.49095811706249926	4.833508051678548e-22
-0.49089708190624926	4.822032670768893e-22
-0.49083604674999926	4.810390221660886e-22
-0.49077501159374926	4.798581762516312e-22
-0.49071397643749926	4.786608571616439e-22
-0.49065294128124926	4.774472025294196e-22
-0.49059190612499926	4.762173458942091e-22
-0.49053087096874926	4.749714034436895e-22
-0.49046983581249926	4.737094634405135e-22
-0.49040880065624926	4.7243157952164685e-22
-0.49034776549999926	4.711377685861802e-22
-0.49028673034374926	4.698280139576348e-22
-0.49022569518749926	4.68502273791197e-22
-0.49016466003124926	4.671604925888357e-22
-0.49010362487499926	4.658026134770187e-22
-0.49004258971874926	4.644285906604579e-22
-0.48998155456249926	4.630384010770352e-22
-0.48992051940624926	4.616320528638925e-22
-0.48985948424999926	4.602095891628023e-22
-0.48979844909374926	4.587710873920587e-22
-0.48973741393749926	4.573166548162965e-22
-0.48967637878124926	4.558464211616625e-22
-0.48961534362499926	4.543605279741248e-22
-0.48955430846874926	4.528591152323282e-22
-0.48949327331249926	4.513423081958115e-22
-0.48943223815624926	4.498102072458099e-22
-0.48937120299999926	4.482628814718559e-22
-0.48931016784374926	4.467003659708605e-22
-0.48924913268749926	4.45122663530046e-22
-0.48918809753124926	4.435297513026048e-22
-0.48912706237499926	4.419215909812199e-22
-0.48906602721874926	4.402981401213485e-22
-0.48900499206249926	4.386593632898961e-22
-0.48894395690624926	4.370052424521511e-22
-0.48888292174999926	4.353357857023465e-22
-0.48882188659374926	4.336510323665224e-22
-0.48876085143749926	4.319510538641204e-22
-0.48869981628124926	4.302359515882974e-22
-0.48863878112499926	4.285058513463775e-22
-0.48857774596874926	4.267608936328275e-22
-0.48851671081249926	4.250012217370918e-22
-0.48845567565624926	4.2322697024361615e-22
-0.48839464049999926	4.21438255300893e-22
-0.48833360534374926	4.1963516759133674e-22
-0.48827257018749926	4.178177685417302e-22
-0.48821153503124926	4.1598608997974275e-22
-0.48815049987499926	4.1414013763822174e-22
-0.48808946471874926	4.122798981568393e-22
-0.48802842956249926	4.104053484817272e-22
-0.48796739440624926	4.0851646653042957e-22
-0.48790635924999926	4.066132413846728e-22
-0.48784532409374926	4.04695681619764e-22
-0.48778428893749926	4.027638209911428e-22
-0.48772325378124926	4.0081772119860596e-22
-0.48766221862499926	3.9885747198441886e-22
-0.48760118346874926	3.9688318763122793e-22
-0.48754014831249926	3.948949992870421e-22
-0.48747911315624926	3.928930454205349e-22
-0.48741807799999926	3.908774627278705e-22
-0.48735704284374926	3.8884837718575124e-22
-0.48729600768749926	3.8680589564276187e-22
-0.48723497253124926	3.8475010059117927e-22
-0.48717393737499926	3.826810489273364e-22
-0.48711290221874926	3.8059877375715926e-22
-0.48705186706249926	3.7850328927074457e-22
-0.48699083190624926	3.763945978962408e-22
-0.48692979674999926	3.742726984320852e-22
-0.48686876159374926	3.721375952043967e-22
-0.48680772643749926	3.69989306966632e-22
-0.48674669128124926	3.678278730141216e-22
-0.48668565612499926	3.6565335648459174e-22
-0.48662462096874926	3.634658451753263e-22
-0.48656358581249926	3.612654483638017e-22
-0.48650255065624926	3.590522904756744e-22
-0.48644151549999926	3.568265039722032e-22
-0.48638048034374926	3.545882213478189e-22
-0.48631944518749926	3.523375666293277e-22
-0.48625841003124926	3.5007464835914077e-22
-0.48619737487499926	3.4779955510310925e-22
-0.48613633971874926	3.455123537684317e-22
-0.48607530456249926	3.432130901608697e-22
-0.48601426940624926	3.4090179170549257e-22
-0.48595323424999926	3.385784735243127e-22
-0.48589219909374926	3.362431474091725e-22
-0.48583116393749926	3.33895831224988e-22
-0.48577012878124926	3.315365564059881e-22
-0.48570909362499926	3.291653734563766e-22
-0.48564805846874926	3.2678235637789665e-22
-0.48558702331249926	3.243876040874108e-22
-0.48552598815624926	3.2198123710415336e-22
-0.48546495299999926	3.195633914504084e-22
-0.48540391784374926	3.171342110606109e-22
-0.48534288268749926	3.146938386100439e-22
-0.48528184753124926	3.1224240642707563e-22
-0.48522081237499926	3.0978002944827097e-22
-0.48515977721874926	3.073068004539857e-22
-0.48509874206249926	3.048227874126127e-22
-0.48503770690624926	3.0232803370203323e-22
-0.48497667174999926	2.9982256193971083e-22
-0.48491563659374926	2.973063815080501e-22
-0.48485460143749926	2.947794991147249e-22
-0.48479356628124926	2.9224192999335827e-22
-0.48473253112499926	2.8969370677130327e-22
-0.48467149596874926	2.871348849198089e-22
-0.48461046081249926	2.8456554533234984e-22
-0.48454942565624926	2.8198579490780445e-22
-0.48448839049999926	2.793957651103174e-22
-0.48442735534374926	2.7679560708163814e-22
-0.48436632018749926	2.741854833213967e-22
-0.48430528503124926	2.7156555787912226e-22
-0.48424424987499926	2.689359858196641e-22
-0.48418321471874926	2.6629690308802777e-22
-0.48412217956249926	2.636484199051758e-22
-0.48406114440624926	2.609906184376147e-22
-0.48400010924999926	2.5832355315770278e-22
-0.48393907409374926	2.5564725462037104e-22
-0.48387803893749926	2.5296173711224937e-22
-0.48381700378124926	2.5026700772994573e-22
-0.48375596862499926	2.4756307528870767e-22
-0.48369493346874926	2.4484995959265636e-22
-0.48363389831249926	2.4212770087551793e-22
-0.48357286315624926	2.3939636718986496e-22
-0.48351182799999926	2.366560576824508e-22
-0.48345079284374926	2.3390690109377996e-22
-0.48338975768749926	2.3114905010550645e-22
-0.48332872253124926	2.283826731404074e-22
-0.48326768737499926	2.256079449652235e-22
-0.48320665221874926	2.228250368061613e-22
-0.48314561706249926	2.2003410593661327e-22
-0.48308458190624926	2.172352861580613e-22
-0.48302354674999926	2.1442868213196875e-22
-0.48296251159374926	2.1161436812875064e-22
-0.48290147643749926	2.0879239037207466e-22
-0.48284044128124926	2.059627729927546e-22
-0.48277940612499926	2.0312552723661015e-22
-0.48271837096874926	2.002806624023709e-22
-0.48265733581249926	1.9742819662670321e-22
-0.48259630065624926	1.9456816637226324e-22
-0.48253526549999926	1.917006337978499e-22
-0.48247423034374926	1.8882569116544254e-22
-0.48241319518749926	1.8594346193886493e-22
-0.48235216003124926	1.8305409796342013e-22
-0.48229112487499926	1.8015777220942876e-22
-0.48223008971874926	1.7725466829264263e-22
-0.48216905456249926	1.7434496870482556e-22
-0.48210801940624926	1.714288432990211e-22
-0.48204698424999926	1.6850643948870057e-22
-0.48198594909374926	1.6557787513826737e-22
-0.48192491393749926	1.6264323497909744e-22
-0.48186387878124926	1.5970257144304908e-22
-0.48180284362499926	1.5675590998223934e-22
-0.48174180846874926	1.538032587589204e-22
-0.48168077331249926	1.5084462133611541e-22
-0.48161973815624926	1.4788000904368108e-22
-0.48155870299999926	1.44909451943831e-22
-0.48149766784374926	1.4193300825361644e-22
-0.48143663268749926	1.3895076963965258e-22
-0.48137559753124926	1.359628621248372e-22
-0.48131456237499926	1.3296944413468237e-22
-0.48125352721874926	1.2997070031548843e-22
-0.48119249206249926	1.269668304357453e-22
-0.48113145690624926	1.2395803553098444e-22
-0.48107042174999926	1.2094450426414062e-22
-0.48100938659374926	1.179264014913163e-22
-0.48094835143749926	1.14903859557018e-22
-0.48088731628124926	1.1187697378775983e-22
-0.48082628112499926	1.0884580318699618e-22
-0.48076524596874926	1.0581037538161626e-22
-0.48070421081249926	1.0277069538297511e-22
-0.48064317565624926	9.972675747962137e-23
-0.48058214049999926	9.667855845401697e-23
-0.48052110534374926	9.36261104914451e-23
-0.48046007018749926	9.056945286655654e-23
-0.48039903503124926	8.750866156171358e-23
-0.48033799987499926	8.444385456312775e-23
-0.48027696471874926	8.137519019585723e-23
-0.48021592956249926	7.830285893224654e-23
-0.48015489440624926	7.522707223527693e-23
-0.48009385924999926	7.214804997351805e-23
-0.48003282409374926	6.906600521980997e-23
-0.47997178893749926	6.598112857986127e-23
-0.47991075378124926	6.289357657317031e-23
-0.47984971862499926	5.980346515714077e-23
-0.47978868346874926	5.671086757506208e-23
-0.47972764831249926	5.361581725944849e-23
-0.47966661315624926	5.051831663260469e-23
-0.47960557799999926	4.741835064008448e-23
-0.47954454284374926	4.4315902504024e-23
-0.47948350768749926	4.121096947166896e-23
-0.47942247253124926	3.810357645424943e-23
-0.47936143737499926	3.499378544173115e-23
-0.47930040221874926	3.188170071139619e-23
-0.47923936706249926	2.876747014663791e-23
-0.47917833190624926	2.5651280768215556e-23
-0.47911729674999926	2.2533348029344633e-23
-0.47905626159374926	1.941390121319978e-23
-0.47899522643749926	1.629316796518674e-23
-0.47893419128124926	1.3171359698942846e-23
-0.47887315612499926	1.0048657968193438e-23
-0.47881212096874926	6.92520324427629e-24
-0.47875108581249926	3.8010887618975285e-24
-0.47869005065624926	6.763608982203081e-25
-0.47862901549999926	-2.4489731126653584e-24
-0.47856798034374926	-5.574931198444532e-24
-0.47850694518749926	-8.70154065875221e-24
-0.47844591003124926	-1.1828822452257898e-23
-0.47838487487499926	-1.495677431081258e-23
-0.47832383971874926	-1.8085356035891707e-23
-0.47826280456249926	-2.1214481145141712e-23
-0.47820176940624926	-2.4344014194197562e-23
-0.47814073424999926	-2.747377308054087e-23
-0.47807969909374926	-3.060353812915689e-23
-0.47801866393749926	-3.373306779476851e-23
-0.47795762878124926	-3.6862116478399956e-23
-0.47789659362499926	-3.9990451194069196e-23
-0.47783555846874926	-4.3117867802046154e-23
-0.47777452331249926	-4.624420555178174e-23
-0.47771348815624926	-4.936935549801437e-23
-0.47765245299999926	-5.2493260496727695e-23
-0.47759141784374926	-5.561590799375661e-23
-0.47753038268749926	-5.873731817399154e-23
-0.47746934753124926	-6.185752934068865e-23
-0.47740831237499926	-6.497658084799739e-23
-0.47734727721874926	-6.809449426368779e-23
-0.47728624206249926	-7.12112557521529e-23
-0.47722520690624926	-7.432680344731999e-23
-0.47716417174999926	-7.744102176296989e-23
-0.47710313659374926	-8.05537424341996e-23
-0.47704210143749926	-8.366475136227278e-23
-0.47698106628124926	-8.677380092947746e-23
-0.47692003112499926	-8.988062736068255e-23
-0.47685899596874926	-9.298497114909338e-23
-0.47679796081249926	-9.608659728655651e-23
-0.47673692565624926	-9.918531221823464e-23
-0.47667589049999926	-1.0228097557196668e-22
-0.47661485534374926	-1.0537350588906737e-22
-0.47655382018749926	-1.0846287877565289e-22
-0.47649278503124926	-1.1154911570029737e-22
-0.47643174987499926	-1.146322665603139e-22
-0.47637071471874926	-1.1771239106309953e-22
-0.47630967956249926	-1.2078953911962346e-22
-0.47624864440624926	-1.2386373069643899e-22
-0.47618760924999926	-1.2693493999215255e-22
-0.47612657409374926	-1.3000308659649006e-22
-0.47606553893749926	-1.3306803260353142e-22
-0.47600450378124926	-1.3612958559079076e-22
-0.47594346862499926	-1.3918750851938185e-22
-0.47588243346874926	-1.4224153603683349e-22
-0.47582139831249926	-1.4529139423573026e-22
-0.47576036315624926	-1.4833682108883307e-22
-0.47569932799999926	-1.5137758593545138e-22
-0.47563829284374926	-1.5441350562078565e-22
-0.47557725768749926	-1.5744445434297685e-22
-0.47551622253124926	-1.604703660132277e-22
-0.47545518737499926	-1.634912298562404e-22
-0.47539415221874926	-1.6650707986514807e-22
-0.47533311706249926	-1.695179784640222e-22
-0.47527208190624926	-1.725239958470058e-22
-0.47521104674999926	-1.7552518887864685e-22
-0.47515001159374926	-1.785215832651152e-22
-0.47508897643749926	-1.8151315937577476e-22
-0.47502794128124926	-1.844998421573521e-22
-0.47496690612499926	-1.8748149701554001e-22
-0.47490587096874926	-1.9045793272487002e-22
-0.47484483581249926	-1.9342891119746679e-22
-0.47478380065624926	-1.9639416299697725e-22
-0.47472276549999926	-1.9935340695993763e-22
-0.47466173034374926	-2.0230637098707078e-22
-0.47460069518749926	-2.0525281026840647e-22
-0.47453966003124926	-2.0819252095623392e-22
-0.47447862487499926	-2.1112534993019187e-22
-0.47441758971874926	-2.1405120133523985e-22
-0.47435655456249926	-2.169700375272668e-22
-0.47429551940624926	-2.198818722232143e-22
-0.47423448424999926	-2.227867579285494e-22
-0.47417344909374926	-2.2568477068574126e-22
-0.47411241393749926	-2.2857599344199075e-22
-0.47405137878124926	-2.314604994484693e-22
-0.47399034362499926	-2.3433833715276155e-22
-0.47392930846874926	-2.3720951763233185e-22
-0.47386827331249926	-2.4007400574323287e-22
-0.47380723815624926	-2.4293171456190834e-22
-0.47374620299999926	-2.457825026698527e-22
-0.47368516784374926	-2.4862617655161154e-22
-0.47362413268749926	-2.5146249843202273e-22
-0.47356309753124926	-2.542911963929317e-22
-0.47350206237499926	-2.571119757544638e-22
-0.47344102721874926	-2.5992453306323465e-22
-0.47337999206249926	-2.62728571995082e-22
-0.47331895690624926	-2.6552381938881783e-22
-0.47325792174999926	-2.683100412336192e-22
-0.47319688659374926	-2.710870571561911e-22
-0.47313585143749926	-2.73854750530487e-22
-0.47307481628124926	-2.7661307349486253e-22
-0.47301378112499926	-2.7936204637013644e-22
-0.47295274596874926	-2.82101750209457e-22
-0.47289171081249926	-2.848323130885721e-22
-0.47283067565624926	-2.875538907379391e-22
-0.47276964049999926	-2.902666415368483e-22
-0.47270860534374926	-2.9297069935965784e-22
-0.47264757018749926	-2.9566614886611736e-22
-0.47258653503124926	-2.983530053849034e-22
-0.47252549987499926	-3.0103120155233486e-22
-0.47246446471874926	-3.037005832084377e-22
-0.47240342956249926	-3.063609159797361e-22
-0.47234239440624926	-3.0901190164844446e-22
-0.47228135924999926	-3.116532016334356e-22
-0.47222032409374926	-3.1428446561930094e-22
-0.47215928893749926	-3.1690536245651584e-22
-0.47209825378124926	-3.1951560846334455e-22
