Time	Frequency
-0.5000152515625	-0.6142390716933435
-0.49995421640625004	-0.612448083914864
-0.49989318125000004	-0.6106392035297237
-0.49983214609375004	-0.6088121885201577
-0.49977111093750004	-0.6069668292188771
-0.49971007578125004	-0.6051029523960928
-0.49964904062500004	-0.6032204243487043
-0.49958800546875004	-0.6013191536083246
-0.49952697031250004	-0.5993990927351731
-0.49946593515625004	-0.5974602386742587
-0.49940490000000004	-0.5955026319415208
-0.49934386484375004	-0.5935263547799698
-0.49928282968750004	-0.5915315283229284
-0.49922179453125004	-0.5895183088075077
-0.49916075937500004	-0.5874868830384545
-0.49909972421875004	-0.5854374638045767
-0.49903868906250004	-0.5833702855247502
-0.49897765390625004	-0.581285600107701
-0.49891661875000004	-0.5791836732355279
-0.49885558359375004	-0.5770647804798263
-0.49879454843750004	-0.5749292027492177
-0.49873351328125004	-0.5727772218546912
-0.49867247812500004	-0.5706091166663154
-0.49861144296875004	-0.5684251592890891
-0.49855040781250004	-0.5662256110975558
-0.49848937265625004	-0.5640107194187554
-0.49842833750000004	-0.5617807155400985
-0.49836730234375004	-0.5595358133766812
-0.49830626718750004	-0.5572762071400537
-0.49824523203125004	-0.5550020683071547
-0.49818419687500004	-0.5527135435325788
-0.49812316171875004	-0.5504107528318507
-0.49806212656250004	-0.5480937873521191
-0.49800109140625004	-0.5457627079135309
-0.49794005625000004	-0.5434175443066027
-0.49787902109375004	-0.54105829459144
-0.49781798593750004	-0.5386849249605914
-0.49775695078125004	-0.5362973707458384
-0.49769591562500004	-0.5338955377733828
-0.49763488046875004	-0.5314793032446978
-0.49757384531250004	-0.5290485177640554
-0.49751281015625004	-0.5266030099529772
-0.49745177500000004	-0.5241425915447951
-0.49739073984375004	-0.5216670620602504
-0.49732970468750004	-0.5191762142648786
-0.49726866953125004	-0.5166698394849648
-0.49720763437500004	-0.5141477334291531
-0.49714659921875004	-0.511609703946106
-0.49708556406250004	-0.5090555780829235
-0.49702452890625004	-0.5064852078605878
-0.49696349375000004	-0.5038984774058168
-0.49690245859375004	-0.5012953103925261
-0.49684142343750004	-0.49867567560218645
-0.49678038828125004	-0.49603959105153894
-0.49671935312500004	-0.4933871270074669
-0.49665831796875004	-0.49071840787710647
-0.49659728281250004	-0.48803361304759174
-0.49653624765625004	-0.4853329760975386
-0.49647521250000004	-0.48261678262337926
-0.49641417734375004	-0.47988536656299546
-0.49635314218750004	-0.47713910434388446
-0.49629210703125004	-0.47437840781026885
-0.49623107187500004	-0.4716037162177861
-0.49617003671875004	-0.4688154866062807
-0.49610900156250004	-0.46601418314201093
-0.49604796640625004	-0.463200265629374
-0.49598693125000004	-0.46037417710420847
-0.49592589609375004	-0.4575363325723021
-0.49586486093750004	-0.45468710978739874
-0.49580382578125004	-0.45182683984936106
-0.49574279062500004	-0.44895579768823557
-0.49568175546875004	-0.44607419470786375
-0.49562072031250004	-0.44318217361229917
-0.49555968515625004	-0.4402798044349657
-0.49549865000000004	-0.43736708241812994
-0.49543761484375004	-0.4344439288138067
-0.49537657968750004	-0.43151019403721663
-0.49531554453125004	-0.42856566254033773
-0.49525450937500004	-0.42561006018380837
-0.49519347421875004	-0.42264306411319386
-0.49513243906250004	-0.4196643137323409
-0.49507140390625004	-0.4166734225271147
-0.49501036875000004	-0.4136699916734009
-0.49494933359375004	-0.410653625224299
-0.49488829843750004	-0.40762394561162024
-0.49482726328125004	-0.4045806083553342
-0.49476622812500004	-0.40152331550121273
-0.49470519296875004	-0.39845182780326527
-0.49464415781250004	-0.39536597496276066
-0.49458312265625004	-0.3922656628671968
-0.49452208750000004	-0.3891508791983121
-0.49446105234375004	-0.38602169860970115
-0.49440001718750004	-0.3828782845390689
-0.49433898203125004	-0.3797208864123365
-0.49427794687500004	-0.37654983493081173
-0.49421691171875004	-0.3733655358802746
-0.49415587656250004	-0.3701684611596597
-0.49409484140625004	-0.3669591371575009
-0.49403380625000004	-0.36373813138853733
-0.49397277109375004	-0.36050603792758507
-0.49391173593750004	-0.35726346175650836
-0.49385070078125004	-0.3540110030378966
-0.49378966562500004	-0.3507492416517559
-0.49372863046875004	-0.3474787210773817
-0.49366759531250004	-0.3441999335848166
-0.49360656015625004	-0.3409133091153946
-0.49354552500000004	-0.3376192053427136
-0.49348448984375004	-0.33431789796899236
-0.49342345468750004	-0.3310095752310318
-0.49336241953125004	-0.32769433625659417
-0.49330138437500004	-0.3243721898635099
-0.49324034921875004	-0.3210430554146334
-0.49317931406250004	-0.3177067685492026
-0.49311827890625004	-0.3143630911629419
-0.49305724375000004	-0.31101172288357554
-0.49299620859375004	-0.3076523127276692
-0.49293517343750004	-0.3042844721789239
-0.49287413828125004	-0.3009077901326771
-0.49281310312500004	-0.2975218488705204
-0.49275206796875004	-0.29412624012651695
-0.49269103281250004	-0.2907205805006544
-0.49262999765625004	-0.2873045259414639
-0.49256896250000004	-0.2838777846315548
-0.49250792734375004	-0.28044012806978036
-0.49244689218750004	-0.27699140096231084
-0.49238585703125004	-0.2735315290962436
-0.49232482187500004	-0.27006052336150616
-0.49226378671875004	-0.26657848067829193
-0.49220275156250004	-0.2630855833976395
-0.49214171640625004	-0.25958209610429395
-0.49208068125000004	-0.2560683597990935
-0.49201964609375004	-0.2525447839945573
-0.49195861093750004	-0.24901183547662895
-0.49189757578125004	-0.2454700249149024
-0.49183654062500004	-0.24191989377238218
-0.49177550546875004	-0.23836200113990363
-0.49171447031250004	-0.23479690931183195
-0.49165343515625004	-0.23122516901281936
-0.49159240000000004	-0.22764730564664662
-0.49153136484375004	-0.22406380674294896
-0.49147032968750004	-0.22047511075745516
-0.49140929453125004	-0.21688159728538617
-0.49134825937500004	-0.213283578862381
-0.49128722421875004	-0.20968129500105212
-0.49122618906250004	-0.20607490897636907
-0.49116515390625004	-0.20246450699876603
-0.49110411875000004	-0.19885009896287764
-0.49104308359375004	-0.19523162156530668
-0.49098204843750004	-0.19160894459114564
-0.49092101328125004	-0.1879818794010573
-0.49085997812500004	-0.18435018890944602
-0.49079894296875004	-0.180713599320085
-0.49073790781250004	-0.17707181334314506
-0.49067687265625004	-0.17342452325155389
-0.49061583750000004	-0.16977142292671168
-0.49055480234375004	-0.1661122199591555
-0.49049376718750004	-0.16244664773370857
-0.49043273203125004	-0.15877447633375744
-0.49037169687500004	-0.1550955231415392
-0.49031066171875004	-0.151409663165113
-0.49024962656250004	-0.14771683576803418
-0.49018859140625004	-0.14401704704084173
-0.49012755625000004	-0.14031037082963127
-0.49006652109375004	-0.13659694891033097
-0.49000548593750004	-0.13287698879029008
-0.48994445078125004	-0.12915075913854512
-0.48988341562500004	-0.12541858367439226
-0.48982238046875004	-0.12168083396617277
-0.48976134531250004	-0.11793792050219244
-0.48970031015625004	-0.11419028180352188
-0.48963927500000004	-0.1104383724879497
-0.48957823984375004	-0.10668265089441346
-0.48951720468750004	-0.10292356744805985
-0.48945616953125004	-0.0991615543168888
-0.48939513437500004	-0.09539701435330931
-0.48933409921875004	-0.09163030987460193
-0.48927306406250004	-0.08786175522273752
-0.48921202890625004	-0.08409161250431606
-0.48915099375000004	-0.08032008719828561
-0.48908995859375004	-0.07654732476053931
-0.48902892343750004	-0.07277341018205667
-0.48896788828125004	-0.06899836986639385
-0.48890685312500004	-0.06522217549279712
-0.48884581796875004	-0.06144474954945339
-0.48878478281250004	-0.05766597205162895
-0.48872374765625004	-0.05388568899854459
-0.48866271250000004	-0.05010372214896351
-0.48860167734375004	-0.046319879310800276
-0.48854064218750004	-0.04253396498139007
-0.48847960703125004	-0.0387457905441365
-0.48841857187500004	-0.034955183522927515
-0.48835753671875004	-0.031161995949028434
-0.48829650156250004	-0.027366112379920083
-0.48823546640625004	-0.023567457656495545
-0.48817443125000004	-0.019766003067652617
-0.48811339609375004	-0.015961770690598655
-0.48805236093750004	-0.012154835869340463
-0.48799132578125004	-0.008345326569607176
-0.48793029062500004	-0.004533420984703215
-0.48786925546875004	-0.000719344956662737
-0.48780822031250004	0.0030966325729436237
-0.48774718515625004	0.006914205441003219
-0.48768615000000004	0.010733036428259176
-0.48762511484375004	0.014552766451299543
-0.48756407968750004	0.018373025358248425
-0.48750304453125004	0.02219344002588911
-0.48744200937500004	0.026013641506931313
-0.48738097421875004	0.0298332741503268
-0.48731993906250004	0.033652005389451574
-0.48725890390625004	0.03746953452044702
-0.48719786875000004	0.04128559864767429
-0.48713683359375004	0.04509997571207105
-0.48707579843750004	0.04891248787173253
-0.48701476328125004	0.05272300440229013
-0.48695372812500004	0.05653144164669306
-0.48689269296875004	0.06033776166683681
-0.48683165781250004	0.06414196970468627
-0.48677062265625004	0.06794411010779351
-0.48670958750000004	0.07174426168190558
-0.48664855234375004	0.07554253095705872
-0.48658751718750004	0.07933904398333576
-0.48652648203125004	0.08313393927509513
-0.48646544687500004	0.08692736058266308
-0.48640441171875004	0.09071944787548869
-0.48634337656250004	0.09451032803692648
-0.48628234140625004	0.09830010733293287
-0.48622130625000004	0.10208886608686982
-0.48616027109375004	0.105876653856412
-0.48609923593750004	0.10966348376588174
-0.48603820078125004	0.11344932723193867
-0.48597716562500004	0.11723411063364549
-0.48591613046875004	0.12101771442335493
-0.48585509531250004	0.12479997444548827
-0.48579406015625004	0.1285806843128544
-0.48573302500000004	0.13235959837157465
-0.48567198984375004	0.13613643544822046
-0.48561095468750004	0.1399108836096955
-0.48554991953125004	0.1436826064694848
-0.48548888437500004	0.1474512504576392
-0.48542784921875004	0.15121645232529882
-0.48536681406250004	0.15497784736501122
-0.48530577890625004	0.15873507744637688
-0.48524474375000004	0.162487797764568
-0.48518370859375004	0.1662356840791947
-0.48512267343750004	0.1699784406742306
-0.48506163828125004	0.17371580684045734
-0.48500060312500004	0.1774475618881554
-0.48493956796875004	0.18117352921066407
-0.48487853281250004	0.18489357892034572
-0.48481749765625004	0.18860762878473677
-0.48475646250000004	0.19231564377443144
-0.48469542734375004	0.19601763516646467
-0.48463439218750004	0.19971365874245728
-0.48457335703125004	0.20340381084516343
-0.48451232187500004	0.2070882224839491
-0.48445128671875004	0.21076705231791093
-0.48439025156250004	0.21444047908943714
-0.48432921640625004	0.21810869346768524
-0.48426818125000004	0.22177188909049117
-0.48420714609375004	0.22543025272254388
-0.48414611093750004	0.2290839537806063
-0.48408507578125004	0.2327331350008587
-0.48402404062500004	0.23637790543812665
-0.48396300546875004	0.24001833422271618
-0.48390197031250004	0.24365444414524734
-0.48384093515625004	0.24728620631516068
-0.48377990000000004	0.2509135367456501
-0.48371886484375004	0.2545362948230337
-0.48365782968750004	0.2581542836251268
-0.48359679453125004	0.2617672520176535
-0.48353575937500004	0.26537489774054823
-0.48347472421875004	0.26897687136185927
-0.48341368906250004	0.2725727826437091
-0.48335265390625004	0.2761622093977534
-0.48329161875000004	0.2797447073355176
-0.48323058359375004	0.28331982033415004
-0.48316954843750004	0.28688709086057856
-0.48310851328125004	0.2904460707620182
-0.48304747812500004	0.2939963329572666
-0.48298644296875004	0.2975374830437694
-0.48292540781250004	0.30106916933471645
-0.48286437265625004	0.30459109118117866
-0.48280333750000004	0.308103006000908
-0.48274230234375004	0.31160473513153714
-0.48268126718750004	0.31509616802206397
-0.48262023203125004	0.31857726385881197
-0.48255919687500004	0.32204805017492577
-0.48249816171875004	0.32550861913384616
-0.48243712656250004	0.3289591227694477
-0.48237609140625004	0.3323997667946636
-0.48231505625000004	0.33583080174951363
-0.48225402109375004	0.33925251228320497
-0.48219298593750004	0.34266520547884977
-0.48213195078125004	0.3460691980713494
-0.48207091562500004	0.34946480383689554
-0.48200988046875004	0.35285232153664947
-0.48194884531250004	0.3562320216048449
-0.48188781015625004	0.3596041324965668
-0.48182677500000004	0.36296882910594436
-0.48176573984375004	0.36632622331819026
-0.48170470468750004	0.3696763564981189
-0.48164366953125004	0.37301919405992917
-0.48158263437500004	0.3763546220720074
-0.48152159921875004	0.3796824462583816
-0.48146056406250004	0.38300239348195986
-0.48139952890625004	0.3863141159156388
-0.48133849375000004	0.3896171982963172
-0.48127745859375004	0.3929111677026312
-0.48121642343750004	0.3961955047611315
-0.48115538828125004	0.3994696556746218
-0.48109435312500004	0.40273304554550543
-0.48103331796875004	0.4059850939998294
-0.48097228281250004	0.4092252326165639
-0.48091124765625004	0.4124529217527628
-0.48085021250000004	0.4156676650309196
-0.48078917734375004	0.41886902205330406
-0.48072814218750004	0.4220566202956502
-0.48066710703125004	0.4252301655144333
-0.48060607187500004	0.4283894498974182
-0.48054503671875004	0.43153435815979163
-0.48048400156250004	0.4346648705057985
-0.48042296640625004	0.43778106092577285
-0.48036193125000004	0.4408830918355489
-0.48030089609375004	0.4439712069579948
-0.48023986093750004	0.447045721959716
-0.48017882578125004	0.45010701143540033
-0.48011779062500004	0.4531554935568359
-0.48005675546875004	0.45619161420150284
-0.47999572031250004	0.4592158298553957
-0.47993468515625004	0.4622285891082153
-0.47987365000000004	0.4652303146542115
-0.47981261484375004	0.4682213865614175
-0.47975157968750004	0.47120212594233657
-0.47969054453125004	0.4741727798922379
-0.47962950937500004	0.47713350949299443
-0.47956847421875004	0.4800843807859608
-0.47950743906250004	0.48302535832468696
-0.47944640390625004	0.48595630202865386
-0.47938536875000004	0.48887696794961916
-0.47932433359375004	0.49178701271054337
-0.47926329843750004	0.4946860007184504
-0.47920226328125004	0.4975734141453808
-0.47914122812500004	0.5004486666588254
-0.47908019296875004	0.5033111200602027
-0.47901915781250004	0.5061601021577626
-0.47895812265625004	0.5089949260564683
-0.47889708750000004	0.5118149106630786
-0.47883605234375004	0.5146194009143029
-0.47877501718750004	0.5174077871050222
-0.47871398203125004	0.5201795229882108
-0.47865294687500004	0.522934141994827
-0.47859191171875004	0.5256712711661703
-0.47853087656250004	0.5283906420598375
-0.47846984140625004	0.5310920979790256
-0.47840880625000004	0.5337755975485572
-0.47834777109375004	0.5364412147460219
-0.47828673593750004	0.539089135290979
-0.47822570078125004	0.5417196489101509
-0.47816466562500004	0.5443331374754541
-0.47810363046875004	0.5469300600887697
-0.47804259531250004	0.5495109357377803
-0.47798156015625004	0.5520763236667713
-0.47792052500000004	0.5546268022624331
-0.47785948984375004	0.5571629472198054
-0.47779845468750004	0.559685309468594
-0.47773741953125004	0.5621943936864935
-0.47767638437500004	0.5646906382145163
-0.47761534921875004	0.5671743969406816
-0.47755431406250004	0.5696459239696331
-0.47749327890625004	0.572105361687221
-0.47743224375000004	0.5745527320459299
-0.47737120859375004	0.5769879313394857
-0.47731017343750004	0.5794107296879089
-0.47724913828125004	0.5818207756084982
-0.47718810312500004	0.5842176048218426
-0.47712706796875004	0.5866006525833825
-0.47706603281250004	0.588969268925002
-0.47700499765625004	0.5913227365001755
-0.47694396250000004	0.5936602911614768
-0.47688292734375004	0.5959811447450393
-0.47682189218750004	0.5982845091110284
-0.47676085703125004	0.6005696204088277
-0.47669982187500004	0.6028357623612958
-0.47663878671875004	0.6050822878222863
-0.47657775156250004	0.607308638364983
-0.47651671640625004	0.6095143613621795
-0.47645568125000004	0.6116991238532068
-0.47639464609375004	0.6138627226353871
-0.47633361093750004	0.6160050899170013
-0.47627257578125004	0.6181262943984114
-0.47621154062500004	0.6202265379929216
-0.47615050546875004	0.6223061483067696
-0.47608947031250004	0.624365567280379
-0.47602843515625004	0.626405336219874
-0.47596740000000004	0.6284260774648001
-0.47590636484375004	0.6304284733752323
-0.47584532968750004	0.632413243252005
-0.47578429453125004	0.6343811188251747
-0.47572325937500004	0.6363328190998954
-0.47566222421875004	0.6382690252991683
-0.47560118906250004	0.6401903568967329
-0.47554015390625004	0.6420973494634759
-0.47547911875000004	0.6439904344859617
-0.47541808359375004	0.645869922043149
-0.47535704843750004	0.6477359875108805
-0.47529601328125004	0.6495886625427423
-0.47523497812500004	0.6514278303071145
-0.47517394296875004	0.6532532252166587
-0.47511290781250004	0.6550644374849314
-0.47505187265625004	0.656860922449233
-0.47499083750000004	0.6586420142218558
-0.47492980234375004	0.6604069435339232
-0.47486876718750004	0.6621548593853409
-0.47480773203125004	0.6638848535477522
-0.47474669687500004	0.6655959871495809
-0.47468566171875004	0.6672873186622035
-0.47462462656250004	0.6689579323448661
-0.47456359140625004	0.6706069660851346
-0.47450255625000004	0.6722336377079484
-0.47444152109375004	0.6738372690379013
-0.47438048593750004	0.675417306976358
-0.47431945078125004	0.6769733407241187
-0.47425841562500004	0.6785051144698397
-0.47419738046875004	0.6800125352557553
-0.47413634531250004	0.6814956757971713
-0.47407531015625004	0.6829547720021069
-0.47401427500000004	0.6843902151793584
-0.47395323984375004	0.6858025391083993
-0.47389220468750004	0.6871924023330936
-0.47383116953125004	0.6885605664370025
-0.47377013437500004	0.6899078711047427
-0.47370909921875004	0.6912352065231566
-0.47364806406250004	0.6925434838540337
-0.47358702890625004	0.6938336048753853
-0.47352599375000004	0.6951064318628841
-0.47346495859375004	0.6963627586562553
-0.47340392343750004	0.6976032838101847
-0.47334288828125004	0.6988285865628464
-0.47328185312500004	0.7000391064126718
-0.47322081796875004	0.7012351272146421
-0.47315978281250004	0.7024167663363903
-0.47309874765625004	0.7035839690664392
-0.47303771250000004	0.7047365084318379
-0.47297667734375004	0.7058739904582605
-0.47291564218750004	0.7069958647428243
-0.47285460703125004	0.7081014401086357
-0.47279357187500004	0.709189904940732
-0.47273253671875004	0.7102603514914546
-0.47267150156250004	0.7113118032544037
-0.47261046640625004	0.7123432446483973
-0.47254943125000004	0.7133536522454368
-0.47248839609375004	0.7143420265085961
-0.47242736093750004	0.7153074229362062
-0.47236632578125004	0.7162489816024616
-0.47230529062500004	0.7171659541288137
-0.47224425546875004	0.7180577272331197
-0.47218322031250004	0.7189238422130004
-0.47212218515625004	0.7197640097637709
-0.47206115000000004	0.7205781194751869
-0.47200011484375004	0.7213662435906428
-0.47193907968750004	0.722128634988054
-0.47187804453125004	0.7228657194062716
-0.47181700937500004	0.7235780819052082
-0.47175597421875004	0.7242664479476457
-0.47169493906250004	0.7249316598538585
-0.47163390390625004	0.7255746491993098
-0.47157286875000004	0.7261964058704055
-0.47151183359375004	0.72679794489572
-0.47145079843750004	0.727380272153207
-0.47138976328125004	0.7279443500238384
-0.47132872812500004	0.7284910640012048
-0.47126769296875004	0.7290211913035816
-0.47120665781250004	0.7295353727502454
-0.47114562265625004	0.7300340889606552
-0.47108458750000004	0.730517641648564
-0.47102355234375004	0.7309861407181292
-0.47096251718750004	0.7314394975948513
-0.47090148203125004	0.7318774250326171
-0.47084044687500004	0.7322994437571354
-0.47077941171875004	0.7327048960090493
-0.47071837656250004	0.7330929654886257
-0.47065734140625004	0.7334627030130985
-0.47059630625000004	0.7338130570572707
-0.47053527109375004	0.7341429084068019
-0.47047423593750004	0.734451108175063
-0.47041320078125004	0.7347365176063018
-0.47035216562500004	0.7349980476776035
-0.47029113046875004	0.7352346973496838
-0.47023009531250004	0.7354455897444674
-0.47016906015625004	0.7356300048691435
