Time	Frequency
-0.5000152510312503	0.6166093264480954
-0.49995421587500033	0.6149267372738976
-0.49989318071875033	0.6132273550553814
-0.49983214556250033	0.6115110649899795
-0.49977111040625033	0.6097777587212903
-0.49971007525000033	0.6080273523347812
-0.49964904009375033	0.6062598017813184
-0.49958800493750033	0.6044751141485799
-0.49952696978125033	0.6026733530724284
-0.49946593462500033	0.6008546346106267
-0.49940489946875033	0.599019115291209
-0.49934386431250033	0.5971669779977994
-0.49928282915625033	0.5952984177473886
-0.49922179400000033	0.5934136239463274
-0.49916075884375033	0.5915127591730783
-0.49909972368750033	0.5895959443084421
-0.49903868853125033	0.587663254946179
-0.49897765337500033	0.585714722347573
-0.49891661821875033	0.5837503357158086
-0.49885558306250033	0.5817700500176859
-0.49879454790625033	0.5797737987373357
-0.49873351275000033	0.5777615070601093
-0.49867247759375033	0.5757331070536617
-0.49861144243750033	0.5736885544166455
-0.49855040728125033	0.5716278390408529
-0.49848937212500033	0.569550987147799
-0.49842833696875033	0.5674580610762244
-0.49836730181250033	0.5653491597926374
-0.49830626665625033	0.5632244150547587
-0.49824523150000033	0.5610839793955079
-0.49818419634375033	0.5589280107714352
-0.49812316118750033	0.5567566572313625
-0.49806212603125033	0.5545700404231383
-0.49800109087500033	0.5523682425144621
-0.49794005571875033	0.5501513014943581
-0.49787902056250033	0.5479192128697576
-0.49781798540625033	0.5456719356961787
-0.49775695025000033	0.5434094042252499
-0.49769591509375033	0.5411315468764064
-0.49763487993750033	0.5388383080479012
-0.49757384478125033	0.5365296648022334
-0.49751280962500033	0.5342056386590976
-0.49745177446875033	0.5318663040180636
-0.49739073931250033	0.5295117912951401
-0.49732970415625033	0.5271422861074562
-0.49726866900000033	0.5247580219093213
-0.49720763384375033	0.5223592626376052
-0.49714659868750033	0.5199462803902225
-0.49708556353125033	0.5175193335875364
-0.49702452837500033	0.5150786457123157
-0.49696349321875033	0.5126243813759921
-0.49690245806250033	0.5101566246112236
-0.49684142290625033	0.5076753707777953
-0.49678038775000033	0.5051805295730898
-0.49671935259375033	0.5026719326913668
-0.49665831743750033	0.5001493503937995
-0.49659728228125033	0.4976125169282753
-0.49653624712500033	0.4950611610702935
-0.49647521196875033	0.49249504458592946
-0.49641417681250033	0.48991400183614003
-0.49635314165625033	0.48731796677292166
-0.49629210650000033	0.4847069905696311
-0.49623107134375033	0.4820812542179009
-0.49617003618750033	0.47944106552535554
-0.49610900103125033	0.47678683777614944
-0.49604796587500033	0.474119058986833
-0.49598693071875033	0.4714382539366988
-0.49592589556250033	0.46874493687666274
-0.49586486040625033	0.466039560508497
-0.49580382525000033	0.4633224712321815
-0.49574279009375033	0.4605938751637221
-0.49568175493750033	0.4578538173197558
-0.49562071978125033	0.45510217985706186
-0.49555968462500033	0.45233870089546196
-0.49549864946875033	0.44956300923639675
-0.49543761431250033	0.4467746685420591
-0.49537657915625033	0.4439732266169649
-0.49531554400000033	0.4411582711658043
-0.49525450884375033	0.4383294873509602
-0.49519347368750033	0.4354867034838537
-0.49513243853125033	0.432629917453048
-0.49507140337500033	0.42975930322711053
-0.49501036821875033	0.42687519901289306
-0.49494933306250033	0.4239780795713842
-0.49488829790625033	0.42106851233851056
-0.49482726275000033	0.4181471022914822
-0.49476622759375033	0.41521443453784446
-0.49470519243750033	0.4122710168733953
-0.49464415728125033	0.40931722991651553
-0.49458312212500033	0.4063532973696135
-0.49452208696875033	0.40337927621860703
-0.49446105181250033	0.40039506353884974
-0.49440001665625033	0.3974004217767565
-0.49433898150000033	0.3943950184427601
-0.49427794634375033	0.3913784741050546
-0.49421691118750033	0.3883504151854354
-0.49415587603125033	0.38531052416450345
-0.49409484087500033	0.3822585811942089
-0.49403380571875033	0.37919449576426606
-0.49397277056250033	0.3761183247357667
-0.49391173540625033	0.3730302689938294
-0.49385070025000033	0.3699306470279623
-0.49378966509375033	0.3668198569060043
-0.49372862993750033	0.36369833603923096
-0.49366759478125033	0.360566518050939
-0.49360655962500033	0.3574247892206274
-0.49354552446875033	0.35427345266558746
-0.49348448931250033	0.3511127068564462
-0.49342345415625033	0.3479426399766112
-0.49336241900000033	0.3447632373072264
-0.49330138384375033	0.341574400639483
-0.49324034868750033	0.3383759783426205
-0.49317931353125033	0.3351678008309326
-0.49311827837500033	0.33194971712183735
-0.49305724321875033	0.3287216275813568
-0.49299620806250033	0.3254835073106666
-0.49293517290625033	0.3222354157375166
-0.49287413775000033	0.31897749265675107
-0.49281310259375033	0.31570994632742894
-0.49275206743750033	0.31243303322792615
-0.49269103228125033	0.30914702926034276
-0.49262999712500033	0.3058521993913932
-0.49256896196875033	0.3025487696560589
-0.49250792681250033	0.29923690321150254
-0.49244689165625033	0.2959166863986932
-0.49238585650000033	0.2925881310304963
-0.49232482134375033	0.2892511887342892
-0.49226378618750033	0.2859057697710923
-0.49220275103125033	0.28255176749139255
-0.49214171587500033	0.27918908945383425
-0.49208068071875033	0.2758176890494614
-0.49201964556250033	0.2724375893970985
-0.49195861040625033	0.26904889705064317
-0.49189757525000033	0.26565180531649774
-0.49183654009375033	0.2622465831933331
-0.49177550493750033	0.25883355194556484
-0.49171446978125033	0.2554130575190305
-0.49165343462500033	0.25198544029763487
-0.49159239946875033	0.2485509987254988
-0.49153136431250033	0.2451099524389207
-0.49147032915625033	0.24166241844269085
-0.49140929400000033	0.23820840523959766
-0.49134825884375033	0.23474781973806133
-0.49128722368750033	0.23128048409003182
-0.49122618853125033	0.22780616557158784
-0.49116515337500033	0.2243246178726921
-0.49110411821875033	0.2208356248331334
-0.49104308306250033	0.21733904249613423
-0.49098204790625033	0.21383483497621936
-0.49092101275000033	0.21032309538872293
-0.49085997759375033	0.20680405259090084
-0.49079894243750033	0.2032780640187523
-0.49073790728125033	0.19974558596336617
-0.49067687212500033	0.19620712410244082
-0.49061583696875033	0.19266317879183692
-0.49055480181250033	0.18911419353193437
-0.49049376665625033	0.1855605097980047
-0.49043273150000033	0.18200233131296106
-0.49037169634375033	0.17843970189146774
-0.49031066118750033	0.1748725045578046
-0.49024962603125033	0.1713004860458796
-0.49018859087500033	0.16772329954884985
-0.49012755571875033	0.16414055703944572
-0.49006652056250033	0.160551889864584
-0.49000548540625033	0.15695701286307392
-0.48994445025000033	0.15335577868820988
-0.48988341509375033	0.14974821344336817
-0.48982237993750033	0.14613453366707174
-0.48976134478125033	0.14251514401035967
-0.48970030962500033	0.13889060877109421
-0.48963927446875033	0.13526159470657506
-0.48957823931250033	0.13162879765528998
-0.48951720415625033	0.12799286698082604
-0.48945616900000033	0.1243543329794625
-0.48939513384375033	0.12071354608150749
-0.48933409868750033	0.11707063859649956
-0.48927306353125033	0.11342551272750177
-0.48921202837500033	0.10977785663567105
-0.48915099321875033	0.10612718948964596
-0.48908995806250033	0.10247293134465581
-0.48902892290625033	0.0988144864717941
-0.48896788775000033	0.09515132665028489
-0.48890685259375033	0.09148306674133813
-0.48884581743750033	0.08780952623336127
-0.48878478228125033	0.08413076826445771
-0.48872374712500033	0.08044710995305167
-0.48866271196875033	0.07675909866796185
-0.48860167681250033	0.0730674552200406
-0.48854064165625033	0.06937299610817382
-0.48847960650000033	0.06567654787524368
-0.48841857134375033	0.061978863134314784
-0.48835753618750033	0.05828054497461001
-0.48829650103125033	0.05458198601624158
-0.48823546587500033	0.0508833327614001
-0.48817443071875033	0.047184485857447264
-0.48811339556250033	0.04348513298656298
-0.48805236040625033	0.039784801032153726
-0.48799132525000033	0.03608292510632138
-0.48793029009375033	0.03237893344554559
-0.48786925493750033	0.028672332636527294
-0.48780821978125033	0.024962778971084468
-0.48774718462500033	0.021250130058008822
-0.48768614946875033	0.017534468420811
-0.48762511431250033	0.013816092749299295
-0.48756407915625033	0.010095483675486273
-0.48750304400000033	0.006373250788416635
-0.48744200884375033	0.002650064122449682
-0.48738097368750033	-0.0010734228721948655
-0.48731993853125033	-0.004796646987549338
-0.48725890337500033	-0.008519191870989245
-0.48719786821875033	-0.012240819840343977
-0.48713683306250033	-0.015961482181960297
-0.48707579790625033	-0.019681308574614163
-0.48701476275000033	-0.023400570339151196
-0.48695372759375033	-0.027119624228208444
-0.48689269243750033	-0.030838849813693014
-0.48683165728125033	-0.03455858598175654
-0.48677062212500033	-0.03827907112416394
-0.48670958696875033	-0.042000396575323264
-0.48664855181250033	-0.045722482117285274
-0.48658751665625033	-0.04944507650769607
-0.48652648150000033	-0.05316778199021925
-0.48646544634375033	-0.056890097492459095
-0.48640441118750033	-0.0606114729520015
-0.48634337603125033	-0.06433136859614023
-0.48628234087500033	-0.06804931149257784
-0.48622130571875033	-0.07176494261553039
-0.48616027056250033	-0.07547805215812271
-0.48609923540625033	-0.07918859682386684
-0.48603820025000033	-0.08289669008456776
-0.48597716509375033	-0.08660256873188295
-0.48591612993750033	-0.09030654770133391
-0.48585509478125033	-0.09400896908605864
-0.48579405962500033	-0.0977101451463992
-0.48573302446875033	-0.10141030141956624
-0.48567198931250033	-0.10510953266516898
-0.48561095415625033	-0.10880777814800176
-0.48554991900000033	-0.11250481843975753
-0.48548888384375033	-0.1162002915692105
-0.48542784868750033	-0.11989372323925883
-0.48536681353125033	-0.12358457422126727
-0.48530577837500033	-0.12727230208462326
-0.48524474321875033	-0.13095642243351532
-0.48518370806250033	-0.1346365631059189
-0.48512267290625033	-0.13831250474530038
-0.48506163775000033	-0.14198419565242615
-0.48500060259375033	-0.14565174308556844
-0.48493956743750033	-0.1493153877659564
-0.48487853228125033	-0.15297546155199937
-0.48481749712500033	-0.15663233162587184
-0.48475646196875033	-0.16028633661873118
-0.48469542681250033	-0.1639377224705451
-0.48463439165625033	-0.1675865898375865
-0.48457335650000033	-0.17123286192634213
-0.48451232134375033	-0.17487627470209746
-0.48445128618750033	-0.17851638936713699
-0.48439025103125033	-0.18215263132487786
-0.48432921587500033	-0.1857843522989711
-0.48426818071875033	-0.18941090074657635
-0.48420714556250033	-0.19303169149524274
-0.48414611040625033	-0.19664627108457003
-0.48408507525000033	-0.20025437059836207
-0.48402404009375033	-0.20385593663172857
-0.48396300493750033	-0.20745113596433779
-0.48390196978125033	-0.21104033128775862
-0.48384093462500033	-0.214624027588257
-0.48377989946875033	-0.2182027993965662
-0.48371886431250033	-0.2217772126189647
-0.48365782915625033	-0.2253477449092049
-0.48359679400000033	-0.2289147084342988
-0.48353575884375033	-0.23247819072024561
-0.48347472368750033	-0.23603802647718208
-0.48341368853125033	-0.23959380024165122
-0.48335265337500033	-0.2431448772002017
-0.48329161821875033	-0.24669046046359727
-0.48323058306250033	-0.250229670304083
-0.48316954790625033	-0.2537616362457873
-0.48310851275000033	-0.25728558963260745
-0.48304747759375033	-0.2608009450163129
-0.48298644243750033	-0.2643073607112395
-0.48292540728125033	-0.2678047718839658
-0.48286437212500033	-0.2712933927301147
-0.48280333696875033	-0.27477368693191356
-0.48274230181250033	-0.2782463071733076
-0.48268126665625033	-0.2817120079269634
-0.48262023150000033	-0.28517154327303496
-0.48255919634375033	-0.2886255647599124
-0.48249816118750033	-0.2920745327584921
-0.48243712603125033	-0.2955186495609781
-0.48237609087500033	-0.29895781774358715
-0.48231505571875033	-0.30239163346514725
-0.48225402056250033	-0.30581942054276673
-0.48219298540625033	-0.30924029651992213
-0.48213195025000033	-0.3126532626645932
-0.48207091509375033	-0.3160573090453793
-0.48200987993750033	-0.3194515218897095
-0.48194884478125033	-0.3228351827615814
-0.48188780962500033	-0.32620784673128966
-0.48182677446875033	-0.3295693903727585
-0.48176573931250033	-0.3329200241217607
-0.48170470415625033	-0.33626026141150367
-0.48164366900000033	-0.33959084567071385
-0.48158263384375033	-0.34291264833806406
-0.48152159868750033	-0.34622655327354446
-0.48146056353125033	-0.34953333903965017
-0.48139952837500033	-0.3528335710535129
-0.48133849321875033	-0.3561275187433726
-0.48127745806250033	-0.35941510879255556
-0.48121642290625033	-0.36269591918921
-0.48115538775000033	-0.3659692158916779
-0.48109435259375033	-0.36923402847664855
-0.48103331743750033	-0.3724892552724684
-0.48097228228125033	-0.3757337881058161
-0.48091124712500033	-0.3789666413146852
-0.48085021196875033	-0.382187064747791
-0.48078917681250033	-0.3853946277638309
-0.48072814165625033	-0.38858926362357926
-0.48066710650000033	-0.3917712655942616
-0.48060607134375033	-0.39494123762625344
-0.48054503618750033	-0.39810000895356495
-0.48048400103125033	-0.4012485215831759
-0.48042296587500033	-0.40438769975954164
-0.48036193071875033	-0.4075183190650586
-0.48030089556250033	-0.41064089648922747
-0.48023986040625033	-0.4137556116310654
-0.48017882525000033	-0.41686226742145965
-0.48011779009375033	-0.41996030104354226
-0.48005675493750033	-0.42304884505185647
-0.47999571978125033	-0.4261268278851382
-0.47993468462500033	-0.4291930980663152
-0.47987364946875033	-0.4322465575831652
-0.47981261431250033	-0.4352862915704531
-0.47975157915625033	-0.43831167711192837
-0.47969054400000033	-0.4413224552870906
-0.47962950884375033	-0.4443187569306554
-0.47956847368750033	-0.4473010778369431
-0.47950743853125033	-0.4502702080399876
-0.47944640337500033	-0.45322712487437783
-0.47938536821875033	-0.4561728600299032
-0.47932433306250033	-0.45910835612497797
-0.47926329790625033	-0.46203433276973527
-0.47920226275000033	-0.46495118078616526
-0.47914122759375033	-0.4678588979713444
-0.47908019243750033	-0.4707570749072869
-0.47901915728125033	-0.47364493464545865
-0.47895812212500033	-0.4765214187999291
-0.47889708696875033	-0.4793853065280142
-0.47883605181250033	-0.48223535621079067
-0.47877501665625033	-0.48507045446535246
-0.47871398150000033	-0.48788974943676433
-0.47865294634375033	-0.49069274963645776
-0.47859191118750033	-0.4934793780296315
-0.47853087603125033	-0.4962499749419736
-0.47846984087500033	-0.4990052467366495
-0.47840880571875033	-0.5017461661873347
-0.47834777056250033	-0.5044738405040943
-0.47828673540625033	-0.5071893652034042
-0.47822570025000033	-0.5098936790823916
-0.47816466509375033	-0.512587435604113
-0.47810362993750033	-0.5152709081995808
-0.47804259478125033	-0.5179439434552103
-0.47798155962500033	-0.5206059670966116
-0.47792052446875033	-0.5232560413536255
-0.47785948931250033	-0.5258929677569391
-0.47779845415625033	-0.5285154227982366
-0.47773741900000033	-0.5311221097504747
-0.47767638384375033	-0.5337119082302929
-0.47761534868750033	-0.5362840005892452
-0.47755431353125033	-0.5388379584100613
-0.47749327837500033	-0.5413737828223896
-0.47743224321875033	-0.5438918973902396
-0.47737120806250033	-0.5463930936693668
-0.47731017290625033	-0.5488784340557847
-0.47724913775000033	-0.5513491233969682
-0.47718810259375033	-0.5538063660426275
-0.47712706743750033	-0.5562512260499528
-0.47706603228125033	-0.5586845062100285
-0.47700499712500033	-0.5611066579199114
-0.47694396196875033	-0.5635177299903485
-0.47688292681250033	-0.5659173624107842
-0.47682189165625033	-0.5683048258983824
-0.47676085650000033	-0.5706790973537138
-0.47669982134375033	-0.5730389575590892
-0.47663878618750033	-0.5753831009518084
-0.47657775103125033	-0.5777102496321829
-0.47651671587500033	-0.5800192647703487
-0.47645568071875033	-0.5823092455127358
-0.47639464556250033	-0.5845796042728195
-0.47633361040625033	-0.5868301114351283
-0.47627257525000033	-0.5890609042776936
-0.47621154009375033	-0.5912724585131809
-0.47615050493750033	-0.5934655274296223
-0.47608946978125033	-0.5956410556368154
-0.47602843462500033	-0.5978000763737752
-0.47596739946875033	-0.5999436045136626
-0.47590636431250033	-0.6020725351327777
-0.47584532915625033	-0.6041875559768626
-0.47578429400000033	-0.606289084162077
-0.47572325884375033	-0.608377234436556
-0.47566222368750033	-0.6104518193625665
-0.47560118853125033	-0.6125123781266814
-0.47554015337500033	-0.6145582319623577
-0.47547911821875033	-0.616588562425365
-0.47541808306250033	-0.6186025010091474
-0.47535704790625033	-0.6205992167720155
-0.47529601275000033	-0.6225779937338832
-0.47523497759375033	-0.6245382913828105
-0.47517394243750033	-0.6264797825540042
-0.47511290728125033	-0.6284023666283831
-0.47505187212500033	-0.6303061581471547
-0.47499083696875033	-0.6321914528853261
-0.47492980181250033	-0.6340586761001162
-0.47486876665625033	-0.6359083190750461
-0.47480773150000033	-0.6377408707348039
-0.47474669634375033	-0.6395567518942469
-0.47468566118750033	-0.6413562605286244
-0.47462462603125033	-0.6431395344473847
-0.47456359087500033	-0.6449065330752591
-0.47450255571875033	-0.6466570391135873
-0.47444152056250033	-0.6483906822961998
-0.47438048540625033	-0.6501069823396647
-0.47431945025000033	-0.6518054020530639
-0.47425841509375033	-0.6534854039325703
-0.47419737993750033	-0.6551465064017414
-0.47413634478125033	-0.6567883338165875
-0.47407530962500033	-0.6584106537619357
-0.47401427446875033	-0.6600133975018899
-0.47395323931250033	-0.6615966615986536
-0.47389220415625033	-0.6631606907617837
-0.47383116900000033	-0.6647058440361727
-0.47377013384375033	-0.6662325475355082
-0.47370909868750033	-0.6677412397627752
-0.47364806353125033	-0.6692323178902213
-0.47358702837500033	-0.67070609082482
-0.47352599321875033	-0.6721627425392289
-0.47346495806250033	-0.6736023097131038
-0.47340392290625033	-0.675024676706147
-0.47334288775000033	-0.6764295872858918
-0.47328185259375033	-0.6778166706285318
-0.47322081743750033	-0.6791854791620726
-0.47315978228125033	-0.6805355344566157
-0.47309874712500033	-0.6818663758562262
-0.47303771196875033	-0.6831776055336848
-0.47297667681250033	-0.6844689237316157
-0.47291564165625033	-0.685740151377887
-0.47285460650000033	-0.686991239941841
-0.47279357134375033	-0.6882222677540548
-0.47273253618750033	-0.6894334228031578
-0.47267150103125033	-0.690624974774091
-0.47261046587500033	-0.691797240360995
-0.47254943071875033	-0.6929505458576103
-0.47248839556250033	-0.6940851906445262
-0.47242736040625033	-0.695201414706574
-0.47236632525000033	-0.696299373004463
-0.47230529009375033	-0.6973791192977318
-0.47224425493750033	-0.6984406008024932
-0.47218321978125033	-0.6994836630482594
-0.47212218462500033	-0.7005080639926897
-0.47206114946875033	-0.7015134963064776
-0.47200011431250033	-0.7024996156544534
-0.47193907915625033	-0.7034660726479737
-0.47187804400000033	-0.7044125451629807
-0.47181700884375033	-0.7053387668800356
-0.47175597368750033	-0.7062445496065662
-0.47169493853125033	-0.7071297982510244
-0.47163390337500033	-0.7079945169168583
-0.47157286821875033	-0.7088388049293615
-0.47151183306250033	-0.7096628433652817
-0.47145079790625033	-0.7104668734579146
-0.47138976275000033	-0.7112511673757433
-0.47132872759375033	-0.7120159923806937
-0.47126769243750033	-0.7127615726115997
-0.47120665728125033	-0.7134880549822764
-0.47114562212500033	-0.714195484211463
-0.47108458696875033	-0.7148837899674231
-0.47102355181250033	-0.7155527884698755
-0.47096251665625033	-0.7162021996634107
-0.47090148150000033	-0.7168316787086236
-0.47084044634375033	-0.7174408579823955
-0.47077941118750033	-0.7180293942703777
-0.47071837603125033	-0.7185970156994685
-0.47065734087500033	-0.7191435623819382
-0.47059630571875033	-0.7196690134105278
-0.47053527056250033	-0.7201734948553613
-0.47047423540625033	-0.720657268447176
-0.47041320025000033	-0.7211207026299399
-0.47035216509375033	-0.7215642274931369
-0.47029112993750033	-0.7219882774766638
