Time	Frequency
-0.5000072645312503	-0.6400165734475016
-0.49994622937500033	-0.6382793959191381
-0.49988519421875033	-0.636523480019966
-0.49982415906250033	-0.6347493055820183
-0.49976312390625033	-0.6329573029219676
-0.49970208875000033	-0.6311478330079974
-0.49964105359375033	-0.6293211720804575
-0.49958001843750033	-0.6274775011361641
-0.49951898328125033	-0.6256169004895333
-0.49945794812500033	-0.6237393497395739
-0.49939691296875033	-0.6218447328636941
-0.49933587781250033	-0.6199328481873959
-0.49927484265625033	-0.6180034226853208
-0.49921380750000033	-0.6160561297972652
-0.49915277234375033	-0.6140906101677553
-0.49909173718750033	-0.6121064937437803
-0.49903070203125033	-0.6101034217721613
-0.49896966687500033	-0.6080810684997713
-0.49890863171875033	-0.6060391614108133
-0.49884759656250033	-0.6039774977529044
-0.49878656140625033	-0.6018959563316931
-0.49872552625000033	-0.5997945051120313
-0.49866449109375033	-0.5976732045073718
-0.49860345593750033	-0.5955322052316554
-0.49854242078125033	-0.5933717411222391
-0.49848138562500033	-0.5911921185097821
-0.49842035046875033	-0.5889937027299518
-0.49835931531250033	-0.5867769015156316
-0.49829828015625033	-0.5845421455057555
-0.49823724500000033	-0.5822898675282159
-0.49817620984375033	-0.5800204825710271
-0.49811517468750033	-0.577734369283141
-0.49805413953125033	-0.5754318538556363
-0.49799310437500033	-0.5731131977030565
-0.49793206921875033	-0.5707785892476716
-0.49787103406250033	-0.5684281391318835
-0.49780999890625033	-0.5660618791951162
-0.49774896375000033	-0.5636797657160177
-0.49768792859375033	-0.5612816865543958
-0.49762689343750033	-0.5588674724178846
-0.49756585828125033	-0.5564369122796474
-0.49750482312500033	-0.5539897708140463
-0.49744378796875033	-0.5515258055682819
-0.49738275281250033	-0.5490447837948073
-0.49732171765625033	-0.54654649877544
-0.49726068250000033	-0.5440307838776058
-0.49719964734375033	-0.5414975237467611
-0.49713861218750033	-0.5389466626808469
-0.49707757703125033	-0.5363782095619375
-0.49701654187500033	-0.5337922398494717
-0.49695550671875033	-0.5311888945308063
-0.49689447156250033	-0.5285683748410447
-0.49683343640625033	-0.5259309327125502
-0.49677240125000033	-0.5232768580449582
-0.49671136609375033	-0.5206064652297027
-0.49665033093750033	-0.5179200800170759
-0.49658929578125033	-0.5152180255555815
-0.49652826062500033	-0.5125006079070209
-0.49646722546875033	-0.5097681023419139
-0.49640619031250033	-0.5070207419732431
-0.49634515515625033	-0.5042587103224777
-0.49628412000000033	-0.5014821374142114
-0.49622308484375033	-0.498691098509628
-0.49616204968750033	-0.49588561553532945
-0.49610101453125033	-0.49306566123934875
-0.49603997937500033	-0.4902311659691779
-0.49597894421875033	-0.48738202686266163
-0.49591790906250033	-0.4845181194601442
-0.49585687390625033	-0.48163931080400885
-0.49579583875000033	-0.4787454718239001
-0.49573480359375033	-0.4758364891855176
-0.49567376843750033	-0.4729122776308008
-0.49561273328125033	-0.4699727905960792
-0.49555169812500033	-0.46701802696140104
-0.49549066296875033	-0.46404803456921934
-0.49542962781250033	-0.461062911799056
-0.49536859265625033	-0.45806280739857336
-0.49530755750000033	-0.4550479173545415
-0.49524652234375033	-0.4520184777782472
-0.49518548718750033	-0.44897475445942037
-0.49512445203125033	-0.4459170308582748
-0.49506341687500033	-0.4428455962729336
-0.49500238171875033	-0.4397607347443913
-0.49494134656250033	-0.4366627142325269
-0.49488031140625033	-0.4335517757289972
-0.49481927625000033	-0.43042812309805334
-0.49475824109375033	-0.4272919154524893
-0.49469720593750033	-0.42414326341820463
-0.49463617078125033	-0.42098222883345765
-0.49457513562500033	-0.4178088263808609
-0.49451410046875033	-0.41462302720695476
-0.49445306531250033	-0.41142476527013244
-0.49439203015625033	-0.4082139460964394
-0.49433099500000033	-0.40499045759406804
-0.49426995984375033	-0.4017541821036462
-0.49420892468750033	-0.39850500839592645
-0.49414788953125033	-0.39524284287098005
-0.49408685437500033	-0.39196762017478176
-0.49402581921875033	-0.3886793134245082
-0.49396478406250033	-0.3853779420201007
-0.49390374890625033	-0.38206357528414997
-0.49384271375000033	-0.37873633309157223
-0.49378167859375033	-0.37539638460326213
-0.49372064343750033	-0.37204394497659177
-0.49365960828125033	-0.368679269677822
-0.49359857312500033	-0.36530264580891175
-0.49353753796875033	-0.361914381164148
-0.49347650281250033	-0.3585147922961228
-0.49341546765625033	-0.35510419199433646
-0.49335443250000033	-0.3516828771534327
-0.49329339734375033	-0.34825111794945196
-0.49323236218750033	-0.34480914847515254
-0.49317132703125033	-0.34135715957410967
-0.49311029187500033	-0.33789529430261556
-0.49304925671875033	-0.33442364527866353
-0.49298822156250033	-0.3309422544414785
-0.49292718640625033	-0.32745111641517044
-0.49286615125000033	-0.3239501849765489
-0.49280511609375033	-0.3204393820932395
-0.49274408093750033	-0.316918608908874
-0.49268304578125033	-0.31338775670278585
-0.49262201062500033	-0.30984671709935535
-0.49256097546875033	-0.30629539329588057
-0.49249994031250033	-0.3027337121698806
-0.49243890515625033	-0.29916163411978547
-0.49237787000000033	-0.2955791602227531
-0.49231683484375033	-0.2919863382904115
-0.49225579968750033	-0.28838326602232967
-0.49219476453125033	-0.2847700895665461
-0.49213372937500033	-0.2811469999643439
-0.49207269421875033	-0.2775142289027284
-0.49201165906250033	-0.27387204185034736
-0.49195062390625033	-0.270220728178399
-0.49188958875000033	-0.26656059020399975
-0.49182855359375033	-0.26289193215400736
-0.49176751843750033	-0.2592150485444266
-0.49170648328125033	-0.25553021279898736
-0.49164544812500033	-0.25183766782944367
-0.49158441296875033	-0.24813761897347286
-0.49152337781250033	-0.24443022947051266
-0.49146234265625033	-0.24071561792951143
-0.49140130750000033	-0.2369938574861667
-0.49134027234375033	-0.2332649776499537
-0.49127923718750033	-0.22952896925857133
-0.49121820203125033	-0.22578579261488033
-0.49115716687500033	-0.22203538740060672
-0.49109613171875033	-0.21827768233986625
-0.49103509656250033	-0.21451260501012048
-0.49097406140625033	-0.2107400924114193
-0.49091302625000033	-0.206960101801275
-0.49085199109375033	-0.20317262112120965
-0.49079095593750033	-0.19937767692555783
-0.49072992078125033	-0.19557533807973013
-0.49066888562500033	-0.19176571699615158
-0.49060785046875033	-0.18794896993403307
-0.49054681531250033	-0.18412529454358012
-0.49048578015625033	-0.180294924056107
-0.49042474500000033	-0.17645811965371974
-0.49036370984375033	-0.17261516152227427
-0.49030267468750033	-0.1687663388304279
-0.49024163953125033	-0.16491193876717186
-0.49018060437500033	-0.16105223553649278
-0.49011956921875033	-0.15718748162648913
-0.49005853406250033	-0.15331790082409094
-0.48999749890625033	-0.14944368109019063
-0.48993646375000033	-0.14556496874127928
-0.48987542859375033	-0.14168186582072576
-0.48981439343750033	-0.13779443098738273
-0.48975335828125033	-0.13390268361523672
-0.48969232312500033	-0.13000660979233963
-0.48963128796875033	-0.12610616952512593
-0.48957025281250033	-0.12220130552411278
-0.48950921765625033	-0.11829195323852937
-0.48944818250000033	-0.11437805162093576
-0.48938714734375033	-0.11045955434102085
-0.48932611218750033	-0.10653644023338514
-0.48926507703125033	-0.10260872157275965
-0.48920404187500033	-0.09867644991289376
-0.48914300671875033	-0.0947397197559152
-0.48908197156250033	-0.09079867010455062
-0.48902093640625033	-0.08685348356326825
-0.48895990125000033	-0.08290438263087346
-0.48889886609375033	-0.07895162324472645
-0.48883783093750033	-0.07499548623624298
-0.48877679578125033	-0.07103626751523757
-0.48871576062500033	-0.06707426742222064
-0.48865472546875033	-0.0631097800300963
-0.48859369031250033	-0.05914308277812641
-0.48853265515625033	-0.05517442621489735
-0.48847162000000033	-0.05120402518219894
-0.48841058484375033	-0.04723205322152871
-0.48834954968750033	-0.04325863988581203
-0.48828851453125033	-0.03928386972847366
-0.48822747937500033	-0.0353077832409361
-0.48816644421875033	-0.03133038144312788
-0.48810540906250033	-0.027351634232798867
-0.48804437390625033	-0.023371489798823954
-0.48798333875000033	-0.01938988376822744
-0.48792230359375033	-0.015406749705531967
-0.48786126843750033	-0.011422031323619705
-0.48780023328125033	-0.007435694206268114
-0.48773919812500033	-0.00344773546954819
-0.48767816296875033	0.0005418085125293124
-0.48761712781250033	0.0045328569639436714
-0.48755609265625033	0.00852528300557723
-0.48749505750000033	0.012518914079422936
-0.48743402234375033	0.0165135344213692
-0.48737298718750033	0.020508891378444593
-0.48731195203125033	0.024504704572114063
-0.48725091687500033	0.02850067595191835
-0.48718988171875033	0.03249650038450727
-0.48712884656250033	0.03649187665658896
-0.48706781140625033	0.0404865188755395
-0.48700677625000033	0.04448016750742563
-0.48694574109375033	0.04847259865446594
-0.48688470593750033	0.05246363075611752
-0.48682367078125033	0.05645312818531957
-0.48676263562500033	0.060441001903174835
-0.48670160046875033	0.06442720785329702
-0.48664056531250033	0.06841174311153005
-0.48657953015625033	0.07239463918331993
-0.48651849500000033	0.07637595222826175
-0.48645745984375033	0.08035575150467185
-0.48639642468750033	0.08433410764505771
-0.48633538953125033	0.08831108101769791
-0.48627435437500033	0.09228671026664025
-0.48621331921875033	0.09626100192830593
-0.48615228406250033	0.10023392225082031
-0.48609124890625033	0.10420539213056583
-0.48603021375000033	0.10817528525900177
-0.48596917859375033	0.11214342831898023
-0.48590814343750033	0.11610960343738136
-0.48584710828125033	0.12007355461243778
-0.48578607312500033	0.12403499664918657
-0.48572503796875033	0.1279936245750972
-0.48566400281250033	0.13194912464309747
-0.48560296765625033	0.1359011870105164
-0.48554193250000033	0.13984951860294625
-0.48548089734375033	0.1437938550450355
-0.48541986218750033	0.14773396997623556
-0.48535882703125033	0.15166968079507787
-0.48529779187500033	0.15560085160120016
-0.48523675671875033	0.15952739379167316
-0.48517572156250033	0.16344926461100145
-0.48511468640625033	0.16736646350092063
-0.48505365125000033	0.17127902457737568
-0.48499261609375033	0.1751870059360987
-0.48493158093750033	0.17909047850727358
-0.48487054578125033	0.18298951442013706
-0.48480951062500033	0.18688417428113177
-0.48474847546875033	0.19077449522020043
-0.48468744031250033	0.1946604815494493
-0.48462640515625033	0.19854209787189114
-0.48456537000000033	0.20241926413423642
-0.48450433484375033	0.20629185289753407
-0.48444329968750033	0.2101596896429606
-0.48438226453125033	0.21402255690810448
-0.48432122937500033	0.2178802015057874
-0.48426019421875033	0.22173234364536193
-0.48419915906250033	0.2255786876361528
-0.48413812390625033	0.22941893357728244
-0.48407708875000033	0.23325278887573173
-0.48401605359375033	0.23707997858661617
-0.48395501843750033	0.24090025488399866
-0.48389398328125033	0.24471340576190037
-0.48383294812500033	0.248519261613571
-0.48377191296875033	0.25231769883829697
-0.48371087781250033	0.25610864017820556
-0.48364984265625033	0.25989205184459035
-0.48358880750000033	0.26366793764662616
-0.48352777234375033	0.26743633063261507
-0.48346673718750033	0.2711972836594831
-0.48340570203125033	0.2749508592574635
-0.48334466687500033	0.278697118614007
-0.48328363171875033	0.28243611006659197
-0.48322259656250033	0.2861678578406753
-0.48316156140625033	0.28989235301133687
-0.48310052625000033	0.2936095474451014
-0.48303949109375033	0.297319349651892
-0.48297845593750033	0.3010216228729304
-0.48291742078125033	0.30471618645022985
-0.48285638562500033	0.30840282031993144
-0.48279535046875033	0.3120812719962195
-0.48273431531250033	0.31575126550974897
-0.48267328015625033	0.3194125115185714
-0.48261224500000033	0.3230647181982373
-0.48255120984375033	0.32670760280801203
-0.48249017468750033	0.33034090280525885
-0.48242913953125033	0.33396438519003024
-0.48236810437500033	0.3375778541109313
-0.48230706921875033	0.34118115653474396
-0.48224603406250033	0.34477418501832247
-0.48218499890625033	0.3483568775877464
-0.48212396375000033	0.35192921486280443
-0.48206292859375033	0.3554912144429434
-0.48200189343750033	0.3590429234599478
-0.48194085828125033	0.3625844098903916
-0.48187982312500033	0.36611575210210795
-0.48181878796875033	0.3696370268181886
-0.48175775281250033	0.3731482970075198
-0.48169671765625033	0.37664960048223534
-0.48163568250000033	0.38014094001505966
-0.48157464734375033	0.38362227648205194
-0.48151361218750033	0.3870935248094231
-0.48145257703125033	0.3905545522566856
-0.48139154187500033	0.39400517971240884
-0.48133050671875033	0.39744518562742437
-0.48126947156250033	0.40087431234087106
-0.48120843640625033	0.40429227518725436
-0.48114740125000033	0.4076987732126779
-0.48108636609375033	0.4110935008453971
-0.48102533093750033	0.4144761608546586
-0.48096429578125033	0.4178464769219648
-0.48090326062500033	0.42120420439681133
-0.48084222546875033	0.424549139524599
-0.48078119031250033	0.4278811263484592
-0.48072015515625033	0.4312000605157673
-0.48065912000000033	0.43450589034537984
-0.48059808484375033	0.437798614487674
-0.48053704968750033	0.44107827593972976
-0.48047601453125033	0.4443449537401473
-0.48041497937500033	0.4475987523708483
-0.48035394421875033	0.4508397885964421
-0.48029290906250033	0.4540681775157864
-0.48023187390625033	0.4572840194500662
-0.48017083875000033	0.4604873877909976
-0.48010980359375033	0.4636783176032726
-0.48004876843750033	0.46685679551939563
-0.47998773328125033	0.47002275275717376
-0.47992669812500033	0.47317606274169544
-0.47986566296875033	0.47631654269777873
-0.47980462781250033	0.47944395789205824
-0.47974359265625033	0.4825580283360637
-0.47968255750000033	0.4856584386289302
-0.47962152234375033	0.4887448508619434
-0.47956048718750033	0.49181691906268266
-0.47949945203125033	0.49487430415027894
-0.47943841687500033	0.4979166892532871
-0.47937738171875033	0.5009437940951013
-0.47931634656250033	0.503955386832859
-0.47925531140625033	0.5069512930298095
-0.47919427625000033	0.5099314017174416
-0.47913324109375033	0.5128956680584214
-0.47907220593750033	0.5158441120665191
-0.47901117078125033	0.518776813321263
-0.47895013562500033	0.5216939020289171
-0.47888910046875033	0.524595546437035
-0.47882806531250033	0.5274819373894961
-0.47876703015625033	0.5303532718893338
-0.47870599500000033	0.5332097364195368
-0.47864495984375033	0.5360514902213828
-0.47858392468750033	0.5388786496061969
-0.47852288953125033	0.5416912745466858
-0.47846185437500033	0.5444893584084473
-0.47840081921875033	0.5472728213546196
-0.47833978406250033	0.550041508145575
-0.47827874890625033	0.5527951906108541
-0.47821771375000033	0.5555335742015194
-0.47815667859375033	0.5582563083890819
-0.47809564343750033	0.5609630007240669
-0.47803460828125033	0.5636532337596802
-0.47797357312500033	0.5663265837222723
-0.47791253796875033	0.5689826398630918
-0.47785150281250033	0.5716210237537855
-0.47779046765625033	0.5742414072651689
-0.47772943250000033	0.5768435276335881
-0.47766839734375033	0.5794271989524319
-0.47760736218750033	0.5819923199206056
-0.47754632703125033	0.5845388771683726
-0.47748529187500033	0.5870669435081735
-0.47742425671875033	0.5895766710990209
-0.47736322156250033	0.5920682797644156
-0.47730218640625033	0.5945420413844469
-0.47724115125000033	0.5969982614499866
-0.47718011609375033	0.5994372581786629
-0.47711908093750033	0.6018593402137473
-0.47705804578125033	0.6042647846018128
-0.47699701062500033	0.6066538161430896
-0.47693597546875033	0.609026589122947
-0.47687494031250033	0.6113831728502759
-0.47681390515625033	0.6137235417498602
-0.47675287000000033	0.6160475703782796
-0.47669183484375033	0.618355034029628
-0.47663079968750033	0.6206456147058834
-0.47656976453125033	0.6229189118568259
-0.47650872937500033	0.6251744580320072
-0.47644769421875033	0.627411739073573
-0.47638665906250033	0.6296302172432877
-0.47632562390625033	0.6318293556588793
-0.47626458875000033	0.634008643397644
-0.47620355359375033	0.6361676202102162
-0.47614251843750033	0.6383058987427326
-0.47608148328125033	0.6404231830987394
-0.47602044812500033	0.6425192831777334
-0.47595941296875033	0.644594123708351
-0.47589837781250033	0.6466477473127275
-0.47583734265625033	0.6486803114963113
-0.47577630750000033	0.6506920796196513
-0.47571527234375033	0.652683406219196
-0.47565423718750033	0.6546547173150872
-0.47559320203125033	0.6566064866687666
-0.47553216687500033	0.6585392092847921
-0.47547113171875033	0.6604533734003025
-0.47541009656250033	0.6623494323211363
-0.47534906140625033	0.6642277776944494
-0.47528802625000033	0.6660887154003254
-0.47522699109375033	0.6679324450119888
-0.47516595593750033	0.6697590440358265
-0.47510492078125033	0.6715684579218614
-0.47504388562500033	0.6733604963891421
-0.47498285046875033	0.6751348363284634
-0.47492181531250033	0.6768910311495596
-0.47486078015625033	0.6786285263007663
-0.47479974500000033	0.6803466804065594
-0.47473870984375033	0.6820447908709972
-0.47467767468750033	0.6837221229037755
-0.47461663953125033	0.6853779411209715
-0.47455560437500033	0.6870115422512967
-0.47449456921875033	0.6886222870816509
-0.47443353406250033	0.6902096303112003
-0.47437249890625033	0.6917731472660424
-0.47431146375000033	0.6933125558192542
-0.47425042859375033	0.6948277317892226
-0.47418939343750033	0.6963187169380292
-0.47412835828125033	0.6977857191212139
-0.47406732312500033	0.6992291041315275
-0.47400628796875033	0.7006493791354297
-0.47394525281250033	0.7020471682294495
-0.47388421765625033	0.7034231812686118
-0.47382318250000033	0.7047781775427692
-0.47376214734375033	0.7061129259707272
-0.47370111218750033	0.7074281636347347
-0.47364007703125033	0.7087245548161616
-0.47357904187500033	0.7100026528481064
-0.47351800671875033	0.711262867017122
-0.47345697156250033	0.7125054365036119
-0.47339593640625033	0.7137304129591283
-0.47333490125000033	0.7149376528520482
-0.47327386609375033	0.7161268202137528
-0.47321283093750033	0.7172973998849804
-0.47315179578125033	0.7184487207668075
-0.47309076062500033	0.7195799879572502
-0.47302972546875033	0.7206903221287451
-0.47296869031250033	0.7217788041213281
-0.47290765515625033	0.7228445224054284
-0.47284662000000033	0.7238866207728509
-0.47278558484375033	0.7249043434868129
-0.47272454968750033	0.7258970752841842
-0.47266351453125033	0.7268643740064149
-0.47260247937500033	0.727805994028125
-0.47254144421875033	0.7287218989888056
-0.47248040906250033	0.7296122628817454
-0.47241937390625033	0.7304774593578294
-0.47235833875000033	0.7313180397727292
-0.47229730359375033	0.7321347010095455
-0.47223626843750033	0.732928244736492
-0.47217523328125033	0.7336995304388065
-0.47211419812500033	0.7344494249556504
-0.47205316296875033	0.7351787512899712
-0.47199212781250033	0.7358882395143698
-0.47193109265625033	0.7365784826392214
-0.47187005750000033	0.7372499000736423
-0.47180902234375033	0.7379027108881153
-0.47174798718750033	0.7385369184492455
-0.47168695203125033	0.7391523073353704
-0.47162591687500033	0.7397484528172338
-0.47156488171875033	0.7403247425461126
-0.47150384656250033	0.7408804094739888
-0.47144281140625033	0.7414145741827204
-0.47138177625000033	0.7419262940428976
-0.47132074109375033	0.7424146162268989
-0.47125970593750033	0.7428786316318677
-0.47119867078125033	0.7433175269633132
-0.47113763562500033	0.7437306318678197
-0.47107660046875033	0.7441174578395596
-0.47101556531250033	0.7444777265205446
-0.47095453015625033	0.7448113861630616
-0.47089349500000033	0.7451186154608895
-0.47083245984375033	0.7453998140794154
-0.47077142468750033	0.7456555800089162
-0.47071038953125033	0.7458866750372026
-0.47064935437500033	0.7460939804620529
-0.47058831921875033	0.7462784457685574
-0.47052728406250033	0.7464410331952966
-0.47046624890625033	0.7465826610566232
-0.47040521375000033	0.7467041492169795
-0.47034417859375033	0.7468061703206765
-0.47028314343750033	0.7468892095581566
-0.47022210828125033	0.7469535350228926
-0.47016107312500033	0.7469991805007479
