Time	Frequency
-0.5000046863750001	0.6650125821816072
-0.49994365121875006	0.6649405157995594
-0.49988261606250006	0.6648533137702001
-0.49982158090625006	0.6647510135703323
-0.49976054575000006	0.66463355532258
-0.49969951059375006	0.6645007972055081
-0.49963847543750006	0.6643525575587479
-0.49957744028125006	0.6641886696423374
-0.49951640512500006	0.6640090307808771
-0.49945536996875006	0.6638136330419481
-0.49939433481250006	0.6636025670103924
-0.49933329965625006	0.6633759957605665
-0.49927226450000006	0.6631341046968996
-0.49921122934375006	0.6628770428765676
-0.49915019418750006	0.6626048773745197
-0.49908915903125006	0.6623175736543949
-0.49902812387500006	0.662015006975923
-0.49896708871875006	0.6616970049665066
-0.49890605356250006	0.6613634064128898
-0.49884501840625006	0.6610141135412203
-0.49878398325000006	0.6606491217667023
-0.49872294809375006	0.6602685215210877
-0.49866191293750006	0.6598724731129539
-0.49860087778125006	0.6594611580235936
-0.49853984262500006	0.6590347202495689
-0.49847880746875006	0.6585932195236591
-0.49841777231250006	0.6581366124405238
-0.49835673715625006	0.6576647674661278
-0.49829570200000006	0.6571775089008898
-0.49823466684375006	0.6566746743874036
-0.49817363168750006	0.6561561696562548
-0.49811259653125006	0.6556220057494055
-0.49805156137500006	0.6550723023522987
-0.49799052621875006	0.6545072529478593
-0.49792949106250006	0.6539270671043724
-0.49786845590625006	0.6533319089221438
-0.49780742075000006	0.6527218457954922
-0.49774638559375006	0.6520968237916516
-0.49768535043750006	0.6514566828234432
-0.49762431528125006	0.6508012082336075
-0.49756328012500006	0.6501302026320969
-0.49750224496875006	0.649443553948578
-0.49744120981250006	0.6487412751402444
-0.49738017465625006	0.6480235065821585
-0.49731913950000006	0.6472904828955789
-0.49725810434375006	0.6465424689391654
-0.49719706918750006	0.6457796809104326
-0.49713603403125006	0.6450022179087467
-0.49707499887500006	0.6442100277796639
-0.49701396371875006	0.6434029218775151
-0.49695292856250006	0.6425806366389937
-0.49689189340625006	0.6417429232199593
-0.49683085825000006	0.6408896356142035
-0.49676982309375006	0.6400207844033744
-0.49670878793750006	0.6391365389518
-0.49664775278125006	0.6382371815780908
-0.49658671762500006	0.637323025076538
-0.49652568246875006	0.6363943171388188
-0.49646464731250006	0.6354511659928761
-0.49640361215625006	0.634493511215916
-0.49634257700000006	0.6335211471341593
-0.49628154184375006	0.6325337930349376
-0.49622050668750006	0.631531189288236
-0.49615947153125006	0.630513187597807
-0.49609843637500006	0.629479805734689
-0.49603740121875006	0.6284312297211181
-0.49597636606250006	0.6273677632969271
-0.49591533090625006	0.6262897389403571
-0.49585429575000006	0.6251974150390223
-0.49579326059375006	0.624090895352368
-0.49573222543750006	0.6229701026037139
-0.49567119028125006	0.6218348133854735
-0.49561015512500006	0.6206847396225351
-0.49554911996875006	0.6195196264541784
-0.49548808481250006	0.6183393367780482
-0.49542704965625006	0.6171439034553
-0.49536601450000006	0.6159335308135643
-0.49530497934375006	0.6147085398964593
-0.49524394418750006	0.6134692747399344
-0.49518290903125006	0.612215996343687
-0.49512187387500006	0.6109488003740795
-0.49506083871875006	0.6096675897255736
-0.49499980356250006	0.608372109641326
-0.49493876840625006	0.6070620372271869
-0.49487773325000006	0.6057370976798158
-0.49481669809375006	0.6043971647049986
-0.49475566293750006	0.603042312430204
-0.49469462778125006	0.6016728040220259
-0.49463359262500006	0.6002890183624576
-0.49457255746875006	0.5988913369075695
-0.49451152231250006	0.5974800300435129
-0.49445048715625006	0.596055178274307
-0.49438945200000006	0.594616651727748
-0.49432841684375006	0.5931641593486751
-0.49426738168750006	0.5916973524742208
-0.49420634653125006	0.5902159444578824
-0.49414531137500006	0.5887198078686192
-0.49408427621875006	0.5872090231843913
-0.49402324106250006	0.5856838647173261
-0.49396220590625006	0.5841447246042971
-0.49390117075000006	0.5825920001878508
-0.49384013559375006	0.5810259826350057
-0.49377910043750006	0.5794467781779375
-0.49371806528125006	0.5778542863918348
-0.49365703012500006	0.5762482454884282
-0.49359599496875006	0.5746283261864795
-0.49353495981250006	0.5729942388585626
-0.49347392465625006	0.5713458252965367
-0.49341288950000006	0.5696831135111495
-0.49335185434375006	0.5680063192131735
-0.49329081918750006	0.5663157938515448
-0.49322978403125006	0.5646119319671864
-0.49316874887500006	0.5628950613323149
-0.49310771371875006	0.5611653537394512
-0.49304667856250006	0.5594227881999767
-0.49298564340625006	0.5576671730520238
-0.49292460825000006	0.555898215326673
-0.49286357309375006	0.5541156192594202
-0.49280253793750006	0.5523191903405008
-0.49274150278125006	0.5505089098206897
-0.49268046762500006	0.5486849485332693
-0.49261943246875006	0.5468476191389101
-0.49255839731250006	0.5449972880035934
-0.49249736215625006	0.5431342729783509
-0.49243632700000006	0.5412587565943476
-0.49237529184375006	0.5393707443370632
-0.49231425668750006	0.5374700847478284
-0.49225322153125006	0.5355565381073385
-0.49219218637500006	0.5336298639657506
-0.49213115121875006	0.5316899055410925
-0.49207011606250006	0.5297366505603933
-0.49200908090625006	0.5277702468480808
-0.49194804575000006	0.5257909654262873
-0.49188701059375006	0.5237991241157702
-0.49182597543750006	0.5217949972282198
-0.49176494028125006	0.5197787425507417
-0.49170390512500006	0.5177503703271714
-0.49164286996875006	0.5157097582763162
-0.49158183481250006	0.5136567061042484
-0.49152079965625006	0.5115910169999569
-0.49145976450000006	0.5095125759163655
-0.49139872934375006	0.5074213971906238
-0.49133769418750006	0.5053176323982463
-0.49127665903125006	0.5032015358766232
-0.49121562387500006	0.501073397278248
-0.49115458871875006	0.49893346503429914
-0.49109355356250006	0.49678188228378783
-0.49103251840625006	0.49461865140348843
-0.49097148325000006	0.4924436454927824
-0.49091044809375006	0.4902566682811503
-0.49084941293750006	0.4880575345730345
-0.49078837778125006	0.4858461428597426
-0.49072734262500006	0.4836225218999559
-0.49066630746875006	0.48138683640951496
-0.49060527231250006	0.4791393516867064
-0.49054423715625006	0.47688036787121285
-0.49048320200000006	0.474610137597213
-0.49042216684375006	0.47232879529413785
-0.49036113168750006	0.4700363318006416
-0.49030009653125006	0.4677326211229191
-0.49023906137500006	0.4654174795676136
-0.49017802621875006	0.4630907366173484
-0.49011699106250006	0.4607523010150157
-0.49005595590625006	0.45840220756066963
-0.48999492075000006	0.4560406278229716
-0.48993388559375006	0.4536678285558431
-0.48987285043750006	0.45128409065959463
-0.48981181528125006	0.4488896307349352
-0.48975078012500006	0.44648455456191133
-0.48968974496875006	0.4440688465507165
-0.48962870981250006	0.4416423956923002
-0.48956767465625006	0.43920505318592523
-0.48950663950000006	0.4367567001573502
-0.48944560434375006	0.4342973039667703
-0.48938456918750006	0.43182695008844196
-0.48932353403125006	0.42934583278115207
-0.48926249887500006	0.426854200588089
-0.48920146371875006	0.4243522794083479
-0.48914042856250006	0.42184020621874735
-0.48907939340625006	0.41931800441911093
-0.48901835825000006	0.41678560618896404
-0.48895732309375006	0.41424290060881236
-0.48889628793750006	0.4116897913395728
-0.48883525278125006	0.4091262501779514
-0.48877421762500006	0.40655234838559284
-0.48871318246875006	0.4039682558511703
-0.48865214731250006	0.4013742046361876
-0.48859111215625006	0.398770423941873
-0.48853007700000006	0.39615707269212447
-0.48846904184375006	0.3935342000823019
-0.48840800668750006	0.39090174921040227
-0.48834697153125006	0.3882595992103428
-0.48828593637500006	0.3856076277428284
-0.48822490121875006	0.38294577452308826
-0.48816386606250006	0.38027408617129055
-0.48810283090625006	0.37759272264789023
-0.48804179575000006	0.3749019255182005
-0.48798076059375006	0.37220196001337186
-0.48791972543750006	0.3694930419343304
-0.48785869028125006	0.3667752791957005
-0.48779765512500006	0.36404865722388297
-0.48773661996875006	0.36131306792146056
-0.48767558481250006	0.3585683658632982
-0.48761454965625006	0.35581443425450376
-0.48755351450000006	0.35305124530125626
-0.48749247934375006	0.35027889255257955
-0.48743144418750006	0.34749757847978974
-0.48737040903125006	0.34470757140471836
-0.48730937387500006	0.3419091460293239
-0.48724833871875006	0.3391025104255224
-0.48718730356250006	0.33628774881587115
-0.48712626840625006	0.3334648141067604
-0.48706523325000006	0.3306335676811396
-0.48700419809375006	0.3277938469650175
-0.48694316293750006	0.32494554303591405
-0.48688212778125006	0.32208866341343684
-0.48682109262500006	0.3192233555712101
-0.48676005746875006	0.3163498860869695
-0.48669902231250006	0.31346858073573114
-0.48663798715625006	0.3105797341461482
-0.48657695200000006	0.3076835225680336
-0.48651591684375006	0.304779959202917
-0.48645488168750006	0.3018689035785208
-0.48639384653125006	0.29895012532547055
-0.48633281137500006	0.2960234086221314
-0.48627177621875006	0.2930886545553379
-0.48621074106250006	0.2901459416649682
-0.48614970590625006	0.2871955257818009
-0.48608867075000006	0.28423777672312817
-0.48602763559375006	0.2812730751744428
-0.48596660043750006	0.27830170723693054
-0.48590556528125006	0.27532378665263685
-0.48584453012500006	0.2723392301290437
-0.48578349496875006	0.269347801460405
-0.48572245981250006	0.26634921250969806
-0.48566142465625006	0.2633432438187455
-0.48560038950000006	0.26032984052834773
-0.48553935434375006	0.2573091551015344
-0.48547831918750006	0.2542815270284504
-0.48541728403125006	0.25124739787021844
-0.48535624887500006	0.24820718759606997
-0.48529521371875006	0.24516118197222417
-0.48523417856250006	0.24210945937180856
-0.48517314340625006	0.23905187306599898
-0.48511210825000006	0.23598811154577726
-0.48505107309375006	0.232917822793022
-0.48499003793750006	0.2298407536421815
-0.48492900278125006	0.22675686297399164
-0.48486796762500006	0.2236663721135076
-0.48480693246875006	0.22056972462762112
-0.48474589731250006	0.21746746698295516
-0.48468486215625006	0.2143600975951792
-0.48462382700000006	0.21124792943388365
-0.48456279184375006	0.20813100258574566
-0.48450175668750006	0.205009080949589
-0.48444072153125006	0.20188173966456713
-0.48437968637500006	0.19874851636239638
-0.48431865121875006	0.19560908328998497
-0.48425761606250006	0.19246338715352537
-0.48419658090625006	0.18931170337427378
-0.48413554575000006	0.1861545826801781
-0.48407451059375006	0.18299271436489725
-0.48401347543750006	0.17982674639699114
-0.48395244028125006	0.17665710185742972
-0.48389140512500006	0.17348384911549364
-0.48383036996875006	0.17030668228593712
-0.48376933481250006	0.16712502472537283
-0.48370829965625006	0.163938221547598
-0.48364726450000006	0.16074575901280025
-0.48358622934375006	0.15754744469781531
-0.48352519418750006	0.1543434988831933
-0.48346415903125006	0.15113452832113433
-0.48340312387500006	0.14792138802057556
-0.48334208871875006	0.144704977937216
-0.48328105356250006	0.14148603569032894
-0.48322001840625006	0.13826497385111833
-0.48315898325000006	0.13504179897237603
-0.48309794809375006	0.13181613711837625
-0.48303691293750006	0.12858734771577135
-0.48297587778125006	0.12535467525638894
-0.48291484262500006	0.12211740886298922
-0.48285380746875006	0.11887503607281999
-0.48279277231250006	0.11562736932462794
-0.48273173715625006	0.11237461548325325
-0.48267070200000006	0.10911735384194517
-0.48260966684375006	0.10585641460262282
-0.48254863168750006	0.10259269420982448
-0.48248759653125006	0.09932695820351478
-0.48242656137500006	0.0960596796964514
-0.48236552621875006	0.09279095281572368
-0.48230449106250006	0.08952050284467399
-0.48224345590625006	0.0862477942987221
-0.48218242075000006	0.08297220561767639
-0.48212138559375006	0.07969322065763772
-0.48206035043750006	0.07641058902333743
-0.48199931528125006	0.07312440624915524
-0.48193828012500006	0.06983508873913168
-0.48187724496875006	0.06654326150072479
-0.48181620981250006	0.06324959407815707
-0.48175517465625006	0.05995462545403713
-0.48169413950000006	0.056658628947123285
-0.48163310434375006	0.05336156011631972
-0.48157206918750006	0.050063103605537104
-0.48151103403125006	0.04676280530600323
-0.48144999887500006	0.043460243391965095
-0.48138896371875006	0.040155176345360366
-0.48132792856250006	0.03684763164128847
-0.48126689340625006	0.033537919929221706
-0.48120585825000006	0.03022655791105457
-0.48114482309375006	0.026914118486064308
-0.48108378793750006	0.023601073750188196
-0.48102275278125006	0.020287681316444893
-0.48096171762500006	0.016973934598442823
-0.48090068246875006	0.013659594647221126
-0.48083964731250006	0.01034429633090367
-0.48077861215625006	0.007027688374054671
-0.48071757700000006	0.0037095617704072568
-0.48065654184375006	0.0003899304236886085
-0.48059550668750006	-0.002930952339299797
-0.48053447153125006	-0.0062526443407076755
-0.48047343637500006	-0.009574630518388612
-0.48041240121875006	-0.01289646583299836
-0.48035136606250006	-0.016217880833678006
-0.48029033090625006	-0.019538825773416924
-0.48022929575000006	-0.02285945710565483
-0.48016826059375006	-0.02618006396776165
-0.48010722543750006	-0.02950095511939232
-0.48004619028125006	-0.03282234646600343
-0.47998515512500006	-0.03614427708312723
-0.47992411996875006	-0.03946657519480892
-0.47986308481250006	-0.042788890798264166
-0.47980204965625006	-0.04611078629892797
-0.47974101450000006	-0.04943185358023182
-0.47967997934375006	-0.05275181934087764
-0.47961894418750006	-0.05607060092828829
-0.47955790903125006	-0.059388293033287715
-0.47949687387500006	-0.06270509506024256
-0.47943583871875006	-0.06602121274481355
-0.47937480356250006	-0.06933677134311618
-0.47931376840625006	-0.07265175255747455
-0.47925273325000006	-0.07596596726066857
-0.47919169809375006	-0.07927909633486328
-0.47913066293750006	-0.08259079156141867
-0.47906962778125006	-0.08590078393119915
-0.47900859262500006	-0.08920895798175592
-0.47894755746875006	-0.09251536528222219
-0.47888652231250006	-0.09582017232389467
-0.47882548715625006	-0.09912356558200716
-0.47876445200000006	-0.10242564615315977
-0.47870341684375006	-0.10572635532441424
-0.47864238168750006	-0.10902546448562736
-0.47858134653125006	-0.1123226330230121
-0.47852031137500006	-0.11561750688924072
-0.47845927621875006	-0.11890981525275209
-0.47839824106250006	-0.12219943243476507
-0.47833720590625006	-0.12548638826230243
-0.47827617075000006	-0.12877082783570182
-0.47821513559375006	-0.13205294012731972
-0.47815410043750006	-0.1353328773396825
-0.47809306528125006	-0.13861068560983694
-0.47803203012500006	-0.14188626955317768
-0.47797099496875006	-0.1451594028366987
-0.47790995981250006	-0.14842977867894114
-0.47784892465625006	-0.15169707922000328
-0.47778788950000006	-0.15496103759748817
-0.47772685434375006	-0.15822147981030915
-0.47766581918750006	-0.16147834755331408
-0.47760478403125006	-0.16473169519326966
-0.47754374887500006	-0.16798165182690208
-0.47748271371875006	-0.1712283625557844
-0.47742167856250006	-0.17447193463852054
-0.47736064340625006	-0.17771239813172937
-0.47729960825000006	-0.18094967676456356
-0.47723857309375006	-0.18418357777586
-0.47717753793750006	-0.187413817490989
-0.47711650278125006	-0.1906400740135264
-0.47705546762500006	-0.19386204703655693
-0.47699443246875006	-0.19707951824011175
-0.47693339731250006	-0.2002923987756596
-0.47687236215625006	-0.20350073783036335
-0.47681132700000006	-0.2067046861149373
-0.47675029184375006	-0.2099044350183418
-0.47668925668750006	-0.21310014960806903
-0.47662822153125006	-0.21629190138849416
-0.47656718637500006	-0.219479616302845
-0.47650615121875006	-0.22266306775612343
-0.47644511606250006	-0.22584192500688396
-0.47638408090625006	-0.2290158315123177
-0.47632304575000006	-0.23218448455324103
-0.47626201059375006	-0.23534769953130003
-0.47620097543750006	-0.23850543610437788
-0.47613994028125006	-0.24165777308974135
-0.47607890512500006	-0.2448048516552389
-0.47601786996875006	-0.24794681024564735
-0.47595683481250006	-0.2510837251245756
-0.47589579965625006	-0.25421557448912213
-0.47583476450000006	-0.25734223562352143
-0.47577372934375006	-0.26046351424161174
-0.47571269418750006	-0.26357919578179895
-0.47565165903125006	-0.2666890897647325
-0.47559062387500006	-0.2697930479727835
-0.47552958871875006	-0.272890966003288
-0.47546855356250006	-0.2759827782908996
-0.47540751840625006	-0.2790684451718511
-0.47534648325000006	-0.28214793472045496
-0.47528544809375006	-0.2852212073411976
-0.47522441293750006	-0.28828821080249184
-0.47516337778125006	-0.2913488883075069
-0.47510234262500006	-0.29440319262483094
-0.47504130746875006	-0.29745109494096406
-0.47498027231250006	-0.30049257707455157
-0.47491923715625006	-0.3035276070336059
-0.47485820200000006	-0.30655611284386963
-0.47479716684375006	-0.3095779689431918
-0.47473613168750006	-0.31259300345538565
-0.47467509653125006	-0.3156010244804196
-0.47461406137500006	-0.3186018531534713
-0.47455302621875006	-0.3215953556514587
-0.47449199106250006	-0.3245814669711709
-0.47443095590625006	-0.3275601931473803
-0.47436992075000006	-0.3305315895309411
-0.47430888559375006	-0.33349572620462664
-0.47424785043750006	-0.33645264893243276
-0.47418681528125006	-0.3394023414053742
-0.47412578012500006	-0.3423447022743454
-0.47406474496875006	-0.345279550934145
-0.47400370981250006	-0.348206662909913
-0.47394267465625006	-0.3511258226655564
-0.47388163950000006	-0.3540368727072044
-0.47382060434375006	-0.3569397417492236
-0.47375956918750006	-0.35983444383093705
-0.47369853403125006	-0.36272104631902674
-0.47363749887500006	-0.365599619459192
-0.47357646371875006	-0.3684701858087927
-0.47351542856250006	-0.3713326846609461
-0.47345439340625006	-0.3741869675234492
-0.47339335825000006	-0.37703282890035944
-0.47333232309375006	-0.37987005738468893
-0.47327128793750006	-0.3826984856829302
-0.47321025278125006	-0.38551802476671143
-0.47314921762500006	-0.38832867271250593
-0.47308818246875006	-0.3911304906432357
-0.47302714731250006	-0.3939235506860344
-0.47296611215625006	-0.39670788080406577
-0.47290507700000006	-0.39948343333933034
-0.47284404184375006	-0.4022500858155587
-0.47278300668750006	-0.4050076670886348
-0.47272197153125006	-0.40775599634053716
-0.47266093637500006	-0.4104949233470522
-0.47259990121875006	-0.4132243572177207
-0.47253886606250006	-0.41594426906434945
-0.47247783090625006	-0.41865466656101735
-0.47241679575000006	-0.42135555533075764
-0.47235576059375006	-0.42404690656910243
-0.47229472543750006	-0.42672864336633676
-0.47223369028125006	-0.4294006493648226
-0.47217265512500006	-0.4320627973880798
-0.47211161996875006	-0.4347149856558909
-0.47205058481250006	-0.4373571585291551
-0.47198954965625006	-0.43998930276125636
-0.47192851450000006	-0.4426114302165748
-0.47186747934375006	-0.4452235487591522
-0.47180644418750006	-0.44782562384740543
-0.47174540903125006	-0.45041755198461475
-0.47168437387500006	-0.45299916355938696
-0.47162333871875006	-0.4555702572007122
-0.47156230356250006	-0.4581306523450847
-0.47150126840625006	-0.4606802375936225
-0.47144023325000006	-0.4632189943179332
-0.47137919809375006	-0.4657469836454083
-0.47131816293750006	-0.4682643061385595
-0.47125712778125006	-0.47077105019782867
-0.47119609262500006	-0.47326723685743377
-0.47113505746875006	-0.4757527806430812
-0.47107402231250006	-0.4782274916156358
-0.47101298715625006	-0.4806911199033199
-0.47095195200000006	-0.4831434216952522
-0.47089091684375006	-0.485584223468607
-0.47082988168750006	-0.48801346498858755
-0.47076884653125006	-0.4904312025652187
-0.47070781137500006	-0.4928375677075455
-0.47064677621875006	-0.49523269662809205
-0.47058574106250006	-0.4976166562752405
-0.47052470590625006	-0.499989394013139
-0.47046367075000006	-0.5023507288930446
-0.47040263559375006	-0.5047003907774485
-0.47034160043750006	-0.507038097483975
-0.47028056528125006	-0.5093636383274488
-0.47021953012500006	-0.5116769336168079
-0.47015849496875006	-0.5139780526746169
