Time	Frequency
-0.5000152516562508	4.892683294129065e-22
-0.4999542165000008	4.882665940588712e-22
-0.4998931813437508	4.872482540064079e-22
-0.4998321461875008	4.862135493048035e-22
-0.4997711110312508	4.851627116586631e-22
-0.4997100758750008	4.840959110699427e-22
-0.4996490407187508	4.830132196092604e-22
-0.4995880055625008	4.819146019747381e-22
-0.4995269704062508	4.807999348846285e-22
-0.4994659352500008	4.796690505624321e-22
-0.4994049000937508	4.785217910569932e-22
-0.4993438649375008	4.773580570219973e-22
-0.4992828297812508	4.76177840607803e-22
-0.4992217946250008	4.7498123524634985e-22
-0.4991607594687508	4.737684173681979e-22
-0.4990997243125008	4.725396048571183e-22
-0.4990386891562508	4.712950065099597e-22
-0.4989776540000008	4.70034776355375e-22
-0.4989166188437508	4.687589835209557e-22
-0.4988555836875008	4.674676062981431e-22
-0.4987945485312508	4.66160551173507e-22
-0.4987335133750008	4.648376907282066e-22
-0.4986724782187508	4.634989108350994e-22
-0.4986114430625008	4.62144153733869e-22
-0.4985504079062508	4.607734453961528e-22
-0.4984893727500008	4.593868987349476e-22
-0.4984283375937508	4.579846893728519e-22
-0.4983673024375008	4.565670135502742e-22
-0.4983062672812508	4.551340442457601e-22
-0.4982452321250008	4.536858960910235e-22
-0.4981841969687508	4.522226056799275e-22
-0.4981231618125008	4.507441337520696e-22
-0.4980621266562508	4.492503905638917e-22
-0.4980010915000008	4.477412761675979e-22
-0.4979400563437508	4.462167218282766e-22
-0.4978790211875008	4.446767224694248e-22
-0.4978179860312508	4.431213526020768e-22
-0.4977569508750008	4.415507580765451e-22
-0.4976959157187508	4.399651263227567e-22
-0.4976348805625008	4.383646459718967e-22
-0.4975738454062508	4.367494663182395e-22
-0.4975128102500008	4.351196683389135e-22
-0.4974517750937508	4.334752579222852e-22
-0.4973907399375008	4.318161827002986e-22
-0.4973297047812508	4.301423622942031e-22
-0.4972686696250008	4.284537229382704e-22
-0.4972076344687508	4.267502315377929e-22
-0.4971465993125008	4.250319189760236e-22
-0.4970855641562508	4.2329888400083763e-22
-0.4970245290000008	4.2155127809126513e-22
-0.4969634938437508	4.197892773521453e-22
-0.4969024586875008	4.180130496103332e-22
-0.4968414235312508	4.162227240140681e-22
-0.4967803883750008	4.1441836968270543e-22
-0.4967193532187508	4.1259999209372996e-22
-0.4966583180625008	4.107675517158131e-22
-0.4965972829062508	4.0892099545492286e-22
-0.4965362477500008	4.070602864976106e-22
-0.4964752125937508	4.0518542809958062e-22
-0.4964141774375008	4.0329647902063526e-22
-0.4963531422812508	4.0139355353439443e-22
-0.4962921071250008	3.994768039894636e-22
-0.4962310719687508	3.975463907931343e-22
-0.4961700368125008	3.9560245115099106e-22
-0.4961090016562508	3.936450787355832e-22
-0.4960479665000008	3.9167431674059704e-22
-0.4959869313437508	3.896901641492132e-22
-0.4959258961875008	3.876925951358123e-22
-0.4958648610312508	3.8568158441624406e-22
-0.4958038258750008	3.836571305233967e-22
-0.4957427907187508	3.8161927320354486e-22
-0.4956817555625008	3.795681011404754e-22
-0.4956207204062508	3.775037462906336e-22
-0.4955596852500008	3.754263650475461e-22
-0.4954986500937508	3.733361123917829e-22
-0.4954376149375008	3.712331170337616e-22
-0.4953765797812508	3.6911746351175925e-22
-0.4953155446250008	3.669891866232348e-22
-0.4952545094687508	3.648482807369453e-22
-0.4951934743125008	3.626947203197138e-22
-0.4951324391562508	3.6052848536513884e-22
-0.4950714040000008	3.5834958603994764e-22
-0.4950103688437508	3.5615807927485297e-22
-0.4949493336875008	3.539540704037964e-22
-0.4948882985312508	3.5173770018304802e-22
-0.4948272633750008	3.4950912393183975e-22
-0.4947662282187508	3.4726848839638616e-22
-0.4947051930625008	3.450159104441425e-22
-0.4946441579062508	3.4275146515562874e-22
-0.4945831227500008	3.4047518902085713e-22
-0.4945220875937508	3.38187094247916e-22
-0.4944610524375008	3.35887185893686e-22
-0.4944000172812508	3.335754772118309e-22
-0.4943389821250008	3.312520023822603e-22
-0.4942779469687508	3.28916826131226e-22
-0.4942169118125008	3.265700476450898e-22
-0.4941558766562508	3.2421179547360394e-22
-0.4940948415000008	3.2184221236545635e-22
-0.4940338063437508	3.194614334440487e-22
-0.4939727711875008	3.170695677024043e-22
-0.4939117360312508	3.1466669161058864e-22
-0.4938507008750008	3.122528518658513e-22
-0.4937896657187508	3.098280738064717e-22
-0.4937286305625008	3.0739237708359827e-22
-0.4936675954062508	3.049457910891152e-22
-0.4936065602500008	3.0248836462314166e-22
-0.4935455250937508	3.0002017495607937e-22
-0.4934844899375008	2.9754133189048234e-22
-0.4934234547812508	2.9505196814052113e-22
-0.4933624196250008	2.9255222157919863e-22
-0.4933013844687508	2.900422193951249e-22
-0.4932403493125008	2.875220670217918e-22
-0.4931793141562508	2.8499184311569556e-22
-0.4931182790000008	2.8245160182298486e-22
-0.4930572438437508	2.799013795694983e-22
-0.4929962086875008	2.7734120514739473e-22
-0.4929351735312508	2.747711136010433e-22
-0.4928741383750008	2.7219115889840546e-22
-0.4928131032187508	2.6960142003135705e-22
-0.4927520680625008	2.6700200116087686e-22
-0.4926910329062508	2.6439302610965757e-22
-0.4926299977500008	2.6177462706870338e-22
-0.4925689625937508	2.5914693228727906e-22
-0.4925079274375008	2.5651005609756455e-22
-0.4924468922812508	2.5386409187937355e-22
-0.4923858571250008	2.512091101195191e-22
-0.4923248219687508	2.485451622414898e-22
-0.4922637868125008	2.4587228970424587e-22
-0.4922027516562508	2.4319053703489437e-22
-0.4921417165000008	2.404999644127571e-22
-0.4920806813437508	2.3780065437907e-22
-0.4920196461875008	2.35092708911872e-22
-0.4919586110312508	2.3237624111624466e-22
-0.4918975758750008	2.2965137014165777e-22
-0.4918365407187508	2.269182160620344e-22
-0.4917755055625008	2.2417689083878566e-22
-0.4917144704062508	2.2142749210259527e-22
-0.4916534352500008	2.186701015892462e-22
-0.4915924000937508	2.1590478802107306e-22
-0.4915313649375008	2.1313161383833026e-22
-0.4914703297812508	2.103506403765191e-22
-0.4914092946250008	2.0756193246512774e-22
-0.4913482594687508	2.0476556504785695e-22
-0.4912872243125008	2.019616298544374e-22
-0.4912261891562508	1.9915023831005681e-22
-0.4911651540000008	1.9633151597324745e-22
-0.4911041188437508	1.9350559094545062e-22
-0.4910430836875008	1.906725822325671e-22
-0.4909820485312508	1.878325918796908e-22
-0.4909210133750008	1.8498570474069408e-22
-0.4908599782187508	1.8213199285575228e-22
-0.4907989430625008	1.7927151979896647e-22
-0.4907379079062508	1.7640434799854138e-22
-0.4906768727500008	1.735305476619948e-22
-0.4906158375937508	1.706502022063506e-22
-0.4905548024375008	1.6776341054122196e-22
-0.4904937672812508	1.648702854656779e-22
-0.4904327321250008	1.619709491308066e-22
-0.4903716969687508	1.590655278160003e-22
-0.4903106618125008	1.5615414150159164e-22
-0.4902496266562508	1.5323689175078961e-22
-0.4901885915000008	1.5031386100128583e-22
-0.4901275563437508	1.4738512064775442e-22
-0.4900665211875008	1.4445073705579097e-22
-0.4900054860312508	1.4151077879228666e-22
-0.4899444508750008	1.3856532757030412e-22
-0.4898834157187508	1.356144828810117e-22
-0.4898223805625008	1.3265835692624053e-22
-0.4897613454062508	1.2969706870873314e-22
-0.4897003102500008	1.2673074176562903e-22
-0.4896392750937508	1.2375949981140744e-22
-0.4895782399375008	1.207834568649713e-22
-0.4895172047812508	1.178027094680399e-22
-0.4894561696250008	1.1481733785579933e-22
-0.4893951344687508	1.1182741260238056e-22
-0.4893340993125008	1.0883300170186584e-22
-0.4892730641562508	1.0583417836675547e-22
-0.4892120290000008	1.0283102873709205e-22
-0.4891509938437508	9.982365452069766e-23
-0.4890899586875008	9.68121709797822e-23
-0.4890289235312508	9.379670433434662e-23
-0.4889678883750008	9.077738602634088e-23
-0.4889068532187508	8.775434224869294e-23
-0.4888458180625008	8.472768473937371e-23
-0.4887847829062508	8.169750830371245e-23
-0.4887237477500008	7.866389426690014e-23
-0.4886627125937508	7.562691633532429e-23
-0.4886016774375008	7.258664766591443e-23
-0.4885406422812508	6.954316734361492e-23
-0.4884796071250008	6.649656398583164e-23
-0.4884185719687508	6.344693779627512e-23
-0.4883575368125008	6.039440194901926e-23
-0.4882965016562508	5.733908100540482e-23
-0.4882354665000008	5.428110495604216e-23
-0.4881744313437508	5.1220600630447864e-23
-0.4881133961875008	4.815768315385133e-23
-0.4880523610312508	4.5092451140405393e-23
-0.4879913258750008	4.202498862126624e-23
-0.4879302907187508	3.895537163645258e-23
-0.4878692555625008	3.588367611711165e-23
-0.4878082204062508	3.280998603599701e-23
-0.4877471852500008	2.973439879186393e-23
-0.4876861500937508	2.665702373819862e-23
-0.4876251149375008	2.3577976730106765e-23
-0.4875640797812508	2.0497376492551585e-23
-0.4875030446250008	1.7415342382362736e-23
-0.4874420094687508	1.4331990316498207e-23
-0.4873809743125008	1.1247427579127097e-23
-0.4873199391562508	8.161751039845042e-24
-0.4872589040000008	5.075049163748704e-24
-0.4871978688437508	1.9874052060756712e-24
-0.4871368336875008	-1.1010958970074361e-24
-0.4870757985312508	-4.190359425326666e-24
-0.4870147633750008	-7.280279605569909e-24
-0.4869537282187508	-1.0370743193998261e-23
-0.4868926930625008	-1.3461633115929355e-23
-0.4868316579062508	-1.6552832251366105e-23
-0.4867706227500008	-1.964422671238387e-23
-0.4867095875937508	-2.273570892412853e-23
-0.4866485524375008	-2.5827179902824802e-23
-0.4865875172812508	-2.8918548413857944e-23
-0.4865264821250008	-3.2009727482500744e-23
-0.4864654469687508	-3.510062948521032e-23
-0.4864044118125008	-3.819116089292887e-23
-0.4863433766562508	-4.12812184456555e-23
-0.4862823415000008	-4.4370687932720095e-23
-0.4862213063437508	-4.7459447354569427e-23
-0.4861602711875008	-5.054737433498219e-23
-0.4860992360312508	-5.36343526488833e-23
-0.4860382008750008	-5.672027346744388e-23
-0.4859771657187508	-5.980503379925057e-23
-0.4859161305625008	-6.288853852591384e-23
-0.4858550954062508	-6.597070291764992e-23
-0.4857940602500008	-6.905144670473265e-23
-0.4857330250937508	-7.21306843910885e-23
-0.4856719899375008	-7.520832131530661e-23
-0.4856109547812508	-7.828425402440183e-23
-0.4855499196250008	-8.135837111177904e-23
-0.4854888844687508	-8.443055468467986e-23
-0.4854278493125008	-8.750068220914418e-23
-0.4853668141562508	-9.056863011193715e-23
-0.4853057790000008	-9.363428131735474e-23
-0.4852447438437508	-9.669753039863391e-23
-0.4851837086875008	-9.975828122867165e-23
-0.4851226735312508	-1.0281644447590219e-22
-0.4850616383750008	-1.0587193707463273e-22
-0.4850006032187508	-1.0892467799655363e-22
-0.4849395680625008	-1.119745815194924e-22
-0.4848785329062508	-1.1502155158575947e-22
-0.4848174977500008	-1.180654803758668e-22
-0.4847564625937508	-1.211062515763953e-22
-0.4846954274375008	-1.241437434231285e-22
-0.4846343922812508	-1.271778314817193e-22
-0.4845733571250008	-1.302083939219439e-22
-0.4845123219687508	-1.3323531720665998e-22
-0.4844512868125008	-1.3625849994352065e-22
-0.4843902516562508	-1.3927785284917633e-22
-0.4843292165000008	-1.4229329464334708e-22
-0.4842681813437508	-1.453047461647009e-22
-0.4842071461875008	-1.4831212291849542e-22
-0.4841461110312508	-1.513153303172173e-22
-0.4840850758750008	-1.543142660620474e-22
-0.4840240407187508	-1.5730882322301102e-22
-0.4839630055625008	-1.6029888869283707e-22
-0.4839019704062508	-1.6328434255982165e-22
-0.4838409352500008	-1.6626506313660275e-22
-0.4837799000937508	-1.6924093383356652e-22
-0.4837188649375008	-1.722118472433739e-22
-0.4836578297812508	-1.7517770625988517e-22
-0.4835967946250008	-1.7813842270939323e-22
-0.4835357594687508	-1.8109391393422147e-22
-0.4834747243125008	-1.840440983215371e-22
-0.4834136891562508	-1.8698889073521059e-22
-0.4833526540000008	-1.8992819909248274e-22
-0.4832916188437508	-1.9286192210316148e-22
-0.4832305836875008	-1.95789948743867e-22
-0.4831695485312508	-1.9871216135828274e-22
-0.4831085133750008	-2.016284417802267e-22
-0.4830474782187508	-2.0453867695770318e-22
-0.4829864430625008	-2.0744276119184012e-22
-0.4829254079062508	-2.10340597252908e-22
-0.4828643727500008	-2.132320973503077e-22
-0.4828033375937508	-2.1611717944790334e-22
-0.4827423024375008	-2.189957610379597e-22
-0.4826812672812508	-2.21867755885272e-22
-0.4826202321250008	-2.24733072068161e-22
-0.4825591969687508	-2.275916093381493e-22
-0.4824981618125008	-2.3044325793114445e-22
-0.4824371266562508	-2.332879014635181e-22
-0.4823760915000008	-2.3612542396343655e-22
-0.4823150563437508	-2.389557173898084e-22
-0.4822540211875008	-2.417786852401411e-22
-0.4821929860312508	-2.445942410810032e-22
-0.4821319508750008	-2.474023043448055e-22
-0.4820709157187508	-2.502027963631223e-22
-0.4820098805625008	-2.5299563738283186e-22
-0.4819488454062508	-2.557807433447183e-22
-0.4818878102500008	-2.585580224937114e-22
-0.4818267750937508	-2.6132737278944083e-22
-0.4817657399375008	-2.6408868194194173e-22
-0.4817047047812508	-2.668418323586398e-22
-0.4816436696250008	-2.6958670759080475e-22
-0.4815826344687508	-2.7232319664255803e-22
-0.4815215993125008	-2.75051198506901e-22
-0.4814605641562508	-2.777706257010966e-22
-0.4813995290000008	-2.804814028519605e-22
-0.4813384938437508	-2.831834620936637e-22
-0.4812774586875008	-2.85876738066033e-22
-0.4812164235312508	-2.885611617315869e-22
-0.4811553883750008	-2.912366524057075e-22
-0.4810943532187508	-2.939031118989701e-22
-0.4810333180625008	-2.965604261673944e-22
-0.4809722829062508	-2.992084727466825e-22
-0.4809112477500008	-3.0184712830225404e-22
-0.4808502125937508	-3.0447627595877183e-22
-0.4807891774375008	-3.0709581234021576e-22
-0.4807281422812508	-3.0970565104662664e-22
-0.4806671071250008	-3.1230572195247863e-22
-0.4806060719687508	-3.1489596709846034e-22
-0.4805450368125008	-3.1747633339765917e-22
-0.4804840016562508	-3.2004676309371274e-22
-0.4804229665000008	-3.2260718398783776e-22
-0.4803619313437508	-3.2515750298150015e-22
-0.4803008961875008	-3.2769760507814007e-22
-0.4802398610312508	-3.3022735908340196e-22
-0.4801788258750008	-3.3274663090046303e-22
-0.4801177907187508	-3.3525529933645416e-22
-0.4800567555625008	-3.377532662065679e-22
-0.4799957204062508	-3.402404586027437e-22
-0.4799346852500008	-3.427168264251275e-22
-0.4798736500937508	-3.4518233508594544e-22
-0.4798126149375008	-3.476369517182834e-22
-0.4797515797812508	-3.5008062852591386e-22
-0.4796905446250008	-3.525132886984978e-22
-0.4796295094687508	-3.549348206851609e-22
-0.4795684743125008	-3.573450853683783e-22
-0.4795074391562508	-3.597439326839163e-22
-0.4794464040000008	-3.621312204196507e-22
-0.4793853688437508	-3.6450683040471044e-22
-0.4793243336875008	-3.668706791853083e-22
-0.4792632985312508	-3.6922272053062705e-22
-0.4792022633750008	-3.715629366597778e-22
-0.4791412282187508	-3.73891319893822e-22
-0.4790801930625008	-3.7620785320207815e-22
-0.4790191579062508	-3.7851249378215786e-22
-0.4789581227500008	-3.8080516003190863e-22
-0.4788970875937508	-3.830857288134267e-22
-0.4788360524375008	-3.853540465552236e-22
-0.4787750172812508	-3.8760994833433263e-22
-0.4787139821250008	-3.8985328011430733e-22
-0.4786529469687508	-3.920839201124831e-22
-0.4785919118125008	-3.9430179250003797e-22
-0.4785308766562508	-3.9650686880314574e-22
-0.4784698415000008	-3.9869915610577445e-22
-0.4784088063437508	-4.008786735777238e-22
-0.4783477711875008	-4.0304542420099665e-22
-0.4782867360312508	-4.0519937203752117e-22
-0.4782257008750008	-4.073404314641733e-22
-0.4781646657187508	-4.094684693448972e-22
-0.4781036305625008	-4.1158331917323853e-22
-0.4780425954062508	-4.1368480557616485e-22
-0.4779815602500008	-4.157727727883887e-22
-0.4779205250937508	-4.178471070497407e-22
-0.4778594899375008	-4.1990774794715127e-22
-0.4777984547812508	-4.219546870823049e-22
-0.4777374196250008	-4.239879519330805e-22
-0.4776763844687508	-4.260075783163469e-22
-0.4776153493125008	-4.2801358014286375e-22
-0.4775543141562508	-4.300059243269498e-22
-0.4774932790000008	-4.319845175194887e-22
-0.4774322438437508	-4.339492103508848e-22
-0.4773712086875008	-4.358998189124647e-22
-0.4773101735312508	-4.378361558151373e-22
-0.4772491383750008	-4.397580623090617e-22
-0.4771881032187508	-4.4166543419233605e-22
-0.4771270680625008	-4.43558233978456e-22
-0.4770660329062508	-4.454364851359067e-22
-0.4770049977500008	-4.473002495407117e-22
-0.4769439625937508	-4.491495924660084e-22
-0.4768829274375008	-4.509845441712688e-22
-0.4768218922812508	-4.5280507152266915e-22
-0.4767608571250008	-4.546110676245142e-22
-0.4766998219687508	-4.564023597719481e-22
-0.4766387868125008	-4.581787363154928e-22
-0.4765777516562508	-4.599399883330615e-22
-0.4765167165000008	-4.616859512127826e-22
-0.4764556813437508	-4.634165328218811e-22
-0.4763946461875008	-4.651317230835824e-22
-0.4763336110312508	-4.668315818391155e-22
-0.4762725758750008	-4.685162062888244e-22
-0.4762115407187508	-4.701856872002281e-22
-0.4761505055625008	-4.718400665690032e-22
-0.4760894704062508	-4.734793085586932e-22
-0.4760284352500008	-4.751032916121544e-22
-0.4759674000937508	-4.767118240329406e-22
-0.4759063649375008	-4.783046791444463e-22
-0.4758453297812508	-4.798816404307911e-22
-0.4757842946250008	-4.814425453953843e-22
-0.4757232594687508	-4.829873168233375e-22
-0.4756622243125008	-4.845159704542492e-22
-0.4756011891562508	-4.860285955877524e-22
-0.4755401540000008	-4.875253154498655e-22
-0.4754791188437508	-4.89006238154597e-22
-0.4754180836875008	-4.90471410800512e-22
-0.4753570485312508	-4.919207898010255e-22
-0.4752960133750008	-4.933542363432073e-22
-0.4752349782187508	-4.947715389626581e-22
-0.4751739430625008	-4.9617245724743885e-22
-0.4751129079062508	-4.975567738922618e-22
-0.4750518727500008	-4.989243400683096e-22
-0.4749908375937508	-5.002751025070353e-22
-0.4749298024375008	-5.016091060134915e-22
-0.4748687672812508	-5.029264692516921e-22
-0.4748077321250008	-5.0422733959384745e-22
-0.4747466969687508	-5.055118408954202e-22
-0.4746856618125008	-5.067800276559294e-22
-0.4746246266562508	-5.080318555609387e-22
-0.4745635915000008	-5.092671770758338e-22
-0.4745025563437508	-5.104857657781536e-22
-0.4744415211875008	-5.116873631887314e-22
-0.4743804860312508	-5.128717347318604e-22
-0.4743194508750008	-5.140387196186637e-22
-0.4742584157187508	-5.151882614364152e-22
-0.4741973805625008	-5.163204124261746e-22
-0.4741363454062508	-5.174353115978937e-22
-0.4740753102500008	-5.1853314181305225e-22
-0.4740142750937508	-5.19614075413531e-22
-0.4739532399375008	-5.206782218547012e-22
-0.4738922047812508	-5.217255907454637e-22
-0.4738311696250008	-5.227560791296097e-22
-0.4737701344687508	-5.237694851231858e-22
-0.4737090993125008	-5.247655436361106e-22
-0.4736480641562508	-5.257439751903607e-22
-0.4735870290000008	-5.267045361342399e-22
-0.4735259938437508	-5.276470592541207e-22
-0.4734649586875008	-5.28571477607936e-22
-0.4734039235312508	-5.294778291706061e-22
-0.4733428883750008	-5.303662439606191e-22
-0.4732818532187508	-5.312369165900386e-22
-0.4732208180625008	-5.320900670266377e-22
-0.4731597829062508	-5.329258943604266e-22
-0.4730987477500008	-5.337445314899414e-22
-0.4730377125937508	-5.345460101658012e-22
-0.4729766774375008	-5.353302450774966e-22
-0.4729156422812508	-5.36097042473818e-22
-0.4728546071250008	-5.3684613315529775e-22
-0.4727935719687508	-5.375772230334357e-22
-0.4727325368125008	-5.382900499548674e-22
-0.4726715016562508	-5.38984434244121e-22
-0.4726104665000008	-5.396603108013761e-22
-0.4725494313437508	-5.403177336388225e-22
-0.4724883961875008	-5.4095685093198365e-22
-0.4724273610312508	-5.415778568972963e-22
-0.4723663258750008	-5.421809329971157e-22
-0.4723052907187508	-5.427661939765354e-22
-0.4722442555625008	-5.433336528395047e-22
-0.4721832204062508	-5.4388321380154825e-22
-0.4721221852500008	-5.444146950334228e-22
-0.4720611500937508	-5.449278746360471e-22
-0.4720001149375008	-5.454225466809971e-22
-0.4719390797812508	-5.458985719805528e-22
-0.4718780446250008	-5.463559099018245e-22
-0.4718170094687508	-5.46794622515275e-22
-0.4717559743125008	-5.472148504280807e-22
-0.4716949391562508	-5.476167676588535e-22
-0.4716339040000008	-5.480005281697622e-22
