Time	Frequency
-0.5000610275000001	-0.6566825763529633
-0.49999999234375014	-0.6561099376054831
-0.49993895718750014	-0.6555219565559974
-0.49987792203125014	-0.6549185543290951
-0.49981688687500014	-0.6542996395368941
-0.49975585171875014	-0.6536651205991092
-0.49969481656250014	-0.6530149177228615
-0.49963378140625014	-0.6523489726257272
-0.49957274625000014	-0.6516672559240003
-0.49951171109375014	-0.6509697721287199
-0.49945067593750014	-0.6502565616791297
-0.49938964078125014	-0.6495276992760848
-0.49932860562500014	-0.6487832867804952
-0.49926757046875014	-0.6480234414966711
-0.49920653531250014	-0.6472482838294192
-0.49914550015625014	-0.6464579263585752
-0.49908446500000014	-0.6456524640106526
-0.49902342984375014	-0.6448319653279857
-0.49896239468750014	-0.6439964656521361
-0.49890135953125014	-0.6431459644297919
-0.49884032437500014	-0.6422804279828971
-0.49877928921875014	-0.641399795589595
-0.49871825406250014	-0.6405039874566327
-0.49865721890625014	-0.6395929150935946
-0.49859618375000014	-0.6386664927661808
-0.49853514859375014	-0.6377246485164694
-0.49847411343750014	-0.636767334125181
-0.49841307828125014	-0.6357945322239499
-0.49835204312500014	-0.6348062590450093
-0.49829100796875014	-0.6338025634782349
-0.49822997281250014	-0.632783523788528
-0.49816893765625014	-0.6317492416587176
-0.49810790250000014	-0.6306998329184205
-0.49804686734375014	-0.629635417215332
-0.49798583218750014	-0.6285561091006946
-0.49792479703125014	-0.6274620094308335
-0.49786376187500014	-0.6263531967641427
-0.49780272671875014	-0.6252297214914094
-0.49774169156250014	-0.624091603714472
-0.49768065640625014	-0.6229388343342072
-0.49761962125000014	-0.6217713792906171
-0.49755858609375014	-0.6205891865067057
-0.49749755093750014	-0.6193921949700437
-0.49743651578125014	-0.6181803441654401
-0.49737548062500014	-0.6169535818206763
-0.49731444546875014	-0.615711870637582
-0.49725341031250014	-0.614455194076428
-0.49719237515625014	-0.6131835591636889
-0.49713134000000014	-0.6118969966681196
-0.49707030484375014	-0.6105955597427797
-0.49700926968750014	-0.6092793194394366
-0.49694823453125014	-0.6079483567916597
-0.49688719937500014	-0.6066027547598953
-0.49682616421875014	-0.6052425925438453
-0.49676512906250014	-0.6038679414548901
-0.49670409390625014	-0.6024788610897794
-0.49664305875000014	-0.6010753965266907
-0.49658202359375014	-0.5996575777651376
-0.49652098843750014	-0.5982254215687599
-0.49645995328125014	-0.5967789350831152
-0.49639891812500014	-0.5953181207749031
-0.49633788296875014	-0.5938429830161979
-0.49627684781250014	-0.5923535349136813
-0.49621581265625014	-0.5908498021608232
-0.49615477750000014	-0.5893318232124388
-0.49609374234375014	-0.5877996473274558
-0.49603270718750014	-0.5862533311651025
-0.49597167203125014	-0.5846929344018866
-0.49591063687500014	-0.5831185149474556
-0.49584960171875014	-0.581530123984978
-0.49578856656250014	-0.5799278018054244
-0.49572753140625014	-0.5783115747282871
-0.49566649625000014	-0.5766814532575477
-0.49560546109375014	-0.5750374323041825
-0.49554442593750014	-0.5733794928459564
-0.49548339078125014	-0.5717076054295032
-0.49542235562500014	-0.5700217371343315
-0.49536132046875014	-0.5683218612033001
-0.49530028531250014	-0.5666079668688612
-0.49523925015625014	-0.5648800674672516
-0.49517821500000014	-0.5631382058245935
-0.49511717984375014	-0.5613824555122368
-0.49505614468750014	-0.5596129180497136
-0.49499510953125014	-0.557829718732976
-0.49493407437500014	-0.5560330006128605
-0.49487303921875014	-0.5542229141877417
-0.49481200406250014	-0.5523996053314628
-0.49475096890625014	-0.5505632050429287
-0.49468993375000014	-0.5487138206955281
-0.49462889859375014	-0.5468515269647438
-0.49456786343750014	-0.5449763572306148
-0.49450682828125014	-0.5430883002927548
-0.49444579312500014	-0.541187304696521
-0.49438475796875014	-0.5392732879385365
-0.49432372281250014	-0.537346148822926
-0.49426268765625014	-0.535405781858455
-0.49420165250000014	-0.533452091898474
-0.49414061734375014	-0.5314850083180683
-0.49407958218750014	-0.5295044975971782
-0.49401854703125014	-0.527510572598697
-0.49395751187500014	-0.5255032969359585
-0.49389647671875014	-0.5234827830232122
-0.49383544156250014	-0.5214491849652303
-0.49377440640625014	-0.5194026889804686
-0.49371337125000014	-0.5173435015432154
-0.49365233609375014	-0.5152718341284829
-0.49359130093750014	-0.5131878856278091
-0.49353026578125014	-0.5110918254512407
-0.49346923062500014	-0.5089837800869866
-0.49340819546875014	-0.5068638246085397
-0.49334716031250014	-0.5047319793791191
-0.49328612515625014	-0.5025882120627617
-0.49322509000000014	-0.5004324452983171
-0.49316405484375014	-0.4982645686758707
-0.49310301968750014	-0.4960844531200975
-0.49304198453125014	-0.4938919679723398
-0.49298094937500014	-0.49168700042281804
-0.49291991421875014	-0.4894694734959733
-0.49285887906250014	-0.48723935858884027
-0.49279784390625014	-0.4849966817052301
-0.49273680875000014	-0.4827415244453939
-0.49267577359375014	-0.48047402090113084
-0.49261473843750014	-0.4781943515447377
-0.49255370328125014	-0.47590273254757165
-0.49249266812500014	-0.47359939853466704
-0.49243163296875014	-0.4712845831104142
-0.49237059781250014	-0.4689585020021198
-0.49230956265625014	-0.46662133890663676
-0.49224852750000014	-0.46427323393248965
-0.49218749234375014	-0.46191427505907595
-0.49212645718750014	-0.4595444930195465
-0.49206542203125014	-0.45716386119403474
-0.49200438687500014	-0.45477230286326376
-0.49194335171875014	-0.4523697055700641
-0.49188231656250014	-0.4499559376835331
-0.49182128140625014	-0.44753086328550423
-0.49176024625000014	-0.4450943580831992
-0.49169921109375014	-0.4426463278126518
-0.49163817593750014	-0.44018672313344387
-0.49157714078125014	-0.4377155484698209
-0.49151610562500014	-0.4352328679043139
-0.49145507046875014	-0.4327388066601303
-0.49139403531250014	-0.4302335452644107
-0.49133300015625014	-0.4277173075151348
-0.49127196500000014	-0.42519034442979686
-0.49121092984375014	-0.42265291674201144
-0.49114989468750014	-0.4201052776087977
-0.49108885953125014	-0.4175476549907091
-0.49102782437500014	-0.4149802352789859
-0.49096678921875014	-0.4124031517158684
-0.49090575406250014	-0.40981647757495837
-0.49084471890625014	-0.40722022290677096
-0.49078368375000014	-0.4046143365968932
-0.49072264859375014	-0.4019987145513
-0.49066161343750014	-0.3993732129404183
-0.49060057828125014	-0.39673766625471757
-0.49053954312500014	-0.3940919086561056
-0.49047850796875014	-0.3914357961578381
-0.49041747281250014	-0.388769227131791
-0.49035643765625014	-0.3860921578652134
-0.49029540250000014	-0.3834046132141806
-0.49023436734375014	-0.3807066924866258
-0.49017333218750014	-0.3779985678043192
-0.49011229703125014	-0.37528047528746206
-0.49005126187500014	-0.37255270039910554
-0.48999022671875014	-0.3698155568667524
-0.48992919156250014	-0.3670693608867732
-0.48986815640625014	-0.3643144063011859
-0.48980712125000014	-0.36155094405084476
-0.48974608609375014	-0.35877916374025964
-0.48968505093750014	-0.3559991787040801
-0.48962401578125014	-0.3532110192058219
-0.48956298062500014	-0.35041463342788737
-0.48950194546875014	-0.347609894865891
-0.48944091031250014	-0.34479661807503176
-0.48937987515625014	-0.3419745836000332
-0.48931884000000014	-0.33914356736414636
-0.48925780484375014	-0.33630336846745323
-0.48919676968750014	-0.3334538347503452
-0.48913573453125014	-0.33059488599185
-0.48907469937500014	-0.3277265305097642
-0.48901366421875014	-0.324848872961092
-0.48895262906250014	-0.3219621135266043
-0.48889159390625014	-0.3190665372726347
-0.48883055875000014	-0.3161624939333804
-0.48876952359375014	-0.3132503713048903
-0.48870848843750014	-0.31033056493054983
-0.48864745328125014	-0.3074034448592438
-0.48858641812500014	-0.3044693227201387
-0.48852538296875014	-0.30152842511849076
-0.48846434781250014	-0.29858087665115507
-0.48840331265625014	-0.2956266924677595
-0.48834227750000014	-0.29266577999698784
-0.48828124234375014	-0.28969795073260646
-0.48822020718750014	-0.2867229426113215
-0.48815917203125014	-0.2837404524392802
-0.48809813687500014	-0.2807501754500322
-0.48803710171875014	-0.27775184464205616
-0.48797606656250014	-0.274745264875376
-0.48791503140625014	-0.2717303412493278
-0.48785399625000014	-0.2687070987487031
-0.48779296109375014	-0.26567569043541894
-0.48773192593750014	-0.2626363952224008
-0.48767089078125014	-0.2595896020831131
-0.48760985562500014	-0.2565357768688848
-0.48754882046875014	-0.2534754199311666
-0.48748778531250014	-0.2504090249425872
-0.48742675015625014	-0.24733703865005163
-0.48736571500000014	-0.24425982023111534
-0.48730467984375014	-0.24117760539126257
-0.48724364468750014	-0.23809048283975287
-0.48718260953125014	-0.23499838909117585
-0.48712157437500014	-0.23190112089508833
-0.48706053921875014	-0.22879836047097282
-0.48699950406250014	-0.2256897116107746
-0.48693846890625014	-0.22257474531471075
-0.48687743375000014	-0.21945305127249085
-0.48681639859375014	-0.21632428941683593
-0.48675536343750014	-0.2131882360366315
-0.48669432828125014	-0.21004482057426516
-0.48663329312500014	-0.20689414645858317
-0.48657225796875014	-0.20373649019197435
-0.48651122281250014	-0.2005722824374755
-0.48645018765625014	-0.19740207732554998
-0.48638915250000014	-0.19422650913525133
-0.48632811734375014	-0.1910462358452902
-0.48626708218750014	-0.18786187637522425
-0.48620604703125014	-0.18467395080718174
-0.48614501187500014	-0.18148283111212998
-0.48608397671875014	-0.1782887074826259
-0.48602294156250014	-0.17509157239145345
-0.48596190640625014	-0.17189122283911834
-0.48590087125000014	-0.1686872817553487
-0.48583983609375014	-0.16547923944704432
-0.48577880093750014	-0.16226651300982772
-0.48571776578125014	-0.15904851552440055
-0.48565673062500014	-0.15582472433532618
-0.48559569546875014	-0.1525947434097425
-0.48553466031250014	-0.14935835697042665
-0.48547362515625014	-0.14611556535432857
-0.48541259000000014	-0.14286659490915637
-0.48535155484375014	-0.13961188478282074
-0.48529051968750014	-0.1363520555115063
-0.48522948453125014	-0.1330878587793009
-0.48516844937500014	-0.12982011098343896
-0.48510741421875014	-0.12654961778144463
-0.48504637906250014	-0.12327709813915874
-0.48498534390625014	-0.12000311775836986
-0.48492430875000014	-0.11672803740399343
-0.48486327359375014	-0.11345197834573666
-0.48480223843750014	-0.11017481063501962
-0.48474120328125014	-0.10689616971221805
-0.48468016812500014	-0.10361550015611261
-0.48461913296875014	-0.1003321193624405
-0.48455809781250014	-0.09704529260627973
-0.48449706265625014	-0.0937543131545585
-0.48443602750000014	-0.09045858182001619
-0.48437499234375014	-0.08715767861341873
-0.48431395718750014	-0.08385141752658244
-0.48425292203125014	-0.0805398775100898
-0.48419188687500014	-0.07722340605763534
-0.48413085171875014	-0.0739025940488579
-0.48406981656250014	-0.0705782261351093
-0.48400878140625014	-0.06725121228484769
-0.48394774625000014	-0.06392250429050679
-0.48388671109375014	-0.0605930075084772
-0.48382567593750014	-0.05726349939225036
-0.48376464078125014	-0.05393455898724456
-0.48370360562500014	-0.05060651364280507
-0.48364257046875014	-0.04727941217575744
-0.48358153531250014	-0.04395302665727948
-0.48352050015625014	-0.04062688079975786
-0.48345946500000014	-0.03730030183638336
-0.48339842984375014	-0.03397249098312077
-0.48333739468750014	-0.030642607039596034
-0.48327635953125014	-0.02730985429586198
-0.48321532437500014	-0.023973565062470087
-0.48315428921875014	-0.020633270173842866
-0.48309325406250014	-0.01728875028859467
-0.48303221890625014	-0.013940062424019663
-0.48297118375000014	-0.010587540137490893
-0.48291014859375014	-0.007231767543082184
-0.48284911343750014	-0.003873530690125614
-0.48278807828125014	-0.0005137516273320032
-0.48272704312500014	0.0028465891087995267
-0.48266600796875014	0.006206532399827294
-0.48260497281250014	0.009565214084061937
-0.48254393765625014	0.01292192762304529
-0.48248290250000014	0.016276170856251937
-0.48242186734375014	0.019627671922926464
-0.48236083218750014	0.022976394223506825
-0.48229979703125014	0.026322521961329774
-0.48223876187500014	0.029666428178375396
-0.48217772671875014	0.033008629478263087
-0.48211669156250014	0.03634973091154419
-0.48205565640625014	0.039690365648461234
-0.48199462125000014	0.043031138493223944
-0.48193358609375014	0.04637257952987914
-0.48187255093750014	0.0497151075937019
-0.48181151578125014	0.05305900260642068
-0.48175048062500014	0.0564043886839647
-0.48168944546875014	0.0597512303308189
-0.48162841031250014	0.06309934047808033
-0.48156737515625014	0.0664483969403392
-0.48150634000000014	0.06979796622605147
-0.48144530484375014	0.07314753387639047
-0.48138426968750014	0.07649653834059864
-0.48132323453125014	0.07984440709752659
-0.48126219937500014	0.08319059479021874
-0.48120116421875014	0.08653461815332807
-0.48114012906250014	0.08987608206048231
-0.48107909390625014	0.09321469758532232
-0.48101805875000014	0.0965502930768616
-0.48095702359375014	0.09988281609548239
-0.48089598843750014	0.10321232544874788
-0.48083495328125014	0.10653897477388839
-0.48077391812500014	0.10986298960475382
-0.48071288296875014	0.11318463921445757
-0.48065184781250014	0.11650420529865252
-0.48059081265625014	0.11982195082574586
-0.48052977750000014	0.12313809188488511
-0.48046874234375014	0.12645277495212187
-0.48040770718750014	0.12976606224814008
-0.48034667203125014	0.13307792559592554
-0.48028563687500014	0.136388246642885
-0.48022460171875014	0.1396968233450606
-0.48016356656250014	0.14300338321780962
-0.48010253140625014	0.14630760271570495
-0.48004149625000014	0.14960913198206557
-0.47998046109375014	0.15290762030892158
-0.47991942593750014	0.15620273778913735
-0.47985839078125014	0.15949419356318092
-0.47979735562500014	0.16278175073063814
-0.47973632046875014	0.16606523605500076
-0.47967528531250014	0.1693445428167319
-0.47961425015625014	0.17261962810264841
-0.47955321500000014	0.17589050642389814
-0.47949217984375014	0.17915723783010634
-0.47943114468750014	0.18241991128123722
-0.47937010953125014	0.18567862811353253
-0.47930907437500014	0.1889334876386524
-0.47924803921875014	0.19218457418675075
-0.47918700406250014	0.19543194555016202
-0.47912596890625014	0.19867562383016854
-0.47906493375000014	0.20191558980458682
-0.47900389859375014	0.20515178186781735
-0.47894286343750014	0.20838409911928357
-0.47888182828125014	0.21161240681174512
-0.47882079312500014	0.21483654352551446
-0.47875975796875014	0.21805632925123167
-0.47869872281250014	0.22127157239321438
-0.47863768765625014	0.22448207628260905
-0.47857665250000014	0.22768764773193967
-0.47851561734375014	0.23088810659139733
-0.47845458218750014	0.23408329330714175
-0.47839354703125014	0.23727307414843585
-0.47833251187500014	0.24045734512005743
-0.47827147671875014	0.24363603548099047
-0.47821044156250014	0.24680910997720484
-0.47814940640625014	0.24997656678040564
-0.47808837125000014	0.25313843078434645
-0.47802733609375014	0.25629474413211273
-0.47796630093750014	0.25944555550635057
-0.47790526578125014	0.26259090956618675
-0.47784423062500014	0.26573083587067586
-0.47778319546875014	0.2688653365133208
-0.47772216031250014	0.2719943760326338
-0.47766112515625014	0.2751178773231538
-0.47760009000000014	0.2782357213267367
-0.47753905484375014	0.28134774848691724
-0.47747801968750014	0.2844537650620229
-0.47741698453125014	0.28755355517098635
-0.47735594937500014	0.2906468944582102
-0.47729491421875014	0.2937335633777362
-0.47723387906250014	0.2968133624330182
-0.47717284390625014	0.29988612771582224
-0.47711180875000014	0.3029517408760661
-0.47705077359375014	0.3060101324189159
-0.47698973843750014	0.30906128023104745
-0.47692870328125014	0.31210520457666335
-0.47686766812500014	0.31514196042966275
-0.47680663296875014	0.31817162650099257
-0.47674559781250014	0.3211942907261912
-0.47668456265625014	0.3242100329554927
-0.47662352750000014	0.32721890832159306
-0.47656249234375014	0.33022093709560435
-0.47650145718750014	0.33321610022690695
-0.47644042203125014	0.33620433588538406
-0.47637938687500014	0.3391855375725022
-0.47631835171875014	0.34215955611447896
-0.47625731656250014	0.34512620555887774
-0.47619628140625014	0.3480852715945882
-0.47613524625000014	0.3510365213733748
-0.47607421109375014	0.35397971444758036
-0.47601317593750014	0.35691461403414404
-0.47595214078125014	0.35984099722576357
-0.47589110562500014	0.3627586633851883
-0.47583007046875014	0.36566744125892287
-0.47576903531250014	0.36856719540839916
-0.47570800015625014	0.3714578317119855
-0.47564696500000014	0.37433930193520043
-0.47558592984375014	0.37721160754048877
-0.47552489468750014	0.38007480139525796
-0.47546385953125014	0.3829289856511115
-0.47540282437500014	0.38577430562309883
-0.47534178921875014	0.38861093931460067
-0.47528075406250014	0.3914390818383144
-0.47521971890625014	0.3942589254692814
-0.47515868375000014	0.3970706371222361
-0.47509764859375014	0.39987433474806705
-0.47503661343750014	0.4026700643513491
-0.47497557828125014	0.40545777996526655
-0.47491454312500014	0.40823732864163015
-0.47485350796875014	0.4110084439285744
-0.47479247281250014	0.4137707520327914
-0.47473143765625014	0.4165237904812384
-0.47467040250000014	0.41926703560902956
-0.47460936734375014	0.4219999373384508
-0.47454833218750014	0.4247219621061082
-0.47448729703125014	0.4274326413600013
-0.47442626187500014	0.43013161813821477
-0.47436522671875014	0.43281868529657
-0.47430419156250014	0.43549381226100253
-0.47424315640625014	0.438157157954713
-0.47418212125000014	0.4408090668472405
-0.47412108609375014	0.4434500450954455
-0.47406005093750014	0.44608071637960056
-0.47399901578125014	0.4487017608225117
-0.47393798062500014	0.451313843157396
-0.47387694546875014	0.45391753752353114
-0.47381591031250014	0.45651325642842405
-0.47375487515625014	0.4591011906262831
-0.47369384000000014	0.46168126620205147
-0.47363280484375014	0.46425312613231884
-0.47357176968750014	0.46681614123265097
-0.47351073453125014	0.46936945032812505
-0.47344969937500014	0.4719120267600911
-0.47338866421875014	0.47444276620923975
-0.47332762906250014	0.4769605890367694
-0.47326659390625014	0.4794645480052832
-0.47320555875000014	0.48195392828232186
-0.47314452359375014	0.4844283269199497
-0.47308348843750014	0.48688770412695265
-0.47302245328125014	0.4893324012554204
-0.47296141812500014	0.49176312056100147
-0.47290038296875014	0.4941808650172153
-0.47283934781250014	0.496586841758343
-0.47277831265625014	0.4989823380700326
-0.47271727750000014	0.5013685835973858
-0.47265624234375014	0.5037466134385855
-0.47259520718750014	0.506117144594194
-0.47253417203125014	0.5084804787835278
-0.47247313687500014	0.5108364457437865
-0.47241210171875014	0.5131843953526759
-0.47235106656250014	0.5155232392066745
-0.47229003140625014	0.5178515387851321
-0.47222899625000014	0.5201676347793296
-0.47216796109375014	0.5224698067260736
-0.47210692593750014	0.5247564458530153
-0.47204589078125014	0.5270262222076172
-0.47198485562500014	0.5292782284802454
-0.47192382046875014	0.5315120849684463
-0.47186278531250014	0.5337279935136915
-0.47180175015625014	0.5359267324506688
-0.47174071500000014	0.5381095898770077
-0.47167967984375014	0.5402782398472668
-0.47161864468750014	0.54243457347273
-0.47155760953125014	0.5445805017718547
-0.47149657437500014	0.5467177501103616
-0.47143553921875014	0.548847664900101
-0.47137450406250014	0.5509710523950996
-0.47131346890625014	0.5530880683068967
-0.47125243375000014	0.5551981734144759
-0.47119139859375014	0.5573001628019039
-0.47113036343750014	0.5593922668583676
-0.47106932828125014	0.5614723147055692
-0.47100829312500014	0.5635379447941303
-0.47094725796875014	0.5655868415479086
-0.47088622281250014	0.5676169737274394
-0.47082518765625014	0.5696268101692631
-0.47076415250000014	0.5716154902391803
-0.47070311734375014	0.5735829292080122
-0.47064208218750014	0.5755298441866386
-0.47058104703125014	0.5774576950666003
-0.47052001187500014	0.5793685449389238
-0.47045897671875014	0.581264853499104
-0.47039794156250014	0.5831492237597043
