Time	Frequency
-0.5000205480937439	-6.843454157986196e-25
-0.49995951293749386	-6.927847601962336e-25
-0.49989847778124386	-6.973444544745104e-25
-0.49983744262499386	-6.97998451289087e-25
-0.49977640746874386	-6.947419240131085e-25
-0.49971537231249386	-6.875913767747846e-25
-0.49965433715624386	-6.7658450307143045e-25
-0.49959330199999386	-6.617800423687527e-25
-0.49953226684374386	-6.432574238155439e-25
-0.49947123168749386	-6.211163994724926e-25
-0.49941019653124386	-5.954764619602559e-25
-0.49934916137499386	-5.664762370513627e-25
-0.49928812621874386	-5.342727283129219e-25
-0.49922709106249386	-4.99040490621161e-25
-0.49916605590624386	-4.609706578383313e-25
-0.49910502074999386	-4.202699543765813e-25
-0.49904398559374386	-3.771595449786363e-25
-0.49898295043749386	-3.318738719339012e-25
-0.49892191528124386	-2.846593699258884e-25
-0.49886088012499386	-2.3577311138168904e-25
-0.49879984496874386	-1.8548150123632434e-25
-0.49873880981249386	-1.3405869244163458e-25
-0.49867777465624386	-8.178527001981081e-26
-0.49861673949999386	-2.8946581940241444e-26
-0.49855570434374386	2.4168741250619748e-26
-0.49849466918749386	7.727031408755771e-26
-0.49843363403124386	1.3006768827312498e-25
-0.49837259887499386	1.822718032373284e-25
-0.49831156371874386	2.3359664886527214e-25
-0.49825052856249386	2.8376079379183486e-25
-0.49818949340624386	3.3248889868192517e-25
-0.49812845824999386	3.795132404535967e-25
-0.49806742309374386	4.245751571490118e-25
-0.49800638793749386	4.674264965432914e-25
-0.49794535278124386	5.078309169018846e-25
-0.49788431762499386	5.455652000056839e-25
-0.49782328246874386	5.80420512210014e-25
-0.49776224731249386	6.122034812496841e-25
-0.49770121215624386	6.407372949145715e-25
-0.49764017699999386	6.658627027436968e-25
-0.49757914184374386	6.874388187936095e-25
-0.49751810668749386	7.05343962527428e-25
-0.49745707153124386	7.1947630996813595e-25
-0.49739603637499386	7.297544374758002e-25
-0.49733500121874386	7.361178371317484e-25
-0.49727396606249386	7.385271868595912e-25
-0.49721293090624386	7.369646328525481e-25
-0.49715189574999386	7.314338704632837e-25
-0.49709086059374386	7.219601507193272e-25
-0.49702982543749386	7.085901554215742e-25
-0.49696879028124386	6.91391742093409e-25
-0.49690775512499386	6.704536200808252e-25
-0.49684671996874386	6.458848376274692e-25
-0.49678568481249386	6.17814249673477e-25
-0.49672464965624386	5.863897833356838e-25
-0.49666361449999386	5.517776813902687e-25
-0.49660257934374386	5.141615802417038e-25
-0.49654154418749386	4.737415704755683e-25
-0.49648050903124386	4.307330318529374e-25
-0.49641947387499386	3.8536557762304013e-25
-0.49635843871874386	3.3788172385392e-25
-0.49629740356249386	2.885356248553103e-25
-0.49623636840624386	2.3759171408686967e-25
-0.49617533324999386	1.8532318611839199e-25
-0.49611429809374386	1.3201067464016006e-25
-0.49605326293749386	7.794051190007963e-26
-0.49599222778124386	2.340339949116437e-26
-0.49593119262499386	-3.1307346539382494e-26
-0.49587015746874386	-8.58972755184271e-26
-0.49580912231249386	-1.4007245825746653e-25
-0.49574808715624386	-1.9354108396488454e-25
-0.49568705199999386	-2.4601501929215583e-25
-0.49562601684374386	-2.9721143642860484e-25
-0.49556498168749386	-3.4685423740884334e-25
-0.49550394653124386	-3.946757420467297e-25
-0.49544291137499386	-4.404179401630981e-25
-0.49538187621874386	-4.838340895162915e-25
-0.49532084106249386	-5.246899297213448e-25
-0.49525980590624386	-5.627650198887407e-25
-0.49519877074999386	-5.978539674147303e-25
-0.49513773559374386	-6.2976747679087445e-25
-0.49507670043749386	-6.583334718120722e-25
-0.49501566528124386	-6.833979901870529e-25
-0.49495463012499386	-7.048260397123347e-25
-0.49489359496874386	-7.2250234746795415e-25
-0.49483255981249386	-7.363320043859422e-25
-0.49477152465624386	-7.462409631458903e-25
-0.49471048949999386	-7.521764745241087e-25
-0.49464945434374386	-7.541073806439443e-25
-0.49458841918749386	-7.520242867784678e-25
-0.49452738403124386	-7.459396187619449e-25
-0.49446634887499386	-7.358875799213506e-25
-0.49440531371874386	-7.219239516911034e-25
-0.49434427856249386	-7.041258147259351e-25
-0.49428324340624386	-6.825911255487299e-25
-0.49422220824999386	-6.574382040553864e-25
-0.49416117309374386	-6.288050687835567e-25
-0.49410013793749386	-5.968487233410541e-25
-0.49403910278124386	-5.617442925326417e-25
-0.49397806762499386	-5.236840623815711e-25
-0.49391703246874386	-4.828764400632279e-25
-0.49385599731249386	-4.39544853743267e-25
-0.49379496215624386	-3.9392649194813208e-25
-0.49373392699999386	-3.462710120148489e-25
-0.49367289184374386	-2.968392619116585e-25
-0.49361185668749386	-2.459017289317977e-25
-0.49355082153124386	-1.9373717639521995e-25
-0.49348978637499386	-1.4063107122963362e-25
-0.49342875121874386	-8.687400990063538e-26
-0.49336771606249386	-3.276021932293636e-26
-0.49330668090624386	2.141421856601617e-26
-0.49324564574999386	7.535277275724023e-26
-0.49318461059374386	1.2876026948153344e-25
-0.49312357543749386	1.8134440268486658e-25
-0.49306254028124386	2.328173662514287e-25
-0.49300150512499386	2.828974358539901e-25
-0.49294046996874386	3.313105039409279e-25
-0.49287943481249386	3.7779160608556518e-25
-0.49281839965624386	4.220863160957943e-25
-0.49275736449999386	4.639522227372924e-25
-0.49269632934374386	5.03160193933136e-25
-0.49263529418749386	5.394956946837119e-25
-0.49257425903124386	5.727599018899038e-25
-0.49251322387499386	6.027708883466858e-25
-0.49245218871874386	6.293645143071213e-25
-0.49239115356249386	6.52395457421699e-25
-0.49233011840624386	6.717378919858798e-25
-0.49226908324999386	6.872863011755359e-25
-0.49220804809374386	6.98955980195334e-25
-0.49214701293749386	7.0668355746601695e-25
-0.49208597778124386	7.104273169170513e-25
-0.49202494262499386	7.10167461276522e-25
-0.49196390746874386	7.059062237706969e-25
-0.49190287231249386	6.976678422680791e-25
-0.49184183715624386	6.854984841875435e-25
-0.49178080199999386	6.69465931830593e-25
-0.49171976684374386	6.496593017042776e-25
-0.49165873168749386	6.2618847788045975e-25
-0.49159769653124386	5.991836010479347e-25
-0.49153666137499386	5.687942848858887e-25
-0.49147562621874386	5.351888706846069e-25
-0.49141459106249386	4.985534534234736e-25
-0.49135355590624386	4.5909090969002635e-25
-0.49129252074999386	4.170197574066638e-25
-0.49123148559374386	3.725730041348202e-25
-0.49117045043749386	3.2599680335729926e-25
-0.49110941528124386	2.7754918656344847e-25
-0.49104838012499386	2.2749860440454363e-25
-0.49098734496874386	1.7612244103100561e-25
-0.49092630981249386	1.237055576492616e-25
-0.49086527465624386	7.053864738192683e-26
-0.49080423949999386	1.6916690442654984e-26
-0.49074320434374386	-3.686266470468086e-26
-0.49068216918749386	-9.050077198231478e-26
-0.49062113403124386	-1.4369958782502076e-25
-0.49056009887499386	-1.9616335876405424e-25
-0.49049906371874386	-2.4760020884196883e-25
-0.49043802856249386	-2.977237569715119e-25
-0.49037699340624386	-3.462547480923406e-25
-0.49031595824999386	-3.929224913979727e-25
-0.49025492309374386	-4.374664510135354e-25
-0.49019388793749386	-4.796376540473879e-25
-0.49013285278124386	-5.192000363985239e-25
-0.49007181762499386	-5.55931789442758e-25
-0.49001078246874386	-5.896265953101852e-25
-0.48994974731249386	-6.2009473496994185e-25
-0.48988871215624386	-6.4716415892437825e-25
-0.48982767699999386	-6.706814575541354e-25
-0.48976664184374386	-6.905127063958009e-25
-0.48970560668749386	-7.065442152197052e-25
-0.48964457153124386	-7.186831659809775e-25
-0.48958353637499386	-7.2685814640898985e-25
-0.48952250121874386	-7.310195403255464e-25
-0.48946146606249386	-7.311398222552131e-25
-0.48940043090624386	-7.272137379511136e-25
-0.48933939574999386	-7.192583079209683e-25
-0.48927836059374386	-7.07312804681101e-25
-0.48921732543749386	-6.914384819636733e-25
-0.48915629028124386	-6.717183217220542e-25
-0.48909525512499386	-6.482565296275939e-25
-0.48903421996874386	-6.211780218068412e-25
-0.48897318481249386	-5.906277175171696e-25
-0.48891214965624386	-5.567697628121719e-25
-0.48885111449999386	-5.197866635316776e-25
-0.48879007934374386	-4.798782391562446e-25
-0.48872904418749386	-4.372605931721625e-25
-0.48866800903124386	-3.921648682889738e-25
-0.48860697387499386	-3.448360724651447e-25
-0.48854593871874386	-2.9553161683903357e-25
-0.48848490356249386	-2.445200269197404e-25
-0.48842386840624386	-1.9207939910666292e-25
-0.48836283324999386	-1.3849586633078464e-25
-0.48830179809374386	-8.40621117851902e-26
-0.48824076293749386	-2.9075622676883417e-26
-0.48817972778124386	2.616279221472876e-26
-0.48811869262499386	8.135078407783337e-26
-0.48805765746874386	1.3618605081054625e-25
-0.48799662231249386	1.9036803543322612e-25
-0.48793558715624386	2.4359958375255054e-25
-0.48787455199999386	2.9558854657580904e-25
-0.48781351684374386	3.4604947974763944e-25
-0.48775248168749386	3.9470510067440373e-25
-0.48769144653124386	4.412879245101664e-25
-0.48763041137499386	4.8554168281855945e-25
-0.48756937621874386	5.2722276509120515e-25
-0.48750834106249386	5.661015742809719e-25
-0.48744730590624386	6.019637922024662e-25
-0.48738627074999386	6.3461154013162845e-25
-0.48732523559374386	6.638645498456217e-25
-0.48726420043749386	6.895611015689558e-25
-0.48720316528124386	7.115589397471345e-25
-0.48714213012499386	7.297361012285847e-25
-0.48708109496874386	7.439915529916091e-25
-0.48702005981249386	7.542457948011609e-25
-0.48695902465624386	7.604412874671799e-25
-0.48689798949999386	7.625427994835424e-25
-0.48683695434374386	7.60537593144437e-25
-0.48677591918749386	7.54435527595567e-25
-0.48671488403124386	7.442689964191406e-25
-0.48665384887499386	7.300927769280919e-25
-0.48659281371874386	7.119837260420527e-25
-0.48653177856249386	6.900403819960132e-25
-0.48647074340624386	6.643824041666963e-25
-0.48640970824999386	6.351499651941322e-25
-0.48634867309374386	6.025029498822789e-25
-0.48628763793749386	5.6662008820250975e-25
-0.48622660278124386	5.276980118857827e-25
-0.48616556762499386	4.859501107275273e-25
-0.48610453246874386	4.416054484888694e-25
-0.48604349731249386	3.949074199132021e-25
-0.48598246215624386	3.4611247444670757e-25
-0.48592142699999386	2.954886698925891e-25
-0.48586039184374386	2.4331422330934186e-25
-0.48579935668749386	1.8987597315342866e-25
-0.48573832153124386	1.3546773472902944e-25
-0.48567728637499386	8.038882739176556e-26
-0.48561625121874386	2.4942254299398962e-26
-0.48555521606249386	-3.0566851543112465e-26
-0.48549418090624386	-8.58329875790338e-26
-0.48543314574999386	-1.4055190845678736e-25
-0.48537211059374386	-1.9442234605326448e-25
-0.48531107543749386	-2.471476829535364e-25
-0.48525004028124386	-2.984375747125671e-25
-0.48518900512499386	-3.4800956844852262e-25
-0.48512796996874386	-3.955906353022244e-25
-0.48506693481249386	-4.409187708569299e-25
-0.48500589965624386	-4.837443597614318e-25
-0.48494486449999386	-5.238315889272856e-25
-0.48488382934374386	-5.609597743554288e-25
-0.48482279418749386	-5.949246063562972e-25
-0.48476175903124386	-6.255392216838526e-25
-0.48470072387499386	-6.5263531093106955e-25
-0.48463968871874386	-6.760640142447978e-25
-0.48457865356249386	-6.956967967448055e-25
-0.48451761840624386	-7.114261162290256e-25
-0.48445658324999386	-7.231660659309119e-25
-0.48439554809374386	-7.308528561378436e-25
-0.48433451293749386	-7.344451518996063e-25
-0.48427347778124386	-7.339243359431047e-25
-0.48421244262499386	-7.292946076387032e-25
-0.48415140746874386	-7.205829766137823e-25
-0.48409037231249386	-7.078391117754724e-25
-0.48402933715624386	-6.911350823812057e-25
-0.48396830199999386	-6.705649680969112e-25
-0.48390726684374386	-6.462443304232235e-25
-0.48384623168749386	-6.183096095161142e-25
-0.48378519653124386	-5.869173378059054e-25
-0.48372416137499386	-5.522433107659847e-25
-0.48366312621874386	-5.144815971384302e-25
-0.48360209106249386	-4.738434765791344e-25
-0.48354105590624386	-4.305562873326461e-25
-0.48348002074999386	-3.848621179501388e-25
-0.48341898559374386	-3.3701656314864545e-25
-0.48335795043749386	-2.87287182294189e-25
-0.48329691528124386	-2.3595216554362026e-25
-0.48323588012499386	-1.832986214974489e-25
-0.48317484496874386	-1.2962114161864094e-25
-0.48311380981249386	-7.522009581147091e-26
-0.48305277465624386	-2.0399927780958584e-26
-0.48299173949999386	3.45324533580896e-26
-0.48293070434374386	8.926946589543215e-26
-0.48286966918749386	1.4350446875602892e-25
-0.48280863403124386	1.9693357930619122e-25
-0.48274759887499386	2.492572521813191e-25
-0.48268656371874386	3.001820684122732e-25
-0.48262552856249386	3.494222393189387e-25
-0.48256449340624386	3.9670132574853757e-25
-0.48250345824999386	4.417536850491124e-25
-0.48244242309374386	4.843260255598005e-25
-0.48238138793749386	5.241787847210473e-25
-0.48232035278124386	5.610874328910131e-25
-0.48225931762499386	5.948438764545718e-25
-0.48219828246874386	6.252574076735517e-25
-0.48213724731249386	6.521559837370379e-25
-0.48207621215624386	6.753870463014094e-25
-0.48201517699999386	6.948184781473783e-25
-0.48195414184374386	7.103392796499732e-25
-0.48189310668749386	7.218602420978935e-25
-0.48183207153124386	7.293144526142911e-25
-0.48177103637499386	7.32657640068807e-25
-0.48171000121874386	7.31868499811402e-25
-0.48164896606249386	7.269487501858199e-25
-0.48158793090624386	7.179232072481502e-25
-0.48152689574999386	7.0483959084751595e-25
-0.48146586059374386	6.877683365377927e-25
-0.48140482543749386	6.668021529346842e-25
-0.48134379028124386	6.420555760871283e-25
-0.48128275512499386	6.136642828990854e-25
-0.48122171996874386	5.817844096520263e-25
-0.48116068481249386	5.46591636246644e-25
-0.48109964965624386	5.082802524373753e-25
-0.48103861449999386	4.670620706749112e-25
-0.48097757934374386	4.231652485844623e-25
-0.48091654418749386	3.7683306593103985e-25
-0.48085550903124386	3.283225093145955e-25
-0.48079447387499386	2.7790289924573915e-25
-0.48073343871874386	2.2585437265223956e-25
-0.48067240356249386	1.724663346002213e-25
-0.48061136840624386	1.1803585023845145e-25
-0.48055033324999386	6.286597262762007e-26
-0.48048929809374386	7.264087455516731e-27
-0.48042826293749386	-4.8459843342023274e-26
-0.48036722778124386	-1.0399494673976717e-25
-0.48030619262499386	-1.5903124531638657e-25
-0.48024515746874386	-2.1326133606108513e-25
-0.48018412231249386	-2.6638211152105334e-25
-0.48012308715624386	-3.180965055651041e-25
-0.48006205199999386	-3.6811507509272166e-25
-0.48000101684374386	-4.161576960630375e-25
-0.47993998168749386	-4.6195504601640685e-25
-0.47987894653124386	-5.052502530522854e-25
-0.47981791137499386	-5.458001372842167e-25
-0.47975687621874386	-5.83376797273038e-25
-0.47969584106249386	-6.177687081221889e-25
-0.47963480590624386	-6.487820313906159e-25
-0.47957377074999386	-6.762416319464338e-25
-0.47951273559374386	-6.999921173907124e-25
-0.47945170043749386	-7.198987120787966e-25
-0.47939066528124386	-7.358479582053531e-25
-0.47932963012499386	-7.477484825084113e-25
-0.47926859496874386	-7.555313705844947e-25
-0.47920755981249386	-7.59150730155259e-25
-0.47914652465624386	-7.585837799957089e-25
-0.47908548949999386	-7.538311753553062e-25
-0.47902445434374386	-7.449168432899507e-25
-0.47896341918749386	-7.318880180290519e-25
-0.47890238403124386	-7.148148568890685e-25
-0.47884134887499386	-6.937901709492837e-25
-0.47878031371874386	-6.689288421839423e-25
-0.47871927856249386	-6.403672195918172e-25
-0.47865824340624386	-6.082623987639731e-25
-0.47859720824999386	-5.727912953879723e-25
-0.47853617309374386	-5.341497375419291e-25
-0.47847513793749386	-4.925512932008867e-25
-0.47841410278124386	-4.482262007644406e-25
-0.47835306762499386	-4.014199740432101e-25
-0.47829203246874386	-3.5239212766526917e-25
-0.47823099731249386	-3.0141467471082987e-25
-0.47816996215624386	-2.487706493611887e-25
-0.47810892699999386	-1.9475251316291908e-25
-0.47804789184374386	-1.396605191662994e-25
-0.47798685668749386	-8.380107158929487e-26
-0.47792582153124386	-2.7484957339823584e-26
-0.47786478637499386	2.897433853268912e-26
-0.47780375121874386	8.52624058677009e-26
-0.47774271606249386	1.4106568726403093e-25
-0.47768168090624386	1.9607317353098736e-25
-0.47762064574999386	2.499782222820201e-25
-0.47755961059374386	3.024802164610433e-25
-0.47749857543749386	3.532862771186178e-25
-0.47743754028124386	4.021128952522636e-25
-0.47737650512499386	4.4868754653586365e-25
-0.47731546996874386	4.927501852885225e-25
-0.47725443481249386	5.340547310172699e-25
-0.47719339965624386	5.723704557690438e-25
-0.47713236449999386	6.074832717239524e-25
-0.47707132934374386	6.391969428248914e-25
-0.47701029418749386	6.673341924222127e-25
-0.47694925903124386	6.917376945993675e-25
-0.47688822387499386	7.12271004289348e-25
-0.47682718871874386	7.288192747519166e-25
-0.47676615356249386	7.412899465252374e-25
-0.47670511840624386	7.496132909173023e-25
-0.47664408324999386	7.537427488969059e-25
-0.47658304809374386	7.536552943059361e-25
-0.47652201293749386	7.4935147372692e-25
-0.47646097778124386	7.408555095429866e-25
-0.47639994262499386	7.282150927015785e-25
-0.47633890746874386	7.115011884138816e-25
-0.47627787231249386	6.9080760469009715e-25
-0.47621683715624386	6.662505120364822e-25
-0.47615580199999386	6.37967767163357e-25
-0.47609476684374386	6.061181789154355e-25
-0.47603373168749386	5.708806041725221e-25
-0.47597269653124386	5.324529725021878e-25
-0.47591166137499386	4.910511640397748e-25
-0.47585062621874386	4.469078118512949e-25
-0.47578959106249386	4.002710354928373e-25
-0.47572855590624386	3.514029679618605e-25
-0.47566752074999386	3.0057841158174837e-25
-0.47560648559374386	2.4808317889914843e-25
-0.47554545043749386	1.9421258852408877e-25
-0.47548441528124386	1.3926974331116016e-25
-0.47542338012499386	8.356387479678162e-26
-0.47536234496874386	2.740856769084626e-26
-0.47530130981249386	-2.8879950977521365e-26
-0.47524027465624386	-8.498464916974022e-26
-0.47517923949999386	-1.4058941200297043e-25
-0.47511820434374386	-1.9538085718942322e-25
-0.47505716918749386	-2.49050112048824e-25
-0.47499613403124386	-3.0129447695054547e-25
-0.47493509887499386	-3.518192385246909e-25
-0.47487406371874386	-4.003392401295915e-25
-0.47481302856249386	-4.4658056203833185e-25
-0.47475199340624386	-4.902819882309949e-25
-0.47469095824999386	-5.311965716473136e-25
-0.47462992309374386	-5.690929486550182e-25
-0.47456888793749386	-6.037567334411909e-25
-0.47450785278124386	-6.349916358284194e-25
-0.47444681762499386	-6.6262065534366115e-25
-0.47438578246874386	-6.864870631624766e-25
-0.47432474731249386	-7.064552587196708e-25
-0.47426371215624386	-7.224116093371185e-25
-0.47420267699999386	-7.342650295392783e-25
-0.47414164184374386	-7.419475774423375e-25
-0.47408060668749386	-7.454147668794092e-25
-0.47401957153124386	-7.446459268613212e-25
-0.47395853637499386	-7.3964422219270475e-25
-0.47389750121874386	-7.304367468734454e-25
-0.47383646606249386	-7.170743036906323e-25
-0.47377543090624386	-6.9963118880966145e-25
-0.47371439574999386	-6.7820473999473255e-25
-0.47365336059374386	-6.529148230784663e-25
-0.47359232543749386	-6.239031738341006e-25
-0.47353129028124386	-5.913325710961744e-25
-0.47347025512499386	-5.553859861255196e-25
-0.47340921996874386	-5.162655027058127e-25
-0.47334818481249386	-4.741912309849353e-25
-0.47328714965624386	-4.294000471286361e-25
-0.47322611449999386	-3.8214428561015267e-25
-0.47316507934374386	-3.326902883108256e-25
-0.47310404418749386	-2.813169675774487e-25
-0.47304300903124386	-2.283141866982318e-25
-0.47298197387499386	-1.739811140035635e-25
-0.47292093871874386	-1.186246360057037e-25
-0.47285990356249386	-6.255751364042353e-26
-0.47279886840624386	-6.09666611574692e-27
-0.47273783324999386	5.043857277715125e-26
-0.47267679809374386	1.0672833922591123e-25
-0.47261576293749386	1.6245397035639564e-25
-0.47255472778124386	2.1729989802954457e-25
-0.47249369262499386	2.7095528147359367e-25
-0.47243265746874386	3.231159528587079e-25
-0.47237162231249386	3.734859816391579e-25
-0.47231058715624386	4.217794431467372e-25
-0.47224955199999386	4.677220022597998e-25
-0.47218851684374386	5.110524860851859e-25
