Time	Frequency
-0.5000339180624991	-1.0323285885569481e-25
-0.4999728829062491	-5.190465494478546e-26
-0.4999118477499991	-2.075402133539304e-28
-0.4998508125937491	5.156659448207685e-26
-0.4997897774374991	1.0312513146229821e-25
-0.4997287422812491	1.5417659467770772e-25
-0.4996677071249991	2.0443208085642157e-25
-0.4996066719687491	2.536071115642242e-25
-0.4995456368124991	3.014231256998176e-25
-0.4994846016562491	3.4760908726672954e-25
-0.4994235664999991	3.919031253628426e-25
-0.4993625313437491	4.3405389100821405e-25
-0.4993014961874991	4.738221048971092e-25
-0.4992404610312491	5.109818762946384e-25
-0.4991794258749991	5.453219864857512e-25
-0.4991183907187491	5.766471868673027e-25
-0.4990573555624991	6.047791590681398e-25
-0.4989963204062491	6.295577117043014e-25
-0.4989352852499991	6.508415897191348e-25
-0.4988742500937491	6.685093239007232e-25
-0.4988132149374991	6.824599630049057e-25
-0.4987521797812491	6.926135730984632e-25
-0.4986911446249991	6.98911831037368e-25
-0.4986301094687491	7.013182251168498e-25
-0.4985690743124991	6.998184062501865e-25
-0.4985080391562491	6.9442016356822215e-25
-0.4984470039999991	6.851534918712182e-25
-0.4983859688437491	6.720703447820367e-25
-0.4983249336874991	6.552444155142124e-25
-0.4982638985312491	6.34770671209812e-25
-0.4982028633749991	6.107648731725618e-25
-0.4981418282187491	5.833628720858725e-25
-0.4980807930624991	5.527198825095513e-25
-0.4980197579062491	5.190095850561468e-25
-0.4979587227499991	4.824231477667561e-25
-0.4978976875937491	4.431681367714881e-25
-0.4978366524374991	4.0146734351744626e-25
-0.4977756172812491	3.5755752481624235e-25
-0.4977145821249991	3.116880390838303e-25
-0.4976535469687491	2.641194358570814e-25
-0.4975925118124991	2.151219650635054e-25
-0.4975314766562491	1.6497407351258249e-25
-0.4974704414999991	1.1396073501954896e-25
-0.4974094063437491	6.237194429978257e-26
-0.4973483711874991	1.0500907982529027e-26
-0.4972873360312491	-4.1357476810104926e-26
-0.4972263008749991	-9.290840504732613e-26
-0.4971652657187491	-1.4385881811383825e-25
-0.4971042305624991	-1.939190888950644e-25
-0.4970431954062491	-2.428046698229421e-25
-0.4969821602499991	-2.9023771446663386e-25
-0.4969211250937491	-3.3594873148898196e-25
-0.4968600899374991	-3.796779984126869e-25
-0.4967990547812491	-4.211772227413754e-25
-0.4967380196249991	-4.602108001065962e-25
-0.4966769844687491	-4.965573011049928e-25
-0.4966159493124991	-5.300106558648459e-25
-0.4965549141562491	-5.603813831496216e-25
-0.4964938789999991	-5.87497660662834e-25
-0.4964328438437491	-6.112063229451695e-25
-0.4963718086874991	-6.313737423907107e-25
-0.4963107735312491	-6.478866082590888e-25
-0.4962497383749991	-6.606525713360843e-25
-0.4961887032187491	-6.6960077789318875e-25
-0.4961276680624991	-6.746822982339718e-25
-0.4960666329062491	-6.758703854447875e-25
-0.4960055977499991	-6.731606795288023e-25
-0.4959445625937491	-6.665711753477593e-25
-0.4958835274374991	-6.561422036078128e-25
-0.4958224922812491	-6.419361172348709e-25
-0.4957614571249991	-6.240370316328573e-25
-0.4957004219687491	-6.025502574063817e-25
-0.4956393868124991	-5.776017846951462e-25
-0.4955783516562491	-5.493374953541651e-25
-0.4955173164999991	-5.179223836649516e-25
-0.4954562813437491	-4.835395650816079e-25
-0.4953952461874991	-4.463892727886713e-25
-0.4953342110312491	-4.066876933068346e-25
-0.4952731758749991	-3.646657083718395e-25
-0.4952121407187491	-3.205676037837176e-25
-0.4951511055624991	-2.7464964812958857e-25
-0.4950900704062491	-2.2717862298696537e-25
-0.4950290352499991	-1.7843030809468132e-25
-0.4949680000937491	-1.286878506965643e-25
-0.4949069649374991	-7.824020609925825e-26
-0.4948459297812491	-2.738042138369735e-26
-0.4947848946249991	2.3596068578786782e-26
-0.4947238594687491	7.439302370129812e-26
-0.4946628243124991	1.2471530660770757e-25
-0.4946017891562491	1.742703599330989e-25
-0.4945407539999991	2.2277007294337594e-25
-0.4944797188437491	2.6993235623931854e-25
-0.4944186836874991	3.1548277434986283e-25
-0.4943576485312491	3.591561617589868e-25
-0.4942966133749991	4.006981485884513e-25
-0.4942355782187491	4.3986660476584665e-25
-0.4941745430624991	4.764330620938366e-25
-0.4941135079062491	5.1018408397378955e-25
-0.4940524727499991	5.40922381639671e-25
-0.4939914375937491	5.684681224384874e-25
-0.4939304024374991	5.926598244039047e-25
-0.4938693672812491	6.133554118707389e-25
-0.4938083321249991	6.3043295525453075e-25
-0.4937472969687491	6.437914794726392e-25
-0.4936862618124991	6.533514544908252e-25
-0.4936252266562491	6.590553524452387e-25
-0.4935641914999991	6.60867943474269e-25
-0.4935031563437491	6.587765175151092e-25
-0.4934421211874991	6.527909952433775e-25
-0.4933810860312491	6.429438389505081e-25
-0.4933200508749991	6.292899291980881e-25
-0.4932590157187491	6.119062057602844e-25
-0.4931979805624991	5.908912954667515e-25
-0.4931369454062491	5.66364890588828e-25
-0.4930759102499991	5.384671288378213e-25
-0.4930148750937491	5.073577517393925e-25
-0.4929538399374991	4.732152237511038e-25
-0.4928928047812491	4.362356832462668e-25
-0.4928317696249991	3.9663186250941596e-25
-0.4927707344687491	3.5463179746912873e-25
-0.4927096993124991	3.1047763501083686e-25
-0.4926486641562491	2.6442407446245098e-25
-0.4925876289999991	2.1673710573094664e-25
-0.4925265938437491	1.6769229008565096e-25
-0.4924655586874991	1.1757331543057828e-25
-0.4924045235312491	6.667026400724106e-26
-0.4923434883749991	1.527799560261748e-26
-0.4922824532187491	-3.6305546302133576e-26
-0.4922214180624991	-8.77811212127931e-26
-0.4921603829062491	-1.388498350675836e-25
-0.4920993477499991	-1.8921493318013037e-25
-0.4920383125937491	-2.385834688308511e-25
-0.4919772774374991	-2.8666806859016358e-25
-0.4919162422812491	-3.331884807202527e-25
-0.4918552071249991	-3.778733476612452e-25
-0.4917941719687491	-4.204616298095235e-25
-0.4917331368124991	-4.607042549403066e-25
-0.4916721016562491	-4.983654620176292e-25
-0.4916110664999991	-5.332242409293229e-25
-0.4915500313437491	-5.6507558711664385e-25
-0.4914889961874991	-5.937317090909249e-25
-0.4914279610312491	-6.190231177595269e-25
-0.4913669258749991	-6.407996192084959e-25
-0.4913058907187491	-6.589312266043854e-25
-0.4912448555624991	-6.733088570170028e-25
-0.4911838204062491	-6.8384505498776365e-25
-0.4911227852499991	-6.904744557272961e-25
-0.4910617500937491	-6.931542176828812e-25
-0.4910007149374991	-6.918642407529881e-25
-0.4909396797812491	-6.866073558962138e-25
-0.4908786446249991	-6.774092626959927e-25
-0.4908176094687491	-6.643184542630317e-25
-0.4907565743124991	-6.474059046696677e-25
-0.4906955391562491	-6.267647088053117e-25
-0.4906345039999991	-6.025095417598997e-25
-0.4905734688437491	-5.747760113777418e-25
-0.4905124336874991	-5.437198996162575e-25
-0.4904513985312491	-5.095162592453613e-25
-0.4903903633749991	-4.723584380702493e-25
-0.4903293282187491	-4.324569407229267e-25
-0.4902682930624991	-3.9003827457950016e-25
-0.4902072579062491	-3.4534357476990463e-25
-0.4901462227499991	-2.986273297205349e-25
-0.4900851875937491	-2.501557662968505e-25
-0.4900241524374991	-2.0020550940702824e-25
-0.4899631172812491	-1.4906180986548296e-25
-0.4899020821249991	-9.701701234469215e-26
-0.4898410469687491	-4.4368846310267706e-26
-0.4897800118124991	8.581320003465249e-27
-0.4897189766562491	6.153019375501117e-26
-0.4896579414999991	1.1417429369581184e-25
-0.4895969063437491	1.6621174853406782e-25
-0.4895358711874991	2.173440044193866e-25
-0.4894748360312491	2.672775699061571e-25
-0.4894138008749991	3.157256963278222e-25
-0.4893527657187491	3.624100853990879e-25
-0.4892917305624991	4.070624450211404e-25
-0.4892306954062491	4.4942605903911e-25
-0.4891696602499991	4.892573366684681e-25
-0.4891086250937491	5.263271244319002e-25
-0.4890475899374991	5.604221410976293e-25
-0.4889865547812491	5.913461295135651e-25
-0.4889255196249991	6.189210947239131e-25
-0.4888644844687491	6.429882335413497e-25
-0.4888034493124991	6.634089730680543e-25
-0.4887424141562491	6.800656762646542e-25
-0.4886813789999991	6.928624356678633e-25
-0.4886203438437491	7.017255342812128e-25
-0.4885593086874991	7.066039830181734e-25
-0.4884982735312491	7.074697366531501e-25
-0.4884372383749991	7.043179370949586e-25
-0.4883762032187491	6.971668951619262e-25
-0.4883151680624991	6.860580421375355e-25
-0.4882541329062491	6.710556568259321e-25
-0.4881930977499991	6.522465371678374e-25
-0.4881320625937491	6.297394836833158e-25
-0.4880710274374991	6.036646858467343e-25
-0.4880099922812491	5.741729817753797e-25
-0.4879489571249991	5.414349738896679e-25
-0.4878879219687491	5.0564008477282585e-25
-0.4878268868124991	4.6699540468233355e-25
-0.4877658516562491	4.257245656689889e-25
-0.4877048164999991	3.8206640069059486e-25
-0.4876437813437491	3.3627358751183132e-25
-0.4875827461874991	2.886111897986151e-25
-0.4875217110312491	2.3935509850314833e-25
-0.4874606758749991	1.8879047873661995e-25
-0.4873996407187491	1.372100620719316e-25
-0.4873386055624991	8.491250021137922e-26
-0.4872775704062491	3.2200625648727945e-26
-0.4872165352499991	-2.062037064616477e-26
-0.4871555000937491	-7.324457608351175e-26
-0.4870944649374991	-1.2536731350909903e-25
-0.4870334297812491	-1.766867008502745e-25
-0.4869723946249991	-2.269056337088058e-25
-0.4869113594687491	-2.7573327900526003e-25
-0.4868503243124991	-3.2288700085563523e-25
-0.4867892891562491	-3.680937965303981e-25
-0.4867282539999991	-4.110920434954062e-25
-0.4866672188437491	-4.516329099049868e-25
-0.4866061836874991	-4.894819200384312e-25
-0.4865451485312491	-5.244202012643228e-25
-0.4864841133749991	-5.562458326337394e-25
-0.4864230782187491	-5.847750741107194e-25
-0.4863620430624991	-6.098432608639529e-25
-0.4863010079062491	-6.31306033687905e-25
-0.4862399727499991	-6.490399018068815e-25
-0.4861789375937491	-6.62943219232596e-25
-0.4861179024374991	-6.729365764766328e-25
-0.4860568672812491	-6.789634545392134e-25
-0.4859958321249991	-6.809903815610919e-25
-0.4859347969687491	-6.790073092925039e-25
-0.4858737618124991	-6.730275168853088e-25
-0.4858127266562491	-6.630876881164921e-25
-0.4857516914999991	-6.492475743400555e-25
-0.4856906563437491	-6.315897650440073e-25
-0.4856296211874991	-6.102191260003315e-25
-0.4855685860312491	-5.8526224827904435e-25
-0.4855075508749991	-5.568667063869844e-25
-0.4854465157187491	-5.252001730740914e-25
-0.4853854805624991	-4.904495128698629e-25
-0.4853244454062491	-4.528195961874286e-25
-0.4852634102499991	-4.125322456162194e-25
-0.4852023750937491	-3.698247956916982e-25
-0.4851413399374991	-3.249488661772586e-25
-0.4850803047812491	-2.781687193128172e-25
-0.4850192696249991	-2.2975993198893967e-25
-0.4849582344687491	-1.8000758671369514e-25
-0.4848971993124991	-1.2920474221114991e-25
-0.4848361641562491	-7.765068588105233e-26
-0.4847751289999991	-2.564914338124792e-26
-0.4847140938437491	2.6493409841754466e-26
-0.4846530586874991	7.846963673310728e-26
-0.4845920235312491	1.299730272211809e-25
-0.4845309883749991	1.8069982845078178e-25
-0.4844699532187491	2.3035066877377656e-25
-0.4844089180624991	2.7863243589113463e-25
-0.4843478829062491	3.2525995896128635e-25
-0.4842868477499991	3.6995761020012126e-25
-0.4842258125937491	4.12461043574865e-25
-0.4841647774374991	4.525186693711217e-25
-0.4841037422812491	4.898931330413513e-25
-0.4840427071249991	5.2436275916993965e-25
-0.4839816719687491	5.557227916852514e-25
-0.4839206368124991	5.837866846067852e-25
-0.4838596016562491	6.083871184430484e-25
-0.4837985664999991	6.293770414375944e-25
-0.4837375313437491	6.466305487088296e-25
-0.4836764961874991	6.600435750008134e-25
-0.4836154610312491	6.695345981665559e-25
-0.4835544258749991	6.750450381884581e-25
-0.4834933907187491	6.765397063848977e-25
-0.4834323555624991	6.740069320493627e-25
-0.4833713204062491	6.674587379105369e-25
-0.4833102852499991	6.569306881537465e-25
-0.4832492500937491	6.424817884879108e-25
-0.4831882149374991	6.241940657992942e-25
-0.4831271797812491	6.021721833190657e-25
-0.4830661446249991	5.765427542797614e-25
-0.4830051094687491	5.4745371075643785e-25
-0.4829440743124991	5.15073354855459e-25
-0.4828830391562491	4.795894522110167e-25
-0.4828220039999991	4.4120812271625e-25
-0.4827609688437491	4.001526180253811e-25
-0.4826999336874991	3.566620788733485e-25
-0.4826388985312491	3.109900693113377e-25
-0.4825778633749991	2.6340319738801203e-25
-0.4825168282187491	2.1417944181222305e-25
-0.4824557930624991	1.6360665358712903e-25
-0.4823947579062491	1.119807515134247e-25
-0.4823337227499991	5.96041362062123e-26
-0.4822726875937491	6.783734373319465e-27
-0.4822116524374991	-4.617058571146239e-26
-0.4821506172812491	-9.894801111721069e-26
-0.4820895821249991	-1.5123848668665069e-25
-0.4820285469687491	-2.0273460693806678e-25
-0.4819675118124991	-2.5313335095280514e-25
-0.4819064766562491	-3.0213792968967447e-25
-0.4818454414999991	-3.4945951491279996e-25
-0.4817844063437491	-3.9481887775677165e-25
-0.4817233711874991	-4.379481192797241e-25
-0.4816623360312491	-4.78592178961205e-25
-0.4816013008749991	-5.165104147122597e-25
-0.4815402657187491	-5.514778969228097e-25
-0.4814792305624991	-5.832869223923573e-25
-0.4814181954062491	-6.117480277399214e-25
-0.4813571602499991	-6.366913298280379e-25
-0.4812961250937491	-6.579673360344725e-25
-0.4812350899374991	-6.754480058283823e-25
-0.4811740547812491	-6.890273820279561e-25
-0.4811130196249991	-6.986223114544501e-25
-0.4810519844687491	-7.041729146726826e-25
-0.4809909493124991	-7.056429398823128e-25
-0.4809299141562491	-7.030200386041873e-25
-0.4808688789999991	-6.963157860796738e-25
-0.4808078438437491	-6.855657077110434e-25
-0.4807468086874991	-6.708289963540187e-25
-0.4806857735312491	-6.521882812678242e-25
-0.4806247383749991	-6.297490528460653e-25
-0.4805637032187491	-6.036391620610919e-25
-0.4805026680624991	-5.7400798587617755e-25
-0.4804416329062491	-5.410256609636843e-25
-0.4803805977499991	-5.048820148402108e-25
-0.4803195625937491	-4.65785514658444e-25
-0.4802585274374991	-4.239620460989464e-25
-0.4801974922812491	-3.7965359128248196e-25
-0.4801364571249991	-3.331168200019317e-25
-0.4800754219687491	-2.846215917775275e-25
-0.4800143868124991	-2.3444942491816903e-25
-0.4799533516562491	-1.8289172884105724e-25
-0.4798923164999991	-1.3024827863420584e-25
-0.4798312813437491	-7.68252943782185e-26
-0.4797702461874991	-2.293375605474534e-26
-0.4797092110312491	3.1112473843216215e-26
-0.4796481758749991	8.499846441855681e-26
-0.4795871407187491	1.3841006215485467e-25
-0.4795261055624991	1.9103576730446369e-25
-0.4794650704062491	2.425685131789679e-25
-0.4794040352499991	2.9270753711258247e-25
-0.4793430000937491	3.411600645299113e-25
-0.4792819649374991	3.8764313228713635e-25
-0.4792209297812491	4.318851401579881e-25
-0.4791598946249991	4.736275851205685e-25
-0.4790988594687491	5.126264182855265e-25
-0.4790378243124991	5.486537052304667e-25
-0.4789767891562491	5.814987188629426e-25
-0.4789157539999991	6.109694273068225e-25
-0.4788547188437491	6.3689343400342545e-25
-0.4787936836874991	6.591191483751372e-25
-0.4787326485312491	6.775165677519524e-25
-0.4786716133749991	6.919781565569381e-25
-0.4786105782187491	7.024194066740515e-25
-0.4785495430624991	7.087793778324866e-25
-0.4784885079062491	7.110210980385417e-25
-0.4784274727499991	7.091316952425776e-25
-0.4783664375937491	7.031226319123399e-25
-0.4783054024374991	6.930294582839395e-25
-0.4782443672812491	6.789118384615059e-25
-0.4781833321249991	6.608529594630242e-25
-0.4781222969687491	6.389593054079194e-25
-0.4780612618124991	6.133597974555225e-25
-0.4780002266562491	5.842052809038855e-25
-0.4779391914999991	5.516674048776848e-25
-0.4778781563437491	5.159378540617028e-25
-0.4778171211874991	4.772270249555854e-25
-0.4777560860312491	4.357629596247681e-25
-0.4776950508749991	3.917898627896423e-25
-0.4776340157187491	3.4556680345014945e-25
-0.4775729805624991	2.9736608780456535e-25
-0.4775119454062491	2.4747172486041904e-25
-0.4774509102499991	1.9617773285806528e-25
-0.4773898750937491	1.4378638620880675e-25
-0.4773288399374991	9.060651531783225e-26
-0.4772678047812491	3.695155614741393e-26
-0.4772067696249991	-1.6862136536238023e-26
-0.4771457344687491	-7.051730477891987e-26
-0.4770846993124991	-1.2369754097917986e-25
-0.4770236641562491	-1.7608926242522645e-25
-0.4769626289999991	-2.273834271186048e-25
-0.4769015938437491	-2.7727752923274733e-25
-0.4768405586874991	-3.2547722624109827e-25
-0.4767795235312491	-3.7169821237126605e-25
-0.4767184883749991	-4.156677621239382e-25
-0.4766574532187491	-4.571265109275047e-25
-0.4765964180624991	-4.9582984599958865e-25
-0.4765353829062491	-5.3154944141235365e-25
-0.4764743477499991	-5.64074588151926e-25
-0.4764133125937491	-5.932134378412541e-25
-0.4763522774374991	-6.187941580110987e-25
-0.4762912422812491	-6.40665954905161e-25
-0.4762302071249991	-6.586999596050495e-25
-0.4761691719687491	-6.727900186793739e-25
-0.4761081368124991	-6.828533115336199e-25
-0.4760471016562491	-6.888308622502195e-25
-0.4759860664999991	-6.906878899651998e-25
-0.4759250313437491	-6.8841402350433145e-25
-0.4758639961874991	-6.820233913350327e-25
-0.4758029610312491	-6.71554507161064e-25
-0.4757419258749991	-6.570701058396271e-25
-0.4756808907187491	-6.386567188282343e-25
-0.4756198555624991	-6.164242378117834e-25
-0.4755588204062491	-5.905052068579603e-25
-0.4754977852499991	-5.610541080053881e-25
-0.4754367500937491	-5.282464014855999e-25
-0.4753757149374991	-4.922775347265691e-25
-0.4753146797812491	-4.533617686675564e-25
-0.4752536446249991	-4.1173092988705714e-25
-0.4751926094687491	-3.676330113564372e-25
-0.4751315743124991	-3.2133079087639337e-25
-0.4750705391562491	-2.7310013958531156e-25
-0.4750095039999991	-2.232285532846713e-25
-0.4749484688437491	-1.720133196953896e-25
-0.4748874336874991	-1.1975984022018605e-25
-0.4748263985312491	-6.67797827417555e-26
-0.4747653633749991	-1.3389243451536746e-26
-0.4747043282187491	4.0093127493080914e-26
-0.4746432930624991	9.33479973187264e-26
-0.4745822579062491	1.4605729137065756e-25
-0.4745212227499991	1.979060249030357e-25
-0.4744601875937491	2.485842102798596e-25
-0.4743991524374991	2.977887124948582e-25
-0.4743381172812491	3.452250222145017e-25
-0.4742770821249991	3.9060902190155367e-25
-0.4742160469687491	4.336686556187973e-25
-0.4741550118124991	4.741456374061185e-25
-0.4740939766562491	5.1179683637136495e-25
-0.4740329414999991	5.463959256492109e-25
-0.4739719063437491	5.777345591421754e-25
-0.4739108711874991	6.0562372463703755e-25
-0.4738498360312491	6.2989483505115065e-25
-0.4737888008749991	6.504007749198616e-25
-0.4737277657187491	6.670167302528521e-25
-0.4736667305624991	6.796410169196258e-25
-0.4736056954062491	6.881956272365329e-25
-0.4735446602499991	6.926267708589205e-25
-0.4734836250937491	6.929051389009937e-25
-0.4734225899374991	6.890261759614682e-25
-0.4733615547812491	6.810100301901533e-25
-0.4733005196249991	6.689015374130975e-25
-0.4732394844687491	6.527698891207598e-25
-0.4731784493124991	6.327082996309307e-25
-0.4731174141562491	6.088334247362538e-25
-0.4730563789999991	5.812846997428618e-25
-0.4729953438437491	5.502235290987864e-25
-0.4729343086874991	5.158323039904528e-25
-0.4728732735312491	4.783134046779642e-25
-0.4728122383749991	4.378878937857868e-25
-0.4727512032187491	3.9479437572493256e-25
-0.4726901680624991	3.4928738827138217e-25
-0.4726291329062491	3.0163608486824295e-25
-0.4725680977499991	2.5212250838098316e-25
-0.4725070625937491	2.0104000769333546e-25
-0.4724460274374991	1.4869145558655437e-25
-0.4723849922812491	9.538745503966684e-26
-0.4723239571249991	4.14445111194097e-26
-0.4722629219687491	-1.2816863940937043e-26
-0.4722018868124991	-6.707404618430185e-26
-0.4721408516562491	-1.2100418310073509e-25
-0.4720798164999991	-1.7428623020230801e-25
-0.4720187813437491	-2.2660269313688032e-25
-0.4719577461874991	-2.776416894988369e-25
-0.4718967110312491	-3.2709865434814216e-25
-0.4718356758749991	-3.7467830302220593e-25
-0.4717746407187491	-4.200962722660638e-25
-0.4717136055624991	-4.630808747617413e-25
-0.4716525704062491	-5.033747642976035e-25
-0.4715915352499991	-5.407363689482915e-25
-0.4715305000937491	-5.749414535851167e-25
