Time	Frequency
-0.500047922218755	0.06231107255491092
-0.49998688706250505	0.03032582989148073
-0.49992585190625505	-0.0019422327190552697
-0.49986481675000505	-0.03426472814523375
-0.49980378159375505	-0.06641268437205426
-0.49974274643750505	-0.0981581972948526
-0.49968171128125505	-0.1292759815044544
-0.49962067612500505	-0.15954504695219834
-0.49955964096875505	-0.18875018840386926
-0.49949860581250505	-0.21668357073926162
-0.49943757065625505	-0.24314618550205766
-0.49937653550000505	-0.26794925853818125
-0.49931550034375505	-0.29091560512075654
-0.49925446518750505	-0.3118808811982182
-0.49919343003125505	-0.33069478071103003
-0.49913239487500505	-0.3472220735227827
-0.49907135971875505	-0.3613435985859496
-0.49901032456250505	-0.3729571196093811
-0.49894928940625505	-0.38197803773906663
-0.49888825425000505	-0.3883400262623756
-0.49882721909375505	-0.3919955012866012
-0.49876618393750505	-0.39291597231461867
-0.49870514878125505	-0.39109225373040407
-0.49864411362500505	-0.3865345512909801
-0.49858307846875505	-0.3792723902912635
-0.49852204331250505	-0.36935442846990946
-0.49846100815625505	-0.3568481193312126
-0.49839997300000505	-0.3418392428637403
-0.49833893784375505	-0.32443132137472247
-0.49827790268750505	-0.3047448806950705
-0.49821686753125505	-0.282916621215351
-0.49815583237500505	-0.25909844961977263
-0.49809479721875505	-0.23345641645281118
-0.49803376206250505	-0.20616955673941775
-0.49797272690625505	-0.17742860654878642
-0.49791169175000505	-0.147434677962666
-0.49785065659375505	-0.1163978521440927
-0.49778962143750505	-0.0845356406908145
-0.49772858628125505	-0.052071538853554145
-0.49766755112500505	-0.019233351296744132
-0.49760651596875505	0.013748362789284306
-0.49754548081250505	0.04664191533585134
-0.49748444565625505	0.07921619176177273
-0.49742341050000505	0.11124219224695509
-0.49736237534375505	0.14249477303147706
-0.49730134018750505	0.17275412164827852
-0.49724030503125505	0.2018074229732297
-0.49717926987500505	0.22945030126571073
-0.49711823471875505	0.2554882872018126
-0.49705719956250505	0.2797382483470875
-0.49699616440625505	0.3020295998263582
-0.49693512925000505	0.3222056337770067
-0.49687409409375505	0.34012450693536156
-0.49681305893750505	0.3556603834036443
-0.49675202378125505	0.36870424133233937
-0.49669098862500505	0.3791646740062558
-0.49662995346875505	0.38696858177545795
-0.49656891831250505	0.39206163297923313
-0.49650788315625505	0.39440873247065483
-0.49644684800000505	0.3939941987582761
-0.49638581284375505	0.39082194864040765
-0.49632477768750505	0.38491542853387234
-0.49626374253125505	0.37631748160517964
-0.49620270737500505	0.3650900419805865
-0.49614167221875505	0.35131368640689065
-0.49608063706250505	0.33508709827026173
-0.49601960190625505	0.31652633742914693
-0.49595856675000505	0.2957640434098661
-0.49589753159375505	0.2729484848070703
-0.49583649643750505	0.24824251674580605
-0.49577546128125505	0.22182242567946645
-0.49571442612500505	0.19387666416517532
-0.49565339096875505	0.16460453934828237
-0.49559235581250505	0.13421477780979713
-0.49553132065625505	0.1029240373721323
-0.49547028550000505	0.07095538779435616
-0.49540925034375505	0.038536716052382076
-0.49534821518750505	0.005899086194336795
-0.49528718003125505	-0.026724890401794214
-0.49522614487500505	-0.05910269773423819
-0.49516510971875505	-0.0910036177803925
-0.49510407456250505	-0.12220031506123766
-0.49504303940625505	-0.1524705169167517
-0.49498200425000505	-0.181598568067596
-0.49492096909375505	-0.20937695160889547
-0.49485993393750505	-0.23560784671131615
-0.49479889878125505	-0.2601044480824333
-0.49473786362500505	-0.28269237527726926
-0.49467682846875505	-0.30321088062891854
-0.49461579331250505	-0.3215140162570309
-0.49455475815625505	-0.33747169170446306
-0.49449372300000505	-0.35097056827076223
-0.49443268784375505	-0.36191493762070975
-0.49437165268750505	-0.37022733441214833
-0.49431061753125505	-0.37584916368253707
-0.49424958237500505	-0.37874108993340655
-0.49418854721875505	-0.3788833206252624
-0.49412751206250505	-0.3762757848372633
-0.49406647690625505	-0.3709380998278156
-0.49400544175000505	-0.3629094757096401
-0.49394440659375505	-0.3522484120034533
-0.49388337143750505	-0.33903230413104474
-0.49382233628125505	-0.3233568887994809
-0.49376130112500505	-0.30533556297133546
-0.49370026596875505	-0.28509858906430185
-0.49363923081250505	-0.2627921562452895
-0.49357819565625505	-0.23857734582877047
-0.49351716050000505	-0.21262898242281542
-0.49345612534375505	-0.18513438966708257
-0.49339509018750505	-0.15629205789130768
-0.49333405503125505	-0.12631019247183806
-0.49327301987500505	-0.09540529650934561
-0.49321198471875505	-0.0638005382178105
-0.49315094956250505	-0.031724208480918586
-0.49308991440625505	0.0005918955836321182
-0.49302887925000505	0.03291422294349853
-0.49296784409375505	0.06500900986131411
-0.49290680893750505	0.09664410772146839
-0.49284577378125505	0.12759049298358124
-0.49278473862500505	0.15762402634738085
-0.49272370346875505	0.1865270421288708
-0.49266266831250505	0.2140898291850072
-0.49260163315625505	0.24011229262799955
-0.49254059800000505	0.26440522753578116
-0.49247956284375505	0.28679181964199674
-0.49241852768750505	0.30710883292047203
-0.49235749253125505	0.3252078372676406
-0.49229645737500505	0.34095625488221276
-0.49223542221875505	0.35423832949177647
-0.49217438706250505	0.36495599334231044
-0.49211335190625505	0.3730295162016328
-0.49205231675000505	0.3783981760411664
-0.49199128159375505	0.38102062359465055
-0.49193024643750505	0.38087525686147516
-0.49186921128125505	0.3779603448048948
-0.49180817612500505	0.37229407382647667
-0.49174714096875505	0.3639144317382476
-0.49168610581250505	0.35287892955069655
-0.49162507065625505	0.3392642288318228
-0.49156403550000505	0.32316557610847535
-0.49150300034375505	0.30469615651327536
-0.49144196518750505	0.28398627825753353
-0.49138093003125505	0.26118244787178974
-0.49131989487500505	0.23644634802019848
-0.49125885971875505	0.20995366346632552
-0.49119782456250505	0.1818928444490263
-0.49113678940625505	0.15246377242349823
-0.49107575425000505	0.12187629104564168
-0.49101471909375505	0.09034877973759724
-0.49095368393750505	0.058106507257644886
-0.49089264878125505	0.025380090765842238
-0.49083161362500505	-0.007596182455374492
-0.49077057846875505	-0.04058606601956922
-0.49070954331250505	-0.07335296799059732
-0.49064850815625505	-0.10566174776536062
-0.49058747300000505	-0.13728031290925413
-0.49052643784375505	-0.1679813539913263
-0.49046540268750505	-0.1975439408503377
-0.49040436753125505	-0.22575512761532948
-0.49034333237500505	-0.2524114890794847
-0.49028229721875505	-0.2773205574855092
-0.49022126206250505	-0.30030227053770975
-0.49016022690625505	-0.3211902003168332
-0.49009919175000505	-0.3398328131447602
-0.49003815659375505	-0.35609454274195473
-0.48997712143750505	-0.36985676438734844
-0.48991608628125505	-0.38101868556194474
-0.48985505112500505	-0.3894980524431847
-0.48979401596875505	-0.39523177281062283
-0.48973298081250505	-0.39817636787312966
-0.48967194565625505	-0.3983083013630169
-0.48961091050000505	-0.3956241685401021
-0.48954987534375505	-0.39014071456910315
-0.48948884018750505	-0.38189475315213356
-0.48942780503125505	-0.3709428881063278
-0.48936676987500505	-0.3573611381183977
-0.48930573471875505	-0.3412443966872549
-0.48924469956250505	-0.3227057596506837
-0.48918366440625505	-0.30187572958029085
-0.48912262925000505	-0.2789012829229466
-0.48906159409375505	-0.25394483128204615
-0.48900055893750505	-0.2271830658638972
-0.48893952378125505	-0.1988056819257822
-0.48887848862500505	-0.16901404743890563
-0.48881745346875505	-0.13801974184330135
-0.48875641831250505	-0.10604306073634466
-0.48869538315625505	-0.07331143382496662
-0.48863434800000505	-0.040057766856791494
-0.48857331284375505	-0.006518846541774155
-0.48851227768750505	0.02706646281280412
-0.48845124253125505	0.06045883089097451
-0.48839020737500505	0.09342024963805169
-0.48832917221875505	0.12571571349503027
-0.48826813706250505	0.1571149177196145
-0.48820710190625505	0.18739391200643346
-0.48814606675000505	0.21633670085179244
-0.48808503159375505	0.24373684090488937
-0.48802399643750505	0.26939885481891573
-0.48796296128125505	0.2931397330962354
-0.48790192612500505	0.31479015640227564
-0.48784089096875505	0.334195815097683
-0.48777985581250505	0.35121843687033066
-0.48771882065625505	0.3657368520968109
-0.48765778550000505	0.3776478419382704
-0.48759675034375505	0.3868668840679691
-0.48753571518750505	0.39332878650648617
-0.48747468003125505	0.39698814034371255
-0.48741364487500505	0.3978196852662511
-0.48735260971875505	0.3958184494606477
-0.48729157456250505	0.390999854883949
-0.48723053940625505	0.3833995452024553
-0.48716950425000505	0.3730732005392258
-0.48710846909375505	0.36009608722813335
-0.48704743393750505	0.3445625592477797
-0.48698639878125505	0.32658537086760464
-0.48692536362500505	0.306294864241721
-0.48686432846875505	0.2838380420329647
-0.48680329331250505	0.2593775160184861
-0.48674225815625505	0.23309033079831934
-0.48668122300000505	0.20516670008781254
-0.48662018784375505	0.17580861886919777
-0.48655915268750505	0.14522844087360837
-0.48649811753125505	0.11364733199843612
-0.48643708237500505	0.08129364962610267
-0.48637604721875505	0.048401376618806745
-0.48631501206250505	0.015208317189319994
-0.48625397690625505	-0.018045508443847197
-0.48619294175000505	-0.0511196649648209
-0.48613190659375505	-0.08377501805080907
-0.48607087143750505	-0.11577544614920357
-0.48600983628125505	-0.1468896032179751
-0.48594880112500505	-0.17689250189710584
-0.48588776596875505	-0.20556723728561307
-0.48582673081250505	-0.23270649817897643
-0.48576569565625505	-0.25811406966412265
-0.48570466050000505	-0.28160631114810347
-0.48564362534375505	-0.3030134013591354
-0.48558259018750505	-0.32218065874469637
-0.48552155503125505	-0.3389696089732904
-0.48546051987500505	-0.35325899989971105
-0.48539948471875505	-0.3649457301938824
-0.48533844956250505	-0.37394551711643353
-0.48527741440625505	-0.3801936137490878
-0.48521637925000505	-0.38364519309117284
-0.48515534409375505	-0.38427574402120657
-0.48509430893750505	-0.38208122796600646
-0.48503327378125505	-0.3770781077108639
-0.48497223862500505	-0.3693032724825342
-0.48491120346875505	-0.35881372259949185
-0.48485016831250505	-0.3456862274257867
-0.48478913315625505	-0.33001671244699693
-0.48472809800000505	-0.3119196255267032
-0.48466706284375505	-0.2915270804948903
-0.48460602768750505	-0.26898791624834
-0.48454499253125505	-0.24446663158864976
-0.48448395737500505	-0.2181421733217251
-0.48442292221875505	-0.19020668357872633
-0.48436188706250505	-0.1608640695136834
-0.48430085190625505	-0.13032856146039568
-0.48423981675000505	-0.09882313448990536
-0.48417878159375505	-0.06657791343189978
-0.48411774643750505	-0.03382851238200532
-0.48405671128125505	-0.0008142787598096629
-0.48399567612500505	0.03222336886066431
-0.48393464096875505	0.06504276220645405
-0.48387360581250505	0.0974037023187394
-0.48381257065625505	0.12906920542120456
-0.48375153550000505	0.1598072485635123
-0.48369050034375505	0.1893924267348602
-0.48362946518750505	0.21760763104260264
-0.48356843003125505	0.24424558658341067
-0.48350739487500505	0.2691104217872531
-0.48344635971875505	0.2920190336890806
-0.48338532456250505	0.31280247326678934
-0.48332428940625505	0.3313071741740205
-0.48326325425000505	0.34739605172536625
-0.48320221909375505	0.36094954664594986
-0.48314118393750505	0.37186647100849074
-0.48308014878125505	0.38006478431846447
-0.48301911362500505	0.3854821771900335
-0.48295807846875505	0.3880765529560125
-0.48289704331250505	0.38782633756468987
-0.48283600815625505	0.38473065753543195
-0.48277497300000505	0.37880934869666705
-0.48271393784375505	0.3701028389961279
-0.48265290268750505	0.3586718525075092
-0.48259186753125505	0.3445969969607751
-0.48253083237500505	0.32797817742598
-0.48246979721875505	0.3089338891865163
-0.48240876206250505	0.28760037413996936
-0.48234772690625505	0.26413062650633296
-0.48228669175000505	0.23869330637631953
-0.48222565659375505	0.21147151672593045
-0.48216462143750505	0.18266148680604632
-0.48210358628125505	0.15247114222920735
-0.48204255112500505	0.12111862831251313
-0.48198151596875505	0.08883068169309946
-0.48192048081250505	0.05584105306101833
-0.48185944565625505	0.02238875282952953
-0.48179841050000505	-0.011283646103952516
-0.48173737534375505	-0.04493178678967662
-0.48167634018750505	-0.07831131031017396
-0.48161530503125505	-0.11117958324997931
-0.48155426987500505	-0.14329755266273497
-0.48149323471875505	-0.1744313938212753
-0.48143219956250505	-0.20435428124949967
-0.48137116440625505	-0.23284800278427706
-0.48131012925000505	-0.25970456208774434
-0.48124909409375505	-0.28472772520958295
-0.48118805893750505	-0.30773440258193885
-0.48112702378125505	-0.3285560428451717
-0.48106598862500505	-0.3470398274102588
-0.48100495346875505	-0.3630498104329819
-0.48094391831250505	-0.37646792967717485
-0.48088288315625505	-0.3871948451615991
-0.48082184800000505	-0.3951507038933858
-0.48076081284375505	-0.40027571103879955
-0.48069977768750505	-0.40253060007129127
-0.48063874253125505	-0.40189690217738167
-0.48057770737500505	-0.3983771214204562
-0.48051667221875505	-0.3919947154716042
-0.48045563706250505	-0.3827939296320075
-0.48039460190625505	-0.3708395161728037
-0.48033356675000505	-0.35621623334313424
-0.48027253159375505	-0.3390282899959125
-0.48021149643750505	-0.319398548374831
-0.48015046128125505	-0.2974676810511724
-0.48008942612500505	-0.27339314060594366
-0.48002839096875505	-0.24734801095396838
-0.47996735581250505	-0.21951979993968196
-0.47990632065625505	-0.1901090150934056
-0.47984528550000505	-0.15932777959673924
-0.47978425034375505	-0.12739825714626532
-0.47972321518750505	-0.09455102332703853
-0.47966218003125505	-0.06102346872323977
-0.47960114487500505	-0.02705796175712023
-0.47954010971875505	0.007099810407868389
-0.47947907456250505	0.04120269231509419
-0.47941803940625505	0.07500384533788679
-0.47935700425000505	0.10825850423514542
-0.47929596909375505	0.14072585918298736
-0.47923493393750505	0.17217067785595566
-0.47917389878125505	0.20236514994397878
-0.47911286362500505	0.2310904573478923
-0.47905182846875505	0.25813841952781946
-0.47899079331250505	0.28331302046389817
-0.47892975815625505	0.3064317897763397
-0.47886872300000505	0.3273272228809009
-0.47880768784375505	0.34584790552840905
-0.47874665268750505	0.3618597356085034
-0.47868561753125505	0.37524680998980975
-0.47862458237500505	0.38591233775660866
-0.47856354721875505	0.3937793433435913
-0.47850251206250505	0.3987911983194902
-0.47844147690625505	0.4009121146856898
-0.47838044175000505	0.40012732869377843
-0.47831940659375505	0.3964432929480676
-0.47825837143750505	0.389887583855208
-0.47819733628125505	0.38050873343183506
-0.47813630112500505	0.36837588389925086
-0.47807526596875505	0.3535782654363622
-0.47801423081250505	0.3362245915358073
-0.47795319565625505	0.31644223114082193
-0.47789216050000505	0.29437630822543154
-0.47783112534375505	0.2701886532986128
-0.47777009018750505	0.24405658692967303
-0.47770905503125505	0.2161716859218139
-0.47764801987500505	0.18673834339046766
-0.47758698471875505	0.1559722875659355
-0.47752594956250505	0.1240990212017277
-0.47746491440625505	0.09135216582083577
-0.47740387925000505	0.0579717537186124
-0.47734284409375505	0.024202464067925058
-0.47728180893750505	-0.009708127870555833
-0.47722077378125505	-0.043511431673096235
-0.47715973862500505	-0.07695956744316793
-0.47709870346875505	-0.10980729442948735
-0.47703766831250505	-0.14181370243198038
-0.47697663315625505	-0.17274403303138466
-0.47691559800000505	-0.2023714242843607
-0.47685456284375505	-0.2304784955254541
-0.47679352768750505	-0.2568590451418589
-0.47673249253125505	-0.28131947111732825
-0.47667145737500505	-0.3036802733361837
-0.47661042221875505	-0.3237773182165021
-0.47654938706250505	-0.3414630906062188
-0.47648835190625505	-0.35660774178726024
-0.47642731675000505	-0.3691000919253255
-0.47636628159375505	-0.3788484154085852
-0.47630524643750505	-0.38578114093564575
-0.47624421128125505	-0.3898473937630824
-0.47618317612500505	-0.39101733948756334
-0.47612214096875505	-0.38928246825584567
-0.47606110581250505	-0.3846556037395995
-0.47600007065625505	-0.37717087569447433
-0.47593903550000505	-0.3668834280314108
-0.47587800034375505	-0.35386906433088805
-0.47581696518750505	-0.3382236674170029
-0.47575593003125505	-0.32006252120530526
-0.47569489487500505	-0.29951947295369047
-0.47563385971875505	-0.27674594012740034
-0.47557282456250505	-0.25190982979837045
-0.47551178940625505	-0.22519428761457266
-0.47545075425000505	-0.19679638070625832
-0.47538971909375505	-0.1669256269823945
-0.47532868393750505	-0.13580250189924717
-0.47526764878125505	-0.10365676984574822
-0.47520661362500505	-0.07072584541938144
-0.47514557846875505	-0.03725301656516634
-0.47508454331250505	-0.003485676898289238
-0.47502350815625505	0.030326484484338133
-0.47496247300000505	0.06393337601684142
-0.47490143784375505	0.09708623902473511
-0.47484040268750505	0.12953959860218653
-0.47477936753125505	0.1610529817147639
-0.47471833237500505	0.19139273585493274
-0.47465729721875505	0.22033374809270911
-0.47459626206250505	0.24766107461849537
-0.47453522690625505	0.27317159104204913
-0.47447419175000505	0.296675418572023
-0.47441315659375505	0.3179974142688117
-0.47435212143750505	0.3369783811500088
-0.47429108628125505	0.35347632231766496
-0.47423005112500505	0.367367462370452
-0.47416901596875505	0.3785471598415029
-0.47410798081250505	0.38693073407136197
-0.47404694565625505	0.39245404054526023
-0.47398591050000505	0.3950740157681594
-0.47392487534375505	0.3947689543999601
-0.47386384018750505	0.39153872560597436
-0.47380280503125505	0.38540475595199025
-0.47374176987500505	0.3764099054420665
-0.47368073471875505	0.36461815250100466
-0.47361969956250505	0.3501141367464025
-0.47355866440625505	0.3330025636768522
-0.47349762925000505	0.31340742325514415
-0.47343659409375505	0.2914711029071506
-0.47337555893750505	0.2673533411095823
-0.47331452378125505	0.24123008166471585
-0.47325348862500505	0.21329215106860722
-0.47319245346875505	0.18374389952204076
-0.47313141831250505	0.15280167821967347
-0.47307038315625505	0.12069227225916106
-0.47300934800000505	0.08765120192157287
-0.47294831284375505	0.05392104545455926
-0.47288727768750505	0.01974960567882687
-0.47282624253125505	-0.014611893099642885
-0.47276520737500505	-0.04891062921395617
-0.47270417221875505	-0.08289411706419388
-0.47264313706250505	-0.11631196717622945
-0.47258210190625505	-0.14891783326899805
-0.47252106675000505	-0.18047117054350206
-0.47246003159375505	-0.2107390094309834
-0.47239899643750505	-0.2394977257049324
-0.47233796128125505	-0.26653464788850373
-0.47227692612500505	-0.29164965165511175
-0.47221589096875505	-0.3146566436097873
-0.47215485581250505	-0.3353849299388122
-0.47209382065625505	-0.35368050697895215
-0.47203278550000505	-0.36940718175588466
-0.47197175034375505	-0.3824476033713175
-0.47191071518750505	-0.39270413500317436
-0.47184968003125505	-0.4000995780151048
-0.47178864487500505	-0.4045777740516877
-0.47172760971875505	-0.40610400549722403
-0.47166657456250505	-0.4046652862396663
-0.47160553940625505	-0.40027045466645966
-0.47154450425000505	-0.39295013136599743
-0.47148346909375505	-0.38275650037896175
-0.47142243393750505	-0.36976293700951257
-0.47136139878125505	-0.3540634816156712
-0.47130036362500505	-0.3357721548346307
-0.47123932846875505	-0.31502212538518304
-0.47117829331250505	-0.2919647449162211
-0.47111725815625505	-0.2667684330299284
-0.47105622300000505	-0.23961745213932065
-0.47099518784375505	-0.21071054299326164
-0.47093415268750505	-0.18025948453627966
-0.47087311753125505	-0.1484875213756443
-0.47081208237500505	-0.11562772157864976
-0.47075104721875505	-0.08192128175744116
-0.47069001206250505	-0.0476157198439409
-0.47062897690625505	-0.01296308129633885
-0.47056794175000505	0.0217819490023317
-0.47050690659375505	0.05636390148794524
