Time	Frequency
-0.5000357629687642	-0.3347749147191837
-0.4999747278125142	-0.3261433231657946
-0.4999136926562642	-0.3155588638925196
-0.4998526575000142	-0.3030809672582482
-0.4997916223437642	-0.28878028654758037
-0.4997305871875142	-0.27273831164104695
-0.4996695520312642	-0.2550468739585163
-0.4996085168750142	-0.2358076459804257
-0.4995474817187642	-0.21513148460629128
-0.4994864465625142	-0.1931378795738076
-0.4994254114062642	-0.16995414322800992
-0.4993643762500142	-0.14571477099817257
-0.4993033410937642	-0.12056055928462588
-0.4992423059375142	-0.0946378581472374
-0.4991812707812642	-0.06809765172262632
-0.4991202356250142	-0.04109471030486632
-0.4990592004687642	-0.013786651396395821
-0.4989981653125142	0.013666962744552643
-0.4989371301562642	0.04110559612677947
-0.4988760950000142	0.06836864871657196
-0.4988150598437642	0.09529643451736186
-0.4987540246875142	0.12173110447111335
-0.4986929895312642	0.147517607813197
-0.4986319543750142	0.17250456697109257
-0.4985709192187642	0.19654518989469044
-0.4985098840625142	0.2194981849832334
-0.4984488489062642	0.2412284993809827
-0.4983878137500142	0.26160822888874824
-0.4983267785937642	0.28051728656220076
-0.4982657434375142	0.2978441868792147
-0.4982047082812642	0.313486661103176
-0.4981436731250142	0.3273522673662265
-0.4980826379687642	0.33935899600403957
-0.4980216028125142	0.3494356741178422
-0.4979605676562642	0.35752247968633805
-0.4978995325000142	0.3635712175909643
-0.4978384973437642	0.36754568896778156
-0.4977774621875142	0.36942184180361326
-0.4977164270312642	0.3691879696081821
-0.4976553918750142	0.3668447605842166
-0.4975943567187642	0.362405303892564
-0.4975333215625142	0.3558950288429377
-0.4974722864062642	0.34735153941689717
-0.4974112512500142	0.336824426892483
-0.4973502160937642	0.32437494762020713
-0.4972891809375142	0.31007570558452335
-0.4972281457812642	0.29401018150456076
-0.4971671106250142	0.27627230051202933
-0.4971060754687642	0.2569658159898363
-0.4970450403125142	0.23620377358781364
-0.4969840051562642	0.21410776835134765
-0.4969229700000142	0.19080730066263515
-0.4968619348437642	0.16643896600880154
-0.4968008996875142	0.14114566609339435
-0.4967398645312642	0.1150757695964633
-0.4966788293750142	0.08838222476998148
-0.4966177942187642	0.0612216752981205
-0.4965567590625142	0.03375350903910826
-0.4964957239062642	0.006138947075395774
-0.4964346887500142	-0.021459959522653494
-0.4963736535937642	-0.04888121864472897
-0.4963126184375142	-0.07596392505633835
-0.4962515832812642	-0.1025491624107998
-0.4961905481250142	-0.12848098986546302
-0.4961295129687642	-0.15360732126103932
-0.4960684778125142	-0.17778084921124662
-0.4960074426562642	-0.2008599514649695
-0.4959464075000142	-0.22270945096767478
-0.4958853723437642	-0.24320151581041552
-0.4958243371875142	-0.26221633589610416
-0.4957633020312642	-0.27964289523259866
-0.4957022668750142	-0.29537959492548677
-0.4956412317187642	-0.30933487393332665
-0.4955801965625142	-0.32142776727073824
-0.4955191614062642	-0.3315883522548168
-0.4954581262500142	-0.33975820824972647
-0.4953970910937642	-0.34589074076626164
-0.4953360559375142	-0.34995146380938885
-0.4952750207812642	-0.3519182234766893
-0.4952139856250142	-0.35178130029107224
-0.4951529504687642	-0.3495435143006735
-0.4950919153125142	-0.3452201638641145
-0.4950308801562642	-0.33883897981037814
-0.4949698450000142	-0.33043992770283004
-0.4949088098437642	-0.32007500270549694
-0.4948477746875142	-0.3078078993444588
-0.4947867395312642	-0.29371365445535297
-0.4947257043750142	-0.27787817982024837
-0.4946646692187642	-0.26039778276859277
-0.4946036340625142	-0.24137857327789464
-0.4945425989062642	-0.22093583060805277
-0.4944815637500142	-0.1991933474787175
-0.4944205285937642	-0.17628266102069606
-0.4943594934375142	-0.15234228133025707
-0.4942984582812642	-0.12751688834449
-0.4942374231250142	-0.10195644053110825
-0.4941763879687642	-0.0758152798644558
-0.4941153528125142	-0.04925127347136259
-0.4940543176562642	-0.022424755066867048
-0.4939932825000142	0.004502286909911148
-0.4939322473437642	0.03136731175536956
-0.4938712121875142	0.05800809405415371
-0.4938101770312642	0.08426375953458488
-0.4937491418750142	0.1099757013096621
-0.4936881067187642	0.13498858092025226
-0.4936270715625142	0.15915117856575087
-0.4935660364062642	0.18231738497486338
-0.4935050012500142	0.2043470245103623
-0.4934439660937642	0.2251067030208666
-0.4933829309375142	0.24447062367248099
-0.4933218957812642	0.26232131674497045
-0.4932608606250142	0.2785503950882761
-0.4931998254687642	0.29305912252955024
-0.4931387903125142	0.30575912080155127
-0.4930777551562642	0.31657277497592495
-0.4930167200000142	0.32543383781739044
-0.4929556848437642	0.33228770755735076
-0.4928946496875142	0.33709186153105347
-0.4928336145312642	0.33981603848595493
-0.4927725793750142	0.34044248366259117
-0.4927115442187642	0.33896602701783723
-0.4926505090625142	0.33539413687629344
-0.4925894739062642	0.3297468780964004
-0.4925284387500142	0.3220567955640051
-0.4924674035937642	0.312368736983044
-0.4924063684375142	0.30073957306531224
-0.4923453332812642	0.28723789505202035
-0.4922842981250142	0.27194356523300167
-0.4922232629687642	0.25494730020088424
-0.4921622278125142	0.23635008440646857
-0.4921011926562642	0.2162626068743098
-0.4920401575000142	0.19480458803683917
-0.4919791223437642	0.17210406828756233
-0.4919180871875142	0.14829666347220571
-0.4918570520312642	0.12352471703698478
-0.4917960168750142	0.09793652726347422
-0.4917349817187642	0.07168536436925829
-0.4916739465625142	0.04492863731719784
-0.4916129114062642	0.017826926236027593
-0.4915518762500142	-0.009457002637026814
-0.4914908410937642	-0.036759099428893834
-0.4914298059375142	-0.06391512969351175
-0.4913687707812642	-0.09076150683576532
-0.4913077356250142	-0.11713642899343032
-0.4912467004687642	-0.14288069828808528
-0.4911856653125142	-0.16783881355824898
-0.4911246301562642	-0.1918597963834545
-0.4910635950000142	-0.21479816568536186
-0.4910025598437642	-0.23651478289415578
-0.4909415246875142	-0.2568776843207221
-0.4908804895312642	-0.27576291369691613
-0.4908194543750142	-0.29305521357447983
-0.4907584192187642	-0.3086487809341703
-0.4906973840625142	-0.3224478538323999
-0.4906363489062642	-0.33436733741151287
-0.4905753137500142	-0.3443332853780071
-0.4905142785937642	-0.3522833778669783
-0.4904532434375142	-0.35816728118672725
-0.4903922082812642	-0.36194697638076545
-0.4903311731250142	-0.36359697788897644
-0.4902701379687642	-0.3631045149747353
-0.4902091028125142	-0.36046959418516783
-0.4901480676562642	-0.3557050364902008
-0.4900870325000142	-0.3488363750602041
-0.4900259973437642	-0.3399017527947087
-0.4899649621875142	-0.32895165805526727
-0.4899039270312642	-0.3160486763037968
-0.4898428918750142	-0.301267082419095
-0.4897818567187642	-0.2846924403473265
-0.4897208215625142	-0.26642106635745794
-0.4896597864062642	-0.24655949737072236
-0.4895987512500142	-0.2252238129998523
-0.4895377160937642	-0.2025389971679859
-0.4894766809375142	-0.1786381675538078
-0.4894156457812642	-0.15366177254698105
-0.4893546106250142	-0.1277568020783018
-0.4892935754687642	-0.1010758543844341
-0.4892325403125142	-0.07377627946426536
-0.4891715051562642	-0.04601920313644621
-0.4891104700000142	-0.017968584739590492
-0.4890494348437642	0.010209774890626064
-0.4889883996875142	0.03834921079578091
-0.4889273645312642	0.06628319716084549
-0.4888663293750142	0.09384634964092707
-0.4888052942187642	0.12087540576485283
-0.4887442590625142	0.1472102103292744
-0.4886832239062642	0.1726946622013786
-0.4886221887500142	0.1971776780349357
-0.4885611535937642	0.22051408273237771
-0.4885001184375142	0.24256545052648398
-0.4884390832812642	0.26320101287755987
-0.4883780481250142	0.28229836515781725
-0.4883170129687642	0.2997442580738074
-0.4882559778125142	0.31543525453712457
-0.4881949426562642	0.3292783529799636
-0.4881339075000142	0.34119157460952393
-0.4880728723437642	0.35110441869753345
-0.4880118371875142	0.358958332852396
-0.4879508020312642	0.3647070302382045
-0.4878897668750142	0.36831680738861566
-0.4878287317187642	0.3697667189050579
-0.4877676965625142	0.3690487352036759
-0.4877066614062642	0.3661677779685265
-0.4876456262500142	0.3611416999239564
-0.4875845910937642	0.35400119290610854
-0.4875235559375142	0.34478958792663766
-0.4874625207812642	0.33356262553457117
-0.4874014856250142	0.3203880936724001
-0.4873404504687642	0.30534546598177387
-0.4872794153125142	0.2885253855041294
-0.4872183801562642	0.2700291596001035
-0.4871573450000142	0.2499681319680424
-0.4870963098437642	0.228463027743977
-0.4870352746875142	0.20564322843523253
-0.4869742395312642	0.18164600494699787
-0.4869132043750142	0.1566156799288992
-0.4868521692187642	0.13070276811805334
-0.4867911340625142	0.10406309182501476
-0.4867300989062642	0.07685681607974099
-0.4866690637500142	0.04924750719605793
-0.4866080285937642	0.02140113526778106
-0.4865469934375142	-0.006514906693077628
-0.4864859582812642	-0.0343328158974275
-0.4864249231250142	-0.06188540197937195
-0.4863638879687642	-0.08900708197848374
-0.4863028528125142	-0.11553486911254236
-0.4862418176562642	-0.1413093744919231
-0.4861807825000142	-0.16617576442111986
-0.4861197473437642	-0.1899846767378587
-0.4860587121875142	-0.21259313596812068
-0.4859976770312642	-0.23386543089757356
-0.4859366418750142	-0.2536738979664516
-0.4858756067187642	-0.27189973638964404
-0.4858145715625142	-0.2884336820075417
-0.4857535364062642	-0.30317672317852623
-0.4856925012500142	-0.31604063752308026
-0.4856314660937642	-0.32694858804793375
-0.4855704309375142	-0.3358355473249556
-0.4855093957812642	-0.3426487153628007
-0.4854483606250142	-0.347347834712854
-0.4853873254687642	-0.34990543818102327
-0.4853262903125142	-0.3503070227183454
-0.4852652551562642	-0.3485511302801911
-0.4852042200000142	-0.3446493808166168
-0.4851431848437642	-0.338626377248137
-0.4850821496875142	-0.33051959664795555
-0.4850211145312642	-0.3203791276178984
-0.4849600793750142	-0.3082674197198826
-0.4848990442187642	-0.29425885118876044
-0.4848380090625142	-0.2784393525380299
-0.4847769739062642	-0.2609058172104687
-0.4847159387500142	-0.24176558413030141
-0.4846549035937642	-0.22113574872124356
-0.4845938684375142	-0.19914248503334098
-0.4845328332812642	-0.17592025258950436
-0.4844717981250142	-0.1516110379814005
-0.4844107629687642	-0.12636344026846383
-0.4843497278125142	-0.10033180792274997
-0.4842886926562642	-0.07367530554805894
-0.4842276575000142	-0.04655693804154454
-0.4841666223437642	-0.01914257893195285
-0.4841055871875142	0.008400062873952091
-0.4840445520312642	0.03590239636061883
-0.4839835168750142	0.0631960520224908
-0.4839224817187642	0.09011383159238436
-0.4838614465625142	0.1164907715994752
-0.4838004114062642	0.14216509696205876
-0.4837393762500142	0.16697926357209997
-0.4836783410937642	0.19078085925828087
-0.4836173059375142	0.2134235656026546
-0.4835562707812642	0.23476802881456976
-0.4834952356250142	0.2546827232226276
-0.4834342004687642	0.2730447493949122
-0.4833731653125142	0.28974057429479894
-0.4833121301562642	0.304666739900595
-0.4832510950000142	0.31773048333778653
-0.4831900598437642	0.32885032521116736
-0.4831290246875142	0.3379565417980045
-0.4830679895312642	0.34499162175518866
-0.4830069543750142	0.3499106089400462
-0.4829459192187642	0.35268138476729205
-0.4828848840625142	0.3532848726738392
-0.4828238489062642	0.3517151637908714
-0.4827628137500142	0.34797955185889623
-0.4827017785937642	0.34209851240150774
-0.4826407434375142	0.33410556989799484
-0.4825797082812642	0.32404712095605753
-0.4825186731250142	0.31198214151914544
-0.4824576379687642	0.29798185545989875
-0.4823966028125142	0.28212929551375876
-0.4823355676562642	0.2645188244954791
-0.4822745325000142	0.2452555393829699
-0.4822134973437642	0.22445469053499767
-0.4821524621875142	0.20224092224063447
-0.4820914270312642	0.1787475999369028
-0.4820303918750142	0.15411593702328355
-0.4819693567187642	0.1284941902416276
-0.4819083215625142	0.10203673289171632
-0.4818472864062642	0.0749031438875793
-0.4817862512500142	0.04725725209536031
-0.4817252160937642	0.019266091905636502
-0.4816641809375142	-0.008901024908211607
-0.4816031457812642	-0.03707363407258592
-0.4815421106250142	-0.06508103207988586
-0.4814810754687642	-0.09275346091183509
-0.4814200403125142	-0.11992297770950552
-0.4813590051562642	-0.14642461840062299
-0.4812979700000142	-0.1720972887338057
-0.4812369348437642	-0.19678482083681548
-0.4811758996875142	-0.2203368977804886
-0.4811148645312642	-0.24260993555976923
-0.4810538293750142	-0.2634680336794028
-0.4809927942187642	-0.2827837308757475
-0.4809317590625142	-0.3004388325506285
-0.4808707239062642	-0.3163251040075488
-0.4808096887500142	-0.33034495738112396
-0.4807486535937642	-0.3424120336167822
-0.4806876184375142	-0.3524517468759662
-0.4806265832812642	-0.3604017279881005
-0.4805655481250142	-0.36621223361100136
-0.4805045129687642	-0.36984643021759295
-0.4804434778125142	-0.37128065514168346
-0.4803824426562642	-0.3705045305427731
-0.4803214075000142	-0.367521081678378
-0.4802603723437642	-0.3623466763265282
-0.4801993371875142	-0.35501098211956716
-0.4801383020312642	-0.3455567501141878
-0.4800772668750142	-0.3340396032270646
-0.4800162317187642	-0.3205276710143323
-0.4799551965625142	-0.30510121002061613
-0.4798941614062642	-0.28785210772261377
-0.4798331262500142	-0.26888334359846394
-0.4797720910937642	-0.24830834858660375
-0.4797110559375142	-0.2262503590263407
-0.4796500207812642	-0.2028416279148313
-0.4795889856250142	-0.17822266903558362
-0.4795279504687642	-0.15254138507003287
-0.4794669153125142	-0.12595216242532012
-0.4794058801562642	-0.09861498610476496
-0.4793448450000142	-0.07069439208248275
-0.4792838098437642	-0.042358562106244856
-0.4792227746875142	-0.013778216604800417
-0.4791617395312642	0.014874358583114247
-0.4791007043750142	0.04342638366710431
-0.4790396692187642	0.07170563951401711
-0.4789786340625142	0.09954149015970482
-0.4789175989062642	0.12676597347748986
-0.4788565637500142	0.15321474185730008
-0.4787955285937642	0.17872813636429621
-0.4787344934375142	0.20315214068668122
-0.4786734582812642	0.2263392761686903
-0.4786124231250142	0.24814957643038826
-0.4785513879687642	0.26845137219609055
-0.4784903528125142	0.28712215376550426
-0.4784293176562642	0.30404926091778484
-0.4783682825000142	0.3191306366139301
-0.4783072473437642	0.3322753977298635
-0.4782462121875142	0.34340442488021056
-0.4781851770312642	0.3524508383840491
-0.4781241418750142	0.35936040946874315
-0.4780631067187642	0.36409190122421814
-0.4780020715625142	0.36661731028301925
-0.4779410364062642	0.3669220685913819
-0.4778800012500142	0.36500510484656556
-0.4778189660937642	0.3608788864572435
-0.4777579309375142	0.354569324962771
-0.4776968957812642	0.3461156388136462
-0.4776358606250142	0.33557010519264496
-0.4775748254687642	0.3229977689365998
-0.4775137903125142	0.3084760140663508
-0.4774527551562642	0.29209413626173886
-0.4773917200000142	0.2739527698787212
-0.4773306848437642	0.25416330361976097
-0.4772696496875142	0.23284717591703707
-0.4772086145312642	0.21013516985513045
-0.4771475793750142	0.18616658945072648
-0.4770865442187642	0.16108842774886015
-0.4770255090625142	0.13505447613093963
-0.4769644739062642	0.10822436384752458
-0.4769034387500142	0.0807626058708438
-0.4768424035937642	0.052837595260178005
-0.4767813684375142	0.024620585570186253
-0.4767203332812642	-0.0037154010653116403
-0.4766592981250142	-0.03199655797219002
-0.4765982629687642	-0.0600494294355191
-0.4765372278125142	-0.08770190757908475
-0.4764761926562642	-0.11478434609796295
-0.4764151575000142	-0.14113054267022107
-0.4763541223437642	-0.16657880342070355
-0.4762930871875142	-0.1909729054812246
-0.4762320520312642	-0.21416306625013207
-0.4761710168750142	-0.23600686129138604
-0.4761099817187642	-0.2563700924941231
-0.4760489465625142	-0.2751276401536368
-0.4759879114062642	-0.2921641769911548
-0.4759268762500142	-0.30737496132138903
-0.4758658410937642	-0.3206663818267781
-0.4758048059375142	-0.3319566384268893
-0.4757437707812642	-0.3411761627746641
-0.4756827356250142	-0.3482681159767753
-0.4756217004687642	-0.3531886846855552
-0.4755606653125142	-0.35590740537083476
-0.4754996301562642	-0.35640732473580833
-0.4754385950000142	-0.35468512057287305
-0.4753775598437642	-0.35075113181321943
-0.4753165246875142	-0.34462928719447256
-0.4752554895312642	-0.33635698778453316
-0.4751944543750142	-0.32598485444075703
-0.4751334192187642	-0.3135764530471979
-0.4750723840625142	-0.2992078817557322
-0.4750113489062642	-0.28296734143143937
-0.4749503137500142	-0.26495456393150835
-0.4748892785937642	-0.245280235285825
-0.4748282434375142	-0.22406531630635973
-0.4747672082812642	-0.20144027748991203
-0.4747061731250142	-0.17754434977323705
-0.4746451379687642	-0.15252462502188452
-0.4745841028125142	-0.12653519264060215
-0.4745230676562642	-0.09973619359740263
-0.4744620325000142	-0.07229279460693425
-0.4744009973437642	-0.04437425421392698
-0.4743399621875142	-0.016152796860067264
-0.4742789270312642	0.012197336152643755
-0.4742178918750142	0.040501109234787044
-0.4741568567187642	0.0685835742069538
-0.4740958215625142	0.0962711327897392
-0.4740347864062642	0.12339248086461761
-0.4739737512500142	0.14977970866471116
-0.4739127160937642	0.17526933143435972
-0.4738516809375142	0.19970329534548995
-0.4737906457812642	0.22292994581597372
-0.4737296106250142	0.2448049701776343
-0.4736685754687642	0.2651923158789451
-0.4736075403125142	0.28396493505746667
-0.4735465051562642	0.3010057471779419
-0.4734854700000142	0.3162081351034588
-0.4734244348437642	0.3294768492956911
-0.4733633996875142	0.3407283841319287
-0.4733023645312642	0.34989167072592636
-0.4732413293750142	0.3569083941495725
-0.4731802942187642	0.36173344935841495
-0.4731192590625142	0.36433517095734524
-0.4730582239062642	0.36469556187920854
-0.4729971887500142	0.362810413154288
-0.4729361535937642	0.35868931852651675
-0.4728751184375142	0.35235565671716423
-0.4728140832812642	0.34384641457113874
-0.4727530481250142	0.33321201610574214
-0.4726920129687642	0.32051597293783013
-0.4726309778125142	0.3058345433999934
-0.4725699426562642	0.289256238464796
-0.4725089075000142	0.27088130423284723
-0.4724478723437642	0.25082111174764954
-0.4723868371875142	0.22919746964934187
-0.4723258020312642	0.20614188113095722
-0.4722647668750142	0.1817947610129751
-0.4722037317187642	0.15630454139152616
-0.4721426965625142	0.12982680373030478
-0.4720816614062642	0.10252328845304763
-0.4720206262500142	0.07456093977062632
-0.4719595910937642	0.04611083633359361
-0.4718985559375142	0.017347204425398194
-0.4718375207812642	-0.01155374540573813
-0.4717764856250142	-0.040414766189428616
-0.4717154504687642	-0.06905883922557787
-0.4716544153125142	-0.09731007785477828
-0.4715933801562642	-0.12499498423139863
-0.4715323450000142	-0.15194336983846876
-0.4714713098437642	-0.17798952292942793
-0.4714102746875142	-0.20297314751463205
-0.4713492395312642	-0.22674040571452542
-0.4712882043750142	-0.24914485103453818
-0.4712271692187642	-0.2700483114671523
-0.4711661340625142	-0.28932180822323145
-0.4711050989062642	-0.3068462650517477
-0.4710440637500142	-0.32251335440719053
-0.4709830285937642	-0.33622605177737774
-0.4709219934375142	-0.34789935867281463
-0.4708609582812642	-0.35746073617880325
-0.4707999231250142	-0.36485062519320327
-0.4707388879687642	-0.3700227683973308
-0.4706778528125142	-0.3729445622002316
-0.4706168176562642	-0.373597195407095
-0.4705557825000142	-0.37197584347629714
-0.4704947473437642	-0.3680896377902257
-0.4704337121875142	-0.3619616847385626
-0.4703726770312642	-0.35362886285106027
-0.4703116418750142	-0.3431416705548551
-0.4702506067187642	-0.33056385061846255
-0.4701895715625142	-0.31597208118070047
-0.4701285364062642	-0.2994554360455643
-0.4700675012500142	-0.28111490054989535
-0.4700064660937642	-0.2610627077248012
-0.4699454309375142	-0.2394216934654358
-0.4698843957812642	-0.21632451441684378
-0.4698233606250142	-0.19191284857926166
-0.4697623254687642	-0.16633651421866777
