Time	Frequency
-0.5000226817812461	-0.2332069756290051
-0.4999616466249961	-0.20888712271793566
-0.4999006114687461	-0.18321563928269388
-0.4998395763124961	-0.15636382087413536
-0.4997785411562461	-0.1285107940222457
-0.4997175059999961	-0.0998423591272618
-0.4996564708437461	-0.0705496545781555
-0.4995954356874961	-0.040828065306536966
-0.4995344005312461	-0.010875717162822669
-0.4994733653749961	0.01910763612300346
-0.4994123302187461	0.048922089772949325
-0.4993512950624961	0.07836883427273852
-0.4992902599062461	0.107251480684624
-0.4992292247499961	0.13537742378104
-0.4991681895937461	0.1625590125786043
-0.4991071544374961	0.18861495545221027
-0.4990461192812461	0.21337133171867023
-0.4989850841249961	0.23666294757459216
-0.4989240489687461	0.25833428570818223
-0.4988630138124961	0.278240620040439
-0.4988019786562461	0.2962489620102006
-0.4987409434999961	0.31223894096470733
-0.4986799083437461	0.3261036337216283
-0.4986188731874961	0.3377502291960653
-0.4985578380312461	0.3471007485559658
-0.4984968028749961	0.3540924244966727
-0.4984357677187461	0.3586782935215413
-0.4983747325624961	0.3608273598720556
-0.4983136974062461	0.36052492590624907
-0.4982526622499961	0.35777262952472333
-0.4981916270937461	0.3525884561760712
-0.4981305919374961	0.3450066564371034
-0.4980695567812461	0.3350774637733113
-0.4980085216249961	0.3228668482968877
-0.4979474864687461	0.30845599544599983
-0.4978864513124961	0.2919408655623746
-0.4978254161562461	0.2734314720727418
-0.4977643809999961	0.2530512399631945
-0.4977033458437461	0.2309361164879103
-0.4976423106874961	0.20723373018341262
-0.4975812755312461	0.18210237840673732
-0.4975202403749961	0.15570998741743433
-0.4974592052187461	0.12823302537414547
-0.4973981700624961	0.09985526324431679
-0.4973371349062461	0.07076665347545508
-0.4972760997499961	0.04116195565351681
-0.4972150645937461	0.011239560664150005
-0.4971540294374961	-0.018799944832623573
-0.4970929942812461	-0.04875502977727721
-0.4970319591249961	-0.07842459188188924
-0.4969709239687461	-0.10760932047048068
-0.4969098888124961	-0.13611295705891396
-0.4968488536562461	-0.1637437181611648
-0.4967878184999961	-0.1903154280133167
-0.4967267833437461	-0.2156489225661696
-0.4966657481874961	-0.23957311168056186
-0.4966047130312461	-0.261926216917344
-0.4965436778749961	-0.2825568158767618
-0.4964826427187461	-0.30132483480461864
-0.4964216075624961	-0.3181025842932726
-0.4963605724062461	-0.33277547536399293
-0.4962995372499961	-0.34524294232121816
-0.4962385020937461	-0.35541900043800206
-0.4961774669374961	-0.3632329104542943
-0.4961164317812461	-0.36862961690413976
-0.4960553966249961	-0.3715701374631936
-0.4959943614687461	-0.3720318557717538
-0.4959333263124961	-0.3700086311766392
-0.4958722911562461	-0.36551091993348656
-0.4958112559999961	-0.3585656496854668
-0.4957502208437461	-0.3492161103916668
-0.4956891856874961	-0.33752162653050116
-0.4956281505312461	-0.3235572178848569
-0.4955671153749961	-0.3074130755496754
-0.4955060802187461	-0.28919399119732264
-0.4954450450624961	-0.2690186638252652
-0.4953840099062461	-0.24701891905718917
-0.4953229747499961	-0.22333884022981657
-0.4952619395937461	-0.19813380871103037
-0.4952009044374961	-0.1715695100107004
-0.4951398692812461	-0.14382075896690408
-0.4950788341249961	-0.11507046124600079
-0.4950177989687461	-0.0855082724329176
-0.4949567638124961	-0.055329438081947686
-0.4948957286562461	-0.024733443138974912
-0.4948346934999961	0.00607730638036239
-0.4947736583437461	0.0368987973890642
-0.4947126231874961	0.067526841254352
-0.4946515880312461	0.0977583157314693
-0.4945905528749961	0.12739266731205443
-0.4945295177187461	0.15623310656560782
-0.4944684825624961	0.1840880247562394
-0.4944074474062461	0.21077222984314228
-0.4943464122499961	0.2361081693409489
-0.4942853770937461	0.2599271615405993
-0.4942243419374961	0.28207048646434857
-0.4941633067812461	0.3023904835866807
-0.4941022716249961	0.32075149259295
-0.4940412364687461	0.3370308319902075
-0.4939802013124961	0.3511195472992151
-0.4939191661562461	0.3629232287485576
-0.4938581309999961	0.37236256692712083
-0.4937970958437461	0.37937394697707894
-0.4937360606874961	0.38390986278216
-0.4936750255312461	0.3859392244224754
-0.4936139903749961	0.38544762207775246
-0.4935529552187461	0.38243735641488635
-0.4934919200624961	0.37692752166143373
-0.4934308849062461	0.36895379797084
-0.4933698497499961	0.3585682958776799
-0.4933088145937461	0.3458391649142905
-0.4932477794374961	0.33085016982599025
-0.4931867442812461	0.3137001447834386
-0.4931257091249961	0.2945023183500583
-0.4930646739687461	0.27338358608393915
-0.4930036388124961	0.25048365704796766
-0.4929426036562461	0.22595413901775105
-0.4928815684999961	0.19995750955524935
-0.4928205333437461	0.17266607248639587
-0.4927594981874961	0.14426075526001705
-0.4926984630312461	0.11492999196376627
-0.4926374278749961	0.08486834959356981
-0.4925763927187461	0.05427534930695059
-0.4925153575624961	0.023354065222987604
-0.4924543224062461	-0.00769022783382594
-0.4923932872499961	-0.03865138347212964
-0.4923322520937461	-0.06932382357589799
-0.4922712169374961	-0.09950382905812306
-0.4922101817812461	-0.12899100613326292
-0.4921491466249961	-0.1575895181229445
-0.4920881114687461	-0.1851094903796565
-0.4920270763124961	-0.21136821371689765
-0.4919660411562461	-0.23619141866014737
-0.4919050059999961	-0.2594143999649807
-0.4918439708437461	-0.2808831579036365
-0.4917829356874961	-0.30045542116226726
-0.4917219005312461	-0.3180015727745145
-0.4916608653749961	-0.3334055920506807
-0.4915998302187461	-0.34656574347529967
-0.4915387950624961	-0.3573953514713247
-0.4914777599062461	-0.36582330670721763
-0.4914167247499961	-0.37179462017324105
-0.4913556895937461	-0.37527073644416
-0.4912946544374961	-0.37622982491050716
-0.4912336192812461	-0.3746669375359126
-0.4911725841249961	-0.3705940176560185
-0.4911115489687461	-0.36403986272191985
-0.4910505138124961	-0.35504989653390484
-0.4909894786562461	-0.3436859049727351
-0.4909284434999961	-0.33002559476894194
-0.4908674083437461	-0.3141621050486028
-0.4908063731874961	-0.29620335825898386
-0.4907453380312461	-0.2762713653842691
-0.4906843028749961	-0.25450139081686723
-0.4906232677187461	-0.2310410589185558
-0.4905622325624961	-0.20604935999666787
-0.4905011974062461	-0.17969559190839363
-0.4904401622499961	-0.15215821706713503
-0.4903791270937461	-0.12362366578124567
-0.4903180919374961	-0.09428510791098639
-0.4902570567812461	-0.06434109544415217
-0.4901960216249961	-0.033994323369949196
-0.4901349864687461	-0.0034501596975320932
-0.4900739513124961	0.02708463175056983
-0.4900129161562461	0.05740335883738613
-0.4899518809999961	0.08730079005226866
-0.4898908458437461	0.11657443904136008
-0.4898298106874961	0.145026092978962
-0.4897687755312461	0.17246297679936035
-0.4897077403749961	0.19869919547609818
-0.4896467052187461	0.2235568939588696
-0.4895856700624961	0.24686749919633796
-0.4895246349062461	0.2684728747599011
-0.4894635997499961	0.28822632412175575
-0.4894025645937461	0.30599368955109135
-0.4893415294374961	0.32165413939075915
-0.4892804942812461	0.3351011003569069
-0.4892194591249961	0.34624290217184794
-0.4891584239687461	0.35500344140938456
-0.4890973888124961	0.36132270135684397
-0.4890363536562461	0.3651571333839055
-0.4889753184999961	0.3664800050011759
-0.4889142833437461	0.3652815468152723
-0.4888532481874961	0.3615690478205286
-0.4887922130312461	0.3553668124672507
-0.4887311778749961	0.3467159972260731
-0.4886701427187461	0.3356743508233626
-0.4886091075624961	0.3223158269286131
-0.4885480724062461	0.30673009145574365
-0.4884870372499961	0.2890219396829822
-0.4884260020937461	0.2693105660203587
-0.4883649669374961	0.2477288139883289
-0.4883039317812461	0.22442224100219413
-0.4882428966249961	0.19954816387908678
-0.4881818614687461	0.17327460698436847
-0.4881208263124961	0.14577916194599722
-0.4880597911562461	0.11724781235883039
-0.4879987559999961	0.08787364533730509
-0.4879377208437461	0.05785560664416957
-0.4878766856874961	0.027397108153640822
-0.4878156505312461	-0.0032953226407567964
-0.4877546153749961	-0.034013411534465264
-0.4876935802187461	-0.06454859330603155
-0.4876325450624961	-0.0946933711667305
-0.4875715099062461	-0.12424276101816434
-0.4875104747499961	-0.15299564127088472
-0.4874494395937461	-0.18075613632614004
-0.4873884044374961	-0.20733494250686685
-0.4873273692812461	-0.23255060352949605
-0.4872663341249961	-0.25623073674441993
-0.4872052989687461	-0.27821322250537467
-0.4871442638124961	-0.2983472943077844
-0.4870832286562461	-0.3164945405201983
-0.4870221934999961	-0.3325299210438873
-0.4869611583437461	-0.346342516382437
-0.4869001231874961	-0.35783638889216074
-0.4868390880312461	-0.3669311690005158
-0.4867780528749961	-0.37356264035108405
-0.4867170177187461	-0.37768318919804017
-0.4866559825624961	-0.3792621023935548
-0.4865949474062461	-0.37828584468812393
-0.4865339122499961	-0.3747580952455342
-0.4864728770937461	-0.36869979530458397
-0.4864118419374961	-0.3601489688984803
-0.4863508067812461	-0.34916051632638684
-0.4862897716249961	-0.33580582892038785
-0.4862287364687461	-0.3201723303299975
-0.4861677013124961	-0.3023628966494201
-0.4861066661562461	-0.28249515806281184
-0.4860456309999961	-0.26070074566354107
-0.4859845958437461	-0.23712437740180875
-0.4859235606874961	-0.21192290065949917
-0.4858625255312461	-0.18526425804609795
-0.4858014903749961	-0.15732633619125383
-0.4857404552187461	-0.12829578071019035
-0.4856794200624961	-0.0983667495797722
-0.4856183849062461	-0.06773959209722234
-0.4855573497499961	-0.03661950497866616
-0.4854963145937461	-0.005215160695601155
-0.4854352794374961	0.026262726939551798
-0.4853742442812461	0.05760279288036191
-0.4853132091249961	0.08859446032253154
-0.4852521739687461	0.11902938965946772
-0.4851911388124961	0.1487028311214843
-0.4851301036562461	0.1774150780646339
-0.4850690684999961	0.2049727506464409
-0.4850080333437461	0.2311901613591333
-0.4849469981874961	0.2558905416631352
-0.4848859630312461	0.278907257255553
-0.4848249278749961	0.3000849368654641
-0.4847638927187461	0.31928050696005533
-0.4847028575624961	0.3363642154906839
-0.4846418224062461	0.35122045736465857
-0.4845807872499961	0.3637486055476704
-0.4845197520937461	0.3738636760425099
-0.4844587169374961	0.3814969310102847
-0.4843976817812461	0.38659632144152106
-0.4843366466249961	0.38912688529019795
-0.4842756114687461	0.38907095990284546
-0.4842145763124961	0.38642832703220253
-0.4841535411562461	0.3812162205284178
-0.4840925059999961	0.3734692129956759
-0.4840314708437461	0.36323899759729644
-0.4839704356874961	0.3505940384714292
-0.4839094005312461	0.335619120814315
-0.4838483653749961	0.3184147851492711
-0.4837873302187461	0.29909664651285095
-0.4837262950624961	0.27779462857952486
-0.4836652599062461	0.2546520834801658
-0.4836042247499961	0.2298248266237256
-0.4835431895937461	0.20348010427036614
-0.4834821544374961	0.17579541790744513
-0.4834211192812461	0.1469574139692275
-0.4833600841249961	0.11716050556036894
-0.4832990489687461	0.0866056732900203
-0.4832380138124961	0.05549903387473645
-0.4831769786562461	0.024050456848861392
-0.4831159434999961	-0.007527803919344212
-0.4830549083437461	-0.03902266108684821
-0.4829938731874961	-0.07022148354340221
-0.4829328380312461	-0.10091369702305818
-0.4828718028749961	-0.13089207883032386
-0.4828107677187461	-0.15995425727302529
-0.4827497325624961	-0.18790404186971543
-0.4826886974062461	-0.21455275483579464
-0.4826276622499961	-0.2397205556799874
-0.4825666270937461	-0.2632375766577234
-0.4825055919374961	-0.28494522155926716
-0.4824445567812461	-0.3046970633238472
-0.4823835216249961	-0.3223600216287117
-0.4823224864687461	-0.3378151421596854
-0.4822614513124961	-0.35095846331156555
-0.4822004161562461	-0.36170174752592116
-0.4821393809999961	-0.3699730091385779
-0.4820783458437461	-0.3757171163918737
-0.4820173106874961	-0.37889605476755545
-0.4819562755312461	-0.37948930096104316
-0.4818952403749961	-0.37749388010742374
-0.4818342052187461	-0.37292444765375854
-0.4817731700624961	-0.36581317027442417
-0.4817121349062461	-0.356209514397114
-0.4816510997499961	-0.34417992987114665
-0.4815900645937461	-0.3298073789498671
-0.4815290294374961	-0.3131908018097866
-0.4814679942812461	-0.2944444288343225
-0.4814069591249961	-0.2736970280897621
-0.4813459239687461	-0.25109100215024355
-0.4812848888124961	-0.22678146490299123
-0.4812238536562461	-0.20093514103516552
-0.4811628184999961	-0.17372928657431475
-0.4811017833437461	-0.1453504313532916
-0.4810407481874961	-0.11599314847374657
-0.4809797130312461	-0.08585872095347902
-0.4809186778749961	-0.05515376526772369
-0.4808576427187461	-0.02408883171993053
-0.4807966075624961	0.007123044446970988
-0.4807355724062461	0.03826776209557982
-0.4806745372499961	0.06913167804958137
-0.4806135020937461	0.09950296609720853
-0.4805524669374961	0.12917317930001496
-0.4804914317812461	0.15793857328794686
-0.4804303966249961	0.18560156396895303
-0.4803693614687461	0.21197206918601402
-0.4803083263124961	0.23686875406928445
-0.4802472911562461	0.26012037985385594
-0.4801862559999961	0.2815668499996701
-0.4801252208437461	0.30106043147962863
-0.4800641856874961	0.3184666819475277
-0.4800031505312461	0.33366540109983023
-0.4799421153749961	0.34655149279849673
-0.4798810802187461	0.3570356237603072
-0.4798200450624961	0.3650449130180616
-0.4797590099062461	0.3705233769294207
-0.4796979747499961	0.3734323646958114
-0.4796369395937461	0.3737508079521045
-0.4795759044374961	0.37147537402643355
-0.4795148692812461	0.3666205188465705
-0.4794538341249961	0.35921836322153194
-0.4793927989687461	0.34931852112636824
-0.4793317638124961	0.33698773056476455
-0.4792707286562461	0.32230944496061165
-0.4792096934999961	0.3053832347436672
-0.4791486583437461	0.2863241502951173
-0.4790876231874961	0.2652619095878837
-0.4790265880312461	0.24234004357903965
-0.4789655528749961	0.2177149244471428
-0.4789045177187461	0.19155465468405394
-0.4788434825624961	0.164038022667055
-0.4787824474062461	0.13535315677725915
-0.4787214122499961	0.10569636351897777
-0.4786603770937461	0.07527070290013739
-0.4785993419374961	0.04428465349107008
-0.4785383067812461	0.0129506651011094
-0.4784772716249961	-0.01851629953751919
-0.4784162364687461	-0.049900188776569675
-0.4783552013124961	-0.08098542345147178
-0.4782941661562461	-0.111558272787472
-0.4782331309999961	-0.14140841566783385
-0.4781720958437461	-0.17033029004637348
-0.4781110606874961	-0.1981246014000506
-0.4780500255312461	-0.22459960239769208
-0.4779889903749961	-0.24957245996882313
-0.4779279552187461	-0.2728705109309587
-0.4778669200624961	-0.2943324178606808
-0.4778058849062461	-0.3138093386318475
-0.4777448497499961	-0.33116588714929335
-0.4776838145937461	-0.3462811233323034
-0.4776227794374961	-0.3590493630018931
-0.4775617442812461	-0.3693809171941993
-0.4775007091249961	-0.37720271369801694
-0.4774396739687461	-0.3824588306082605
-0.4773786388124961	-0.3851108435617052
-0.4773176036562461	-0.38513816121168304
-0.4772565684999961	-0.3825381188177976
-0.4771955333437461	-0.3773260563359835
-0.4771344981874961	-0.3695351932701028
-0.4770734630312461	-0.35921642337270004
-0.4770124278749961	-0.3464379926494921
-0.4769513927187461	-0.3312850065878205
-0.4768903575624961	-0.31385890549112394
-0.4768293224062461	-0.2942767308836626
-0.4767682872499961	-0.27267038064638904
-0.4767072520937461	-0.249185683123322
-0.4766462169374961	-0.2239814086869876
-0.4765851817812461	-0.19722821788759537
-0.4765241466249961	-0.16910746597914267
-0.4764631114687461	-0.13980998443712353
-0.4764020763124961	-0.10953479384404133
-0.4763410411562461	-0.07848769226720466
-0.4762800059999961	-0.046879930664108095
-0.4762189708437461	-0.014926691960696145
-0.4761579356874961	0.017154337659156766
-0.4760969005312461	0.049144461371163586
-0.4760358653749961	0.08082549298221005
-0.4759748302187461	0.11198122633648214
-0.4759137950624961	0.14239892865479467
-0.4758527599062461	0.1718708085706558
-0.4757917247499961	0.20019543057219163
-0.4757306895937461	0.2271790955085998
-0.4756696544374961	0.25263720594064787
-0.4756086192812461	0.2763954749016201
-0.4755475841249961	0.29829120595359465
-0.4754865489687461	0.3181743270873057
-0.4754255138124961	0.3359085141452525
-0.4753644786562461	0.35137205479119116
-0.4753034434999961	0.3644587542904327
-0.4752424083437461	0.3750786290192533
-0.4751813731874961	0.38315854378766057
-0.4751203380312461	0.38864274842176555
-0.4750593028749961	0.39149320638994045
-0.4749982677187461	0.39168995480749863
-0.4749372325624961	0.38923114718090446
-0.4748761974062461	0.3841331748421002
-0.4748151622499961	0.3764304770777906
-0.4747541270937461	0.3661753799820462
-0.4746930919374961	0.35343770365488303
-0.4746320567812461	0.3383043067118763
-0.4745710216249961	0.32087850334136414
-0.4745099864687461	0.3012793379708987
-0.4744489513124961	0.2796408184686011
-0.4743879161562461	0.2561109448501925
-0.4743268809999961	0.23085074862466515
-0.4742658458437461	0.2040331656207628
-0.4742048106874961	0.17584185516732992
-0.4741437755312461	0.14646996799443937
-0.4740827403749961	0.11611876762542783
-0.4740217052187461	0.08499630968993704
-0.4739606700624961	0.05331598397388253
-0.4738996349062461	0.02129505667155208
-0.4738385997499961	-0.010846838365045885
-0.4737775645937461	-0.04288918038348061
-0.4737165294374961	-0.07461209033355182
-0.4736554942812461	-0.10579786874523373
-0.4735944591249961	-0.13623244127198936
-0.4735334239687461	-0.16570689008914666
-0.4734723888124961	-0.19401885633193608
-0.4734113536562461	-0.2209739553362916
-0.4733503184999961	-0.24638708368091378
-0.4732892833437461	-0.270083775164129
-0.4732282481874961	-0.29190129571167145
-0.4731672130312461	-0.31168987624790967
-0.4731061778749961	-0.329313670922
-0.4730451427187461	-0.3446517446430766
-0.4729841075624961	-0.3575988867446423
-0.4729230724062461	-0.36806635577713265
-0.4728620372499961	-0.37598250014434276
-0.4728010020937461	-0.38129322830733886
-0.4727399669374961	-0.3839624477271044
-0.4726789317812461	-0.38397223862311286
-0.4726178966249961	-0.3813230830664957
-0.4725568614687461	-0.3760337583693887
-0.4724958263124961	-0.36814132908641795
-0.4724347911562461	-0.35770078775493264
-0.4723737559999961	-0.3447847781859023
-0.4723127208437461	-0.32948302716095484
-0.4722516856874961	-0.3119017817746798
-0.4721906505312461	-0.2921630538624096
-0.4721296153749961	-0.2704037813255146
-0.4720685802187461	-0.24677493233366016
-0.4720075450624961	-0.22144038831088603
-0.4719465099062461	-0.19457590514109674
-0.4718854747499961	-0.16636782649793988
-0.4718244395937461	-0.1370118611786123
-0.4717634044374961	-0.10671169082984051
-0.4717023692812461	-0.07567759164345252
-0.4716413341249961	-0.04412495653386956
-0.4715802989687461	-0.012272846423444903
-0.4715192638124961	0.019657553576284896
-0.4714582286562461	0.05144447203871735
-0.4713971934999961	0.08286703692078906
-0.4713361583437461	0.1137068675331135
-0.4712751231874961	0.14374953045247738
-0.4712140880312461	0.17278606501764232
-0.4711530528749961	0.20061441651247497
-0.4710920177187461	0.2270408188437832
-0.4710309825624961	0.2518811972025226
-0.4709699474062461	0.27496236173212424
-0.4709089122499961	0.29612331303701744
-0.4708478770937461	0.3152162608132054
-0.4707868419374961	0.33210773321737314
-0.4707258067812461	0.34667947799708904
-0.4706647716249961	0.3588292529797848
-0.4706037364687461	0.36847164476776656
-0.4705427013124961	0.37553852958138106
-0.4704816661562461	0.3799796875301764
-0.4704206309999961	0.3817630588807327
-0.4703595958437461	0.3808750395367519
-0.4702985606874961	0.37732055532424785
-0.4702375255312461	0.3711230367019243
-0.4701764903749961	0.3623242924073904
-0.4701154552187461	0.35098418562733597
-0.4700544200624961	0.3371802796664268
-0.4699933849062461	0.32100726181681016
-0.4699323497499961	0.30257633987763133
-0.4698713145937461	0.28201442764169904
-0.4698102794374961	0.25946334868841747
-0.4697492442812461	0.2350787713510417
-0.4696882091249961	0.20902920818692844
