Time	Frequency
-0.500007629218743	-5.481000174227346e-25
-0.499946594062493	-5.831927404364882e-25
-0.499885558906243	-6.151972661244088e-25
-0.499824523749993	-6.439386166207126e-25
-0.499763488593743	-6.69259613319156e-25
-0.499702453437493	-6.910217800735468e-25
-0.499641418281243	-7.091060568033498e-25
-0.499580383124993	-7.234135193776234e-25
-0.499519347968743	-7.338658622706527e-25
-0.499458312812493	-7.404059413008223e-25
-0.499397277656243	-7.429979585456136e-25
-0.499336242499993	-7.416278224511809e-25
-0.499275207343743	-7.3630309152782005e-25
-0.499214172187493	-7.270530542434447e-25
-0.499153137031243	-7.139284990111945e-25
-0.499092101874993	-6.970014886727578e-25
-0.499031066718743	-6.76364962057907e-25
-0.498970031562493	-6.521322002789258e-25
-0.498908996406243	-6.244362759070833e-25
-0.498847961249993	-5.934292531462633e-25
-0.498786926093743	-5.592814262816644e-25
-0.498725890937493	-5.221803299241546e-25
-0.498664855781243	-4.823297564180729e-25
-0.498603820624993	-4.399486108857739e-25
-0.498542785468743	-3.95269746593388e-25
-0.498481750312493	-3.485386297918768e-25
-0.498420715156243	-3.0001205465490712e-25
-0.498359679999993	-2.49956692210296e-25
-0.498298644843743	-1.9864763057959803e-25
-0.498237609687493	-1.4636686682236197e-25
-0.498176574531243	-9.340177287226118e-26
-0.498115539374993	-4.004346150044822e-26
-0.498054504218743	1.3414760519649426e-26
-0.497993469062493	6.66790488304235e-26
-0.497932433906243	1.1945660712278674e-25
-0.497871398749993	1.7145736116187974e-25
-0.497810363593743	2.223954888337762e-25
-0.497749328437493	2.719910448766734e-25
-0.497688293281243	3.1997151569738957e-25
-0.497627258124993	3.6607328043507537e-25
-0.497566222968743	4.100431069621325e-25
-0.497505187812493	4.516395559902966e-25
-0.497444152656243	4.906343115992778e-25
-0.497383117499993	5.268133985111803e-25
-0.497322082343743	5.599784915818075e-25
-0.497261047187493	5.899478462843513e-25
-0.497200012031243	6.165575023370212e-25
-0.497138976874993	6.396620112160412e-25
-0.497077941718743	6.591353798959568e-25
-0.497016906562493	6.74871720878636e-25
-0.496955871406243	6.867858253082738e-25
-0.496894836249993	6.948137204180933e-25
-0.496833801093743	6.989128994179234e-25
-0.496772765937493	6.990627311450407e-25
-0.496711730781243	6.9526441374482355e-25
-0.496650695624993	6.875411165631795e-25
-0.496589660468743	6.759377581239725e-25
-0.496528625312493	6.6052082925438465e-25
-0.496467590156243	6.413780040938411e-25
-0.496406554999993	6.186176554746724e-25
-0.496345519843743	5.923682986355316e-25
-0.496284484687493	5.627778387603909e-25
-0.496223449531243	5.30012804887614e-25
-0.496162414374993	4.942573847714293e-25
-0.496101379218743	4.557124751658875e-25
-0.496040344062493	4.145944911177535e-25
-0.495979308906243	3.7113426136560703e-25
-0.495918273749993	3.2557569062501766e-25
-0.495857238593743	2.781744239833623e-25
-0.495796203437493	2.2919646025713813e-25
-0.495735168281243	1.7891664732473575e-25
-0.495674133124993	1.2761718846625645e-25
-0.495613097968743	7.558605907855709e-26
-0.495552062812493	2.3115411507730442e-26
-0.495491027656243	-2.950003321352105e-26
-0.495429992499993	-8.196460490711807e-26
-0.495368957343743	-1.3398341273559683e-25
-0.495307922187493	-1.8526382027807898e-25
-0.495246887031243	-2.3551725012663705e-25
-0.495185851874993	-2.844606915779118e-25
-0.495124816718743	-3.31818243575929e-25
-0.495063781562493	-3.773227690612692e-25
-0.495002746406243	-4.207172575098465e-25
-0.494941711249993	-4.617563702928035e-25
-0.494880676093743	-5.002076975943964e-25
-0.494819640937493	-5.358531610044927e-25
-0.494758605781243	-5.684901656686883e-25
-0.494697570624993	-5.979327525624008e-25
-0.494636535468743	-6.240126765717855e-25
-0.494575500312493	-6.4658028080161945e-25
-0.494514465156243	-6.655054090245695e-25
-0.494453429999993	-6.806781087653196e-25
-0.494392394843743	-6.920092362104199e-25
-0.494331359687493	-6.994310234412645e-25
-0.494270324531243	-7.0289739187498205e-25
-0.494209289374993	-7.023842865504983e-25
-0.494148254218743	-6.97889789934333e-25
-0.494087219062493	-6.894341519321653e-25
-0.494026183906243	-6.770597042599325e-25
-0.493965148749993	-6.60830610017895e-25
-0.493904113593743	-6.408325658734935e-25
-0.493843078437493	-6.171722842704681e-25
-0.493782043281243	-5.899769765732224e-25
-0.493721008124993	-5.593935885330722e-25
-0.493659972968743	-5.255880690414036e-25
-0.493598937812493	-4.887444016102107e-25
-0.493537902656243	-4.490636280843078e-25
-0.493476867499993	-4.0676272511316565e-25
-0.493415832343743	-3.620734149079942e-25
-0.493354797187493	-3.152408927947211e-25
-0.493293762031243	-2.665224602145609e-25
-0.493232726874993	-2.161861119990329e-25
-0.493171691718743	-1.6450906194214777e-25
-0.493110656562493	-1.11776164236066e-25
-0.493049621406243	-5.827841232822908e-26
-0.492988586249993	-4.311254227701077e-27
-0.492927551093743	4.9827039290969616e-26
-0.492866515937493	1.038369315275406e-25
-0.492805480781243	1.5741946564607729e-25
-0.492744445624993	2.1027775831032305e-25
-0.492683410468743	2.6211872254876995e-25
-0.492622375312493	3.1265471973952888e-25
-0.492561340156243	3.6160511986448814e-25
-0.492500304999993	4.0869786759710594e-25
-0.492439269843743	4.536710494843978e-25
-0.492378234687493	4.962742774518818e-25
-0.492317199531243	5.36270159339762e-25
-0.492256164374993	5.734355913632377e-25
-0.492195129218743	6.075630140219247e-25
-0.492134094062493	6.384615669375454e-25
-0.492073058906243	6.6595816099761685e-25
-0.492012023749993	6.89898490849594e-25
-0.491950988593743	7.101478190774585e-25
-0.491889953437493	7.265918355549565e-25
-0.491828918281243	7.391372239864381e-25
-0.491767883124993	7.477122501809887e-25
-0.491706847968743	7.522671176820137e-25
-0.491645812812493	7.527743206411399e-25
-0.491584777656243	7.492287528025662e-25
-0.491523742499993	7.416477826565366e-25
-0.491462707343743	7.300711522494854e-25
-0.491401672187493	7.145607740103462e-25
-0.491340637031243	6.952004019255671e-25
-0.491279601874993	6.720951620293901e-25
-0.491218566718743	6.453710079314697e-25
-0.491157531562493	6.151739797313247e-25
-0.491096496406243	5.816694713725796e-25
-0.491035461249993	5.450412505582742e-25
-0.490974426093743	5.054905016821301e-25
-0.490913390937493	4.632346603552892e-25
-0.490852355781243	4.185062595534256e-25
-0.490791320624993	3.7155162538452685e-25
-0.490730285468743	3.2262949628832637e-25
-0.490669250312493	2.7200960894665187e-25
-0.490608215156243	2.1997116809812396e-25
-0.490547179999993	1.668013915705111e-25
-0.490486144843743	1.127937305248217e-25
-0.490425109687493	5.824646094369483e-26
-0.490364074531243	3.460848614266509e-27
-0.490303039374993	-5.12604520341158e-26
-0.490242004218743	-1.0561507882639378e-25
-0.490180969062493	-1.593026981922186e-25
-0.490119933906243	-2.1202658791344475e-25
-0.490058898749993	-2.634954300292451e-25
-0.489997863593743	-3.134247743122871e-25
-0.489936828437493	-3.6153878170588687e-25
-0.489875793281243	-4.0757164068063456e-25
-0.489814758124993	-4.512691572842918e-25
-0.489753722968743	-4.923900806875373e-25
-0.489692687812493	-5.3070754393331035e-25
-0.489631652656243	-5.660102550705087e-25
-0.489570617499993	-5.981037577840666e-25
-0.489509582343743	-6.268114617216456e-25
-0.489448547187493	-6.519756627475672e-25
-0.489387512031243	-6.734584450702116e-25
-0.489326476874993	-6.911424009981227e-25
-0.489265441718743	-7.049313797102547e-25
-0.489204406562493	-7.1475094110386445e-25
-0.489143371406243	-7.20548870366381e-25
-0.489082336249993	-7.2229537599125e-25
-0.489021301093743	-7.199833734596377e-25
-0.488960265937493	-7.1362843093343e-25
-0.488899230781243	-7.032687710972159e-25
-0.488838195624993	-6.889650065511675e-25
-0.488777160468743	-6.70799846588217e-25
-0.488716125312493	-6.488776211973734e-25
-0.488655090156243	-6.233237090749762e-25
-0.488594054999993	-5.942838468866926e-25
-0.488533019843743	-5.619233254443581e-25
-0.488471984687493	-5.264260553104136e-25
-0.488410949531243	-4.879935343123398e-25
-0.488349914374993	-4.468437844130562e-25
-0.488288879218743	-4.032100547614339e-25
-0.488227844062493	-3.573395655081443e-25
-0.488166808906243	-3.0949213635179124e-25
-0.488105773749993	-2.5993871124475477e-25
-0.488044738593743	-2.089598329959978e-25
-0.487983703437493	-1.5684412136231702e-25
-0.487922668281243	-1.0388658931867375e-25
-0.487861633124993	-5.0387067707447593e-26
-0.487800597968743	3.351548911087948e-27
-0.487739562812493	5.702494062287339e-26
-0.487678527656243	1.1032911636589828e-25
-0.487617492499993	1.629620953657756e-25
-0.487556457343743	2.1462557498726006e-25
-0.487495422187493	2.6502672137741202e-25
-0.487434387031243	3.1387963221145353e-25
-0.487373351874993	3.609071361839978e-25
-0.487312316718743	4.0584221033508394e-25
-0.487251281562493	4.484295529448221e-25
-0.487190246406243	4.884270439836222e-25
-0.487129211249993	5.25607014064654e-25
-0.487068176093743	5.597576682441386e-25
-0.487007140937493	5.906841409339742e-25
-0.486946105781243	6.182097257981348e-25
-0.486885070624993	6.421767730192708e-25
-0.486824035468743	6.624476688731913e-25
-0.486763000312493	6.789055647084007e-25
-0.486701965156243	6.914550629078159e-25
-0.486640929999993	7.000227737927867e-25
-0.486579894843743	7.0455770848445525e-25
-0.486518859687493	7.050316357181518e-25
-0.486457824531243	7.014391630217314e-25
-0.486396789374993	6.937978892579827e-25
-0.486335754218743	6.821482061472302e-25
-0.486274719062493	6.665531793992005e-25
-0.486213683906243	6.470981358844925e-25
-0.486152648749993	6.238902432487329e-25
-0.486091613593743	5.970578812202428e-25
-0.486030578437493	5.667499669307918e-25
-0.485969543281243	5.331351048931923e-25
-0.485908508124993	4.9640063948916305e-25
-0.485847472968743	4.567516694208706e-25
-0.485786437812493	4.1440979975492925e-25
-0.485725402656243	3.696120393656427e-25
-0.485664367499993	3.226093198448248e-25
-0.485603332343743	2.736652631138525e-25
-0.485542297187493	2.2305452716951955e-25
-0.485481262031243	1.710614393995431e-25
-0.485420226874993	1.179782515288859e-25
-0.485359191718743	6.410357947896197e-26
-0.485298156562493	9.740766816465468e-27
-0.485237121406243	-4.4803980609974534e-26
-0.485176086249993	-9.922308895659352e-26
-0.485115051093743	-1.5320959639639445e-25
-0.485054015937493	-2.064586375972453e-25
-0.484992980781243	-2.5866937486218234e-25
-0.484931945624993	-3.095465337537975e-25
-0.484870910468743	-3.5880218417349677e-25
-0.484809875312493	-4.061572636203434e-25
-0.484748840156243	-4.513432735648364e-25
-0.484687804999993	-4.941036820583722e-25
-0.484626769843743	-5.341954319564591e-25
-0.484565734687493	-5.713903437119539e-25
-0.484504699531243	-6.054763459757572e-25
-0.484443664374993	-6.362587346446862e-25
-0.484382629218743	-6.635612260599765e-25
-0.484321594062493	-6.8722705405049e-25
-0.484260558906243	-7.0711972284063145e-25
-0.484199523749993	-7.23123960581858e-25
-0.484138488593743	-7.3514620142063345e-25
-0.484077453437493	-7.43115298953565e-25
-0.484016418281243	-7.469827884761193e-25
-0.483955383124993	-7.467233043688586e-25
-0.483894347968743	-7.423346170002167e-25
-0.483833312812493	-7.338377766227921e-25
-0.483772277656243	-7.212769011670358e-25
-0.483711242499993	-7.047190283348178e-25
-0.483650207343743	-6.8425369482732325e-25
-0.483589172187493	-6.599924719410971e-25
-0.483528137031243	-6.320683506469787e-25
-0.483467101874993	-6.00634975512434e-25
-0.483406066718743	-5.658658549589506e-25
-0.483345031562493	-5.279532967896616e-25
-0.483283996406243	-4.871074600214948e-25
-0.483222961249993	-4.435550501233002e-25
-0.483161926093743	-3.9753817246030502e-25
-0.483100890937493	-3.493128506767894e-25
-0.483039855781243	-2.991477404048377e-25
-0.482978820624993	-2.473224782840917e-25
-0.482917785468743	-1.9412619563484092e-25
-0.482856750312493	-1.3985587572445795e-25
-0.482795715156243	-8.481468055565443e-26
-0.482734679999993	-2.931024655940539e-26
-0.482673644843743	2.634704730851885e-26
-0.482612609687493	8.184585763287325e-26
-0.482551574531243	1.3687555468614074e-25
-0.482490539374993	1.9112804399804506e-25
-0.482429504218743	2.4429953260971473e-25
-0.482368469062493	2.9609209843662126e-25
-0.482307433906243	3.4621557483431076e-25
-0.482246398749993	3.943890034010888e-25
-0.482185363593743	4.4034238437489e-25
-0.482124328437493	4.83818081563959e-25
-0.482063293281243	5.245723334088505e-25
-0.482002258124993	5.623766711297541e-25
-0.481941222968743	5.970191312566335e-25
-0.481880187812493	6.2830554512413185e-25
-0.481819152656243	6.560605627126848e-25
-0.481758117499993	6.801287630010051e-25
-0.481697082343743	7.003753700525652e-25
-0.481636047187493	7.166872330959301e-25
-0.481575012031243	7.289732846796403e-25
-0.481513976874993	7.371651898600358e-25
-0.481452941718743	7.412176893545807e-25
-0.481391906562493	7.411088632960183e-25
-0.481330871406243	7.368403093482034e-25
-0.481269836249993	7.284370633207763e-25
-0.481208801093743	7.159475758435298e-25
-0.481147765937493	6.994433218788145e-25
-0.481086730781243	6.790185445577077e-25
-0.481025695624993	6.547895873462861e-25
-0.480964660468743	6.268943828717767e-25
-0.480903625312493	5.954915622743561e-25
-0.480842590156243	5.607596662009353e-25
-0.480781554999993	5.228960551791859e-25
-0.480720519843743	4.821158788245389e-25
-0.480659484687493	4.386507971853409e-25
-0.480598449531243	3.9274772008476475e-25
-0.480537414374993	3.446674069589063e-25
-0.480476379218743	2.9468297148495753e-25
-0.480415344062493	2.4307839636784857e-25
-0.480354308906243	1.9014682312485773e-25
-0.480293273749993	1.36189048012045e-25
-0.480232238593743	8.15116528644597e-26
-0.480171203437493	2.642541166544912e-26
-0.480110168281243	-2.875655473675262e-26
-0.480049133124993	-8.37205335069336e-26
-0.479988097968743	-1.3815397600935913e-25
-0.479927062812493	-1.9174728733162132e-25
-0.479866027656243	-2.4419559579522157e-25
-0.479804992499993	-2.9520048000390994e-25
-0.479743957343743	-3.444716261159302e-25
-0.479682922187493	-3.9172852524769356e-25
-0.479621887031243	-4.367020627813294e-25
-0.479560851874993	-4.791360275568237e-25
-0.479499816718743	-5.187885808365838e-25
-0.479438781562493	-5.554336665702249e-25
-0.479377746406243	-5.8886223710746e-25
-0.479316711249993	-6.1888351663993015e-25
-0.479255676093743	-6.453260465846269e-25
-0.479194640937493	-6.680386811690393e-25
-0.479133605781243	-6.868914668629589e-25
-0.479072570624993	-7.017763699715594e-25
-0.479011535468743	-7.1260791538539595e-25
-0.478950500312493	-7.193236693319968e-25
-0.478889465156243	-7.218846291310949e-25
-0.478828429999993	-7.202754118251381e-25
-0.478767394843743	-7.145044090873273e-25
-0.478706359687493	-7.046036908517664e-25
-0.478645324531243	-6.90628887724723e-25
-0.478584289374993	-6.726588461731085e-25
-0.478523254218743	-6.507952060033935e-25
-0.478462219062493	-6.251618394543402e-25
-0.478401183906243	-5.959041439069626e-25
-0.478340148749993	-5.631882356491807e-25
-0.478279113593743	-5.272000030985125e-25
-0.478218078437493	-4.88144069927352e-25
-0.478157043281243	-4.462426284164002e-25
-0.478096008124993	-4.0173419969120786e-25
-0.478034972968743	-3.5487225898035314e-25
-0.477973937812493	-3.059238300142389e-25
-0.477912902656243	-2.5516794036248643e-25
-0.477851867499993	-2.0289407421184965e-25
-0.477790832343743	-1.4940046968123338e-25
-0.477729797187493	-9.4992526796202e-26
-0.477668762031243	-3.9980947855070885e-26
-0.477607726874993	1.5319960831980702e-26
-0.477546691718743	7.059402586036065e-26
-0.477485656562493	1.255251602944551e-25
-0.477424621406243	1.797989920402171e-25
-0.477363586249993	2.331047793571313e-25
-0.477302551093743	2.8513713501327154e-25
-0.477241515937493	3.355977448288522e-25
-0.477180480781243	3.84197150527949e-25
-0.477119445624993	4.306563256586561e-25
-0.477058410468743	4.747082929446803e-25
-0.476997375312493	5.160996900733161e-25
-0.476936340156243	5.545921808286363e-25
-0.476875304999993	5.89963812189734e-25
-0.476814269843743	6.22010363484228e-25
-0.476753234687493	6.505464189212143e-25
-0.476692199531243	6.7540651059010415e-25
-0.476631164374993	6.964460436747602e-25
-0.476570129218743	7.135421379233043e-25
-0.476509094062493	7.265943482961892e-25
-0.476448058906243	7.355252212941016e-25
-0.476387023749993	7.402808033983654e-25
-0.476325988593743	7.408308968929761e-25
-0.476264953437493	7.371693111599579e-25
-0.476203918281243	7.293138561727083e-25
-0.476142883124993	7.17306292465412e-25
-0.476081847968743	7.012120891201269e-25
-0.476020812812493	6.811200628248516e-25
-0.475959777656243	6.571419046522668e-25
-0.475898742499993	6.294115232899493e-25
-0.475837707343743	5.98084314296629e-25
-0.475776672187493	5.633362978453011e-25
-0.475715637031243	5.253630970252003e-25
-0.475654601874993	4.84378851211036e-25
-0.475593566718743	4.4061499352638835e-25
-0.475532531562493	3.94318953546093e-25
-0.475471496406243	3.4575275585231143e-25
-0.475410461249993	2.95191482910567e-25
-0.475349426093743	2.4292182008404014e-25
-0.475288390937493	1.8924029984094574e-25
-0.475227355781243	1.3445168212492361e-25
-0.475166320624993	7.886724768697736e-26
-0.475105285468743	2.280291859742821e-26
-0.475044250312493	-3.3422396350918263e-26
-0.474983215156243	-8.948875656501366e-26
-0.474922179999993	-1.4507696379417103e-25
-0.474861144843743	-1.9987033703935106e-25
-0.474800109687493	-2.5355661461977293e-25
-0.474739074531243	-3.0582966753741094e-25
-0.474678039374993	-3.5639129964561305e-25
-0.474617004218743	-4.0495289857714975e-25
-0.474555969062493	-4.512371703883359e-25
-0.474494933906243	-4.94979664555059e-25
-0.474433898749993	-5.3593030190972575e-25
-0.474372863593743	-5.738548492571757e-25
-0.474311828437493	-6.085362218551342e-25
-0.474250793281243	-6.397757624715581e-25
-0.474189758124993	-6.673943662955958e-25
-0.474128722968743	-6.912335507193724e-25
-0.474067687812493	-7.111563072553139e-25
-0.474006652656243	-7.270479808825298e-25
-0.473945617499993	-7.388168596893139e-25
-0.473884582343743	-7.463947640918501e-25
-0.473823547187493	-7.49737424630192e-25
-0.473762512031243	-7.48824747165908e-25
-0.473701476874993	-7.436609614864849e-25
-0.473640441718743	-7.342745736882959e-25
-0.473579406562493	-7.2071825999742195e-25
-0.473518371406243	-7.030685307912107e-25
-0.473457336249993	-6.814253459938204e-25
-0.473396301093743	-6.559115276223687e-25
-0.473335265937493	-6.266720799322262e-25
-0.473274230781243	-5.938733715201041e-25
-0.473213195624993	-5.577021880023912e-25
-0.473152160468743	-5.183646712995053e-25
-0.473091125312493	-4.760851576142881e-25
-0.473030090156243	-4.311048968851206e-25
-0.472969054999993	-3.8368067681174133e-25
-0.472908019843743	-3.340833619108904e-25
-0.472846984687493	-2.825963574206349e-25
-0.472785949531243	-2.2951397231386155e-25
-0.472724914374993	-1.751397520780775e-25
-0.472663879218743	-1.1978473389639506e-25
-0.472602844062493	-6.376570900915884e-26
-0.472541808906243	-7.403316863009146e-27
-0.472480773749993	4.897967287918255e-26
-0.472419738593743	1.05060309642348e-25
-0.472358703437493	1.6051725910093621e-25
-0.472297668281243	2.150326624227273e-25
-0.472236633124993	2.682939479798483e-25
-0.472175597968743	3.1999566245536976e-25
-0.472114562812493	3.6984118141869374e-25
-0.472053527656243	4.175444263906692e-25
-0.471992492499993	4.628315767986278e-25
-0.471931457343743	5.054424964068321e-25
-0.471870422187493	5.4513242955475785e-25
-0.471809387031243	5.816732205098323e-25
-0.471748351874993	6.14854794511592e-25
-0.471687316718743	6.4448623933154685e-25
-0.471626281562493	6.703970244046792e-25
-0.471565246406243	6.924378810934197e-25
-0.471504211249993	7.104817681780512e-25
-0.471443176093743	7.244245477692393e-25
-0.471382140937493	7.341856033382597e-25
-0.471321105781243	7.3970836275278925e-25
-0.471260070624993	7.409605425755255e-25
-0.471199035468743	7.37934458495206e-25
-0.471138000312493	7.306469622368857e-25
-0.471076965156243	7.1913947331252655e-25
-0.471015929999993	7.034776395666241e-25
-0.470954894843743	6.83751077005486e-25
-0.470893859687493	6.600727686575446e-25
-0.470832824531243	6.325785100701532e-25
-0.470771789374993	6.014260767702936e-25
