Time	Frequency
-0.500015973999993	-0.3293738679495473
-0.499954938843743	-0.32013252985491997
-0.499893903687493	-0.30996427608812765
-0.499832868531243	-0.29757281041987077
-0.499771833374993	-0.2843675736238552
-0.499710798218743	-0.26906775680851064
-0.499649763062493	-0.25309782269180625
-0.499588727906243	-0.23519108091447508
-0.499527692749993	-0.21678547433530895
-0.499466657593743	-0.1966267455202624
-0.499405622437493	-0.17616452374328048
-0.499344587281243	-0.15415503044232873
-0.499283552124993	-0.13205754493029895
-0.499222516968743	-0.10863660993256657
-0.499161481812493	-0.0853588846769368
-0.499100446656243	-0.06099493184715501
-0.499039411499993	-0.0370163751056856
-0.498978376343743	-0.012197323002927135
-0.498917341187493	0.011988114504195239
-0.498856306031243	0.0367648311985578
-0.498795270874993	0.060658805270851095
-0.498734235718743	0.08489647472560476
-0.498673200562493	0.1080064635693601
-0.498612165406243	0.1312192980908444
-0.498551130249993	0.1530687362392964
-0.498490095093743	0.17479186075079364
-0.498429059937493	0.19492995973803043
-0.498368024781243	0.2147289966012288
-0.498306989624993	0.23274002456696224
-0.498245954468743	0.25022003469698373
-0.498184919312493	0.26573189817792287
-0.498123884156243	0.2805455519177272
-0.498062848999993	0.2932374788193442
-0.498001813843743	0.3050922185693907
-0.497940778687493	0.3147013897853351
-0.497879743531243	0.32336549797810354
-0.497818708374993	0.32969249901948317
-0.497757673218743	0.33499990140646774
-0.497696638062493	0.3379128669363227
-0.497635602906243	0.33976659228439904
-0.497574567749993	0.33920395506896367
-0.497513532593743	0.3375781733178502
-0.497452497437493	0.3335499781640473
-0.497391462281243	0.3284905668170427
-0.497330427124993	0.3210782970963198
-0.497269391968743	0.31270193458936135
-0.497208356812493	0.3020568683799169
-0.497147321656243	0.29054865721793804
-0.497086286499993	0.2768887776143979
-0.497025251343743	0.2624984635472992
-0.496964216187493	0.24610398983685228
-0.496903181031243	0.2291408293472612
-0.496842145874993	0.21034845821699144
-0.496781110718743	0.19117484871959659
-0.496720075562493	0.1703708256757407
-0.496659040406243	0.149394856076222
-0.496598005249993	0.1270069977065203
-0.496536970093743	0.10467401729571885
-0.496475934937493	0.08116289956808234
-0.496414899781243	0.057946317451392594
-0.496353864624993	0.03379574605786229
-0.496292829468743	0.0101872548953093
-0.496231794312493	-0.014105745109934807
-0.496170759156243	-0.037606352141476417
-0.496109723999993	-0.06154181077749804
-0.496048688843743	-0.0844369950872005
-0.495987653687493	-0.10752238340193052
-0.495926618531243	-0.1293271631292199
-0.495865583374993	-0.15108758455990234
-0.495804548218743	-0.1713396265230982
-0.495743513062493	-0.1913276964973796
-0.495682477906243	-0.2095968975260801
-0.495621442749993	-0.22740204913054682
-0.495560407593743	-0.2432995026055175
-0.495499372437493	-0.2585565141318581
-0.495438337281243	-0.2717426093125572
-0.495377302124993	-0.28413925028792486
-0.495316266968743	-0.2943307570072206
-0.495255231812493	-0.30361429410659674
-0.495194196656243	-0.31059030641394064
-0.495133161499993	-0.31657280726090525
-0.495072126343743	-0.3201793670870344
-0.495011091187493	-0.3227416692802546
-0.494950056031243	-0.3228950385443361
-0.494889020874993	-0.3219892776505907
-0.494827985718743	-0.31867773302392816
-0.494766950562493	-0.31432840762461345
-0.494705915406243	-0.30761255630066453
-0.494644880249993	-0.29991608417390136
-0.494583845093743	-0.2899276726443251
-0.494522809937493	-0.27905045396483896
-0.494461774781243	-0.2659896956964745
-0.494400739624993	-0.25216473160464237
-0.494339704468743	-0.2362962104428891
-0.494278669312493	-0.21981831148054334
-0.494217634156243	-0.20146554652962842
-0.494156598999993	-0.18268526956336573
-0.494095563843743	-0.16222405017329716
-0.494034528687493	-0.14154046400493128
-0.493973493531243	-0.11939107262938216
-0.493912458374993	-0.09724350822224044
-0.493851423218743	-0.07386203181197709
-0.493790388062493	-0.050720971247142144
-0.493729352906243	-0.026589854247556107
-0.493668317749993	-0.0029471818889366076
-0.493607282593743	0.02143480861304574
-0.493546247437493	0.04507601661439189
-0.493485212281243	0.06920413897521244
-0.493424177124993	0.09234010008174084
-0.493363141968743	0.11571414462990576
-0.493302106812493	0.13785084591589586
-0.493241071656243	0.15998556219524143
-0.493180036499993	0.18064905511978693
-0.493119001343743	0.20108427902591436
-0.493057966187493	0.21983059861930368
-0.492996931031243	0.23814087109230017
-0.492935895874993	0.2545652926430283
-0.492874860718743	0.27036877151531563
-0.492813825562493	0.2841143238676041
-0.492752790406243	0.2970807853884501
-0.492691755249993	0.307845734766686
-0.492630720093743	0.3177035294531517
-0.492569684937493	0.32524775618353263
-0.492508649781243	0.33178955039301167
-0.492447614624993	0.335939618650578
-0.492386579468743	0.33902680679014746
-0.492325544312493	0.3396796806337385
-0.492264509156243	0.33924536758453
-0.492203473999993	0.336370661680067
-0.492142438843743	0.3324211541511024
-0.492081403687493	0.3260618660124362
-0.492020368531243	0.3186766534754605
-0.491959333374993	0.30894837458206015
-0.491898298218743	0.29827857644873107
-0.491837263062493	0.2853671927040936
-0.491776227906243	0.27163251373219666
-0.491715192749993	0.2557904353800963
-0.491654157593743	0.23927469594909648
-0.491593122437493	0.2208156958814979
-0.491532087281243	0.2018610128853716
-0.491471052124993	0.18115377795865917
-0.491410016968743	0.16015352153600432
-0.491348981812493	0.13761407465015785
-0.491287946656243	0.11500475235096143
-0.491226911499993	0.09108783859204188
-0.491165876343743	0.06734007793475685
-0.491104841187493	0.042529759073789
-0.491043806031243	0.018138550220436363
-0.490982770874993	-0.007061822238386159
-0.490921735718743	-0.03158739383236506
-0.490860700562493	-0.05666563872814895
-0.490799665406243	-0.08081296091881617
-0.490738630249993	-0.10525871676832342
-0.490677595093743	-0.12852233240048608
-0.490616559937493	-0.15183766726353667
-0.490555524781243	-0.17372977675004428
-0.490494489624993	-0.19543958414434698
-0.490433454468743	-0.21550024570876417
-0.490372419312493	-0.23516215054551393
-0.490311384156243	-0.2529688680134383
-0.490250348999993	-0.2701824811526608
-0.490189313843743	-0.2853590565071495
-0.490128278687493	-0.29977433663409
-0.490067243531243	-0.31199874912664205
-0.490006208374993	-0.32332337682528256
-0.489945173218743	-0.3323345370964139
-0.489884138062493	-0.34034004293825665
-0.489823102906243	-0.34594331120086724
-0.489762067749993	-0.3504699039957315
-0.489701032593743	-0.3525411973822268
-0.489639997437493	-0.3535011688812012
-0.489578962281243	-0.35198962176275816
-0.489517927124993	-0.3493692357550273
-0.489456891968743	-0.34429833256511766
-0.489395856812493	-0.33815818438511386
-0.489334821656243	-0.3296253350332185
-0.489273786499993	-0.32009915904043346
-0.489212751343743	-0.30827373290940674
-0.489151716187493	-0.2955656769306135
-0.489090681031243	-0.2806855408733925
-0.489029645874993	-0.2650659636094791
-0.488968610718743	-0.24743257979890265
-0.488907575562493	-0.22923247651785916
-0.488846540406243	-0.20920465688436077
-0.488785505249993	-0.18880879585136395
-0.488724470093743	-0.16679527002696043
-0.488663434937493	-0.14463420947452585
-0.488602399781243	-0.12108511947090707
-0.488541364624993	-0.09762625264995968
-0.488480329468743	-0.07302380205097851
-0.488419294312493	-0.04876161739281467
-0.488358259156243	-0.023610023576363916
-0.488297223999993	0.0009441933025204467
-0.488236188843743	0.026129252763618535
-0.488175153687493	0.05045808717656296
-0.488114118531243	0.0751601940902813
-0.488053083374993	0.09875093254521619
-0.487992048218743	0.1224637481999269
-0.487931013062493	0.14481908824223852
-0.487869977906243	0.1670569472579301
-0.487808942749993	0.18770541275860778
-0.487747907593743	0.20801349357387344
-0.487686872437493	0.22651930223650218
-0.487625837281243	0.2444831721253369
-0.487564802124993	0.26045539786826305
-0.487503766968743	0.2757097003748275
-0.487442731812493	0.2888104810290349
-0.487381696656243	0.3010466198940368
-0.487320661499993	0.31099826642287226
-0.487259626343743	0.31997090584245175
-0.487198591187493	0.32656174876922034
-0.487137556031243	0.3320940101509306
-0.487076520874993	0.33518287949897363
-0.487015485718743	0.3371700642099625
-0.486954450562493	0.3366892963532815
-0.486893415406243	0.33510114060595114
-0.486832380249993	0.33105803921496907
-0.486771345093743	0.3259393856711641
-0.486710309937493	0.31841611205877435
-0.486649274781243	0.30988601898286183
-0.486588239624993	0.2990379104264863
-0.486527204468743	0.28728719163867356
-0.486466169312493	0.2733395495372285
-0.486405134156243	0.25862681330907733
-0.486344098999993	0.24187020351984823
-0.486283063843743	0.2245164568788706
-0.486222028687493	0.20530065233302563
-0.486160993531243	0.18568259590283562
-0.486099958374993	0.16440924992708875
-0.486038923218743	0.14295139047762043
-0.485977888062493	0.12006562823714806
-0.485916852906243	0.09723137683349961
-0.485855817749993	0.07321245975870101
-0.485794782593743	0.04949440397542903
-0.485733747437493	0.024845662865513176
-0.485672712281243	0.0007552209419301807
-0.485611677124993	-0.024006537674370575
-0.485550641968743	-0.047949872998016105
-0.485489606812493	-0.07230522505115011
-0.485428571656243	-0.09558484114261237
-0.485367536499993	-0.11902269751471252
-0.485306501343743	-0.1411357352003977
-0.485245466187493	-0.16316411830867386
-0.485184431031243	-0.18363209756526763
-0.485123395874993	-0.20378854578066297
-0.485062360718743	-0.22216746184526084
-0.485001325562493	-0.24002879124423954
-0.484940290406243	-0.2559185261576229
-0.484879255249993	-0.27110980725456124
-0.484818220093743	-0.2841626050199074
-0.484757184937493	-0.29636511343180477
-0.484696149781243	-0.30629297480162976
-0.484635114624993	-0.3152509705745051
-0.484574079468743	-0.3218317892529906
-0.484513044312493	-0.3273579872303877
-0.484452009156243	-0.3304403080784717
-0.484390973999993	-0.3324198992533604
-0.484329938843743	-0.3319261880813043
-0.484268903687493	-0.33031934552980313
-0.484207868531243	-0.32624771167105365
-0.484146833374993	-0.3210905121617129
-0.484085798218743	-0.3135148323726775
-0.484024763062493	-0.3049185823397743
-0.483963727906243	-0.2939870282496235
-0.483902692749993	-0.282136003781408
-0.483841657593743	-0.26806799937978776
-0.483780622437493	-0.253215635709709
-0.483719587281243	-0.23629730723670034
-0.483658552124993	-0.21876093909664118
-0.483597516968743	-0.19933915315010847
-0.483536481812493	-0.1794933723807737
-0.483475446656243	-0.1579684984545625
-0.483414411499993	-0.13623732363843585
-0.483353376343743	-0.11305481295088528
-0.483292341187493	-0.08990280622320534
-0.483231306031243	-0.06554386284236031
-0.483170270874993	-0.04146633537025732
-0.483109235718743	-0.016437794106767236
-0.483048200562493	0.008049590343147922
-0.482987165406243	0.03322595282630083
-0.482926130249993	0.05759805352979785
-0.482865095093743	0.08239651906143333
-0.482804059937493	0.1061298112770878
-0.482743024781243	0.13003181409249537
-0.482681989624993	0.15261544339108415
-0.482620954468743	0.17512054100510163
-0.482559919312493	0.19606714716084922
-0.482498884156243	0.21670362264271908
-0.482437848999993	0.23555964515139377
-0.482376813843743	0.2538945229801932
-0.482315778687493	0.27024985397608375
-0.482254743531243	0.2858980810256997
-0.482193708374993	0.2993947713060553
-0.482132673218743	0.31202743923710546
-0.482071638062493	0.32236735166626634
-0.482010602906243	0.3317186945041711
-0.481949567749993	0.3386698791740159
-0.481888532593743	0.3445429961165215
-0.481827497437493	0.3479446745601181
-0.481766462281243	0.35021578003975223
-0.481705427124993	0.3499818362635934
-0.481644391968743	0.34860297111846467
-0.481583356812493	0.3447238785198844
-0.481522321656243	0.33972402283699077
-0.481461286499993	0.3322671418675048
-0.481400251343743	0.32375170479479964
-0.481339216187493	0.31285996192989834
-0.481278181031243	0.30100865584313774
-0.481217145874993	0.2868976189852115
-0.481156110718743	0.27196075603111913
-0.481095075562493	0.2549141749851019
-0.481034040406243	0.23720746039569893
-0.480973005249993	0.21757136409333877
-0.480911970093743	0.19746931495750084
-0.480850934937493	0.17564475194415768
-0.480789899781243	0.1535728616759482
-0.480728864624993	0.13000751649517825
-0.480667829468743	0.10643329902366035
-0.480606794312493	0.08161207205687195
-0.480545759156243	0.05703525807496305
-0.480484723999993	0.03147006551853498
-0.480423688843743	0.006412054271104792
-0.480362653687493	-0.019368971683550135
-0.480301618531243	-0.04437609012876359
-0.480240583374993	-0.0698397424143484
-0.480179548218743	-0.09426444989224263
-0.480118513062493	-0.11888370101424933
-0.480057477906243	-0.14220627837128502
-0.479996442749993	-0.16547146204222293
-0.479935407593743	-0.18719498965232956
-0.479874372437493	-0.20862457602918794
-0.479813337281243	-0.22828547194553941
-0.479752302124993	-0.24743629973150344
-0.479691266968743	-0.2646141660088981
-0.479630231812493	-0.2810908339739842
-0.479569196656243	-0.2954173999734252
-0.479508161499993	-0.30888070193708006
-0.479447126343743	-0.3200476432900155
-0.479386091187493	-0.33022180636289933
-0.479325056031243	-0.33798735376319816
-0.479264020874993	-0.34466591078436853
-0.479202985718743	-0.34886001957299045
-0.479141950562493	-0.35191026261337355
-0.479080915406243	-0.35243828132468846
-0.479019880249993	-0.35180413043846936
-0.478958845093743	-0.34864886736228384
-0.478897809937493	-0.34435212652182917
-0.478836774781243	-0.337574281776248
-0.478775739624993	-0.32971424102189534
-0.478714704468743	-0.31945118459641264
-0.478653669312493	-0.3082025772690718
-0.478592634156243	-0.29466549349771765
-0.478531598999993	-0.28027485768342525
-0.478470563843743	-0.26374432951262167
-0.478409528687493	-0.24652481930359232
-0.478348493531243	-0.22734493184106636
-0.478287458374993	-0.20766974254030562
-0.478226423218743	-0.18624081987037963
-0.478165388062493	-0.16453528886060315
-0.478104352906243	-0.14130544765547773
-0.478043317749993	-0.11803808803110288
-0.477982282593743	-0.09349374617158444
-0.477921247437493	-0.06916630707805126
-0.477860212281243	-0.04382188424890783
-0.477799177124993	-0.018958724313364417
-0.477738141968743	0.00665427464884227
-0.477677106812493	0.03151731932279396
-0.477616071656243	0.05686158281228372
-0.477555036499993	0.08118858536751306
-0.477494001343743	0.10573242588258269
-0.477432966187493	0.1289987666973849
-0.477371931031243	0.1522274265786275
-0.477310895874993	0.17393096334029687
-0.477249860718743	0.19535758904518816
-0.477188825562493	0.21502936663639
-0.477127790406243	0.23420538701724106
-0.477066755249993	0.2514196339015228
-0.477005720093743	0.2679443545615232
-0.476944684937493	0.2823275797815062
-0.476883649781243	0.2958567382112854
-0.476822614624993	0.307095751696212
-0.476761579468743	0.3173489032695676
-0.476700544312493	0.32519751227303495
-0.476639509156243	0.3319640516596489
-0.476578473999993	0.3362483728693836
-0.476517438843743	0.33939207849705627
-0.476456403687493	0.34001429817901985
-0.476395368531243	0.33947629723856626
-0.476334333374993	0.3364168174419397
-0.476273298218743	0.3322169035039539
-0.476212263062493	0.3255348196053856
-0.476151227906243	0.31777109083021604
-0.476090192749993	0.30760299653200773
-0.476029157593743	0.2964498274629006
-0.475968122437493	0.28300695799315795
-0.475907087281243	0.2687113374197865
-0.475846052124993	0.25227512637226274
-0.475785016968743	0.23515143699135835
-0.475723981812493	0.21606755761641083
-0.475662946656243	0.19649092876327867
-0.475601911499993	0.17516196145433324
-0.475540876343743	0.15356029533128923
-0.475479841187493	0.1304371758559944
-0.475418806031243	0.107282043491746
-0.475357770874993	0.082854474529015
-0.475296735718743	0.058651072880538446
-0.475235700562493	0.03343706799584173
-0.475174665406243	0.008713456535764445
-0.475113630249993	-0.01675171169081496
-0.475052595093743	-0.04145589226582924
-0.474991559937493	-0.06663112454683588
-0.474930524781243	-0.09077619591994647
-0.474869489624993	-0.11512613209738261
-0.474808454468743	-0.13818394405401452
-0.474747419312493	-0.16119043916314588
-0.474686384156243	-0.18265564889649538
-0.474625348999993	-0.2038288941742718
-0.474564313843743	-0.22322984422517653
-0.474503278687493	-0.2421188712663986
-0.474442243531243	-0.25902771406746566
-0.474381208374993	-0.2752301054995748
-0.474320173218743	-0.28927202194991375
-0.474259138062493	-0.3024425779719912
-0.474198102906243	-0.31330386589887094
-0.474137067749993	-0.32316206923551344
-0.474076032593743	-0.3305969281989047
-0.474014997437493	-0.3369330360354363
-0.473953962281243	-0.3407689152769865
-0.473892927124993	-0.3434485253522338
-0.473831891968743	-0.34358991271299166
-0.473770856812493	-0.3425569374458265
-0.473709821656243	-0.3389874954911716
-0.473648786499993	-0.3342654577541978
-0.473587751343743	-0.3270484695302141
-0.473526716187493	-0.3187400956641112
-0.473465681031243	-0.30801720295121165
-0.473404645874993	-0.29630231841055976
-0.473343610718743	-0.28229058238276966
-0.473282575562493	-0.2674223517397976
-0.473221540406243	-0.25040969829684023
-0.473160505249993	-0.23270928010336164
-0.473099470093743	-0.21304840654576784
-0.473038434937493	-0.1928981666562056
-0.472977399781243	-0.17099906719498925
-0.472916364624993	-0.14883444015758593
-0.472855329468743	-0.1251556872848391
-0.472794294312493	-0.10145592281971333
-0.472733259156243	-0.0764948687986851
-0.472672223999993	-0.051772804831583905
-0.472611188843743	-0.02605500910381683
-0.472550153687493	-0.0008460869890400868
-0.472489118531243	0.02508594863797416
-0.472428083374993	0.05023509574950686
-0.472367048218743	0.07583354771609231
-0.472306013062493	0.10037683105109624
-0.472244977906243	0.12510029022515265
-0.472183942749993	0.14850387849806548
-0.472122907593743	0.17182896183421303
-0.472061872437493	0.19358274872952685
-0.472000837281243	0.2150153719342721
-0.471939802124993	0.23464394666455393
-0.471878766968743	0.2537299426439906
-0.471817731812493	0.2708028446042512
-0.471756696656243	0.28713776859132745
-0.471695661499993	0.301278761853302
-0.471634626343743	0.3145166328642033
-0.471573591187493	0.32541186550395984
-0.471512556031243	0.3352726609115896
-0.471451520874993	0.34267746283506056
-0.471390485718743	0.34895320869715973
-0.471329450562493	0.35269743557600314
-0.471268415406243	0.35525675525177547
-0.471207380249993	0.35524853022190006
-0.471146345093743	0.3540395619645616
-0.471085309937493	0.3502673371305271
-0.471024274781243	0.34531893674323527
-0.470963239624993	0.33785183942193214
-0.470902204468743	0.329273057222519
-0.470841169312493	0.3182594974209373
-0.470780134156243	0.30623732774777246
-0.470719098999993	0.29190190502936353
-0.470658063843743	0.27669736277875856
-0.470597028687493	0.2593361220474612
-0.470535993531243	0.24127871828663555
-0.470474958374993	0.22125287797393972
-0.470413923218743	0.20073360798527198
-0.470352888062493	0.17846186900175373
-0.470291852906243	0.15592490159750058
-0.470230817749993	0.13187450738976655
-0.470169782593743	0.10780766804617754
-0.470108747437493	0.08248442887379857
-0.470047712281243	0.05740877752374074
-0.469986677124993	0.03134622570193889
-0.469925641968743	0.005804900071693417
-0.469864606812493	-0.02044715295806901
-0.469803571656243	-0.045900609141469
-0.469742536499993	-0.07178787569322617
-0.469681501343743	-0.09660139297365675
-0.469620466187493	-0.12157701304777965
-0.469559431031243	-0.1452118895826774
-0.469498395874993	-0.16874821216735655
-0.469437360718743	-0.1906907087452953
-0.469376325562493	-0.212290663879865
-0.469315290406243	-0.23206306806271715
-0.469254255249993	-0.25127088927829017
-0.469193220093743	-0.2684418519101597
-0.469132184937493	-0.2848529363705687
-0.469071149781243	-0.2990467853893708
-0.469010114624993	-0.31231643743185156
-0.468949079468743	-0.3232213276880125
