Time	Frequency
-0.5000412466249884	0.38970887747707506
-0.4999802114687384	0.3786141250210597
-0.4999191763124884	0.3644641623228375
-0.4998581411562384	0.34737504926299667
-0.4997971059999884	0.32748672533574036
-0.4997360708437384	0.304961895149237
-0.4996750356874884	0.279984678417719
-0.4996140005312384	0.2527591653933402
-0.4995529653749884	0.22350771765772318
-0.4994919302187384	0.1924691925804758
-0.4994308950624884	0.1598970027908318
-0.4993698599062384	0.12605704687190716
-0.4993088247499884	0.09122556212542321
-0.4992477895937384	0.05568686479996879
-0.4991867544374884	0.01973106024684527
-0.4991257192812384	-0.016348343013700577
-0.4990646841249884	-0.05225680425422611
-0.4990036489687384	-0.08770115294318646
-0.4989426138124884	-0.1223919874225829
-0.4988815786562384	-0.1560460024332394
-0.4988205434999884	-0.18838836313031368
-0.4987595083437384	-0.219154870106747
-0.4986984731874884	-0.24809416432122422
-0.4986374380312384	-0.27496978709061726
-0.4985764028749884	-0.29956206776071664
-0.4985153677187384	-0.3216699824338521
-0.4984543325624884	-0.34111273439547074
-0.4983932974062384	-0.3577312972741963
-0.4983322622499884	-0.3713896754603575
-0.4982712270937384	-0.3819760496058416
-0.4982101919374884	-0.3894036890238213
-0.4981491567812384	-0.3936116578441819
-0.4980881216249884	-0.3945653581750744
-0.4980270864687384	-0.3922567714954136
-0.4979660513124884	-0.3867045913408639
-0.4979050161562384	-0.37795403221698354
-0.4978439809999884	-0.36607650907621175
-0.4977829458437384	-0.35116904495907975
-0.4977219106874884	-0.33335349058484515
-0.4976608755312384	-0.31277556144393887
-0.4975998403749884	-0.2896036223204956
-0.4975388052187384	-0.26402735918669284
-0.4974777700624884	-0.23625620937799857
-0.4974167349062384	-0.20651768248149308
-0.4973556997499884	-0.17505549988792868
-0.4972946645937384	-0.14212759315452053
-0.4972336294374884	-0.10800405442532379
-0.4971725942812384	-0.07296486479402066
-0.4971115591249884	-0.037297666365737406
-0.4970505239687384	-0.0012954009287593842
-0.4969894888124884	0.0347461252249233
-0.4969284536562384	0.07053056956718833
-0.4968674184999884	0.1057635817522929
-0.4968063833437384	0.14015512037400307
-0.4967453481874884	0.17342189459558563
-0.4966843130312384	0.2052896541533291
-0.4966232778749884	0.23549541765699852
-0.4965622427187384	0.26378970302765864
-0.4965012075624884	0.28993847633163533
-0.4964401724062384	0.31372517289135926
-0.4963791372499884	0.3349524045706942
-0.4963181020937384	0.3534436394364097
-0.4962570669374884	0.3690446295491943
-0.4961960317812384	0.3816246820208912
-0.4961349966249884	0.3910777895529621
-0.4960739614687384	0.39732343975011736
-0.4960129263124884	0.4003073681547805
-0.4959518911562384	0.4000019632991484
-0.4958908559999884	0.3964065269285804
-0.4958298208437384	0.3895473191231932
-0.4957687856874884	0.37947732057315764
-0.4957077505312384	0.3662758543912074
-0.4956467153749884	0.35004793175822324
-0.4955856802187384	0.3309234188395236
-0.4955246450624884	0.3090559911460506
-0.4954636099062384	0.2846218856597232
-0.4954025747499884	0.25781848194735413
-0.4953415395937384	0.22886269858264033
-0.4952805044374884	0.1979892255108922
-0.4952194692812384	0.16544862531487486
-0.4951584341249884	0.13150528222255012
-0.4950973989687384	0.09643527473784239
-0.4950363638124884	0.06052407308378301
-0.4949753286562384	0.024064257054439753
-0.4949142934999884	-0.01264686712481543
-0.4948532583437384	-0.04930977539903165
-0.4947922231874884	-0.08562505605256446
-0.4947311880312384	-0.12129596869788044
-0.4946701528749884	-0.15603080611463144
-0.4946091177187384	-0.18954530176698506
-0.4945480825624884	-0.22156499555676512
-0.4944870474062384	-0.25182741766000966
-0.4944260122499884	-0.28008430859681954
-0.4943649770937384	-0.30610363055354267
-0.4943039419374884	-0.32967147024970356
-0.4942429067812384	-0.3505938112959521
-0.4941818716249884	-0.3686981517952293
-0.4941208364687384	-0.38383488400984656
-0.4940598013124884	-0.39587857691408107
-0.4939987661562384	-0.4047289964568078
-0.4939377309999884	-0.4103119378690386
-0.4938766958437384	-0.41257986612557895
-0.4938156606874884	-0.41151229479062706
-0.4937546255312384	-0.40711599475851973
-0.4936935903749884	-0.39942493690397485
-0.4936325552187384	-0.3885000334025141
-0.4935715200624884	-0.3744286586065072
-0.4935104849062384	-0.35732394232151127
-0.4934494497499884	-0.3373238578121156
-0.4933884145937384	-0.3145901025739724
-0.4933273794374884	-0.28930680266891634
-0.4932663442812384	-0.26167898484941965
-0.4932053091249884	-0.23193094163369798
-0.4931442739687384	-0.20030437828763104
-0.4930832388124884	-0.16705643968380265
-0.4930222036562384	-0.13245765613295313
-0.4929611684999884	-0.09678965901616252
-0.4929001333437384	-0.06034294638984139
-0.4928390981874884	-0.023414454879542565
-0.4927780630312384	0.0136948495620087
-0.4927170278749884	0.05068240146699475
-0.4926559927187384	0.08724659895267393
-0.4925949575624884	0.12308919097439976
-0.4925339224062384	0.15791779327984407
-0.4924728872499884	0.1914482372962516
-0.4924118520937384	0.2234069166413228
-0.4923508169374884	0.2535330929063203
-0.4922897817812384	0.2815809120625942
-0.4922287466249884	0.30732158346579247
-0.4921677114687384	0.33054514155647996
-0.4921066763124884	0.3510622167942256
-0.4920456411562384	0.3687056505569921
-0.4919846059999884	0.38333175693245586
-0.4919235708437384	0.3948216454700253
-0.4918625356874884	0.40308208931299616
-0.4918015005312384	0.4080463856277242
-0.4917404653749884	0.4096748649801419
-0.4916794302187384	0.40795523040841175
-0.4916183950624884	0.4029026998553915
-0.4915573599062384	0.39455983299275
-0.4914963247499884	0.38299625803963505
-0.4914352895937384	0.3683080410835283
-0.4913742544374884	0.35061695847319024
-0.4913132192812384	0.33006946539200865
-0.4912521841249884	0.30683552386896545
-0.4911911489687384	0.2811071924660086
-0.4911301138124884	0.2530970683171673
-0.4910690786562384	0.22303652626823398
-0.4910080434999884	0.19117383901006796
-0.4909470083437384	0.15777213126720227
-0.4908859731874884	0.12310718674856846
-0.4908249380312384	0.08746526171503442
-0.4907639028749884	0.05114061210990177
-0.4907028677187384	0.014433177982279607
-0.4906418325624884	-0.022353929023865113
-0.4905807974062384	-0.05891695061831427
-0.4905197622499884	-0.09495393442747106
-0.4904587270937384	-0.13016725715992108
-0.4903976919374884	-0.16426606867347562
-0.4903366567812384	-0.19696870169461983
-0.4902756216249884	-0.22800499423506068
-0.4902145864687384	-0.2571185038278248
-0.4901535513124884	-0.28406866138413234
-0.4900925161562384	-0.30863275179489286
-0.4900314809999884	-0.33060772359980517
-0.4899704458437384	-0.3498119487395079
-0.4899094106874884	-0.36608662874262815
-0.4898483755312384	-0.3792972100299518
-0.4897873403749884	-0.38933444484016866
-0.4897263052187384	-0.3961153127870701
-0.4896652700624884	-0.39958375118991807
-0.4896042349062384	-0.3997110631254162
-0.4895431997499884	-0.39649624456530685
-0.4894821645937384	-0.38996592899141197
-0.4894211294374884	-0.380174232692628
-0.4893600942812384	-0.3672022906263709
-0.4892990591249884	-0.35115760218635195
-0.4892380239687384	-0.33217316025848237
-0.4891769888124884	-0.31040635035345254
-0.4891159536562384	-0.286037673592226
-0.4890549184999884	-0.2592692557534468
-0.4889938833437384	-0.2303231715814073
-0.4889328481874884	-0.19943965022360624
-0.4888718130312384	-0.16687507037107563
-0.4888107778749884	-0.1328998245558217
-0.4887497427187384	-0.09779617754536687
-0.4886887075624884	-0.061855799276366974
-0.4886276724062384	-0.025377473880530764
-0.4885666372499884	0.011335412321615671
-0.4885056020937384	0.047977419991925396
-0.4884445669374884	0.08424349289071574
-0.4883835317812384	0.11983159655880112
-0.4883224966249884	0.1544451246771073
-0.4882614614687384	0.18779540754092577
-0.4882004263124884	0.21960409721966925
-0.4881393911562384	0.2496054896874869
-0.4880783559999884	0.27754869034266794
-0.4880173208437384	0.3031997692171876
-0.4879562856874884	0.3263436504237119
-0.4878952505312384	0.3467859127046859
-0.4878342153749884	0.36435446490208057
-0.4877731802187384	0.37890088839935876
-0.4877121450624884	0.39030180573115913
-0.4876511099062384	0.3984597801325795
-0.4875900747499884	0.40330425948595533
-0.4875290395937384	0.4047921033892434
-0.4874680044374884	0.4029079785777947
-0.4874069692812384	0.3976645245853696
-0.4873459341249884	0.3891022151991402
-0.4872848989687384	0.37728911336636234
-0.4872238638124884	0.3623202415809932
-0.4871628286562384	0.3443168939523446
-0.4871017934999884	0.32342557443962944
-0.4870407583437384	0.2998168633190163
-0.4869797231874884	0.273683967903166
-0.4869186880312384	0.2452411595641496
-0.4868576528749884	0.2147220339183284
-0.4867966177187384	0.18237752254500592
-0.4867355825624884	0.14847390449207912
-0.4866745474062384	0.11329056024824888
-0.4866135122499884	0.07711765787995085
-0.4865524770937384	0.04025380403598584
-0.4864914419374884	0.0030035264644387785
-0.4864304067812384	-0.034325231528636035
-0.4863693716249884	-0.07142362409358033
-0.4863083364687384	-0.1079845349829945
-0.4862473013124884	-0.1437050548767104
-0.4861862661562384	-0.17828902707974326
-0.4861252309999884	-0.21144950016918268
-0.4860641958437384	-0.2429111153741459
-0.4860031606874884	-0.2724123928400533
-0.4859421255312384	-0.29970789482204335
-0.4858810903749884	-0.32457030782859275
-0.4858200552187384	-0.3467922685791549
-0.4857590200624884	-0.3661881869842949
-0.4856979849062384	-0.38259571608393333
-0.4856369497499884	-0.39587714810572266
-0.4855759145937384	-0.40592058900160544
-0.4855148794374884	-0.41264084007943724
-0.4854538442812384	-0.41598020428825316
-0.4853928091249884	-0.41590889896056743
-0.4853317739687384	-0.41242537394739576
-0.4852707388124884	-0.40555632247073115
-0.4852097036562384	-0.3953564639870894
-0.4851486684999884	-0.3819081358339633
-0.4850876333437384	-0.3653205919820104
-0.4850265981874884	-0.34572913757949225
-0.4849655630312384	-0.3232940131071305
-0.4849045278749884	-0.29819907197195733
-0.4848434927187384	-0.2706502752955993
-0.4847824575624884	-0.240874008619101
-0.4847214224062384	-0.20911517079491335
-0.4846603872499884	-0.17563521643881774
-0.4845993520937384	-0.14070993939836715
-0.4845383169374884	-0.10462720946589184
-0.4844772817812384	-0.06768462770008903
-0.4844162466249884	-0.03018696997086058
-0.4843552114687384	0.007556214803947163
-0.4842941763124884	0.04523328730606256
-0.4842331411562384	0.08253303701567673
-0.4841721059999884	0.11914726834411236
-0.4841110708437384	0.15477340587165014
-0.4840500356874884	0.18911693211766412
-0.4839890005312384	0.2218939396626961
-0.4839279653749884	0.252833379348729
-0.4838669302187384	0.28167940660012464
-0.4838058950624884	0.30819347713263595
-0.4837448599062384	0.33215632565322745
-0.4836838247499884	0.3533698232846616
-0.4836227895937384	0.37165859222184394
-0.4835617544374884	0.38687153530284396
-0.4835007192812384	0.3988830253520938
-0.4834396841249884	0.4075940264229839
-0.4833786489687384	0.41293288003571865
-0.4833176138124884	0.4148559314871212
-0.4832565786562384	0.41334791896872924
-0.4831955434999884	0.40842206054300173
-0.4831345083437384	0.4001200245090525
-0.4830734731874884	0.38851152418809787
-0.4830124380312384	0.37369379945955045
-0.4829514028749884	0.3557907875153091
-0.4828903677187384	0.33495210640867895
-0.4828293325624884	0.3113518351313183
-0.4827682974062384	0.28518704021928243
-0.4827072622499884	0.25667618249987895
-0.4826462270937384	0.22605725286819647
-0.4825851919374884	0.1935858654494518
-0.4825241567812384	0.15953305717512833
-0.4824631216249884	0.12418308254243705
-0.4824020864687384	0.08783106031934045
-0.4823410513124884	0.05078044240521823
-0.4822800161562384	0.013340601305276818
-0.4822189809999884	-0.02417586871098885
-0.4821579458437384	-0.06145567761567173
-0.4820969106874884	-0.0981874608929028
-0.4820358755312384	-0.13406444083047336
-0.4819748403749884	-0.16878688521488555
-0.4819138052187384	-0.2020647237346893
-0.4818527700624884	-0.2336198771962121
-0.4817917349062384	-0.26318863626948275
-0.4817306997499884	-0.29052388238747207
-0.4816696645937384	-0.31539709216827133
-0.4816086294374884	-0.33760032493481446
-0.4815475942812384	-0.3569479248276848
-0.4814865591249884	-0.37327809280576024
-0.4814255239687384	-0.3864542527397142
-0.4813644888124884	-0.3963661941790222
-0.4813034536562384	-0.4029310056870786
-0.4812424184999884	-0.4060937933795833
-0.4811813833437384	-0.4058281160969231
-0.4811203481874884	-0.40213626731683744
-0.4810593130312384	-0.39504921902231077
-0.4809982778749884	-0.3846264077170948
-0.4809372427187384	-0.3709552384538733
-0.4808762075624884	-0.3541503540712996
-0.4808151724062384	-0.33435271683247925
-0.4807541372499884	-0.3117283959374368
-0.4806931020937384	-0.28646723891771764
-0.4806320669374884	-0.2587812456337719
-0.4805710317812384	-0.22890284357557805
-0.4805099966249884	-0.1970829151215598
-0.4804489614687384	-0.16358873969791296
-0.4803879263124884	-0.1287017230326691
-0.4803268911562384	-0.09271509470848363
-0.4802658559999884	-0.05593140397286222
-0.4802048208437384	-0.01866002013125608
-0.4801437856874884	0.01878541890894569
-0.4800827505312384	0.05608975488862509
-0.4800217153749884	0.0929387775594605
-0.4799606802187384	0.12902203840455848
-0.4798996450624884	0.16403530794219068
-0.4798386099062384	0.19768320517730084
-0.4797775747499884	0.22968169051176643
-0.4797165395937384	0.25976037222710835
-0.4796555044374884	0.2876649138498433
-0.4795944692812384	0.3131590015336408
-0.4795334341249884	0.336026533627873
-0.4794723989687384	0.3560732677124896
-0.4794113638124884	0.37312856803806277
-0.4793503286562384	0.3870468479712616
-0.4792892934999884	0.3977087080448099
-0.4792282583437384	0.4050221210451528
-0.4791672231874884	0.40892303351345877
-0.4791061880312384	0.4093760747575321
-0.4790451528749884	0.40637477867543914
-0.4789841177187384	0.39994167996059543
-0.4789230825624884	0.39012817939005623
-0.4788620474062384	0.3770140510606818
-0.4788010122499884	0.3607068877090598
-0.4787399770937384	0.3413411278568531
-0.4786789419374884	0.31907700355433094
-0.4786179067812384	0.29409918317417144
-0.4785568716249884	0.26661524782662255
-0.4784958364687384	0.2368539626140362
-0.4784348013124884	0.20506335290238667
-0.4783737661562384	0.17150868461190624
-0.4783127309999884	0.13647017978064713
-0.4782516958437384	0.1002407331904845
-0.4781906606874884	0.06312342047387529
-0.4781296255312384	0.02542898797655181
-0.4780685903749884	-0.012526737483533813
-0.4780075552187384	-0.050425592098816904
-0.4779465200624884	-0.08794956775539654
-0.4778854849062384	-0.12478366757819222
-0.4778244497499884	-0.16061845127757224
-0.4777634145937384	-0.19515260857393413
-0.4777023794374884	-0.2280956314609281
-0.4776413442812384	-0.25917005343927324
-0.4775803091249884	-0.2881140219854275
-0.4775192739687384	-0.31468329079656304
-0.4774582388124884	-0.3386534341168546
-0.4773972036562384	-0.3598216861351119
-0.4773361684999884	-0.3780086032347947
-0.4772751333437384	-0.39305974784347253
-0.4772140981874884	-0.40484675949214893
-0.4771530630312384	-0.4132687102135688
-0.4770920278749884	-0.4182527484734564
-0.4770309927187384	-0.41975486656740807
-0.4769699575624884	-0.41776024699134545
-0.4769089224062384	-0.4122833504655068
-0.4768478872499884	-0.40336793689068545
-0.4767868520937384	-0.3910865551401532
-0.4767258169374884	-0.3755401040900473
-0.4766647817812384	-0.3568568848517033
-0.4766037466249884	-0.33519160307175366
-0.4765427114687384	-0.31072407004466884
-0.4764816763124884	-0.2836576821854151
-0.4764206411562384	-0.2542177688106211
-0.4763596059999884	-0.222649661943591
-0.4762985708437384	-0.18921668311215958
-0.4762375356874884	-0.15419792991464146
-0.4761765005312384	-0.11788592056483567
-0.4761154653749884	-0.08058416202526789
-0.4760544302187384	-0.042604610616355884
-0.4759933950624884	-0.004265022066124936
-0.4759323599062384	0.03411368681454869
-0.4758713247499884	0.072210136639913
-0.4758102895937384	0.10970522363878826
-0.4757492544374884	0.14628475352580989
-0.4756882192812384	0.1816421063091723
-0.4756271841249884	0.21548085866715622
-0.4755661489687384	0.24751720217743164
-0.4755051138124884	0.27748241025082554
-0.4754440786562384	0.30512507677090356
-0.4753830434999884	0.3302132146695997
-0.4753220083437384	0.35253627951553956
-0.4752609731874884	0.37190688973001734
-0.4751999380312384	0.38816243744096895
-0.4751389028749884	0.4011664820821485
-0.4750778677187384	0.4108098913601464
-0.4750168325624884	0.4170117737168073
-0.4749557974062384	0.41972018089249014
-0.4748947622499884	0.4189125470374971
-0.4748337270937384	0.41459589725315316
-0.4747726919374884	0.4068068010879621
-0.4747116567812384	0.39561106539640645
-0.4746506216249884	0.38110320797762787
-0.4745895864687384	0.3634056559060318
-0.4745285513124884	0.34266773417959256
-0.4744675161562384	0.3190644164362488
-0.4744064809999884	0.2927948504773193
-0.4743454458437384	0.2640806950470826
-0.4742844106874884	0.2331642687756471
-0.4742233755312384	0.20030649185982982
-0.4741623403749884	0.165784689802498
-0.4741013052187384	0.12989030430492418
-0.4740402700624884	0.09292637754354997
-0.4739792349062384	0.05520502437740985
-0.4739181997499884	0.017044831768713728
-0.4738571645937384	-0.021231896058316532
-0.4737961294374884	-0.05930179968092217
-0.4737350942812384	-0.09684320371068854
-0.4736740591249884	-0.13353888157559163
-0.4736130239687384	-0.1690786826993268
-0.4735519888124884	-0.20316217845674106
-0.4734909536562384	-0.23550120023518406
-0.4734299184999884	-0.2658222991094517
-0.4733688833437384	-0.2938690251836761
-0.4733078481874884	-0.3194041390919671
-0.4732468130312384	-0.34221162012068296
-0.4731857778749884	-0.3620984498392504
-0.4731247427187384	-0.378896361616362
-0.4730637075624884	-0.39246314291803513
-0.4730026724062384	-0.4026839531044339
-0.4729416372499884	-0.4094722637569364
-0.4728806020937384	-0.41277057760702207
-0.4728195669374884	-0.41255100036219616
-0.4727585317812384	-0.40881538815716784
-0.4726974966249884	-0.4015954501181781
-0.4726364614687384	-0.3909524022092872
-0.4725754263124884	-0.37697651509427627
-0.4725143911562384	-0.35978634851346697
-0.4724533559999884	-0.3395277424014206
-0.4723923208437384	-0.3163726220486551
-0.4723312856874884	-0.29051751796811404
-0.4722702505312384	-0.26218194494384434
-0.4722092153749884	-0.2316065275581653
-0.4721481802187384	-0.19905098331077611
-0.4720871450624884	-0.16479191254651948
-0.4720261099062384	-0.12912049239020765
-0.4719650747499884	-0.09233996777574983
-0.4719040395937384	-0.05476313552253434
-0.4718430044374884	-0.016709661049488993
-0.4717819692812384	0.021496618114439515
-0.4717209341249884	0.05953044099669143
-0.4716598989687384	0.09706788031641432
-0.4715988638124884	0.13378906905893825
-0.4715378286562384	0.16938098222346334
-0.4714767934999884	0.2035400094395885
-0.4714157583437384	0.23597461300030356
-0.4713547231874884	0.2664077530674021
-0.4712936880312384	0.29457927975052717
-0.4712326528749884	0.3202481477347903
-0.4711716177187384	0.3431944541260031
-0.4711105825624884	0.36322133501057613
-0.4710495474062384	0.38015663813787176
-0.4709885122499884	0.39385441514585473
-0.4709274770937384	0.4041961411752937
-0.4708664419374884	0.4110917942267937
-0.4708054067812384	0.4144805629195837
-0.4707443716249884	0.41433144411176015
-0.4706833364687384	0.4106434873356409
-0.4706223013124884	0.4034458243504244
-0.4705612661562384	0.39279745969199054
-0.4705002309999884	0.37878674844810856
-0.4704391958437384	0.36153071144869586
-0.4703781606874884	0.34117400603166964
-0.4703171255312384	0.31788776475946434
-0.4702560903749884	0.2918681083251966
-0.4701950552187384	0.263334526251886
-0.4701340200624884	0.23252802884541626
-0.4700729849062384	0.19970907391157736
-0.4700119497499884	0.16515541444395596
-0.4699509145937384	0.12915970574979907
-0.4698898794374884	0.09202705681052935
-0.4698288442812384	0.054072431743194684
-0.4697678091249884	0.015617981415525556
-0.4697067739687384	-0.023009707037213317
