Time	Frequency
-0.5000362390624957	-5.8630040615152e-25
-0.4999752039062457	-5.868668317610164e-25
-0.4999141687499957	-5.835000103195494e-25
-0.4998531335937457	-5.7622413256205e-25
-0.4997920984374957	-5.650899148022775e-25
-0.4997310632812457	-5.50174301612193e-25
-0.4996700281249957	-5.315798645448222e-25
-0.4996089929687457	-5.094342223029509e-25
-0.4995479578124957	-4.838890548642157e-25
-0.4994869226562457	-4.5511921133499335e-25
-0.4994258874999957	-4.233214041015789e-25
-0.4993648523437457	-3.887129666901526e-25
-0.4993038171874957	-3.51530319996674e-25
-0.4992427820312457	-3.120274138746963e-25
-0.4991817468749957	-2.7047396687376516e-25
-0.4991207117187457	-2.271536395230523e-25
-0.4990596765624957	-1.823621330522241e-25
-0.4989986414062457	-1.3640512211803051e-25
-0.4989376062499957	-8.959626049070588e-26
-0.4988765710937457	-4.2254927428201624e-26
-0.4988155359374957	5.295829130348612e-27
-0.4987545007812457	5.273158958117154e-26
-0.4986934656249957	9.972871192565188e-26
-0.4986324304687457	1.4596656537541575e-25
-0.4985713953124957	1.9112974746688428e-25
-0.4985103601562457	2.3491015901383366e-25
-0.4984493249999957	2.770092216115812e-25
-0.4983882898437457	3.1713980051544832e-25
-0.4983272546874957	3.550282569175788e-25
-0.4982662195312457	3.9041628905015914e-25
-0.4982051843749957	4.230626972109365e-25
-0.4981441492187457	4.527450434818561e-25
-0.4980831140624957	4.792611585967235e-25
-0.4980220789062457	5.024305937282546e-25
-0.4979610437499957	5.220957627099911e-25
-0.4979000085937457	5.381231061652129e-25
-0.4978389734374957	5.504039837305915e-25
-0.4977779382812457	5.588554182351967e-25
-0.4977169031249957	5.634206909111483e-25
-0.4976558679687457	5.640697054404206e-25
-0.4975948328124957	5.607992498816107e-25
-0.4975337976562457	5.536329820236837e-25
-0.4974727624999957	5.42621304345218e-25
-0.4974117273437457	5.278410201736904e-25
-0.4973506921874957	5.093948138812975e-25
-0.4972896570312457	4.874105592884104e-25
-0.4972286218749957	4.620404542592341e-25
-0.4971675867187457	4.334599936505173e-25
-0.4971065515624957	4.0186674652215477e-25
-0.4970455164062457	3.6747905863741843e-25
-0.4969844812499957	3.305345094163849e-25
-0.4969234460937457	2.9128835529322054e-25
-0.4968624109374957	2.5001170392912574e-25
-0.4968013757812457	2.069897394938645e-25
-0.4967403406249957	1.6251975118418013e-25
-0.4966793054687457	1.1690902810509853e-25
-0.4966182703124957	7.047292324630922e-26
-0.4965572351562457	2.353246545978676e-26
-0.4964961999999957	-2.3587628937346722e-26
-0.4964351648437457	-7.056130250195086e-26
-0.4963741296874957	-1.1706339161546948e-25
-0.4963130945312457	-1.6277175786544438e-25
-0.4962520593749957	-2.0736968177976773e-25
-0.4961910242187457	-2.5054780191323006e-25
-0.4961299890624957	-2.9200650446146822e-25
-0.4960689539062457	-3.3145775897196e-25
-0.4960079187499957	-3.6862721221956074e-25
-0.4959468835937457	-4.0325613903706124e-25
-0.4958858484374957	-4.351030287211299e-25
-0.4958248132812457	-4.639455019273016e-25
-0.4957637781249957	-4.895816181068527e-25
-0.4957027429687457	-5.118314763476409e-25
-0.4956417078124957	-5.305382972191702e-25
-0.4955806726562457	-5.455696170162491e-25
-0.4955196374999957	-5.5681819173206645e-25
-0.4954586023437457	-5.642026905963285e-25
-0.4953975671874957	-5.676683993920064e-25
-0.4953365320312457	-5.671874332720637e-25
-0.4952754968749957	-5.627591444585701e-25
-0.4952144617187457	-5.544099612481388e-25
-0.4951534265624957	-5.421933677619877e-25
-0.4950923914062457	-5.26189462516768e-25
-0.4950313562499957	-5.065044590129687e-25
-0.4949703210937457	-4.832699998387906e-25
-0.4949092859374957	-4.566422009444949e-25
-0.4948482507812457	-4.268006816223564e-25
-0.4947872156249957	-3.939472566675455e-25
-0.4947261804687457	-3.583046598481901e-25
-0.4946651453124957	-3.2011494049136385e-25
-0.4946041101562457	-2.7963787289372876e-25
-0.4945430749999957	-2.3714916724327056e-25
-0.4944820398437457	-1.9293857419231408e-25
-0.4944210046874957	-1.4730792199088675e-25
-0.4943599695312457	-1.0056905999704172e-25
-0.4942989343749957	-5.304169334002561e-26
-0.4942378992187457	-5.051207836084844e-27
-0.4941768640624957	4.30735396841475e-26
-0.4941158289062457	9.100252267551046e-26
-0.4940547937499957	1.384067504451662e-25
-0.4939937585937457	1.8496059399964296e-25
-0.4939327234374957	2.303439561703609e-25
-0.4938716882812457	2.742445320919515e-25
-0.4938106531249957	3.163599499072028e-25
-0.4937496179687457	3.563997840263645e-25
-0.4936885828124957	3.9408767539060235e-25
-0.4936275476562457	4.291631371023411e-25
-0.4935665124999957	4.613833928138106e-25
-0.4935054773437457	4.905250666491975e-25
-0.4934444421874957	5.163857241025638e-25
-0.4933834070312457	5.38785244150652e-25
-0.4933223718749957	5.575671171141907e-25
-0.4932613367187457	5.725995106948366e-25
-0.4932003015624957	5.8377617346507635e-25
-0.4931392664062457	5.9101724157289885e-25
-0.4930782312499957	5.94269713855209e-25
-0.4930171960937457	5.935079234508553e-25
-0.4929561609374957	5.887336650430191e-25
-0.4928951257812457	5.79976237653603e-25
-0.4928340906249957	5.672922379525578e-25
-0.4927730554687457	5.507652020501972e-25
-0.4927120203124957	5.3050504558878105e-25
-0.4926509851562457	5.06647307587493e-25
-0.4925899499999957	4.793522752005605e-25
-0.4925289148437457	4.48803837661917e-25
-0.4924678796874957	4.152083078454137e-25
-0.4924068445312457	3.787929341332775e-25
-0.4923458093749957	3.3980444449285677e-25
-0.4922847742187457	2.9850728493845908e-25
-0.4922237390624957	2.551818423588584e-25
-0.4921627039062457	2.101225548794111e-25
-0.4921016687499957	1.6363582141957384e-25
-0.4920406335937457	1.1603800313377563e-25
-0.4919795984374957	6.765314489675657e-26
-0.4919185632812457	1.8810874871230015e-26
-0.4918575281249957	-3.015599362568949e-26
-0.4917964929687457	-7.89136353921803e-26
-0.4917354578124957	-1.2712955153404181e-25
-0.4916744226562457	-1.7447488596277805e-25
-0.4916133874999957	-2.206266050535379e-25
-0.4915523523437457	-2.6526983623108185e-25
-0.4914913171874957	-3.0809989705177937e-25
-0.4914302820312457	-3.4882455251226613e-25
-0.4913692468749957	-3.8716588553035117e-25
-0.4913082117187457	-4.228623054397465e-25
-0.4912471765624957	-4.556703151021498e-25
-0.4911861414062457	-4.8536620908231905e-25
-0.4911251062499957	-5.1174762353617605e-25
-0.4910640710937457	-5.346349016795922e-25
-0.4910030359374957	-5.538724060656952e-25
-0.4909420007812457	-5.693295056728067e-25
-0.4908809656249957	-5.809016014109773e-25
-0.4908199304687457	-5.885107185781069e-25
-0.4907588953124957	-5.921061924046681e-25
-0.4906978601562457	-5.916649141089395e-25
-0.4906368249999957	-5.871915517508647e-25
-0.4905757898437457	-5.787185439102309e-25
-0.4905147546874957	-5.663058143511069e-25
-0.4904537195312457	-5.500404682151065e-25
-0.4903926843749957	-5.30036083660377e-25
-0.4903316492187457	-5.064320579244556e-25
-0.4902706140624957	-4.7939254083015235e-25
-0.4902095789062457	-4.491053934606618e-25
-0.4901485437499957	-4.157808595053692e-25
-0.4900875085937457	-3.796501095030161e-25
-0.4900264734374957	-3.409637221036053e-25
-0.4899654382812457	-2.9998982219988064e-25
-0.4899044031249957	-2.57012405947366e-25
-0.4898433679687457	-2.1232924464086927e-25
-0.4897823328124957	-1.6624988490057718e-25
-0.4897212976562457	-1.190935594641819e-25
-0.4896602624999957	-7.11868597550103e-26
-0.4895992273437457	-2.2861633852133754e-26
-0.4895381921874957	2.5547452108552134e-26
-0.4894771570312457	7.370509957522086e-26
-0.4894161218749957	1.212777838034303e-25
-0.4893550867187457	1.6793604627496792e-25
-0.4892940515624957	2.1335673246432613e-25
-0.4892330164062457	2.5722529617274935e-25
-0.4891719812499957	2.992378889368061e-25
-0.4891109460937457	3.391035974526132e-25
-0.4890499109374957	3.765463014593951e-25
-0.4889888757812457	4.113067534734389e-25
-0.4889278406249957	4.431442389899389e-25
-0.4888668054687457	4.71838347277386e-25
-0.4888057703124957	4.971904765354533e-25
-0.4887447351562457	5.190251632056746e-25
-0.4886836999999957	5.371914258117076e-25
-0.4886226648437457	5.515636721564905e-25
-0.4885616296874957	5.620427289805479e-25
-0.4885005945312457	5.685563945434413e-25
-0.4884395593749957	5.710600796018023e-25
-0.4883785242187457	5.695370280670462e-25
-0.4883174890624957	5.639984915974355e-25
-0.4882564539062457	5.544836709347208e-25
-0.4881954187499957	5.410593978223603e-25
-0.4881343835937457	5.2381976739651575e-25
-0.4880733484374957	5.028854027378416e-25
-0.4880123132812457	4.784027149162507e-25
-0.4879512781249957	4.505428181434407e-25
-0.4878902429687457	4.195004178689863e-25
-0.4878292078124957	3.854924220955854e-25
-0.4877681726562457	3.4875647803015226e-25
-0.4877071374999957	3.095493012204932e-25
-0.4876461023437457	2.681448988549745e-25
-0.4875850671874957	2.2483273432117227e-25
-0.4875240320312457	1.7991561520997965e-25
-0.4874629968749957	1.337077106080331e-25
-0.4874019617187457	8.653227158730893e-26
-0.4873409265624957	3.871945786824624e-26
-0.4872798914062457	-9.395975765835765e-27
-0.4872188562499957	-5.747702498356872e-26
-0.4871578210937457	-1.0518674518672727e-25
-0.4870967859374957	-1.5219063323677702e-25
-0.4870357507812457	-1.981588968719023e-25
-0.4869747156249957	-2.4276884348729172e-25
-0.4869136804687457	-2.857070126984145e-25
-0.4868526453124957	-3.2667148011131625e-25
-0.4867916101562457	-3.653738534240964e-25
-0.4867305749999957	-4.015413798619762e-25
-0.4866695398437457	-4.349188351587018e-25
-0.4866085046874957	-4.652702013278403e-25
-0.4865474695312457	-4.923805279580286e-25
-0.4864864343749957	-5.160572158287975e-25
-0.4864253992187457	-5.361315464046348e-25
-0.4863643640624957	-5.524597872581912e-25
-0.4863033289062457	-5.649241846146068e-25
-0.4862422937499957	-5.734339082341191e-25
-0.4861812585937457	-5.779255564852757e-25
-0.4861202234374957	-5.783637478129318e-25
-0.4860591882812457	-5.747412933803084e-25
-0.4859981531249957	-5.670793079229701e-25
-0.4859371179687457	-5.554270841802614e-25
-0.4858760828124957	-5.39861733454377e-25
-0.4858150476562457	-5.20487720836126e-25
-0.4857540124999957	-4.9743609987774515e-25
-0.4856929773437457	-4.7086366448118095e-25
-0.4856319421874957	-4.409518485157906e-25
-0.4855709070312457	-4.0790548950673013e-25
-0.4855098718749957	-3.7195141064631155e-25
-0.4854488367187457	-3.3333688166520087e-25
-0.4853878015624957	-2.923278621289732e-25
-0.4853267664062457	-2.4920723077295485e-25
-0.4852657312499957	-2.0427276710656246e-25
-0.4852046960937457	-1.5783511775761598e-25
-0.4851436609374957	-1.1021566144469173e-25
-0.4850826257812457	-6.174420412827905e-26
-0.4850215906249957	-1.2756825141847982e-26
-0.4849605554687457	3.6406634684436037e-26
-0.4848995203124957	8.540474630910389e-26
-0.4848384851562457	1.3389704291130277e-25
-0.4847774499999957	1.8154628521330242e-25
-0.4847164148437457	2.2802077235980795e-25
-0.4846553796874957	2.729968405130012e-25
-0.4845943445312457	3.161608784359551e-25
-0.4845333093749957	3.5721170314941163e-25
-0.4844722742187457	3.9586258995752647e-25
-0.4844112390624957	4.318432754447154e-25
-0.4843502039062457	4.64901849325465e-25
-0.4842891687499957	4.948065552546086e-25
-0.4842281335937457	5.213473770172949e-25
-0.4841670984374957	5.443375268461892e-25
-0.4841060632812457	5.636147744264953e-25
-0.4840450281249957	5.790425707226707e-25
-0.4839839929687457	5.905110352744538e-25
-0.4839229578124957	5.979377032410734e-25
-0.4838619226562457	6.0126817368458635e-25
-0.4838008874999957	6.004764426423395e-25
-0.4837398523437457	5.955651524983584e-25
-0.4836788171874957	5.865655495841512e-25
-0.4836177820312457	5.73537319024167e-25
-0.4835567468749957	5.565681617434142e-25
-0.4834957117187457	5.357732067396261e-25
-0.4834346765624957	5.112942373174398e-25
-0.4833736414062457	4.832986896771166e-25
-0.4833126062499957	4.5197853925678525e-25
-0.4832515710937457	4.175489424183641e-25
-0.4831905359374957	3.802467788419444e-25
-0.4831295007812457	3.4032898316010182e-25
-0.4830684656249957	2.9807080140039693e-25
-0.4830074304687457	2.537638491228775e-25
-0.4829463953124957	2.077141139487309e-25
-0.4828853601562457	1.6023981480972837e-25
-0.4828243249999957	1.1166918974655123e-25
-0.4827632898437457	6.233823920804222e-26
-0.4827022546874957	1.258833786656476e-26
-0.4826412195312457	-3.7236070630751663e-26
-0.4825801843749957	-8.678995790813584e-26
-0.4825191492187457	-1.3573004915203831e-25
-0.4824581140624957	-1.8371722842685272e-25
-0.4823970789062457	-2.3041895802672497e-25
-0.4823360437499957	-2.7551151000539627e-25
-0.4822750085937457	-3.186823171774875e-25
-0.4822139734374957	-3.5963210970945897e-25
-0.4821529382812457	-3.9807699588330225e-25
-0.4820919031249957	-4.337505046593652e-25
-0.4820308679687457	-4.664053868439741e-25
-0.4819698328124957	-4.958154094871096e-25
-0.4819087976562457	-5.217768989929487e-25
-0.4818477624999957	-5.4411017916882485e-25
-0.4817867273437457	-5.62660857194973e-25
-0.4817256921874957	-5.773008891539419e-25
-0.4816646570312457	-5.879294979744694e-25
-0.4816036218749957	-5.944738707493351e-25
-0.4815425867187457	-5.968896997579278e-25
-0.4814815515624957	-5.951614735371011e-25
-0.4814205164062457	-5.89302632202284e-25
-0.4813594812499957	-5.793554445064257e-25
-0.4812984460937457	-5.653907524690381e-25
-0.4812374109374957	-5.475074704646558e-25
-0.4811763757812457	-5.258318967253601e-25
-0.4811153406249957	-5.005168737790732e-25
-0.4810543054687457	-4.717406694753357e-25
-0.4809932703124957	-4.39705795624802e-25
-0.4809322351562457	-4.0463756179168784e-25
-0.4808711999999957	-3.667825243079389e-25
-0.4808101648437457	-3.2640675460897757e-25
-0.4807491296874957	-2.837939792276849e-25
-0.4806880945312457	-2.3924364506023565e-25
-0.4806270593749957	-1.93068723517459e-25
-0.4805660242187457	-1.4559364789903602e-25
-0.4805049890624957	-9.715194841661956e-26
-0.4804439539062457	-4.808397128476439e-26
-0.4803829187499957	1.265533399856294e-27
-0.4803218835937457	5.05498557468136e-26
-0.4802608484374957	9.942262900059873e-26
-0.4801998132812457	1.4754044554246874e-25
-0.4801387781249957	1.9456510833680936e-25
-0.4800777429687457	2.4016609118548287e-25
-0.4800167078124957	2.84022848171603e-25
-0.4799556726562457	3.2582703948387525e-25
-0.4798946374999957	3.652847231349675e-25
-0.4798336023437457	4.0211840216522354e-25
-0.4797725671874957	4.360690452137546e-25
-0.4797115320312457	4.66897790911006e-25
-0.4796504968749957	4.94387755853232e-25
-0.4795894617187457	5.183455021461248e-25
-0.4795284265624957	5.386023969100069e-25
-0.4794673914062457	5.550158671940131e-25
-0.4794063562499957	5.674703270385124e-25
-0.4793453210937457	5.758780825430948e-25
-0.4792842859374957	5.801799010912297e-25
-0.4792232507812457	5.8034546348788835e-25
-0.4791622156249957	5.763735961433034e-25
-0.4791011804687457	5.682922645183648e-25
-0.4790401453124957	5.561584188029819e-25
-0.4789791101562457	5.400575815743582e-25
-0.4789180749999957	5.201032764401853e-25
-0.4788570398437457	4.964362189521328e-25
-0.4787960046874957	4.692233708927659e-25
-0.4787349695312457	4.386567418304026e-25
-0.4786739343749957	4.049520654916025e-25
-0.4786128992187457	3.683473088747615e-25
-0.4785518640624957	3.2910095680169105e-25
-0.4784908289062457	2.8749027717278045e-25
-0.4784297937499957	2.4380928302903007e-25
-0.4783687585937457	1.9836675781380338e-25
-0.4783077234374957	1.5148404859335263e-25
-0.4782466882812457	1.034927688684248e-25
-0.4781856531249957	5.473258035094629e-26
-0.4781246179687457	5.5486564499411686e-27
-0.4780635828124957	-4.371061126190796e-26
-0.4780025476562457	-9.269617955233156e-26
-0.4779415124999957	-1.4106070946764292e-25
-0.4778804773437457	-1.8846110407188854e-25
-0.4778194421874957	-2.345608781020385e-25
-0.4777584070312457	-2.7903252670818413e-25
-0.4776973718749957	-3.2155992098054745e-25
-0.4776363367187457	-3.6184038510265744e-25
-0.4775753015624957	-3.9958704612686653e-25
-0.4775142664062457	-4.345306521658255e-25
-0.4774532312499957	-4.664216531914681e-25
-0.4773921960937457	-4.950318752492067e-25
-0.4773311609374957	-5.201561589275082e-25
-0.4772701257812457	-5.416138601838614e-25
-0.4772090906249957	-5.592500794815353e-25
-0.4771480554687457	-5.729368180451487e-25
-0.4770870203124957	-5.825738680790604e-25
-0.4770259851562457	-5.8808956588200345e-25
-0.4769649499999957	-5.894412599851845e-25
-0.4769039148437457	-5.866157175210869e-25
-0.4768428796874957	-5.796291333496972e-25
-0.4767818445312457	-5.685271283961848e-25
-0.4767208093749957	-5.533843789959274e-25
-0.4766597742187457	-5.343041433924076e-25
-0.4765987390624957	-5.114175479705895e-25
-0.4765377039062457	-4.848826590139847e-25
-0.4764766687499957	-4.548834226538062e-25
-0.4764156335937457	-4.216283408021557e-25
-0.4763545984374957	-3.853490557122319e-25
-0.4762935632812457	-3.4629870135622957e-25
-0.4762325281249957	-3.0475014265517397e-25
-0.4761714929687457	-2.6099407664814646e-25
-0.4761104578124957	-2.153369677095518e-25
-0.4760494226562457	-1.6809890418453495e-25
-0.4759883874999957	-1.1961136577784525e-25
-0.4759273523437457	-7.02148957089214e-26
-0.4758663171874957	-2.0256627826514162e-26
-0.4758052820312457	2.991204082598619e-26
-0.4757442468749957	7.993798222251232e-26
-0.4756832117187457	1.2946888482381946e-25
-0.4756221765624957	1.7815562387814802e-25
-0.4755611414062457	2.256548450220729e-25
-0.4755001062499957	2.716312534388313e-25
-0.4754390710937457	3.157601718914456e-25
-0.4753780359374957	3.5772963279375423e-25
-0.4753170007812457	3.972427416708119e-25
-0.4752559656249957	4.3401972893452195e-25
-0.4751949304687457	4.6779988660197195e-25
-0.4751338953124957	4.983435479797665e-25
-0.4750728601562457	5.2543358926096485e-25
-0.4750118249999957	5.488772475817976e-25
-0.4749507898437457	5.685072006463774e-25
-0.4748897546874957	5.841830135514002e-25
-0.4748287195312457	5.957919945002615e-25
-0.4747676843749957	6.032500427912797e-25
-0.4747066492187457	6.065023242723239e-25
-0.4746456140624957	6.055235386467095e-25
-0.4745845789062457	6.0031828964745565e-25
-0.4745235437499957	5.909208947420362e-25
-0.4744625085937457	5.7739530829129275e-25
-0.4744014734374957	5.598345740364206e-25
-0.4743404382812457	5.383602586222847e-25
-0.4742794031249957	5.131215814520013e-25
-0.4742183679687457	4.842943460146591e-25
-0.4741573328124957	4.520797855030534e-25
-0.4740962976562457	4.167030769107778e-25
-0.4740352624999957	3.784118238649316e-25
-0.4739742273437457	3.374742699579924e-25
-0.4739131921874957	2.941774542712505e-25
-0.4738521570312457	2.488251664121655e-25
-0.4737911218749957	2.0173581935340432e-25
-0.4737300867187457	1.5324020876073752e-25
-0.4736690515624957	1.0367916726289643e-25
-0.4736080164062457	5.340117928022028e-26
-0.4735469812499957	2.759897031161087e-27
-0.4734859460937457	-4.788830991731625e-26
-0.4734249109374957	-9.818696384934756e-26
-0.4733638757812457	-1.477819000794117e-25
-0.4733028406249957	-1.9632383303710402e-25
-0.4732418054687457	-2.434707845904098e-25
-0.4731807703124957	-2.8889057986958627e-25
-0.4731197351562457	-3.3226314370717227e-25
-0.4730586999999957	-3.73282742382376e-25
-0.4729976648437457	-4.116602706785729e-25
-0.4729366296874957	-4.471251437802764e-25
-0.4728755945312457	-4.794273900863871e-25
-0.4728145593749957	-5.083392817173679e-25
-0.4727535242187457	-5.336570602250367e-25
-0.4726924890624957	-5.5520234982363915e-25
-0.4726314539062457	-5.728233932462891e-25
-0.4725704187499957	-5.863962395662324e-25
-0.4725093835937457	-5.958255141740063e-25
-0.4724483484374957	-6.010451973992844e-25
-0.4723873132812457	-6.020190622210605e-25
-0.4723262781249957	-5.987409390456012e-25
-0.4722652429687457	-5.912348025819711e-25
-0.4722042078124957	-5.795545763786244e-25
-0.4721431726562457	-5.637837904525835e-25
-0.4720821374999957	-5.440349897097472e-25
-0.4720211023437457	-5.204489348989417e-25
-0.4719600671874957	-4.931936500070914e-25
-0.4718990320312457	-4.624631836188875e-25
-0.4718379968749957	-4.284763086182872e-25
-0.4717769617187457	-3.9147492691754236e-25
-0.4717159265624957	-3.5172238313409427e-25
-0.4716548914062457	-3.0950160780194823e-25
-0.4715938562499957	-2.6511306461305086e-25
