Time	Frequency
-0.5000169279687441	1.684468931404538e-25
-0.4999558928124941	2.13859463307525e-25
-0.4998948576562441	2.580021485266484e-25
-0.4998338224999941	3.005901408044659e-25
-0.4997727873437441	3.4134814077756803e-25
-0.4997117521874941	3.800125116362177e-25
-0.4996507170312441	4.163326007060847e-25
-0.4995896818749941	4.500726888324049e-25
-0.4995286467187441	4.810132559165897e-25
-0.4994676115624941	5.089525067675554e-25
-0.4994065764062441	5.337077320204953e-25
-0.4993455412499941	5.551162957989689e-25
-0.4992845060937441	5.73036974843336e-25
-0.4992234709374941	5.873505448772329e-25
-0.4991624357812441	5.97960895551731e-25
-0.4991014006249941	6.047953624225691e-25
-0.4990403654687441	6.078054547417395e-25
-0.4989793303124941	6.069669818544345e-25
-0.4989182951562441	6.022803892071789e-25
-0.4988572599999941	5.937706436857961e-25
-0.4987962248437441	5.8148718456390225e-25
-0.4987351896874941	5.6550356853102535e-25
-0.4986741545312441	5.459170323253601e-25
-0.4986131193749941	5.228479171286707e-25
-0.4985520842187441	4.964388331729172e-25
-0.4984910490624941	4.668538824463345e-25
-0.4984300139062441	4.342774977978384e-25
-0.4983689787499941	3.9891339280052538e-25
-0.4983079435937441	3.609831644023467e-25
-0.4982469084374941	3.2072498353453346e-25
-0.4981858732812441	2.783920047828181e-25
-0.4981248381249941	2.342508321057318e-25
-0.4980638029687441	1.885797373739602e-25
-0.4980027678124941	1.4166696857381795e-25
-0.4979417326562441	9.380886279810469e-26
-0.4978806974999941	4.5307972497966106e-26
-0.4978196623437441	-3.528856116187141e-27
-0.4977586271874941	-5.23924770778213e-26
-0.4976975920312441	-1.0097335834724642e-25
-0.4976365568749941	-1.489636242030929e-25
-0.4975755217187441	-1.9605902246051694e-25
-0.4975144865624941	-2.419607711868958e-25
-0.4974534514062441	-2.8637765011272417e-25
-0.4973924162499941	-3.2902768077075915e-25
-0.4973313810937441	-3.6964007515612165e-25
-0.4972703459374941	-4.0795691178945573e-25
-0.4972093107812441	-4.437347587664405e-25
-0.4971482756249941	-4.76746368062282e-25
-0.4970872404687441	-5.06781929142597e-25
-0.4970262053124941	-5.336506658139741e-25
-0.4969651701562441	-5.57181826014285e-25
-0.4969041349999941	-5.772259963469319e-25
-0.4968430998437441	-5.936558835209242e-25
-0.4967820646874941	-6.063672825777581e-25
-0.4967210295312441	-6.152796737944185e-25
-0.4966599943749941	-6.203367513857019e-25
-0.4965989592187441	-6.215068580746995e-25
-0.4965379240624941	-6.187830853059256e-25
-0.4964768889062441	-6.121834651088482e-25
-0.4964158537499941	-6.017507159364672e-25
-0.4963548185937441	-5.875521264005082e-25
-0.4962937834374941	-5.696789869379381e-25
-0.4962327482812441	-5.482461535525942e-25
-0.4961717131249941	-5.233911937269964e-25
-0.4961106779687441	-4.952736015053066e-25
-0.4960496428124941	-4.640737423230226e-25
-0.4959886076562441	-4.299917084721959e-25
-0.4959275724999941	-3.932460412306696e-25
-0.4958665373437441	-3.5407233585646834e-25
-0.4958055021874941	-3.1272173889787834e-25
-0.4957444670312441	-2.694593369443562e-25
-0.4956834318749941	-2.245624480935184e-25
-0.4956223967187441	-1.7831887355545543e-25
-0.4955613615624941	-1.3102501392746712e-25
-0.4955003264062441	-8.298400495030947e-26
-0.4954392912499941	-3.450375536339199e-26
-0.4953782560937441	1.4105070999953988e-26
-0.4953172209374941	6.253092302175082e-26
-0.4952561857812441	1.1046356729350465e-25
-0.4951951506249941	1.5759586793313418e-25
-0.4951341154687441	2.036259316813821e-25
-0.4950730803124941	2.482589290537952e-25
-0.4950120451562441	2.912090949222497e-25
-0.4949510099999941	3.322015091885654e-25
-0.4948899748437441	3.709738210925484e-25
-0.4948289396874941	4.0727812205996976e-25
-0.4947679045312441	4.408822881048349e-25
-0.4947068693749941	4.715717265233182e-25
-0.4946458342187441	4.991505814575378e-25
-0.4945847990624941	5.234430962195702e-25
-0.4945237639062441	5.442947371030423e-25
-0.4944627287499941	5.615731383140663e-25
-0.4944016935937441	5.751690650601434e-25
-0.4943406584374941	5.849970021023467e-25
-0.4942796232812441	5.909958317856429e-25
-0.4942185881249941	5.9312912540710505e-25
-0.4941575529687441	5.913854710116766e-25
-0.4940965178124941	5.857784974537732e-25
-0.4940354826562441	5.76346825597129e-25
-0.4939744474999941	5.631538103385105e-25
-0.4939134123437441	5.462871396329495e-25
-0.4938523771874941	5.2585828488929205e-25
-0.4937913420312441	5.020017784000168e-25
-0.4937303068749941	4.748743563086783e-25
-0.4936692717187441	4.446539403522835e-25
-0.4936082365624941	4.115385212804491e-25
-0.4935472014062441	3.757448501227078e-25
-0.4934861662499941	3.3750709183265007e-25
-0.4934251310937441	2.970752419767813e-25
-0.4933640959374941	2.5471360528770403e-25
-0.4933030607812441	2.1069901343128845e-25
-0.4932420256249941	1.6531908916981382e-25
-0.4931809904687441	1.188703667526678e-25
-0.4931199553124941	7.16563691668899e-26
-0.4930589201562441	2.398568827388912e-26
-0.4929978849999941	-2.383010030214464e-26
-0.4929368498437441	-7.147830832078566e-26
-0.4928758146874941	-1.1864734480311567e-25
-0.4928147795312441	-1.6502854952748518e-25
-0.4927537443749941	-2.103183284298205e-25
-0.4926927092187441	-2.542200675409753e-25
-0.4926316740624941	-2.9644603300912002e-25
-0.4925706389062441	-3.367193360042018e-25
-0.4925096037499941	-3.7477557762999567e-25
-0.4924485685937441	-4.1036474687066186e-25
-0.4923875334374941	-4.432526770699841e-25
-0.4923264982812441	-4.732227340589616e-25
-0.4922654631249941	-5.000770806314292e-25
-0.4922044279687441	-5.236380666897431e-25
-0.4921433928124941	-5.437493829580897e-25
-0.4920823576562441	-5.602770182457783e-25
-0.4920213224999941	-5.731102391226389e-25
-0.4919602873437441	-5.821622249225861e-25
-0.4918992521874941	-5.873707315548679e-25
-0.4918382170312441	-5.886984397288371e-25
-0.4917771818749941	-5.861332510369786e-25
-0.4917161467187441	-5.796883799874427e-25
-0.4916551115624941	-5.6940225449503705e-25
-0.4915940764062441	-5.553383324419772e-25
-0.4915330412499941	-5.375846426938308e-25
-0.4914720060937441	-5.162533014685937e-25
-0.4914109709374941	-4.914797330509405e-25
-0.4913499357812441	-4.634218529291517e-25
-0.4912889006249941	-4.322590420960428e-25
-0.4912278654687441	-3.9819098935083856e-25
-0.4911668303124941	-3.614364434696908e-25
-0.4911057951562441	-3.2223174134946093e-25
-0.4910447599999941	-2.8082938241225422e-25
-0.4909837248437441	-2.3749629769160066e-25
-0.4909226896874941	-1.9251222468919044e-25
-0.4908616545312441	-1.461678214698101e-25
-0.4908006193749941	-9.876285670001062e-26
-0.4907395842187441	-5.060421464680597e-26
-0.4906785490624941	-2.0039546804063536e-27
-0.4906175139062441	4.6722740343409663e-26
-0.4905564787499941	9.525956274733727e-26
-0.4904954435937441	1.4329121719207735e-25
-0.4904344084374941	1.9050534645421995e-25
-0.4903733732812441	2.365946464623078e-25
-0.4903123381249941	2.8125885876161522e-25
-0.4902513029687441	3.2420663076766656e-25
-0.4901902678124941	3.6515760566300158e-25
-0.4901292326562441	4.0384395426358385e-25
-0.4900681974999941	4.400124649287386e-25
-0.4900071623437441	4.7342585536151665e-25
-0.4899461271874941	5.038646360097233e-25
-0.4898850920312441	5.3112828561788255e-25
-0.4898240568749941	5.550367173149885e-25
-0.4897630217187441	5.75431447535633e-25
-0.4897019865624941	5.9217652723151685e-25
-0.4896409514062441	6.051596463677031e-25
-0.4895799162499941	6.142925916726561e-25
-0.4895188810937441	6.1951217279404815e-25
-0.4894578459374941	6.2078031466769075e-25
-0.4893968107812441	6.18084605207251e-25
-0.4893357756249941	6.114381767068812e-25
-0.4892747404687441	6.008797903153103e-25
-0.4892137053124941	5.864735069116881e-25
-0.4891526701562441	5.683083388164349e-25
-0.4890916349999941	5.464976649861789e-25
-0.4890305998437441	5.211785256207256e-25
-0.4889695646874941	4.925107422651132e-25
-0.4889085295312441	4.6067589037822455e-25
-0.4888474943749941	4.258761648099931e-25
-0.4887864592187441	3.8833303149548074e-25
-0.4887254240624941	3.4828586232016335e-25
-0.4886643889062441	3.0599032566404927e-25
-0.4886033537499941	2.6171684011887224e-25
-0.4885423185937441	2.1574867865401306e-25
-0.4884812834374941	1.6838034945336087e-25
-0.4884202482812441	1.1991542617829307e-25
-0.4883592131249941	7.06648615369481e-26
-0.4882981779687441	2.0944767235511668e-26
-0.4882371428124941	-2.8925527796642237e-26
-0.4881761076562441	-7.86255791953513e-26
-0.4881150724999941	-1.2783590927666794e-25
-0.4880540373437441	-1.7624005102364945e-25
-0.4879930021874941	-2.235266622917893e-25
-0.4879319670312441	-2.6939143114563083e-25
-0.4878709318749941	-3.1353923314152996e-25
-0.4878098967187441	-3.5568586452343845e-25
-0.4877488615624941	-3.9556000680898014e-25
-0.4876878264062441	-4.329049760894891e-25
-0.4876267912499941	-4.674803441757482e-25
-0.4875657560937441	-4.9906359176337575e-25
-0.4875047209374941	-5.274514563025174e-25
-0.4874436857812441	-5.524613679627986e-25
-0.4873826506249941	-5.739325604767461e-25
-0.4873216154687441	-5.917271739687522e-25
-0.4872605803124941	-6.057311285535847e-25
-0.4871995451562441	-6.158548894098833e-25
-0.4871385099999941	-6.220340754587678e-25
-0.4870774748437441	-6.242298293169252e-25
-0.4870164396874941	-6.22429175789141e-25
-0.4869554045312441	-6.166449885656408e-25
-0.4868943693749941	-6.069160614035095e-25
-0.4868333342187441	-5.9330671132439215e-25
-0.4867722990624941	-5.759065228779061e-25
-0.4867112639062441	-5.548296315280704e-25
-0.4866502287499941	-5.302141187801997e-25
-0.4865891935937441	-5.022209930657447e-25
-0.4865281584374941	-4.710332747577348e-25
-0.4864671232812441	-4.368547253214746e-25
-0.4864060881249941	-3.999085345945701e-25
-0.4863450529687441	-3.604359556824097e-25
-0.4862840178124941	-3.1869459196542017e-25
-0.4862229826562441	-2.7495690291136586e-25
-0.4861619474999941	-2.295082389722882e-25
-0.4861009123437441	-1.826451952050199e-25
-0.4860398771874941	-1.3467347010568797e-25
-0.4859788420312441	-8.590605733209367e-26
-0.4859178068749941	-3.666108954893919e-26
-0.4858567717187441	1.2740201256354767e-26
-0.4857957365624941	6.197553166838997e-26
-0.4857347014062441	1.1072378136574553e-25
-0.4856736662499941	1.5866692641573034e-25
-0.4856126310937441	2.0549230861778806e-25
-0.4855515959374941	2.5089447111226613e-25
-0.4854905607812441	2.945773646808767e-25
-0.4854295256249941	3.3625609130591853e-25
-0.4853684904687441	3.756589273526643e-25
-0.4853074553124941	4.1252897111717265e-25
-0.4852464201562441	4.466259314052895e-25
-0.4851853849999941	4.777276630776981e-25
-0.4851243498437441	5.056315571601786e-25
-0.4850633146874941	5.301560269017915e-25
-0.4850022795312441	5.511415124636267e-25
-0.4849412443749941	5.684517295058394e-25
-0.4848802092187441	5.819743627912572e-25
-0.4848191740624941	5.9162201221235365e-25
-0.4847581389062441	5.973325905705754e-25
-0.4846971037499941	5.990698850223967e-25
-0.4846360685937441	5.968236905614219e-25
-0.4845750334374941	5.906099718708002e-25
-0.4845139982812441	5.804707060645055e-25
-0.4844529631249941	5.664736541070466e-25
-0.4843919279687441	5.487119075677437e-25
-0.4843308928124941	5.273032980667501e-25
-0.4842698576562441	5.023896241641223e-25
-0.4842088224999941	4.741357413089642e-25
-0.4841477873437441	4.427284949711278e-25
-0.4840867521874941	4.083754599531573e-25
-0.4840257170312441	3.7130367600693128e-25
-0.4839646818749941	3.3175806935659304e-25
-0.4839036467187441	2.8999992271823168e-25
-0.4838426115624941	2.463051222156036e-25
-0.4837815764062441	2.0096240290378802e-25
-0.4837205412499941	1.5427139674580658e-25
-0.4836595060937441	1.0654075525765205e-25
-0.4835984709374941	5.80860111104856e-26
-0.4835374357812441	9.227662561312589e-27
-0.4834764006249941	-3.971110002003256e-26
-0.4834153654687441	-8.840636468391833e-26
-0.4833543303124941	-1.3653569996406262e-25
-0.4832932951562441	-1.8378029457137157e-25
-0.4832322599999941	-2.2982694722163345e-25
-0.4831712248437441	-2.7437028474925804e-25
-0.4831101896874941	-3.171146037726303e-25
-0.4830491545312441	-3.5777595688791607e-25
-0.4829881193749941	-3.960839366521756e-25
-0.4829270842187441	-4.31783483915468e-25
-0.4828660490624941	-4.6463661466841e-25
-0.4828050139062441	-4.944238978345572e-25
-0.4827439787499941	-5.209460263559306e-25
-0.4826829435937441	-5.440250260003502e-25
-0.4826219084374941	-5.635055245219239e-25
-0.4825608732812441	-5.792557366838393e-25
-0.4824998381249941	-5.911683483625339e-25
-0.4824388029687441	-5.991612708541754e-25
-0.4823777678124941	-6.031781468184641e-25
-0.4823167326562441	-6.031887799049298e-25
-0.4822556974999941	-5.9918931864517245e-25
-0.4821946623437441	-5.912023153339823e-25
-0.4821336271874941	-5.792765920933572e-25
-0.4820725920312441	-5.6348692909014925e-25
-0.4820115568749941	-5.439335997138375e-25
-0.4819505217187441	-5.207417217308142e-25
-0.4818894865624941	-4.940604512999355e-25
-0.4818284514062441	-4.640620254957736e-25
-0.4817674162499941	-4.309406254624519e-25
-0.4817063810937441	-3.9491115407723797e-25
-0.4816453459374941	-3.5620777182941794e-25
-0.4815843107812441	-3.150824715255108e-25
-0.4815232756249941	-2.7180329611083307e-25
-0.4814622404687441	-2.266527250425727e-25
-0.4814012053124941	-1.7992574789220417e-25
-0.4813401701562441	-1.3192793122667723e-25
-0.4812791349999941	-8.297348163433739e-26
-0.4812180998437441	-3.338307804153871e-26
-0.4811570646874941	1.6518096211641252e-26
-0.4810960295312441	6.640259513563677e-26
-0.4810349943749941	1.1594285584846025e-25
-0.4809739592187441	1.6481324158241627e-25
-0.4809129240624941	2.1269235268778043e-25
-0.4808518889062441	2.5926497833736254e-25
-0.4807908537499941	3.042242904390691e-25
-0.4807298185937441	3.4727381077850878e-25
-0.4806687834374941	3.881293819847713e-25
-0.4806077482812441	4.265210219627869e-25
-0.4805467131249941	4.621947548374741e-25
-0.4804856779687441	4.949142526102043e-25
-0.4804246428124941	5.244623861062552e-25
-0.4803636076562441	5.506427466511902e-25
-0.4803025724999941	5.732808091695014e-25
-0.4802415373437441	5.92225282495741e-25
-0.4801805021874941	6.073489003298452e-25
-0.4801194670312441	6.185495021954619e-25
-0.4800584318749941	6.257505029194477e-25
-0.4799973967187441	6.289015971557578e-25
-0.4799363615624941	6.2797897058153595e-25
-0.4798753264062441	6.229855574649822e-25
-0.4798142912499941	6.139509986542504e-25
-0.4797532560937441	6.00931466416283e-25
-0.4796922209374941	5.840093375586761e-25
-0.4796311857812441	5.63292613733265e-25
-0.4795701506249941	5.389142957130569e-25
-0.4795091154687441	5.110314643105405e-25
-0.4794480803124941	4.798242957719771e-25
-0.4793870451562441	4.454948688686583e-25
-0.4793260099999941	4.0826587286687807e-25
-0.4792649748437441	3.6837912866425864e-25
-0.4792039396874941	3.2609402475892863e-25
-0.4791429045312441	2.8168581086665776e-25
-0.4790818693749941	2.354438110881645e-25
-0.4790208342187441	1.876694978667539e-25
-0.4789597990624941	1.3867459597281608e-25
-0.4788987639062441	8.877883811028765e-26
-0.4788377287499941	3.830820626380357e-26
-0.4787766935937441	-1.2407635289373697e-26
-0.4787156584374941	-6.303709712958384e-26
-0.4786546232812441	-1.1324917268168402e-25
-0.4785935881249941	-1.6271540239478246e-25
-0.4785325529687441	-2.111121294614296e-25
-0.4784715178124941	-2.5812267652107345e-25
-0.4784104826562441	-3.034392694404223e-25
-0.4783494474999941	-3.4676529825568153e-25
-0.4782884123437441	-3.8781703932657755e-25
-0.4782273771874941	-4.263257605315126e-25
-0.4781663420312441	-4.6203924725933125e-25
-0.4781053068749941	-4.947237638155487e-25
-0.4780442717187441	-5.241652825447315e-25
-0.4779832365624941	-5.501712039808496e-25
-0.4779222014062441	-5.725713875816725e-25
-0.4778611662499941	-5.912194742692398e-25
-0.4778001310937441	-6.05993712435563e-25
-0.4777390959374941	-6.167978770130592e-25
-0.4776780607812441	-6.235618576794704e-25
-0.4776170256249941	-6.262421376155759e-25
-0.4775559904687441	-6.248221278028381e-25
-0.4774949553124941	-6.19312209928571e-25
-0.4774339201562441	-6.097497930023391e-25
-0.4773728849999941	-5.961989302032313e-25
-0.4773118498437441	-5.787500727147213e-25
-0.4772508146874941	-5.575193027284079e-25
-0.4771897795312441	-5.32647761697617e-25
-0.4771287443749941	-5.043005431906901e-25
-0.4770677092187441	-4.726657841016623e-25
-0.4770066740624941	-4.37953277797888e-25
-0.4769456389062441	-4.0039321275591806e-25
-0.4768846037499941	-3.6023458186368053e-25
-0.4768235685937441	-3.1774358528075472e-25
-0.4767625334374941	-2.7320186075316884e-25
-0.4767014982812441	-2.2690462082619904e-25
-0.4766404631249941	-1.791587206820053e-25
-0.4765794279687441	-1.3028061944698268e-25
-0.4765183928124941	-8.059429743947416e-26
-0.4764573576562441	-3.042910609152997e-26
-0.4763963224999941	1.988238793071101e-26
-0.4763352873437441	7.000665101994694e-26
-0.4762742521874941	1.1961131914524657e-25
-0.4762132170312441	1.6836746851356097e-25
-0.4761521818749941	2.159517400613012e-25
-0.4760911467187441	2.620485461204447e-25
-0.4760301115624941	3.0635208239497095e-25
-0.4759690764062441	3.4856842932954224e-25
-0.4759080412499941	3.884174820500513e-25
-0.4758470060937441	4.256347623360049e-25
-0.4757859709374941	4.599732864344585e-25
-0.4757249357812441	4.912050966061562e-25
-0.4756639006249941	5.191228400718899e-25
-0.4756028654687441	5.435411530052548e-25
-0.4755418303124941	5.642978653768811e-25
-0.4754807951562441	5.812551273601495e-25
-0.4754197599999941	5.943002791572575e-25
-0.4753587248437441	6.033466958639747e-25
-0.4752976896874941	6.083342466871874e-25
-0.4752366545312441	6.092298481187074e-25
-0.4751756193749941	6.060275672543115e-25
-0.4751145842187441	5.987487614680291e-25
-0.4750535490624941	5.87441899988736e-25
-0.4749925139062441	5.721822672644459e-25
-0.4749314787499941	5.530714905202944e-25
-0.4748704435937441	5.302368283649925e-25
-0.4748094084374941	5.038304103530431e-25
-0.4747483732812441	4.740281545364079e-25
-0.4746873381249941	4.410286864587774e-25
-0.4746263029687441	4.0505194992489575e-25
-0.4745652678124941	3.663378430804929e-25
-0.4745042326562441	3.2514455030950468e-25
-0.4744431974999941	2.8174688400504758e-25
-0.4743821623437441	2.364344508447474e-25
-0.4743211271874941	1.8950974189030234e-25
-0.4742600920312441	1.4128609491080423e-25
-0.4741990568749941	9.208566011855837e-26
-0.4741380217187441	4.223722502288441e-26
-0.4740769865624941	-7.925946788203814e-27
-0.4740159514062441	-5.806832709127761e-26
-0.4739549162499941	-1.0785441689872796e-25
-0.4738938810937441	-1.569508603174477e-25
-0.4738328459374941	-2.0502878883998275e-25
-0.4737718107812441	-2.5176591587372045e-25
-0.4737107756249941	-2.968487759035395e-25
-0.4736497404687441	-3.3997472767996716e-25
-0.4735887053124941	-3.8085402792007884e-25
-0.4735276701562441	-4.192117577411705e-25
-0.4734666349999941	-4.547896628902668e-25
-0.4734055998437441	-4.873478719263531e-25
-0.4733445646874941	-5.166665124396983e-25
-0.4732835295312441	-5.425472074093734e-25
-0.4732224943749941	-5.648143400372959e-25
-0.4731614592187441	-5.833163554242297e-25
-0.4731004240624941	-5.979266312009283e-25
-0.4730393889062441	-6.085445125972335e-25
-0.4729783537499941	-6.150958078991811e-25
-0.4729173185937441	-6.175334863920066e-25
-0.4728562834374941	-6.158378456742044e-25
-0.4727952482812441	-6.100167830085293e-25
-0.4727342131249941	-6.001056826281153e-25
-0.4726731779687441	-5.861672268907192e-25
-0.4726121428124941	-5.682910124702057e-25
-0.4725511076562441	-5.465929108087721e-25
-0.4724900724999941	-5.21214403619871e-25
-0.4724290373437441	-4.923215511852268e-25
-0.4723680021874941	-4.601040136824292e-25
-0.4723069670312441	-4.2477367318503425e-25
-0.4722459318749941	-3.865633824269477e-25
-0.4721848967187441	-3.4572528330483588e-25
-0.4721238615624941	-3.025292685368762e-25
-0.4720628264062441	-2.572610627444208e-25
-0.4720017912499941	-2.102204710039967e-25
-0.4719407560937441	-1.6171924537552066e-25
-0.4718797209374941	-1.1207914755658566e-25
-0.4718186857812441	-6.162969720556841e-26
-0.4717576506249941	-1.0706074967592168e-26
-0.4716966154687441	4.0353185049263216e-26
-0.4716355803124941	9.120841446560534e-26
-0.4715745451562441	1.4152104322436965e-25
