Time	Frequency
-0.5000601417812618	-0.2967625798307187
-0.4999991066250118	-0.27998016120838953
-0.4999380714687618	-0.2616023042224036
-0.4998770363125118	-0.24173993547045913
-0.4998160011562618	-0.22051280687378855
-0.4997549660000118	-0.1980487581553958
-0.4996939308437618	-0.17448300351119553
-0.4996328956875118	-0.14995724202132604
-0.4995718605312618	-0.12461892556594303
-0.4995108253750118	-0.09862028583676914
-0.4994497902187618	-0.07211750083670752
-0.4993887550625118	-0.04526970633102819
-0.4993277199062618	-0.018238101254165483
-0.4992666847500118	0.008815068993470508
-0.4992056495937618	0.03572740858905526
-0.4991446144375118	0.062337403322926234
-0.4990835792812618	0.08848536813646704
-0.4990225441250118	0.11401436500340016
-0.4989615089687618	0.13877119102758173
-0.4989004738125118	0.16260725971728593
-0.4988394386562618	0.18537950292199637
-0.4987784035000118	0.2069512088916859
-0.4987173683437618	0.2271928873383289
-0.4986563331875118	0.24598297874807043
-0.4985952980312618	0.2632086504697976
-0.4985342628750118	0.2787663993000311
-0.4984732277187618	0.2925627658658342
-0.4984121925625118	0.3045148026252282
-0.4983511574062618	0.31455064578045777
-0.4982901222500118	0.3226099104514566
-0.4982290870937618	0.32864405796495433
-0.4981680519375118	0.33261672701083383
-0.4981070167812618	0.33450389224748983
-0.4980459816250118	0.33429409107168606
-0.4979849464687618	0.3319884165646576
-0.4979239113125118	0.3276005960101011
-0.4978628761562618	0.3211568431378369
-0.4978018410000118	0.3126957647442212
-0.4977408058437618	0.30226809494172835
-0.4976797706875118	0.28993642388257135
-0.4976187355312618	0.27577481374209417
-0.4975577003750118	0.2598683714010853
-0.4974966652187618	0.2423127334867039
-0.4974356300625118	0.22321351279323048
-0.4973745949062618	0.2026856618595551
-0.4973135597500118	0.18085279856142986
-0.4972525245937618	0.15784644693124825
-0.4971914894375118	0.13380530453421507
-0.4971304542812618	0.1088743515313479
-0.4970694191250118	0.08320404398177138
-0.4970083839687618	0.056949381885892505
-0.4969473488125118	0.030268973819227395
-0.4968863136562618	0.003324155793328542
-0.4968252785000118	-0.023722073171273665
-0.4967642433437618	-0.05070591966206725
-0.4967032081875118	-0.07746389925732182
-0.4966421730312618	-0.10383366570538091
-0.4965811378750118	-0.12965513456965871
-0.4965201027187618	-0.15477131769594454
-0.4964590675625118	-0.17902937010135025
-0.4963980324062618	-0.20228142094264287
-0.4963369972500118	-0.22438552481060942
-0.4962759620937618	-0.24520647469681064
-0.4962149269375118	-0.2646166425210162
-0.4961538917812618	-0.28249674707043654
-0.4960928566250118	-0.29873654043074943
-0.4960318214687618	-0.31323554234189205
-0.4959707863125118	-0.32590354988943054
-0.4959097511562618	-0.336661306324724
-0.4958487160000118	-0.34544086251129696
-0.4957876808437618	-0.3521860918271757
-0.4957266456875118	-0.3568529561283679
-0.4956656105312618	-0.3594098418965584
-0.4956045753750118	-0.35983770926610836
-0.4955435402187618	-0.35813024841413277
-0.4954825050625118	-0.3542939061905525
-0.4954214699062618	-0.34834786946602286
-0.4953604347500118	-0.34032394847004704
-0.4952993995937618	-0.33026640941083224
-0.4952383644375118	-0.3182317014254947
-0.4951773292812618	-0.30428814459621567
-0.4951162941250118	-0.28851551290415967
-0.4950552589687618	-0.27100458121576715
-0.4949942238125118	-0.2518565849477447
-0.4949331886562618	-0.23118260352679057
-0.4948721535000118	-0.20910293303760683
-0.4948111183437618	-0.18574635803009296
-0.4947500831875118	-0.1612493791696566
-0.4946890480312618	-0.1357554037106686
-0.4946280128750118	-0.10941393146893862
-0.4945669777187618	-0.08237958109650388
-0.4945059425625118	-0.05481126380376373
-0.4944449074062618	-0.026871159418845946
-0.4943838722500118	0.0012761846649011843
-0.4943228370937618	0.02946492200297734
-0.4942618019375118	0.05752880353883198
-0.4942007667812618	0.08530222743458063
-0.4941397316250118	0.11262125153144303
-0.4940786964687618	0.1393244697471697
-0.4940176613125118	0.1652541493820544
-0.4939566261562618	0.19025698170564936
-0.4938955910000118	0.21418517053159447
-0.4938345558437618	0.23689720717929572
-0.4937735206875118	0.25825878310410205
-0.4937124855312618	0.27814355809345004
-0.4936514503750118	0.29643394601700535
-0.4935904152187618	0.313021821249908
-0.4935293800625118	0.3278091468941482
-0.4934683449062618	0.34070860198167285
-0.4934073097500118	0.35164406242481616
-0.4933462745937618	0.3605511297693241
-0.4932852394375118	0.367377430318473
-0.4932242042812618	0.3720830427039982
-0.4931631691250118	0.37464062966322453
-0.4931021339687618	0.3750357071747788
-0.4930410988125118	0.3732666568675268
-0.4929800636562618	0.36934480328688074
-0.4929190285000118	0.36329429905537314
-0.4928579933437618	0.35515202972164855
-0.4927969581875118	0.34496735842680715
-0.4927359230312618	0.3328018679952175
-0.4926748878750118	0.318728969182519
-0.4926138527187618	0.302833478900244
-0.4925528175625118	0.28521112679779614
-0.4924917824062618	0.26596793380871203
-0.4924307472500118	0.24521967076002033
-0.4923697120937618	0.22309104079407402
-0.4923086769375118	0.19971508420048875
-0.4922476417812618	0.17523222678313524
-0.4921866066250118	0.1497895756458499
-0.4921255714687618	0.12353993333662115
-0.4920645363125118	0.09664094551706676
-0.4920035011562618	0.06925413654805633
-0.4919424660000118	0.04154392109995519
-0.4918814308437618	0.013676651825934735
-0.4918203956875118	-0.01418041874937979
-0.4917593605312618	-0.04186009261444604
-0.4916983253750118	-0.0691963150040588
-0.4916372902187618	-0.09602505155743711
-0.4915762550625118	-0.12218543134263224
-0.4915152199062618	-0.1475205364529163
-0.4914541847500118	-0.17187853321202143
-0.4913931495937618	-0.1951134309727204
-0.4913321144375118	-0.21708605570711068
-0.4912710792812618	-0.2376648726283542
-0.4912100441250118	-0.25672674001960005
-0.4911490089687618	-0.2741577274564924
-0.4910879738125118	-0.2898537128916515
-0.4910269386562618	-0.3037211223690322
-0.4909659035000118	-0.3156773733671641
-0.4909048683437618	-0.3256515007854896
-0.4908438331875118	-0.3335844799972402
-0.4907827980312618	-0.3394296707161119
-0.4907217628750118	-0.3431530402922738
-0.4906607277187618	-0.3447334199649245
-0.4905996925625118	-0.34416259545306704
-0.4905386574062618	-0.34144540153459396
-0.4904776222500118	-0.3365996579290864
-0.4904165870937618	-0.3296560971358497
-0.4903555519375118	-0.32065816420314125
-0.4902945167812618	-0.30966176439761167
-0.4902334816250118	-0.29673493710255505
-0.4901724464687618	-0.2819574246452542
-0.4901114113125118	-0.26542023647009794
-0.4900503761562618	-0.24722504941864734
-0.4899893410000118	-0.22748364749144287
-0.4899283058437618	-0.20631721096528877
-0.4898672706875118	-0.18385562417907958
-0.4898062355312618	-0.16023664096316537
-0.4897452003750118	-0.13560511308866208
-0.4896841652187618	-0.11011206918464411
-0.4896231300625118	-0.08391384270170049
-0.4895620949062618	-0.05717108394738723
-0.4895010597500118	-0.0300478272737919
-0.4894400245937618	-0.002710491889856165
-0.4893789894375118	0.024673163805046534
-0.4893179542812618	0.05193498021067426
-0.4892569191250118	0.07890750099734761
-0.4891958839687618	0.10542492513700581
-0.4891348488125118	0.13132414497886966
-0.4890738136562618	0.1564457203139753
-0.4890127785000118	0.18063485610920085
-0.4889517433437618	0.20374233607554879
-0.4888907081875118	0.22562543619859587
-0.4888296730312618	0.24614878834793696
-0.4887686378750118	0.265185206852958
-0.4887076027187618	0.2826164660257849
-0.4886465675625118	0.2983340186217073
-0.4885855324062618	0.3122396676523228
-0.4885244972500118	0.32424614389839873
-0.4884634620937618	0.33427768597052
-0.4884024269375118	0.34227045399769723
-0.4883413917812618	0.3481729748750899
-0.4882803566250118	0.35194640921054043
-0.4882193214687618	0.35356485452057024
-0.4881582863125118	0.3530154510513746
-0.4880972511562618	0.35029851875505186
-0.4880362160000118	0.3454275260587218
-0.4879751808437618	0.3384290415373887
-0.4879141456875118	0.3293425711416722
-0.4878531105312618	0.31822032423349245
-0.4877920753750118	0.30512692198906594
-0.4877310402187618	0.29013898417789913
-0.4876700050625118	0.2733447108316502
-0.4876089699062618	0.2548433207492845
-0.4875479347500118	0.23474449172854242
-0.4874868995937618	0.2131676485812549
-0.4874258644375118	0.1902413338401234
-0.4873648292812618	0.16610232553323925
-0.4873037941250118	0.1408949216144688
-0.4872427589687618	0.11476998392147349
-0.4871817238125118	0.08788407919524945
-0.4871206886562618	0.06039852478872141
-0.4870596535000118	0.03247838492221582
-0.4869986183437618	0.004291546515133657
-0.4869375831875118	-0.023992424374694846
-0.4868765480312618	-0.05220314153316835
-0.4868155128750118	-0.08017059841169905
-0.4867544777187618	-0.10772605852908104
-0.4866934425625118	-0.13470318683613516
-0.4866324074062618	-0.16093897972206458
-0.4865713722500118	-0.18627480948640185
-0.4865103370937618	-0.2105573584172012
-0.4864493019375118	-0.23363955077816667
-0.4863882667812618	-0.2553814908205698
-0.4863272316250118	-0.2756512243896534
-0.4862661964687618	-0.29432567235333895
-0.4862051613125118	-0.3112912429082445
-0.4861441261562618	-0.326444650546953
-0.4860830910000118	-0.3396934401607237
-0.4860220558437618	-0.35095666275376075
-0.4859610206875118	-0.36016525148995493
-0.4858999855312618	-0.3672625771424248
-0.4858389503750118	-0.3722046800923346
-0.4857779152187618	-0.37496063489503434
-0.4857168800625118	-0.3755126861485478
-0.4856558449062618	-0.3738563963743936
-0.4855948097500118	-0.3700006707542074
-0.4855337745937618	-0.36396769957223085
-0.4854727394375118	-0.35579286054399717
-0.4854117042812618	-0.3455244675865388
-0.4853506691250118	-0.33322353833278917
-0.4852896339687618	-0.3189633735153587
-0.4852285988125118	-0.3028291734784637
-0.4851675636562618	-0.28491748126164046
-0.4851065285000118	-0.2653356406578981
-0.4850454933437618	-0.2442011161500918
-0.4849844581875118	-0.22164082663379256
-0.4849234230312618	-0.19779031876757594
-0.4848623878750118	-0.17279303210339883
-0.4848013527187618	-0.14679933939059564
-0.4847403175625118	-0.11996572907963092
-0.4846792824062618	-0.09245376061617953
-0.4846182472500118	-0.06442920041091903
-0.4845572120937618	-0.036060895114806896
-0.4844961769375118	-0.007519856492502478
-0.4844351417812618	0.021021866055726167
-0.4843741066250118	0.049392158211341505
-0.4843130714687618	0.07741992157538441
-0.4842520363125118	0.10493613337516876
-0.4841910011562618	0.13177481709194072
-0.4841299660000118	0.15777410421766722
-0.4840689308437618	0.18277719221736152
-0.4840078956875118	0.20663332139568097
-0.4839468605312618	0.229198656498958
-0.4838858253750118	0.2503372228895021
-0.4838247902187618	0.2699216584641688
-0.4837637550625118	0.28783407954266416
-0.4837027199062618	0.30396671195245023
-0.4836416847500118	0.31822264111373405
-0.4835806495937618	0.33051631688803634
-0.4835196144375118	0.3407741617465713
-0.4834585792812618	0.348934940969137
-0.4833975441250118	0.3549502224424465
-0.4833365089687618	0.358784601150778
-0.4832754738125118	0.36041597946037496
-0.4832144386562618	0.35983566067119577
-0.4831534035000118	0.3570484398092926
-0.4830923683437618	0.3520725582844571
-0.4830313331875118	0.34493960606417196
-0.4829702980312618	0.3356943339283695
-0.4829092628750118	0.32439438125969877
-0.4828482277187618	0.31110993075136834
-0.4827871925625118	0.29592328374391924
-0.4827261574062618	0.27892837289478034
-0.4826651222500118	0.26023016092772544
-0.4826040870937618	0.2399440573735758
-0.4825430519375118	0.2181951506066306
-0.4824820167812618	0.19511752569459664
-0.4824209816250118	0.17085335577305605
-0.4823599464687618	0.14555213912194823
-0.4822989113125118	0.11936968988100555
-0.4822378761562618	0.09246728003843037
-0.4821768410000118	0.06501055933640729
-0.4821158058437618	0.03716865710464371
-0.4820547706875118	0.009113017109327269
-0.4819937355312618	-0.01898350497802221
-0.4819327003750118	-0.04694782622085047
-0.4818716652187618	-0.07460762590300232
-0.4818106300625118	-0.10179238338855796
-0.4817495949062618	-0.12833451463662118
-0.4816885597500118	-0.15407026513586872
-0.4816275245937618	-0.17884085853268122
-0.4815664894375118	-0.20249332473005124
-0.4815054542812618	-0.22488157744204307
-0.4814444191250118	-0.24586719798315154
-0.4813833839687618	-0.2653203596878792
-0.4813223488125118	-0.28312058601698914
-0.4812613136562618	-0.29915752833276404
-0.4812002785000118	-0.3133315902353842
-0.4811392433437618	-0.3255546202937819
-0.4810782081875118	-0.3357503735891317
-0.4810171730312618	-0.34385506236008256
-0.4809561378750118	-0.349817689815853
-0.4808951027187618	-0.3536004053171972
-0.4808340675625118	-0.3551787382945204
-0.4807730324062618	-0.35454173606367384
-0.4807119972500118	-0.3516920676216648
-0.4806509620937618	-0.34664597826738275
-0.4805899269375118	-0.33943323980399687
-0.4805288917812618	-0.33009692328300666
-0.4804678566250118	-0.31869320311264904
-0.4804068214687618	-0.30529095285604424
-0.4803457863125118	-0.28997139855991116
-0.4802847511562618	-0.2728275544810372
-0.4802237160000118	-0.25396373344558165
-0.4801626808437618	-0.23349484419830874
-0.4801016456875118	-0.21154575756045846
-0.4800406105312618	-0.18825048277265427
-0.4799795753750118	-0.16375140001204144
-0.4799185402187618	-0.13819836332171248
-0.4798575050625118	-0.11174780684671419
-0.4797964699062618	-0.08456176644125019
-0.4797354347500118	-0.056806891002642246
-0.4796743995937618	-0.02865345772239155
-0.4796133644375118	-0.0002742820471223526
-0.4795523292812618	0.028156325721693656
-0.4794912941250118	0.05646360634165996
-0.4794302589687618	0.08447345112613618
-0.4793692238125118	0.11201347083102539
-0.4793081886562618	0.138914022387793
-0.4792471535000118	0.16500930893292604
-0.4791861183437618	0.1901383242495732
-0.4791250831875118	0.21414593214135005
-0.4790640480312618	0.23688372555058773
-0.4790030128750118	0.2582110434679715
-0.4789419777187618	0.277995749650746
-0.4788809425625118	0.296115100495797
-0.4788199074062618	0.3124564979505239
-0.4787588722500118	0.32691816001332696
-0.4786978370937618	0.33940980214429556
-0.4786368019375118	0.34985313254234285
-0.4785757667812618	0.3581824127856511
-0.4785147316250118	0.36434480256937185
-0.4784536964687618	0.3683007430370001
-0.4783926613125118	0.3700241772684273
-0.4783316261562618	0.3695027276663142
-0.4782705910000118	0.36673778909900884
-0.4782095558437618	0.3617445087123205
-0.4781485206875118	0.3545517277390111
-0.4780874855312618	0.3452017819778119
-0.4780264503750118	0.3337502809397029
-0.4779654152187618	0.3202657489715462
-0.4779043800625118	0.3048292301672768
-0.4778433449062618	0.2875337798041592
-0.4777823097500118	0.268483927919875
-0.4777212745937618	0.24779500612600147
-0.4776602394375118	0.22559247895487416
-0.4775992042812618	0.20201116942472053
-0.4775381691250118	0.17719441932432414
-0.4774771339687618	0.15129323520825064
-0.4774160988125118	0.12446535100985914
-0.4773550636562618	0.0968742900086882
-0.4772940285000118	0.06868829730430978
-0.4772329933437618	0.0400794064038947
-0.4771719581875118	0.011222283078350381
-0.4771109230312618	-0.017706766727831853
-0.4770498878750118	-0.04653092936335342
-0.4769888527187618	-0.07507394625391817
-0.4769278175625118	-0.1031612072882543
-0.4768667824062618	-0.1306208171264907
-0.4768057472500118	-0.1572846686772094
-0.4767447120937618	-0.1829894599363099
-0.4766836769375118	-0.20757771045889278
-0.4766226417812618	-0.2308987423008017
-0.4765616066250118	-0.25280958189408276
-0.4765005714687618	-0.2731758750119108
-0.4764395363125118	-0.29187270508936275
-0.4763785011562618	-0.3087853554207469
-0.4763174660000118	-0.32381003996682395
-0.4762564308437618	-0.3368545342478061
-0.4761953956875118	-0.3478387448859877
-0.4761343605312618	-0.35669523196963215
-0.4760733253750118	-0.36336959346000974
-0.4760122902187618	-0.3678208489426197
-0.4759512550625118	-0.37002165143541244
-0.4758902199062618	-0.3699585129055914
-0.4758291847500118	-0.3676318427061329
-0.4757681495937618	-0.36305599954101075
-0.4757071144375118	-0.3562591658983678
-0.4756460792812618	-0.3472832193888908
-0.4755850441250118	-0.336183446409389
-0.4755240089687618	-0.32302824305597644
-0.4754629738125118	-0.30789865796877935
-0.4754019386562618	-0.2908879408571205
-0.4753409035000118	-0.2721009414465899
-0.4752798683437618	-0.25165348201082316
-0.4752188331875118	-0.2296716545719058
-0.4751577980312618	-0.20629102428647636
-0.4750967628750118	-0.1816558275270169
-0.4750357277187618	-0.1559180582802642
-0.4749746925625118	-0.12923654844675428
-0.4749136574062618	-0.10177600580653678
-0.4748526222500118	-0.07370595439136594
-0.4747915870937618	-0.0451997387138714
-0.4747305519375118	-0.016433435856863726
-0.4746695167812618	0.012415248277386215
-0.4746084816250118	0.04116802941236364
-0.4745474464687618	0.0696472104761164
-0.4744864113125118	0.09767670569218016
-0.4744253761562618	0.12508319297793222
-0.4743643410000118	0.1516971463505043
-0.4743033058437618	0.1773539074621257
-0.4742422706875118	0.2018946793624692
-0.4741812355312618	0.2251675463620557
-0.4741202003750118	0.2470283776720549
-0.4740591652187618	0.2673417646764017
-0.4739981300625118	0.2859818041002637
-0.4739370949062618	0.30283294515736847
-0.4738760597500118	0.3177906681456447
-0.4738150245937618	0.3307621262933752
-0.4737539894375118	0.34166678634261116
-0.4736929542812618	0.3504368386081616
-0.4736319191250118	0.3570177237003833
-0.4735708839687618	0.361368384809199
-0.4735098488125118	0.36346160056594823
-0.4734488136562618	0.36328410614590945
-0.4733877785000118	0.36083671867727907
-0.4733267433437618	0.35613431544223934
-0.4732657081875118	0.3492057600009383
-0.4732046730312618	0.3400937266377397
-0.4731436378750118	0.32885443811978327
-0.4730826027187618	0.31555733408922776
-0.4730215675625118	0.30028463256354065
-0.4729605324062618	0.28313084508528985
-0.4728994972500118	0.26420216695244114
-0.4728384620937618	0.24361587531681497
-0.4727774269375118	0.2214995381813521
-0.4727163917812618	0.19799030243826762
-0.4726553566250118	0.17323397238532776
-0.4725943214687618	0.14738419596285585
-0.4725332863125118	0.12060143663898432
-0.4724722511562618	0.09305200585534781
-0.4724112160000118	0.06490708994111358
-0.4723501808437618	0.036341589560281405
-0.4722891456875118	0.007533130196463113
-0.4722281105312618	-0.02133910411401877
-0.4721670753750118	-0.050095443344337895
-0.4721060402187618	-0.07855685185023362
-0.4720450050625118	-0.10654605845741402
-0.4719839699062618	-0.13388864696448138
-0.4719229347500118	-0.1604141337768811
-0.4718618995937618	-0.18595702019742089
-0.4718008644375118	-0.21035786577058008
-0.4717398292812618	-0.23346421817719973
-0.4716787941250118	-0.25513162027443415
-0.4716177589687618	-0.27522447491954094
-0.4715567238125118	-0.29361691126456846
-0.4714956886562618	-0.3101935543749147
-0.4714346535000118	-0.324850275611659
-0.4713736183437618	-0.33749480145531535
-0.4713125831875118	-0.34804735120268004
-0.4712515480312618	-0.35644107882245496
-0.4711905128750118	-0.3626225368220466
-0.4711294777187618	-0.3665520111789116
-0.4710684425625118	-0.3682037410548652
-0.4710074074062618	-0.36756614978258134
-0.4709463722500118	-0.3646418446010029
-0.4708853370937618	-0.3594476983279308
-0.4708243019375118	-0.35201465641370683
-0.4707632667812618	-0.34238764996748233
-0.4707022316250118	-0.3306252298853229
-0.4706411964687618	-0.31679929375971944
-0.4705801613125118	-0.3009945849344541
-0.4705191261562618	-0.2833082077121548
-0.4704580910000118	-0.26384901821956
-0.4703970558437618	-0.24273694981191885
-0.4703360206875118	-0.22010228926623415
-0.4702749855312618	-0.1960848465696985
-0.4702139503750118	-0.1708331220091368
-0.4701529152187618	-0.14450337016237458
-0.4700918800625118	-0.11725861278923677
-0.4700308449062618	-0.08926768276408009
-0.4699698097500118	-0.06070410905637731
-0.4699087745937618	-0.03174511115562455
-0.4698477394375118	-0.0025704247911052997
-0.4697867042812618	0.026638755471370297
