Time	Frequency
-0.5000199039999984	-0.27930939017874146
-0.4999588688437484	-0.29468532850280355
-0.4998978336874984	-0.308334437747684
-0.4998367985312484	-0.3201787364247413
-0.4997757633749984	-0.33015075944055644
-0.4997147282187484	-0.33819389996651383
-0.4996536930624984	-0.3442628266041413
-0.4995926579062484	-0.3483236294506498
-0.4995316227499984	-0.350354163950575
-0.4994705875937484	-0.3503440345614842
-0.4994095524374984	-0.34829479557278736
-0.4993485172812484	-0.3442198269917225
-0.4992874821249984	-0.3381443570632551
-0.4992264469687484	-0.33010523760170496
-0.4991654118124984	-0.3201507980224561
-0.4991043766562484	-0.3083405187495568
-0.4990433414999984	-0.2947447113905307
-0.4989823063437484	-0.2794441050362784
-0.4989212711874984	-0.26252938408995385
-0.4988602360312484	-0.24410064315292024
-0.4987992008749984	-0.22426682952454224
-0.4987381657187484	-0.20314509692541285
-0.4986771305624984	-0.1808601189006197
-0.4986160954062484	-0.15754338032063248
-0.4985550602499984	-0.13333237610110363
-0.4984940250937484	-0.10836986614648632
-0.4984329899374984	-0.0828029938815249
-0.4983719547812484	-0.0567824279665723
-0.4983109196249984	-0.030461531605345645
-0.4982498844687484	-0.003995405587518342
-0.4981888493124984	0.02245997421709819
-0.4981278141562484	0.04874869495689484
-0.4980667789999984	0.07471580105535879
-0.4980057438437484	0.10020821290247017
-0.4979447086874984	0.12507561679875992
-0.4978836735312484	0.14917134885345423
-0.4978226383749984	0.17235325688861616
-0.4977616032187484	0.1944845277170602
-0.4977005680624984	0.21543449668701095
-0.4976395329062484	0.2350794038735236
-0.4975784977499984	0.25330314987547625
-0.4975174625937484	0.26999793309197334
-0.4974564274374984	0.28506493688422296
-0.4973953922812484	0.29841486562810077
-0.4973343571249984	0.3099685081359358
-0.4972733219687484	0.3196571779942793
-0.4972122868124984	0.3274231527685114
-0.4971512516562484	0.33321997273744774
-0.4970902164999984	0.33701277178774497
-0.4970291813437484	0.33877843819609876
-0.4969681461874984	0.3385057931060848
-0.4969071110312484	0.33619563632893557
-0.4968460758749984	0.33186076631321304
-0.4967850407187484	0.3255258956470143
-0.4967240055624984	0.3172275272663733
-0.4966629704062484	0.3070137316029086
-0.4966019352499984	0.2949438858178428
-0.4965409000937484	0.28108831794142053
-0.4964798649374984	0.26552791261148556
-0.4964188297812484	0.24835362779372405
-0.4963577946249984	0.22966599065648322
-0.4962967594687484	0.2095744830607971
-0.4962357243124984	0.18819692597594534
-0.4961746891562484	0.165658785835332
-0.4961136539999984	0.1420924510212775
-0.4960526188437484	0.11763644147241356
-0.4959915836874984	0.09243460654676416
-0.4959305485312484	0.06663532024617201
-0.4958695133749984	0.04039052542896497
-0.4958084782187484	0.013854951357008123
-0.4957474430624984	-0.012814874775408254
-0.4956864079062484	-0.039461496818611386
-0.4956253727499984	-0.06592749542556402
-0.4955643375937484	-0.09205635497054017
-0.4955033024374984	-0.1176934437529194
-0.4954422672812484	-0.1426868863059055
-0.4953812321249984	-0.166888454333056
-0.4953201969687484	-0.19015447469601815
-0.4952591618124984	-0.21234661569619095
-0.4951981266562484	-0.23333278052256795
-0.4951370914999984	-0.2529878054119319
-0.4950760563437484	-0.2711942707181726
-0.4950150211874984	-0.28784313675375917
-0.4949539860312484	-0.3028344399422892
-0.4948929508749984	-0.3160778398430993
-0.4948319157187484	-0.3274931987981226
-0.4947708805624984	-0.33701102571310876
-0.4947098454062484	-0.3445729078178109
-0.4946488102499984	-0.35013186701583165
-0.4945877750937484	-0.3536526198252158
-0.4945267399374984	-0.3551118310436787
-0.4944657047812484	-0.35449820867091525
-0.4944046696249984	-0.3518126376681738
-0.4943436344687484	-0.34706812279425825
-0.4942825993124984	-0.34028978033447
-0.4942215641562484	-0.3315146421286138
-0.4941605289999984	-0.32079150254675326
-0.4940994938437484	-0.3081805864756754
-0.4940384586874984	-0.2937532548246277
-0.4939774235312484	-0.2775915538265257
-0.4939163883749984	-0.2597877614160614
-0.4938553532187484	-0.24044385460764614
-0.4937943180624984	-0.21967090295957187
-0.4937332829062484	-0.1975884446972911
-0.4936722477499984	-0.17432376551327422
-0.4936112125937484	-0.15001118324124219
-0.4935501774374984	-0.12479124362941336
-0.4934891422812484	-0.09880992534015992
-0.4934281071249984	-0.07221774862139524
-0.4933670719687484	-0.04516893920382069
-0.4933060368124984	-0.0178204855473114
-0.4932450016562484	0.009668734993527068
-0.4931839664999984	0.03713893804327586
-0.4931229313437484	0.06443032778767101
-0.4930618961874984	0.09138405785872529
-0.4930008610312484	0.11784314204422683
-0.4929398258749984	0.14365340608193505
-0.4928787907187484	0.16866437655495606
-0.4928177555624984	0.1927301348541972
-0.4927567204062484	0.2157102705838306
-0.4926956852499984	0.2374705700310358
-0.4926346500937484	0.25788394585718194
-0.4925736149374984	0.27683108628517716
-0.4925125797812484	0.2942012075368786
-0.4924515446249984	0.3098927071268957
-0.4923905094687484	0.3238137337942079
-0.4923294743124984	0.3358827720468359
-0.4922684391562484	0.3460291049436396
-0.4922074039999984	0.3541932224476358
-0.4921463688437484	0.3603272115002308
-0.4920853336874984	0.3643950018038327
-0.4920242985312484	0.36637262167432577
-0.4919632633749984	0.36624831142664566
-0.4919022282187484	0.36402262282980546
-0.4918411930624984	0.3597084077420109
-0.4917801579062484	0.3533307488920942
-0.4917191227499984	0.34492683000273194
-0.4916580875937484	0.3345456984485821
-0.4915970524374984	0.3222480155911801
-0.4915360172812484	0.30810566288246044
-0.4914749821249984	0.2922013734503766
-0.4914139469687484	0.2746281988758245
-0.4913529118124984	0.2554890062767331
-0.4912918766562484	0.23489585625592757
-0.4912308414999984	0.21296935430625286
-0.4911698063437484	0.18983793723426473
-0.4911087711874984	0.16563713763495033
-0.4910477360312484	0.1405087581512337
-0.4909867008749984	0.11460007696361764
-0.4909256657187484	0.08806295256265714
-0.4908646305624984	0.06105294913084489
-0.4908035954062484	0.033728401187871314
-0.4907425602499984	0.006249518301229983
-0.4906815250937484	-0.02122260649785069
-0.4906204899374984	-0.04852689341238169
-0.4905594547812484	-0.07550327443615507
-0.4904984196249984	-0.10199359793266642
-0.4904373844687484	-0.12784259014204447
-0.4903763493124984	-0.1528987446653594
-0.4903153141562484	-0.17701524295188906
-0.4902542789999984	-0.20005079681254093
-0.4901932438437484	-0.22187052352501954
-0.4901322086874984	-0.242346673826559
-0.4900711735312484	-0.2613594698883703
-0.4900101383749984	-0.2787977634397447
-0.4899491032187484	-0.29455968649906134
-0.4898880680624984	-0.30855330564603584
-0.4898270329062484	-0.32069711238314386
-0.4897659977499984	-0.3309205544793841
-0.4897049625937484	-0.33916440557942484
-0.4896439274374984	-0.34538118474181806
-0.4895828922812484	-0.3495353551540626
-0.4895218571249984	-0.3516036349828984
-0.4894608219687484	-0.35157504170038595
-0.4893997868124984	-0.3494510444834823
-0.4893387516562484	-0.34524549274277544
-0.4892777164999984	-0.33898458759727906
-0.4892166813437484	-0.3307066939743542
-0.4891556461874984	-0.32046214250459815
-0.4890946110312484	-0.3083129162849938
-0.4890335758749984	-0.29433230346671707
-0.4889725407187484	-0.2786044536072764
-0.4889115055624984	-0.26122388687947573
-0.4888504704062484	-0.24229493935981963
-0.4887894352499984	-0.22193115242609213
-0.4887284000937484	-0.2002545816878591
-0.4886673649374984	-0.17739511256475265
-0.4886063297812484	-0.15348964124326542
-0.4885452946249984	-0.1286813235010743
-0.4884842594687484	-0.10311869104716574
-0.4884232243124984	-0.07695476456552991
-0.4883621891562484	-0.05034617537507282
-0.4883011539999984	-0.023452237959472027
-0.4882401188437484	0.003566037882525494
-0.4881790836874984	0.03054684850919541
-0.4881180485312484	0.05732859150589167
-0.4880570133749984	0.08375081451178412
-0.4879959782187484	0.1096551597676585
-0.4879349430624984	0.13488633638954836
-0.4878739079062484	0.15929298670504233
-0.4878128727499984	0.1827286721031024
-0.4877518375937484	0.20505264184169403
-0.4876908024374984	0.22613078548973084
-0.4876297672812484	0.24583631207759415
-0.4875687321249984	0.26405062843649274
-0.4875076969687484	0.28066394074883866
-0.4874466618124984	0.2955760035614678
-0.4873856266562484	0.30869663546899256
-0.4873245914999984	0.31994633981045884
-0.4872635563437484	0.3292567099318739
-0.4872025211874984	0.33657091444423737
-0.4871414860312484	0.3418439656228226
-0.4870804508749984	0.3450430664483836
-0.4870194157187484	0.3461477504098344
-0.4869583805624984	0.34515005301065554
-0.4868973454062484	0.34205454651615114
-0.4868363102499984	0.3368783160380829
-0.4867752750937484	0.32965088923245556
-0.4867142399374984	0.32041402609107594
-0.4866532047812484	0.30922153369404676
-0.4865921696249984	0.29613888871745786
-0.4865311344687484	0.2812429192424556
-0.4864700993124984	0.2646212890233464
-0.4864090641562484	0.24637206078982987
-0.4863480289999984	0.22660302086408182
-0.4862869938437484	0.205431148824282
-0.4862259586874984	0.1829818313362978
-0.4861649235312484	0.15938821386783766
-0.4861038883749984	0.13479029596347605
-0.4860428532187484	0.10933425675007875
-0.4859818180624984	0.0831714140350275
-0.4859207829062484	0.05645749499858922
-0.4858597477499984	0.02935156915825572
-0.4857987125937484	0.002015213433071241
-0.4857376774374984	-0.025388528717830643
-0.4856766422812484	-0.05269605519802052
-0.4856156071249984	-0.07974421992367174
-0.4855545719687484	-0.10637130299056193
-0.4854935368124984	-0.1324179178244984
-0.4854325016562484	-0.157728079294133
-0.4853714664999984	-0.18214996607645223
-0.4853104313437484	-0.20553702474516047
-0.4852493961874984	-0.22774865019754648
-0.4851883610312484	-0.2486511947095511
-0.4851273258749984	-0.2681186369425033
-0.4850662907187484	-0.28603343369368456
-0.4850052555624984	-0.30228716439933845
-0.4849442204062484	-0.31678120997643827
-0.4848831852499984	-0.32942734466038653
-0.4848221500937484	-0.3401482608566231
-0.4847611149374984	-0.3488780363463229
-0.4847000797812484	-0.35556255088436034
-0.4846390446249984	-0.3601597918171427
-0.4845780094687484	-0.36264013358125996
-0.4845169743124984	-0.36298651325007986
-0.4844559391562484	-0.3611945339128179
-0.4843949039999984	-0.35727252126683284
-0.4843338688437484	-0.3512414499116746
-0.4842728336874984	-0.34313486921191116
-0.4842117985312484	-0.33299865991213484
-0.4841507633749984	-0.3208908296610944
-0.4840897282187484	-0.30688111390409933
-0.4840286930624984	-0.2910506249940356
-0.4839676579062484	-0.27349133045466356
-0.4839066227499984	-0.25430554307555864
-0.4838455875937484	-0.23360531208739496
-0.4837845524374984	-0.21151173987430874
-0.4837235172812484	-0.1881543147409879
-0.4836624821249984	-0.16367009028371665
-0.4836014469687484	-0.13820291531153694
-0.4835404118124984	-0.11190256477417422
-0.4834793766562484	-0.08492384322822892
-0.4834183414999984	-0.057425705314126295
-0.4833573063437484	-0.029570233470423143
-0.4832962711874984	-0.0015217873179014629
-0.4832352360312484	0.02655408977144784
-0.4831742008749984	0.054491564967498386
-0.4831131657187484	0.082125559382431
-0.4830521305624984	0.10929270646409596
-0.4829910954062484	0.13583232615778829
-0.4829300602499984	0.1615874083703259
-0.4828690250937484	0.18640549241872917
-0.4828079899374984	0.21013965846297836
-0.4827469547812484	0.23264932304755526
-0.4826859196249984	0.25380115773838574
-0.4826248844687484	0.273469805335387
-0.4825638493124984	0.29153871983210905
-0.4825028141562484	0.30790077680076733
-0.4824417789999984	0.322458986237422
-0.4823807438437484	0.3351270400013604
-0.4823197086874984	0.3458298342227571
-0.4822586735312484	0.3545039335911785
-0.4821976383749984	0.36109794200582385
-0.4821366032187484	0.3655728334593594
-0.4820755680624984	0.3679021583480035
-0.4820145329062484	0.36807224176060227
-0.4819534977499984	0.3660822479152888
-0.4818924625937484	0.3619441972192509
-0.4818314274374984	0.3556829014978657
-0.4817703922812484	0.3473358165506654
-0.4817093571249984	0.3369528319463173
-0.4816483219687484	0.32459596696973997
-0.4815872868124984	0.3103390170373879
-0.4815262516562484	0.2942671013866703
-0.4814652164999984	0.2764761845946689
-0.4814041813437484	0.25707247657048854
-0.4813431461874984	0.2361718303749833
-0.4812821110312484	0.2138990305013984
-0.4812210758749984	0.19038706821767692
-0.4811600407187484	0.16577634097414473
-0.4810990055624984	0.1402138109801653
-0.4810379704062484	0.11385214387102657
-0.4809769352499984	0.08684878179120802
-0.4809159000937484	0.059365017049444836
-0.4808548649374984	0.03156501243814902
-0.4807938297812484	0.0036148510367796137
-0.4807327946249984	-0.02431850740647162
-0.4806717594687484	-0.0520681731405775
-0.4806107243124984	-0.07946835563273111
-0.4805496891562484	-0.10635534542042305
-0.4804886539999984	-0.1325685131224028
-0.4804276188437484	-0.1579512247286844
-0.4803665836874984	-0.18235185922072164
-0.4803055485312484	-0.2056246287245096
-0.4802445133749984	-0.22763053960746643
-0.4801834782187484	-0.24823814160018587
-0.4801224430624984	-0.2673244140850289
-0.4800614079062484	-0.28477540678351676
-0.4800003727499984	-0.3004870157895492
-0.4799393375937484	-0.3143655399860306
-0.4798783024374984	-0.3263282898168694
-0.4798172672812484	-0.33630408344691076
-0.4797562321249984	-0.34423363989677874
-0.4796951969687484	-0.3500700034544722
-0.4796341618124984	-0.35377875491128696
-0.4795731266562484	-0.3553383015335158
-0.4795120914999984	-0.35473992771334084
-0.4794510563437484	-0.35198793767758924
-0.4793900211874984	-0.34709954849624636
-0.4793289860312484	-0.3401048742090614
-0.4792679508749984	-0.3310466729358874
-0.4792069157187484	-0.3199801618508721
-0.4791458805624984	-0.3069726282826152
-0.4790848454062484	-0.29210308851519257
-0.4790238102499984	-0.2754617649218767
-0.4789627750937484	-0.2571495880165946
-0.4789017399374984	-0.23727756602152533
-0.4788407047812484	-0.21596613365482525
-0.4787796696249984	-0.19334443084212688
-0.4787186344687484	-0.1695495257429095
-0.4786575993124984	-0.1447255945454886
-0.4785965641562484	-0.11902305619053703
-0.4785355289999984	-0.09259767206817843
-0.4784744938437484	-0.06560961127537218
-0.4784134586874984	-0.03822246294965617
-0.4783524235312484	-0.010602306337160604
-0.4782913883749984	0.017083341681745353
-0.4782303532187484	0.04466650775052214
-0.4781693180624984	0.07197978473199773
-0.4781082829062484	0.09885732659887554
-0.4780472477499984	0.12513586415121622
-0.4779862125937484	0.1506556902376287
-0.4779251774374984	0.1752616014543921
-0.4778641422812484	0.19880387568068053
-0.4778031071249984	0.22113912544525452
-0.4777420719687484	0.24213122399332965
-0.4776810368124984	0.26165208841817655
-0.4776200016562484	0.2795824542631674
-0.4775589664999984	0.29581263707208455
-0.4774979313437484	0.31024316567993215
-0.4774368961874984	0.3227853890991125
-0.4773758610312484	0.33336204490826365
-0.4773148258749984	0.34190768797552146
-0.4772537907187484	0.3483691428214531
-0.4771927555624984	0.35270578188604207
-0.4771317204062484	0.3548898182969313
-0.4770706852499984	0.35490645068120247
-0.4770096500937484	0.35275398355650556
-0.4769486149374984	0.3484438255976559
-0.4768875797812484	0.3420004456496854
-0.4768265446249984	0.3334612179950464
-0.4767655094687484	0.322876217826518
-0.4767044743124984	0.3103079170668657
-0.4766434391562484	0.2958308157827095
-0.4765824039999984	0.2795310107415839
-0.4765213688437484	0.26150566376478496
-0.4764603336874984	0.2418624436044953
-0.4763992985312484	0.22071885976833636
-0.4763382633749984	0.19820158410428748
-0.4762772282187484	0.17444567233168876
-0.4762161930624984	0.1495937614376578
-0.4761551579062484	0.12379521693631608
-0.4760941227499984	0.09720520889173091
-0.4760330875937484	0.06998385352071848
-0.4759720524374984	0.04229513511477538
-0.4759110172812484	0.014306021124098362
-0.4758499821249984	-0.013814599827137107
-0.4757889469687484	-0.041896915961351755
-0.4757279118124984	-0.06977123191355086
-0.4756668766562484	-0.09726897038268255
-0.4756058414999984	-0.12422371536272979
-0.4755448063437484	-0.1504722040406505
-0.4754837711874984	-0.17585531874021193
-0.4754227360312484	-0.20021905658216574
-0.4753617008749984	-0.2234154418264455
-0.4753006657187484	-0.24530346065457964
-0.4752396305624984	-0.26574987229687086
-0.4751785954062484	-0.28463006392748563
-0.4751175602499984	-0.3018287665224892
-0.4750565250937484	-0.3172407939857352
-0.4749954899374984	-0.3307716631537582
-0.4749344547812484	-0.3423381752180914
-0.4748734196249984	-0.3518689279722727
-0.4748123844687484	-0.3593047607397282
-0.4747513493124984	-0.36459910254201033
-0.4746903141562484	-0.3677182840775466
-0.4746292789999984	-0.3686417298400649
-0.4745682438437484	-0.36736210012609727
-0.4745072086874984	-0.3638853466484236
-0.4744461735312484	-0.3582306735433185
-0.4743851383749984	-0.350430445677689
-0.4743241032187484	-0.34052998423441444
-0.4742630680624984	-0.32858731383324796
-0.4742020329062484	-0.31467281641989675
-0.4741409977499984	-0.2988688078961636
-0.4740799625937484	-0.28126905692700843
-0.4740189274374984	-0.26197821737578325
-0.4739578922812484	-0.24111121317928214
-0.4738968571249984	-0.21879252627128554
-0.4738358219687484	-0.19515548714105643
-0.4737747868124984	-0.170341439040582
-0.4737137516562484	-0.14449890425460682
-0.4736527164999984	-0.11778269124981346
-0.4735916813437484	-0.09035296489060796
-0.4735306461874984	-0.06237426219838293
-0.4734696110312484	-0.03401452905948367
-0.4734085758749984	-0.005444075050021728
-0.4733475407187484	0.023165419484817554
-0.4732865055624984	0.05164198198874053
-0.4732254704062484	0.07981434292073243
-0.4731644352499984	0.10751301720725111
-0.4731034000937484	0.1345712896446727
-0.4730423649374984	0.16082626340655548
-0.4729813297812484	0.18611979949696142
-0.4729202946249984	0.2102995408460207
-0.4728592594687484	0.23321976645842318
-0.4727982243124984	0.2547423308735352
-0.4727371891562484	0.27473747862783426
-0.4726761539999984	0.29308463598245516
-0.4726151188437484	0.30967316172326764
-0.4725540836874984	0.3244029799806394
-0.4724930485312484	0.33718526046019226
-0.4724320133749984	0.3479428782449142
-0.4723709782187484	0.3566109609030403
-0.4723099430624984	0.3631372408961777
-0.4722489079062484	0.3674823959469357
-0.4721878727499984	0.36962028236311195
-0.4721268375937484	0.3695381232464879
-0.4720658024374984	0.3672365499921505
-0.4720047672812484	0.3627296559740796
-0.4719437321249984	0.3560448635199713
-0.4718826969687484	0.34722281650754233
-0.4718216618124984	0.3363170843950361
-0.4717606266562484	0.3233939002577375
-0.4716995914999984	0.3085317065630276
-0.4716385563437484	0.2918207366157204
-0.4715775211874984	0.27336243647628766
-0.4715164860312484	0.2532688625259933
-0.4714554508749984	0.23166201619550655
-0.4713944157187484	0.20867309467898254
-0.4713333805624984	0.18444171106720483
-0.4712723454062484	0.15911502641908887
-0.4712113102499984	0.13284688766068312
-0.4711502750937484	0.10579688692897042
-0.4710892399374984	0.0781293651362952
-0.4710282047812484	0.05001246286772297
-0.4709671696249984	0.021617081802527326
-0.4709061344687484	-0.006884186208416116
-0.4708450993124984	-0.035318042338931176
-0.4707840641562484	-0.06351161560007865
-0.4707230289999984	-0.09129341512161347
-0.4706619938437484	-0.11849448138162959
-0.4706009586874984	-0.14494931938256272
-0.4705399235312484	-0.17049697983328627
-0.4704788883749984	-0.194981991398561
-0.4704178532187484	-0.2182553216835423
-0.4703568180624984	-0.2401753317847581
-0.4702957829062484	-0.26060852816411684
-0.4702347477499984	-0.27943054805445966
-0.4701737125937484	-0.2965267251124091
-0.4701126774374984	-0.3117929766169476
-0.4700516422812484	-0.32513629373191766
-0.4699906071249984	-0.33647541372710604
-0.4699295719687484	-0.34574126532726757
-0.4698685368124984	-0.3528774056016181
-0.4698075016562484	-0.35784038921468986
-0.4697464664999984	-0.3606000041637522
