Time	Frequency
-0.5000193120937411	2.77578717635226e-25
-0.49995827693749106	3.121549851153247e-25
-0.49989724178124106	3.4422767901709828e-25
-0.49983620662499106	3.735353610173366e-25
-0.49977517146874106	3.998387445793573e-25
-0.49971413631249106	4.229226267100343e-25
-0.49965310115624106	4.425975806248232e-25
-0.49959206599999106	4.587015981465947e-25
-0.49953103084374106	4.711012915822961e-25
-0.49946999568749106	4.796931018439646e-25
-0.49940896053124106	4.844040610373152e-25
-0.49934792537499106	4.851924457629971e-25
-0.49928689021874106	4.820481372487624e-25
-0.49922585506249106	4.749926837155248e-25
-0.49916481990624106	4.640792067029514e-25
-0.49910378474999106	4.493919295907379e-25
-0.49904274959374106	4.310455788125128e-25
-0.49898171443749106	4.091844400765134e-25
-0.49892067928124106	3.8398122645201445e-25
-0.49885964412499106	3.5563572946493516e-25
-0.49879860896874106	3.2437318962533885e-25
-0.49873757381249106	2.90442526617235e-25
-0.49867653865624106	2.541143520372925e-25
-0.49861550349999106	2.1567879185220385e-25
-0.49855446834374106	1.7544315026482048e-25
-0.49849343318749106	1.3372949979944492e-25
-0.49843239803124106	9.087204579772275e-26
-0.49837136287499106	4.7214437268273336e-26
-0.49831032771874106	3.1070847791468353e-27
-0.49824929256249106	-4.1095780334971205e-26
-0.49818825740624106	-8.503882683807545e-26
-0.49812722224999106	-1.283685797187186e-25
-0.49806618709374106	-1.7073624178109603e-25
-0.49800515193749106	-2.1180043212368787e-25
-0.49794411678124106	-2.512301257143222e-25
-0.49788308162499106	-2.887070648689141e-25
-0.49782204646874106	-3.23928573729691e-25
-0.49776101131249106	-3.5660988330732084e-25
-0.49769997615624106	-3.864863805573357e-25
-0.49763894099999106	-4.133159733864726e-25
-0.49757790584374106	-4.368807477219587e-25
-0.49751687068749106	-4.569890165372893e-25
-0.49745583553124106	-4.734767219183433e-25
-0.49739480037499106	-4.862087823023278e-25
-0.49733376521874106	-4.9508030649919785e-25
-0.49727273006249106	-5.000172926959512e-25
-0.49721169490624106	-5.009774036070419e-25
-0.49715065974999106	-4.9795020359945075e-25
-0.49708962459374106	-4.9095734140142905e-25
-0.49702858943749106	-4.800523520095461e-25
-0.49696755428124106	-4.653202496641697e-25
-0.49690651912499106	-4.468768915717448e-25
-0.49684548396874106	-4.24867998060578e-25
-0.49678444881249106	-3.9946807425125304e-25
-0.49672341365624106	-3.7087895651509405e-25
-0.49666237849999106	-3.3932822014269227e-25
-0.49660134334374106	-3.0506738876040855e-25
-0.49654030818749106	-2.683698585058855e-25
-0.49647927303124106	-2.2952876230251822e-25
-0.49641823787499106	-1.8885459471810122e-25
-0.49635720271874106	-1.466727096992262e-25
-0.49629616756249106	-1.0332072277301375e-25
-0.49623513240624106	-5.914577142909626e-26
-0.49617409724999106	-1.450175746355465e-26
-0.49611306209374106	3.025355706364739e-26
-0.49605202693749106	7.476137072421392e-26
-0.49599099178124106	1.186647884574485e-25
-0.49592995662499106	1.6161167259310087e-25
-0.49586892146874106	2.0325750441523803e-25
-0.49580788631249106	2.4326814054957013e-25
-0.49574685115624106	2.813225399310413e-25
-0.49568581599999106	3.1711535172435435e-25
-0.49562478084374106	3.503593569511758e-25
-0.49556374568749106	3.8078788721798612e-25
-0.49550271053124106	4.0815682279351527e-25
-0.49544167537499106	4.322467551229983e-25
-0.49538064021874106	4.528646438605453e-25
-0.49531960506249106	4.698453979170584e-25
-0.49525856990624106	4.83053302978324e-25
-0.49519753474999106	4.923830128589635e-25
-0.49513649959374106	4.977605040133949e-25
-0.49507546443749106	4.991436227731384e-25
-0.49501442928124106	4.965224788523763e-25
-0.49495339412499106	4.899195034482362e-25
-0.49489235896874106	4.793893024173464e-25
-0.49483132381249106	4.650182110723134e-25
-0.49477028865624106	4.469236033450725e-25
-0.49470925349999106	4.252529718686437e-25
-0.49464821834374106	4.0018270963933534e-25
-0.49458718318749106	3.719167327038911e-25
-0.49452614803124106	3.406847913024031e-25
-0.49446511287499106	3.0674066522862756e-25
-0.49440407771874106	2.703600735241468e-25
-0.49434304256249106	2.3183848309722136e-25
-0.49428200740624106	1.9148868549505142e-25
-0.49422097224999106	1.496382889105959e-25
-0.49415993709374106	1.0662711002313777e-25
-0.49409890193749106	6.280428796021928e-26
-0.49403786678124106	1.8525639711357843e-26
-0.49397683162499106	-2.5849376744998382e-26
-0.49391579646874106	-6.99604841562028e-26
-0.49385476131249106	-1.1344954823917245e-25
-0.49379372615624106	-1.5596349566845435e-25
-0.49373269099999106	-1.9715710545170033e-25
-0.49367165584374106	-2.366959411086793e-25
-0.49361062068749106	-2.742589162453231e-25
-0.49354958553124106	-3.0954105763620747e-25
-0.49348855037499106	-3.422558483309303e-25
-0.49342751521874106	-3.7213766376029037e-25
-0.49336648006249106	-3.9894389800238677e-25
-0.49330544490624106	-4.224569064996197e-25
-0.49324440974999106	-4.424858599988963e-25
-0.49318337459374106	-4.588682202293235e-25
-0.49312233943749106	-4.7147114837594535e-25
-0.49306130428124106	-4.801925296883991e-25
-0.49300026912499106	-4.849618606279145e-25
-0.49293923396874106	-4.857408025507098e-25
-0.49287819881249106	-4.825235318681573e-25
-0.49281716365624106	-4.753367711136551e-25
-0.49275612849999106	-4.6423960911943875e-25
-0.49269509334374106	-4.493230181768955e-25
-0.49263405818749106	-4.307091218340487e-25
-0.49257302303124106	-4.085502369241837e-25
-0.49251198787499106	-3.830276076575315e-25
-0.49245095271874106	-3.543499888534634e-25
-0.49238991756249106	-3.2275190727389634e-25
-0.49232888240624106	-2.8849181109499073e-25
-0.49226784724999106	-2.5184993781465464e-25
-0.49220681209374106	-2.131260522296963e-25
-0.49214577693749106	-1.7263704009954999e-25
-0.49208474178124106	-1.3071428061516737e-25
-0.49202370662499106	-8.770100969870083e-26
-0.49196267146874106	-4.3949486305316114e-26
-0.49190163631249106	1.8184472377983075e-28
-0.49184060115624106	4.4331292557175746e-26
-0.49177956599999106	8.813686424129627e-26
-0.49171853084374106	1.312391779742437e-25
-0.49165749568749106	1.7328446623758623e-25
-0.49159646053124106	2.1392738590298994e-25
-0.49153542537499106	2.5283389756914398e-25
-0.49147439021874106	2.8968396227547703e-25
-0.49141335506249106	3.2417415140619178e-25
-0.49135231990624106	3.5602019251669835e-25
-0.49129128474999106	3.8495919595923533e-25
-0.49123024959374106	4.1075190651723773e-25
-0.49116921443749106	4.331846180322036e-25
-0.49110817928124106	4.520709381646431e-25
-0.49104714412499106	4.67253346388196e-25
-0.49098610896874106	4.786044441272368e-25
-0.49092507381249106	4.860280891913311e-25
-0.49086403865624106	4.894601339775116e-25
-0.49080300349999106	4.888689909943088e-25
-0.49074196834374106	4.842559218809284e-25
-0.49068093318749106	4.75655030312298e-25
-0.49061989803124106	4.631330171184617e-25
-0.49055886287499106	4.467886445011839e-25
-0.49049782771874106	4.267519684821627e-25
-0.49043679256249106	4.031832766735831e-25
-0.49037575740624106	3.7627182565201846e-25
-0.49031472224999106	3.4623429276098004e-25
-0.49025368709374106	3.1331302753230055e-25
-0.49019265193749106	2.7777413026761096e-25
-0.49013161678124106	2.3990523640269183e-25
-0.49007058162499106	2.000132204257016e-25
-0.49000954646874106	1.5842171888401128e-25
-0.48994851131249106	1.1546845750418584e-25
-0.48988747615624106	7.150255261736482e-26
-0.48982644099999106	2.6881633375277054e-26
-0.48976540584374106	-1.8031059499985092e-26
-0.48970437068749106	-6.286958787282136e-26
-0.48964333553124106	-1.0726841057672597e-25
-0.48958230037499106	-1.508652219857215e-25
-0.48952126521874106	-1.9330401770281249e-25
-0.48946023006249106	-2.342379951430361e-25
-0.48939919490624106	-2.733322687223717e-25
-0.48933815974999106	-3.102668283769773e-25
-0.48927712459374106	-3.4473892255194285e-25
-0.48921608943749106	-3.764657023209573e-25
-0.48915505428124106	-4.0518650116825596e-25
-0.48909401912499106	-4.306649001573036e-25
-0.48903298396874106	-4.526908232667914e-25
-0.48897194881249106	-4.710820969780238e-25
-0.48891091365624106	-4.856860910488666e-25
-0.48884987849999106	-4.96380909345004e-25
-0.48878884334374106	-5.0307641400883685e-25
-0.48872780818749106	-5.057150120223074e-25
-0.48866677303124106	-5.042720921457952e-25
-0.48860573787499106	-4.987563005087664e-25
-0.48854470271874106	-4.892094544708626e-25
-0.48848366756249106	-4.757062272356329e-25
-0.48842263240624106	-4.583535741756332e-25
-0.48836159724999106	-4.372898595292492e-25
-0.48830056209374106	-4.1268375024888734e-25
-0.48823952693749106	-3.847328732752909e-25
-0.48817849178124106	-3.536621864241031e-25
-0.48811745662499106	-3.197222056371696e-25
-0.48805642146874106	-2.83186920195571e-25
-0.48799538631249106	-2.443515967749535e-25
-0.48793435115624106	-2.0353042002112152e-25
-0.48787331599999106	-1.610538246822568e-25
-0.48781228084374106	-1.172659559805329e-25
-0.48775124568749106	-7.252174959661975e-26
-0.48769021053124106	-2.718408041324957e-26
-0.48762917537499106	1.8379163361214884e-26
-0.48756814021874106	6.379817561694319e-26
-0.48750710506249106	1.0870409426576009e-25
-0.48744606990624106	1.5273221312907544e-25
-0.48738503474999106	1.9552478916140653e-25
-0.48732399959374106	2.3673404235289287e-25
-0.48726296443749106	2.760250319097872e-25
-0.48720192928124106	3.1307831097730893e-25
-0.48714089412499106	3.4759266123132254e-25
-0.48707985896874106	3.792874082054443e-25
-0.48701882381249106	4.0790489117817123e-25
-0.48695778865624106	4.332124495279147e-25
-0.48689675349999106	4.550043817220865e-25
-0.48683571834374106	4.731036874325401e-25
-0.48677468318749106	4.873634015277273e-25
-0.48671364803124106	4.976679460456478e-25
-0.48665261287499106	5.039339989349247e-25
-0.48659157771874106	5.061112006254342e-25
-0.48653054256249106	5.04182615561093e-25
-0.48646950740624106	4.98164835084197e-25
-0.48640847224999106	4.8810788405238565e-25
-0.48634743709374106	4.740948173867024e-25
-0.48628640193749106	4.562410363749541e-25
-0.48622536678124106	4.3469337915707055e-25
-0.48616433162499106	4.0962890758229933e-25
-0.48610329646874106	3.8125347423680356e-25
-0.48604226131249106	3.498000578471771e-25
-0.48598122615624106	3.1552682922253076e-25
-0.48592019099999106	2.78715096530553e-25
-0.48585915584374106	2.39666953777084e-25
-0.48579812068749106	1.9870283366333493e-25
-0.48573708553124106	1.5615890932893463e-25
-0.48567605037499106	1.1238429377939177e-25
-0.48561501521874106	6.773822777090312e-26
-0.48555398006249106	2.2587095452629737e-26
-0.48549294490624106	-2.269854535237442e-26
-0.48543190974999106	-6.774701676657362e-26
-0.48537087459374106	-1.121885735563572e-25
-0.48530983943749106	-1.5565844085060665e-25
-0.48524880428124106	-1.9779980850023977e-25
-0.48518776912499106	-2.3826674041670595e-25
-0.48512673396874106	-2.7672706682920867e-25
-0.48506569881249106	-3.1286506615075627e-25
-0.48500466365624106	-3.4638410495516123e-25
-0.48494362849999106	-3.770090597068009e-25
-0.48488259334374106	-4.044885775504027e-25
-0.48482155818749106	-4.285971926089718e-25
-0.48476052303124106	-4.4913711456800045e-25
-0.48469948787499106	-4.659399518105886e-25
-0.48463845271874106	-4.788680323992732e-25
-0.48457741756249106	-4.878155825707143e-25
-0.48451638240624106	-4.9270961925329365e-25
-0.48445534724999106	-4.935105102668855e-25
-0.48439431209374106	-4.902123907349671e-25
-0.48433327693749106	-4.828431360716435e-25
-0.48427224178124106	-4.714642205949985e-25
-0.48421120662499106	-4.561701793566577e-25
-0.48415017146874106	-4.370878471123723e-25
-0.48408913631249106	-4.143753526874642e-25
-0.48402810115624106	-3.8822079012896435e-25
-0.48396706599999106	-3.588407084339738e-25
-0.48390603084374106	-3.2647833079114825e-25
-0.48384499568749106	-2.9140156531663443e-25
-0.48378396053124106	-2.5390079321786573e-25
-0.48372292537499106	-2.1428649828473083e-25
-0.48366189021874106	-1.7288672101506083e-25
-0.48360085506249106	-1.3004433270102196e-25
-0.48353981990624106	-8.61142561007846e-26
-0.48347878474999106	-4.146051184610228e-26
-0.48341774959374106	3.54676775123761e-27
-0.48335671443749106	4.853438369863223e-26
-0.48329567928124106	9.312917852605371e-26
-0.48323464412499106	1.3696104851279288e-25
-0.48317360896874106	1.796660859758693e-25
-0.48311257381249106	2.208895028729564e-25
-0.48305153865624106	2.6028863496984006e-25
-0.48299050349999106	2.975357169773284e-25
-0.48292946834374106	3.3232062800647846e-25
-0.48286843318749106	3.6435346830758374e-25
-0.48280739803124106	3.933669296026323e-25
-0.48274636287499106	4.191185601309124e-25
-0.48268532771874106	4.413927153707373e-25
-0.48262429256249106	4.600024557943289e-25
-0.48256325740624106	4.747909698676905e-25
-0.48250222224999106	4.856330256825053e-25
-0.48244118709374106	4.924359277256042e-25
-0.48238015193749106	4.951403338362889e-25
-0.48231911678124106	4.937207865971239e-25
-0.48225808162499106	4.881858882198102e-25
-0.48219704646874106	4.785783293533584e-25
-0.48213601131249106	4.649744681631625e-25
-0.48207497615624106	4.474838041534471e-25
-0.48201394099999106	4.262480242459802e-25
-0.48195290584374106	4.014399140938627e-25
-0.48189187068749106	3.732618970233339e-25
-0.48183083553124106	3.419444112750037e-25
-0.48176980037499106	3.0774403146168017e-25
-0.48170876521874106	2.7094132858143644e-25
-0.48164773006249106	2.318386107429621e-25
-0.48158669490624106	1.907574010397339e-25
-0.48152565974999106	1.4803583881559307e-25
-0.48146462459374106	1.0402583649458373e-25
-0.48140358943749106	5.909023747773945e-26
-0.48134255428124106	1.3599808021369423e-26
-0.48128151912499106	-3.2069858809236395e-26
-0.48122048396874106	-7.754137720575928e-26
-0.48115944881249106	-1.2243873738684949e-25
-0.48109841365624106	-1.663904073372087e-25
-0.48103737849999106	-2.0903235964441223e-25
-0.48097634334374106	-2.5001116628784147e-25
-0.48091530818749106	-2.889868422126357e-25
-0.48085427303124106	-3.2563572428418234e-25
-0.48079323787499106	-3.596531422414232e-25
-0.48073220271874106	-3.907558950183871e-25
-0.48067116756249106	-4.186847307909186e-25
-0.48061013240624106	-4.432063497715575e-25
-0.48054909724999106	-4.641154783025059e-25
-0.48048806209374106	-4.812365144213939e-25
-0.48042702693749106	-4.94425007438512e-25
-0.48036599178124106	-5.035689102251499e-25
-0.48030495662499106	-5.085894562334131e-25
-0.48024392146874106	-5.094419256065338e-25
-0.48018288631249106	-5.061159296141552e-25
-0.48012185115624106	-4.986356173627344e-25
-0.48006081599999106	-4.870594327503267e-25
-0.47999978084374106	-4.714796699429671e-25
-0.47993874568749106	-4.520217600526352e-25
-0.47987771053124106	-4.288431998153183e-25
-0.47981667537499106	-4.0213232414331033e-25
-0.47975564021874106	-3.721067315886658e-25
-0.47969460506249106	-3.3901151052993005e-25
-0.47963356990624106	-3.03117252466958e-25
-0.47957253474999106	-2.6471778619001577e-25
-0.47951149959374106	-2.241278044379173e-25
-0.47945046443749106	-1.8168025471451728e-25
-0.47938942928124106	-1.3772356537527866e-25
-0.47932839412499106	-9.261886191528327e-26
-0.47926735896874106	-4.6736868776575515e-26
-0.47920632381249106	-4.54949702460387e-28
-0.47914528865624106	4.5846068565289205e-26
-0.47908425349999106	9.178503810405099e-26
-0.47902321834374106	1.3698358974848917e-25
-0.47896218318749106	1.810693720844746e-25
-0.47890114803124106	2.2367901560503143e-25
-0.47884011287499106	2.6446122927840476e-25
-0.47877907771874106	3.03079678465839e-25
-0.47871804256249106	3.392157812829491e-25
-0.47865700740624106	3.725713591056097e-25
-0.47859597224999106	4.0287110578972267e-25
-0.47853493709374106	4.298648879534598e-25
-0.47847390193749106	4.533298171827102e-25
-0.47841286678124106	4.730721267317886e-25
-0.47835183162499106	4.889287589358208e-25
-0.47829079646874106	5.007687669074658e-25
-0.47822976131249106	5.084943709998029e-25
-0.47816872615624106	5.1204182958399535e-25
-0.47810769099999106	5.113819408421023e-25
-0.47804665584374106	5.065203171448272e-25
-0.47798562068749106	4.974973689388447e-25
-0.47792458553124106	4.843879379918457e-25
-0.47786355037499106	4.673007483097954e-25
-0.47780251521874106	4.463774678906977e-25
-0.47774148006249106	4.217915800939672e-25
-0.47768044490624106	3.9374693820116705e-25
-0.47761940974999106	3.6247608914961317e-25
-0.47755837459374106	3.2823837255554044e-25
-0.47749733943749106	2.913177485865106e-25
-0.47743630428124106	2.520204760362716e-25
-0.47737526912499106	2.106725507591896e-25
-0.47731423396874106	1.6761706153327765e-25
-0.47725319881249106	1.2321126967089812e-25
-0.47719216365624106	7.782369515787768e-26
-0.47713112849999106	3.183108669614062e-26
-0.47707009334374106	-1.4384794915829348e-26
-0.47700905818749106	-6.0440235159869e-26
-0.47694802303124106	-1.0595285249088188e-25
-0.47688698787499106	-1.505447249589003e-25
-0.47682595271874106	-1.9384552066079194e-25
-0.47676491756249106	-2.354956232326158e-25
-0.47670388240624106	-2.7514910116852848e-25
-0.47664284724999106	-3.1247658582231766e-25
-0.47658181209374106	-3.471680100606649e-25
-0.47652077693749106	-3.7893524446845897e-25
-0.47645974178124106	-4.0751442262646098e-25
-0.47639870662499106	-4.326682168917824e-25
-0.47633767146874106	-4.541877766757105e-25
-0.47627663631249106	-4.718944939997079e-25
-0.47621560115624106	-4.856415195675984e-25
-0.47615456599999106	-4.953149465765821e-25
-0.47609353084374106	-5.0083483172841715e-25
-0.47603249568749106	-5.021558257878835e-25
-0.47597146053124106	-4.992675840730131e-25
-0.47591042537499106	-4.92194871826805e-25
-0.47584939021874106	-4.809973491158091e-25
-0.47578835506249106	-4.657691061028569e-25
-0.47572731990624106	-4.46637886081916e-25
-0.47566628474999106	-4.237640242789431e-25
-0.47560524959374106	-3.9733913599442155e-25
-0.47554421443749106	-3.675845234182369e-25
-0.47548317928124106	-3.347493392216005e-25
-0.47542214412499106	-2.9910852781646093e-25
-0.47536110896874106	-2.6096053958136517e-25
-0.47530007381249106	-2.2062482643616786e-25
-0.47523903865624106	-1.7843923787395454e-25
-0.47517800349999106	-1.3475714580767742e-25
-0.47511696834374106	-8.994454437896515e-26
-0.47505593318749106	-4.437700123171084e-26
-0.47499489803124106	1.5635385149712712e-27
-0.47493386287499106	4.7491813192040473e-26
-0.47487282771874106	9.30226107638548e-26
-0.47481179256249106	1.3777387030723047e-25
-0.47475075740624106	1.8136991266610035e-25
-0.47468972224999106	2.2344463384248517e-25
-0.47462868709374106	2.6364444852338923e-25
-0.47456765193749106	3.0163138751149398e-25
-0.47450661678124106	3.370858340863845e-25
-0.47444558162499106	3.697092326182202e-25
-0.47438454646874106	3.9922661137636886e-25
-0.47432351131249106	4.25388874423176e-25
-0.47426247615624106	4.479748897932475e-25
-0.47420144099999106	4.667933775580708e-25
-0.47414040584374106	4.816845056993424e-25
-0.47407937068749106	4.925212500100806e-25
-0.47401833553124106	4.9921047732776155e-25
-0.47395730037499106	5.016937182653995e-25
-0.47389626521874106	4.999477307051543e-25
-0.47383523006249106	4.939846355368295e-25
-0.47377419490624106	4.838519143093315e-25
-0.47371315974999106	4.6963197259860335e-25
-0.47365212459374106	4.514414974407329e-25
-0.47359108943749106	4.294305092870349e-25
-0.47353005428124106	4.0378108420822305e-25
-0.47346901912499106	3.7470591993306422e-25
-0.47340798396874106	3.424464952487454e-25
-0.47334694881249106	3.0727111763707164e-25
-0.47328591365624106	2.694726922443094e-25
-0.47322487849999106	2.293662536048205e-25
-0.47316384334374106	1.8728637405964725e-25
-0.47310280818749106	1.435843751946587e-25
-0.47304177303124106	9.862536143713594e-26
-0.47298073787499106	5.278522687037214e-26
-0.47291970271874106	6.447473358490507e-27
-0.47285866756249106	-3.999999177345056e-26
-0.47279763240624106	-8.61680399709791e-26
-0.47273659724999106	-1.3166969619655668e-25
-0.47267556209374106	-1.7612324153489657e-25
-0.47261452693749106	-2.1915551305871755e-25
-0.47255349178124106	-2.604050097790741e-25
-0.47249245662499106	-2.995248586126327e-25
-0.47243142146874106	-3.3618586472952838e-25
-0.47237038631249106	-3.7007912466880996e-25
-0.47230935115624106	-4.00918734748347e-25
-0.47224831599999106	-4.284441584653791e-25
