Time	Frequency
-0.5000352990312535	0.17161377969814728
-0.49997426387500354	0.19108583259791564
-0.49991322871875354	0.21024838353588357
-0.49985219356250354	0.22756049287636262
-0.49979115840625354	0.24437357785998232
-0.49973012325000354	0.2591587719191679
-0.49966908809375354	0.2732806928744753
-0.49960805293750354	0.28522431952345323
-0.49954701778125354	0.296369108125405
-0.49948598262500354	0.3052153955203716
-0.49942494746875354	0.31315880881089136
-0.49936391231250354	0.31871621243611764
-0.49930287715625354	0.32330042252522784
-0.49924184200000354	0.32544566596963753
-0.49918080684375354	0.3265825924892611
-0.49911977168750354	0.3252632710799249
-0.49905873653125354	0.32293647489730326
-0.49899770137500354	0.3181722106488033
-0.49893666621875354	0.31243729329460396
-0.49887563106250354	0.3043193946908917
-0.49881459590625354	0.29530291221557675
-0.49875356075000354	0.2839925387910706
-0.49869252559375354	0.27188943842514146
-0.49863149043750354	0.2576143274447637
-0.49857045528125354	0.24268396162017852
-0.49850942012500354	0.22573375461304737
-0.49844838496875354	0.2082945582220451
-0.49838734981250354	0.18901484656899467
-0.49832631465625354	0.16943778208359106
-0.49826527950000354	0.14822298104787948
-0.49820424434375354	0.1269238768338033
-0.49814320918750354	0.1042090697529471
-0.49808217403125354	0.0816400357644601
-0.49802113887500354	0.05789199446591017
-0.49796010371875354	0.03453203189114973
-0.49789906856250354	0.01023953199355149
-0.49783803340625354	-0.013415363499353265
-0.49777699825000354	-0.03775168768066349
-0.49771596309375354	-0.06119882721819698
-0.49765492793750354	-0.08507687170904156
-0.49759389278125354	-0.10781734432600766
-0.49753285762500354	-0.13074396830667379
-0.49747182246875354	-0.1522929904624042
-0.49741078731250354	-0.17379429552053033
-0.49734975215625354	-0.19369133027704158
-0.49728871700000354	-0.21332254261985376
-0.49722768184375354	-0.231140892107209
-0.49716664668750354	-0.24849563953351245
-0.49710561153125354	-0.26385137824161814
-0.49704457637500354	-0.27857018559958796
-0.49698354121875354	-0.291130191317356
-0.49692250606250354	-0.3029080289691142
-0.49686147090625354	-0.31239696583785825
-0.49680043575000354	-0.32098965120221395
-0.49673940059375354	-0.32719578325369436
-0.49667836543750354	-0.33242513527324674
-0.49661733028125354	-0.3352047924540569
-0.49655629512500354	-0.33696242965102574
-0.49649525996875354	-0.3362430911920757
-0.49643422481250354	-0.33449275654443433
-0.49637318965625354	-0.3302746433861308
-0.49631215450000354	-0.3250530548844581
-0.49625111934375354	-0.3174092133069451
-0.49619008418750354	-0.308825387162581
-0.49612904903125354	-0.2979002586725893
-0.49606801387500354	-0.2861333254224318
-0.49600697871875354	-0.272139822863737
-0.49594594356250354	-0.25743538978190217
-0.49588490840625354	-0.2406505512006795
-0.49582387325000354	-0.22331566964729133
-0.49576283809375354	-0.2040749702769097
-0.49570180293750354	-0.18447180714042152
-0.49564076778125354	-0.16316224716052946
-0.49557973262500354	-0.14170062974255207
-0.49551869746875354	-0.11875273283899809
-0.49545766231250354	-0.09588165986302341
-0.49539662715625354	-0.07176056861421387
-0.49533559200000354	-0.04795891574578302
-0.49527455684375354	-0.023154752535044506
-0.49521352168750354	0.0010786650882200445
-0.49515248653125354	0.02606098682200728
-0.49509145137500354	0.050217789510493785
-0.49503041621875354	0.07486905025312236
-0.49496938106250354	0.09844183536115186
-0.49490834590625354	0.12225911823868404
-0.49484731075000354	0.14475206262497534
-0.49478627559375354	0.16724922363102596
-0.49472524043750354	0.1881884114314658
-0.49466420528125354	0.2089062322696157
-0.49460317012500354	0.22784954243414585
-0.49454213496875354	0.24636532239487724
-0.49448109981250354	0.26291168036428386
-0.49442006465625354	0.27884807578040055
-0.49435902950000354	0.2926458559240578
-0.49429799434375354	0.3056788010582286
-0.49423695918750354	0.31643319630929173
-0.49417592403125354	0.3262986970570581
-0.49411488887500354	0.3337779278810998
-0.49405385371875354	0.34027763867359806
-0.49399281856250354	0.3443178433116337
-0.49393178340625354	0.3473232568872288
-0.49387074825000354	0.347831974114516
-0.49380971309375354	0.3472871757586935
-0.49374867793750354	0.34424534274509677
-0.49368764278125354	0.34016823969691945
-0.49362660762500354	0.33363065961718286
-0.49356557246875354	0.326112678970606
-0.49350453731250354	0.3162069444415322
-0.49344350215625354	0.30541119620276524
-0.49338246700000354	0.29233509482987186
-0.49332143184375354	0.27849302737189924
-0.49326039668750354	0.2625104766948535
-0.49319936153125354	0.24591711361989393
-0.49313832637500354	0.22735270850838776
-0.49307729121875354	0.208360543837304
-0.49301625606250354	0.1875928310119699
-0.49295522090625354	0.16660451084934152
-0.49289418575000354	0.14405814819529916
-0.49283315059375354	0.12151809706111825
-0.49277211543750354	0.09765499071446239
-0.49271108028125354	0.07404019553546068
-0.49265004512500354	0.049349903179474894
-0.49258900996875354	0.025159928711483304
-0.49252797481250354	0.00014943222769730176
-0.49246693965625354	-0.024103961272484743
-0.49240590450000354	-0.04892082519706604
-0.49234486934375354	-0.07272441875500679
-0.49228383418750354	-0.09683770108094386
-0.49222279903125354	-0.11968749945351069
-0.49216176387500354	-0.14260182648589997
-0.49210072871875354	-0.16401364797879148
-0.49203969356250354	-0.18525856920948564
-0.49197865840625354	-0.20477817408670473
-0.49191762325000354	-0.22391804840478347
-0.49185658809375354	-0.24113068572888383
-0.49179555293750354	-0.25777382153902934
-0.49173451778125354	-0.2723129298911735
-0.49167348262500354	-0.28611981996652514
-0.49161244746875354	-0.29767474274166345
-0.49155141231250354	-0.3083652352242967
-0.49149037715625354	-0.3166877804260464
-0.49142934200000354	-0.3240469659733436
-0.49136830684375354	-0.32895665864381296
-0.49130727168750354	-0.33283944507630636
-0.49124623653125354	-0.3342273539303809
-0.49118520137500354	-0.3345615593375783
-0.49112416621875354	-0.3323926425608805
-0.49106313106250354	-0.3291805651255198
-0.49100209590625354	-0.3234944633773538
-0.49094106075000354	-0.3168128906417384
-0.49088002559375354	-0.30772315461272487
-0.49081899043750354	-0.297721815976868
-0.49075795528125354	-0.28541357810146867
-0.49069692012500354	-0.27231205690770627
-0.49063588496875354	-0.25703820727491833
-0.49057484981250354	-0.24112138816102557
-0.49051381465625354	-0.22319732159210404
-0.49045277950000354	-0.20480946123813526
-0.49039174434375354	-0.1846064928872792
-0.49033070918750354	-0.1641440330655076
-0.49026967403125354	-0.14208166295598101
-0.49020863887500354	-0.11998494201415472
-0.49014760371875354	-0.09652205708776672
-0.49008656856250354	-0.07326610872340383
-0.49002553340625354	-0.048891380369993284
-0.48996449825000354	-0.024975959657926594
-0.48990346309375354	-0.0001975925459538099
-0.48984242793750354	0.023863314625500807
-0.48978139278125354	0.048528251807915354
-0.48972035762500354	0.0722172181070395
-0.48965932246875354	0.09625366508627688
-0.48959828731250354	0.11906071959989384
-0.48953725215625354	0.1419664573151748
-0.48947621700000354	0.16339980875762178
-0.48941518184375354	0.18469607147793346
-0.48935414668750354	0.20429248837055278
-0.48929311153125354	0.2235340320803659
-0.48923207637500354	0.24086861491779535
-0.48917104121875354	0.2576531509415771
-0.48911000606250354	0.2723483365496524
-0.48904897090625354	0.2863250289595386
-0.48898793575000354	0.2980585775611193
-0.48892690059375354	0.3089355002413876
-0.48886586543750354	0.3174473443422621
-0.48880483028125354	0.3249976794489673
-0.48874379512500354	0.33009547544005907
-0.48868275996875354	0.33416238010798394
-0.48862172481250354	0.3357256263985673
-0.48856068965625354	0.3362255968462025
-0.48849965450000354	0.3342082566094047
-0.48843861934375354	0.33113298102028316
-0.48837758418750354	0.3255645325687278
-0.48831654903125354	0.31898114567669844
-0.48825551387500354	0.3099660472221604
-0.48819447871875354	0.3000158021637358
-0.48813344356250354	0.2877313744448609
-0.48807240840625354	0.2746267465658277
-0.48801137325000354	0.25931952167934247
-0.48795033809375354	0.24333981484993444
-0.48788930293750354	0.225320410028785
-0.48782826778125354	0.2068059384344653
-0.48776723262500354	0.18644259636309382
-0.48770619746875354	0.165787583618052
-0.48764516231250354	0.14349845131013186
-0.48758412715625354	0.12114279477196577
-0.48752309200000354	0.09738717868869393
-0.48746205684375354	0.0738071905556413
-0.48740102168750354	0.04907592557351884
-0.48733998653125354	0.02477435906457245
-0.48727895137500354	-0.0004205302652688679
-0.48721791621875354	-0.024925055318687578
-0.48715688106250354	-0.0500611145359235
-0.48709584590625354	-0.0742450594998327
-0.48703481075000354	-0.09880040691218168
-0.48697377559375354	-0.12214632870718306
-0.48691274043750354	-0.14561068791124337
-0.48685170528125354	-0.1676181731440172
-0.48679067012500354	-0.18950363683596308
-0.48672963496875354	-0.2096998698296432
-0.48666859981250354	-0.22955123714805753
-0.48660756465625354	-0.2475010261002259
-0.48654652950000354	-0.2649054220922833
-0.48648549434375354	-0.28022042337882336
-0.48642445918750354	-0.2948160847300526
-0.48636342403125354	-0.3071630434052494
-0.48630238887500354	-0.3186470081822628
-0.48624135371875354	-0.32775486222814815
-0.48618031856250354	-0.3358894251790996
-0.48611928340625354	-0.3415551015841459
-0.48605824825000354	-0.3461729132262067
-0.48599721309375354	-0.3482656891523971
-0.48593617793750354	-0.34927336338551096
-0.48587514278125354	-0.3477377086783741
-0.48581410762500354	-0.34511788436613805
-0.48575307246875354	-0.33997471694265524
-0.48569203731250354	-0.3337865029726836
-0.48563100215625354	-0.325132832338381
-0.48556996700000354	-0.3155106441133234
-0.48550893184375354	-0.3035176046451291
-0.48544789668750354	-0.29066841034151186
-0.48538686153125354	-0.27557772498448624
-0.48532582637500354	-0.2597767436324289
-0.48526479121875354	-0.24189569385011245
-0.48520375606250354	-0.22348066231696415
-0.48514272090625354	-0.20317566066683596
-0.48508168575000354	-0.18253974959996247
-0.48502065059375354	-0.1602286640049902
-0.48495961543750354	-0.13781222988341152
-0.48489858028125354	-0.11395559660997778
-0.48483754512500354	-0.09023692595548363
-0.48477650996875354	-0.06532825729123895
-0.48471547481250354	-0.04081348331733565
-0.48465443965625354	-0.015368863474671252
-0.48459340450000354	0.009418698551095119
-0.48453236934375354	0.034871500120704856
-0.48447133418750354	0.059402421445796556
-0.48441029903125354	0.08433511321774985
-0.48434926387500354	0.10808502553038832
-0.48428822871875354	0.13197996481273233
-0.48422719356250354	0.15444068227263108
-0.48416615840625354	0.1768018304287764
-0.48410512325000354	0.1974921120716097
-0.48404408809375354	0.217855571132195
-0.48398305293750354	0.23633132717228103
-0.48392201778125354	0.25427518456934717
-0.48386098262500354	0.2701389239406019
-0.48379994746875354	0.28529222130714804
-0.48373891231250354	0.29820150772716336
-0.48367787715625354	0.3102521517943198
-0.48361684200000354	0.3199269051915403
-0.48355580684375354	0.3286283293481938
-0.48349477168750354	0.3348568203111649
-0.48343373653125354	0.34003326902357445
-0.48337270137500354	0.34267666262385416
-0.48331166621875354	0.34422698038914473
-0.48325063106250354	0.34322234896522325
-0.48318959590625354	0.3411221842787756
-0.48312856075000354	0.3364839036880992
-0.48306752559375354	0.33078629816915195
-0.48300649043750354	0.3226058108120775
-0.48294545528125354	0.31344013934590176
-0.48288442012500354	0.3018840773009724
-0.48282338496875354	0.2894533665195495
-0.48276234981250354	0.27476008564006404
-0.48270131465625354	0.2593367672750067
-0.48264027950000354	0.24181134344151567
-0.48257924434375354	0.22373153282253458
-0.48251820918750354	0.20373934171300084
-0.48245717403125354	0.18339574679374698
-0.48239613887500354	0.1613547577698697
-0.48233510371875354	0.13918838742103543
-0.48227406856250354	0.11556032713476141
-0.48221303340625354	0.09205117306129787
-0.48215199825000354	0.06733173602055835
-0.48209096309375354	0.0429885888514244
-0.48202992793750354	0.01769695595894359
-0.48196889278125354	-0.006953385713401221
-0.48190785762500354	-0.032285578913984966
-0.48184682246875354	-0.05670949324634925
-0.48178578731250354	-0.08154946728960984
-0.48172475215625354	-0.10521784101990242
-0.48166371700000354	-0.12904299017180465
-0.48160268184375354	-0.15144250153293815
-0.48154164668750354	-0.17375153005058203
-0.48148061153125354	-0.194395572339582
-0.48141957637500354	-0.21471917307037236
-0.48135854121875354	-0.23315826318168648
-0.48129750606250354	-0.2510691539586262
-0.48123647090625354	-0.26690049746293176
-0.48117543575000354	-0.28202255391426045
-0.48111440059375354	-0.2948987035761131
-0.48105336543750354	-0.30691501188797615
-0.48099233028125354	-0.3165513007809482
-0.48093129512500354	-0.325210972263982
-0.48087025996875354	-0.3313916468030165
-0.48080922481250354	-0.33651522720692584
-0.48074818965625354	-0.3390981041326737
-0.48068715450000354	-0.3405814645135504
-0.48062611934375354	-0.339501040616604
-0.48056508418750354	-0.3373176704850846
-0.48050404903125354	-0.33258659061211754
-0.48044301387500354	-0.3267882401263165
-0.48038197871875354	-0.31849710453934593
-0.48032094356250354	-0.3092127593284706
-0.48025990840625354	-0.29752826902872526
-0.48019887325000354	-0.28496147521070425
-0.48013783809375354	-0.27012295127293434
-0.48007680293750354	-0.25454754609976565
-0.48001576778125354	-0.23686190465012086
-0.47995473262500354	-0.2186162515078643
-0.47989369746875354	-0.19845150472637524
-0.47983266231250354	-0.17793133430225702
-0.47977162715625354	-0.15570882683084888
-0.47971059200000354	-0.13335883565082
-0.47964955684375354	-0.10954427954197216
-0.47958852168750354	-0.08584872325449591
-0.47952748653125354	-0.060942313002124
-0.47946645137500354	-0.036414663543761466
-0.47940541621875354	-0.010940428198245672
-0.47934438106250354	0.013887515012887689
-0.47928334590625354	0.03939288387296256
-0.47922231075000354	0.06398238193963032
-0.47916127559375354	0.08898094838320927
-0.47910024043750354	0.1127978023352955
-0.47903920528125354	0.1367619281586509
-0.47897817012500354	0.1592878691440505
-0.47891713496875354	0.18171147634014967
-0.47885609981250354	0.20245530227756545
-0.47879506465625354	0.22286470035385855
-0.47873402950000354	0.24137278702802042
-0.47867299434375354	0.25933684369813614
-0.47861195918750354	0.27520287620686673
-0.47855092403125354	0.2903422871490188
-0.47848988887500354	0.30321600742050697
-0.47842885371875354	0.3152114454449349
-0.47836781856250354	0.3248062006395926
-0.47830678340625354	0.33340523197292293
-0.47824574825000354	0.33950416898612906
-0.47818471309375354	0.34452671185344524
-0.47812367793750354	0.3469875010067252
-0.47806264278125354	0.3483297598011126
-0.47800160762500354	0.34708772021189593
-0.47794057246875354	0.34472449431609054
-0.47787953731250354	0.33979406253665173
-0.47781850215625354	0.33377937260445995
-0.47775746700000354	0.32525388485263934
-0.47769643184375354	0.3157199041645872
-0.47763539668750354	0.3037696825272438
-0.47757436153125354	0.2909239970564289
-0.47751332637500354	0.27579280213066176
-0.47745229121875354	0.2599140524842547
-0.47739125606250354	0.2419139283832012
-0.47733022090625354	0.2233459256952408
-0.47726918575000354	0.2028506218426245
-0.47720815059375354	0.18199505065655927
-0.47714711543750354	0.15943207064009787
-0.47708608028125354	0.13673997425504691
-0.47702504512500354	0.11258147794599015
-0.47696400996875354	0.08854363769029736
-0.47690297481250354	0.0632964061664446
-0.47684193965625354	0.03843286643748017
-0.47678090450000354	0.012627453433895269
-0.47671986934375354	-0.012523552070509363
-0.47665883418750354	-0.03834413316320426
-0.47659779903125354	-0.06323772618269055
-0.47653676387500354	-0.08852964112586599
-0.47647572871875354	-0.11262594984025501
-0.47641469356250354	-0.1368561811553162
-0.47635365840625354	-0.15963189554629306
-0.47629262325000354	-0.1822896843739061
-0.47623158809375354	-0.20324933874613157
-0.47617055293750354	-0.2238571555157642
-0.47610951778125354	-0.2425437241333951
-0.47604848262500354	-0.2606675271865871
-0.47598744746875354	-0.27667229884506295
-0.47592641231250354	-0.29193091056369264
-0.47586537715625354	-0.3049022874979312
-0.47580434200000354	-0.3169755937470296
-0.47574330684375354	-0.32662669852635473
-0.47568227168750354	-0.3352625983124683
-0.47562123653125354	-0.34137748621520264
-0.47556020137500354	-0.34639736593453047
-0.47549916621875354	-0.34883572811476027
-0.47543813106250354	-0.3501383666034627
-0.47537709590625354	-0.34883862711043945
-0.47531606075000354	-0.3464024431892636
-0.47525502559375354	-0.34138315368772765
-0.47519399043750354	-0.33526675167476117
-0.47513295528125354	-0.3266262731382572
-0.47507192012500354	-0.3169672653378067
-0.47501088496875354	-0.30488173698556675
-0.47494984981250354	-0.29189386255094935
-0.47488881465625354	-0.27661349792299433
-0.47482777950000354	-0.2605821115836873
-0.47476674434375354	-0.2424258904956862
-0.47470570918750354	-0.22370189545245403
-0.47464467403125354	-0.20305078260558085
-0.47458363887500354	-0.1820431706050485
-0.47452260371875354	-0.1593319853529621
-0.47446156856250354	-0.13649908271237451
-0.47440053340625354	-0.11220720214517295
-0.47433949825000354	-0.0880468801313433
-0.47427846309375354	-0.06268798885143607
-0.47421742793750354	-0.037726986669853184
-0.47415639278125354	-0.011838048549699711
-0.47409535762500354	0.013379325814514913
-0.47403432246875354	0.039249576437927244
-0.47397328731250354	0.06417313474612875
-0.47391225215625354	0.08947601104616992
-0.47385121700000354	0.11356152302695643
-0.47379018184375354	0.13776016925720092
-0.47372914668750354	0.16048106877028434
-0.47366811153125354	0.18306204523766312
-0.47360707637500354	0.20392078756385432
-0.47354604121875354	0.224405146489178
-0.47348500606250354	0.24294394512875445
-0.47342397090625354	0.26089756602754444
-0.47336293575000354	0.27670830475776936
-0.47330190059375354	0.29175127769164705
-0.47324086543750354	0.30448433551068843
-0.47317983028125354	0.31629921718693854
-0.47311879512500354	0.32567106018874714
-0.47305775996875354	0.33400977138976895
-0.47299672481250354	0.33980912028614335
-0.47293568965625354	0.34449834669491525
-0.47287465450000354	0.3465908093654704
-0.47281361934375354	0.347535821626828
-0.47275258418750354	0.3458668602091202
-0.47269154903125354	0.3430536225879146
-0.47263051387500354	0.3376498053316765
-0.47256947871875354	0.3311453637573541
-0.47250844356250354	0.322113870906154
-0.47244740840625354	0.3120649807105857
-0.47238637325000354	0.29959136718971774
-0.47232533809375354	0.2862214076692814
-0.47226430293750354	0.27056568031446887
-0.47220326778125354	0.25416989983385085
-0.47214223262500354	0.23566097697163713
-0.47208119746875354	0.21660019905357533
-0.47202016231250354	0.1956288753763796
-0.47195912715625354	0.17432176333919913
-0.47189809200000354	0.1513323327352534
-0.47183705684375354	0.12824642296801855
-0.47177602168750354	0.10372712246263387
-0.47171498653125354	0.07936875692385303
-0.47165395137500354	0.05384129694819277
-0.47159291621875354	0.028744712936200578
-0.47153188106250354	0.002753008119004948
-0.47147084590625354	-0.022531144133536955
-0.47140981075000354	-0.04843269138974205
-0.47134877559375354	-0.07334927369006801
-0.47128774043750354	-0.09860776223426666
-0.47122670528125354	-0.12260909521039506
-0.47116567012500354	-0.14668507619751478
-0.47110463496875354	-0.16924283642887372
-0.47104359981250354	-0.19162197234594583
-0.47098256465625354	-0.2122386171806664
-0.47092152950000354	-0.23244284999043713
-0.47086049434375354	-0.25066240852126975
-0.47079945918750354	-0.26826034128178183
-0.47073842403125354	-0.2836783263721928
-0.47067738887500354	-0.298294587853679
-0.47061635371875354	-0.3105668056347991
-0.47055531856250354	-0.32189024619919854
-0.47049428340625354	-0.330740297931599
