Time	Frequency
-0.500050306343752	0.1893209401156933
-0.499989271187502	0.2079628550636228
-0.499928236031252	0.22625343931339612
-0.499867200875002	0.24275029470554169
-0.499806165718752	0.2587165813821671
-0.499745130562502	0.272722254748172
-0.499684095406252	0.2860422134927591
-0.499623060250002	0.2972604012701392
-0.499562025093752	0.30766496806597365
-0.499500989937502	0.3158552240693108
-0.499439954781252	0.3231338078500558
-0.499378919625002	0.32811648127134674
-0.499317884468752	0.33212129948188174
-0.499256849312502	0.3337812409417481
-0.499195814156252	0.33443038451051504
-0.499134779000002	0.3327193664529512
-0.499073743843752	0.32999854806023476
-0.499012708687502	0.3249363252243014
-0.498951673531252	0.31889926438467076
-0.498890638375002	0.31057326872591423
-0.498829603218752	0.30134069804462116
-0.498768568062502	0.2899043732441434
-0.498707532906252	0.2776616913869387
-0.498646497750002	0.2633314795800335
-0.498585462593752	0.24832510123417761
-0.498524427437502	0.23137616528298188
-0.498463392281252	0.21390863008546077
-0.498402357125002	0.1946693716104826
-0.498341321968752	0.17509330480526317
-0.498280286812502	0.15393881977844764
-0.498219251656252	0.13264989157498144
-0.498158216500002	0.10999444088506893
-0.498097181343752	0.08742343352723944
-0.498036146187502	0.06371214863446449
-0.497975111031252	0.040316305829889536
-0.497914075875002	0.01601623254754137
-0.497853040718752	-0.007729944834866147
-0.497792005562502	-0.032139231748376296
-0.497730970406252	-0.055753530618397946
-0.497669935250002	-0.07978961592363826
-0.497608900093752	-0.10279183840520718
-0.497547864937502	-0.12597917605421735
-0.497486829781252	-0.14790084469079287
-0.497425794625002	-0.16978039067094258
-0.497364759468752	-0.19017421285289543
-0.497303724312502	-0.21031269425269697
-0.497242689156252	-0.2287616202181641
-0.497181654000002	-0.24676032908708137
-0.497120618843752	-0.26288600848398097
-0.497059583687502	-0.2783888775832299
-0.496998548531252	-0.2918593457191088
-0.496937513375002	-0.30456020063373795
-0.496876478218752	-0.31509662871109917
-0.496815443062502	-0.3247454172750824
-0.496754407906252	-0.33212780784706164
-0.496693372750002	-0.338535707666315
-0.496632337593752	-0.34260739628217124
-0.496571302437502	-0.34565070288652816
-0.496510267281252	-0.34632158374478217
-0.496449232125002	-0.34594426773543224
-0.496388196968752	-0.3431926846286913
-0.496327161812502	-0.3394075900300758
-0.496266126656252	-0.33328083805810854
-0.496205091500002	-0.32616948716724525
-0.496144056343752	-0.31678291910809175
-0.496083021187502	-0.3064939278335848
-0.496021986031252	-0.2940286838902302
-0.495960950875002	-0.2807748118938058
-0.495899915718752	-0.26547421330083776
-0.495838880562502	-0.24952811955732082
-0.495777845406252	-0.2316927902819797
-0.495716810250002	-0.21338156544357564
-0.495655775093752	-0.19336341282493588
-0.495594739937502	-0.17306199524255658
-0.495533704781252	-0.15125710922822613
-0.495472669625002	-0.12938074576531886
-0.495411634468752	-0.10622142403428
-0.495350599312502	-0.08321728004071342
-0.495289564156252	-0.05916329737634882
-0.495228529000002	-0.03550142804376962
-0.495167493843752	-0.011030741164060172
-0.495106458687502	0.012805415883466486
-0.495045423531252	0.037206341881286464
-0.494984388375002	0.06072975144894405
-0.494923353218752	0.08457579932281008
-0.494862318062502	0.10730571841085625
-0.494801282906252	0.130122941719246
-0.494740247750002	0.1515946530931691
-0.494679212593752	0.17292992683883943
-0.494618177437502	0.19270418168166328
-0.494557142281252	0.2121343810529414
-0.494496107125002	0.22980634348019421
-0.494435071968752	0.2469469683071289
-0.494374036812502	0.2621544370901364
-0.494313001656252	0.27666744072053456
-0.494251966500002	0.28909824336647155
-0.494190931343752	0.30069891888279293
-0.494129896187502	0.31009728189562674
-0.494068861031252	0.3185600936117785
-0.494007825875002	0.32473186873364224
-0.493946790718752	0.3298950620948589
-0.493885755562502	0.3327117191566004
-0.493824720406252	0.3344806497451879
-0.493763685250002	0.33388192367328606
-0.493702650093752	0.33223102431678636
-0.493641614937502	0.3282261836591321
-0.493580579781252	0.32319952379210387
-0.493519544625002	0.3158672236985644
-0.493458509468752	0.30757765369158035
-0.493397474312502	0.2970643738930419
-0.493336439156252	0.2856912672824309
-0.493275404000002	0.2722083718895419
-0.493214368843752	0.2579940124829216
-0.493153333687502	0.24181347969294206
-0.493092298531252	0.2250581586397406
-0.493031263375002	0.20650707103150914
-0.492970228218752	0.18756300768890932
-0.492909193062502	0.1670169268212708
-0.492848157906252	0.14628110086385354
-0.492787122750002	0.1241564217517075
-0.492726087593752	0.10206252637368181
-0.492665052437502	0.07880801332351482
-0.492604017281252	0.05581760483959521
-0.492542982125002	0.03190525745403358
-0.492481946968752	0.00849836232063651
-0.492420911812502	-0.015586223003426927
-0.492359876656252	-0.03892090995180909
-0.492298841500002	-0.0626884333280173
-0.492237806343752	-0.08546351889324752
-0.492176771187502	-0.10843099082734282
-0.492115736031252	-0.13017035820567174
-0.492054700875002	-0.1518709707923247
-0.491993665718752	-0.17211950670676673
-0.491932630562502	-0.1921121917108991
-0.491871595406252	-0.21044513977394522
-0.491810560250002	-0.22832360968724386
-0.491749525093752	-0.24435525638413777
-0.491688489937502	-0.25975636694057236
-0.491627454781252	-0.2731479817765971
-0.491566419625002	-0.2857591769270189
-0.491505384468752	-0.29622599923219595
-0.491444349312502	-0.305791768660752
-0.491383314156252	-0.3131088712630365
-0.491322279000002	-0.3194360400752797
-0.491261243843752	-0.3234430028030815
-0.491200208687502	-0.32640474346028875
-0.491139173531252	-0.32700899830262564
-0.491078138375002	-0.32654749901171864
-0.491017103218752	-0.3237263035006379
-0.490956068062502	-0.3198540215278152
-0.490895032906252	-0.31365499274554764
-0.490833997750002	-0.30645447980209495
-0.490772962593752	-0.29699469752639757
-0.490711927437502	-0.2866169822473428
-0.490650892281252	-0.27408066832671296
-0.490589857125002	-0.2607422394285136
-0.490528821968752	-0.24537705922582637
-0.490467786812502	-0.22935550644021474
-0.490406751656252	-0.21146756462611832
-0.490345716500002	-0.1930959584764728
-0.490284681343752	-0.17304359664637903
-0.490223646187502	-0.15270372947295485
-0.490162611031252	-0.1308902440251378
-0.490101575875002	-0.1090048613156391
-0.490040540718752	-0.08587029157067746
-0.489979505562502	-0.06289447355705056
-0.489918470406252	-0.03890662521321839
-0.489857435250002	-0.015318510026134564
-0.489796400093752	0.009036598592592008
-0.489735364937502	0.03274560555126072
-0.489674329781252	0.056973697146507477
-0.489613294625002	0.08030896412234279
-0.489552259468752	0.10391760098306176
-0.489491224312502	0.1263914254809547
-0.489430189156252	0.1489001357282392
-0.489369154000002	0.17004173563671288
-0.489308118843752	0.19099186107945523
-0.489247083687502	0.21035706971620063
-0.489186048531252	0.2293212079540186
-0.489125013375002	0.2465016021195733
-0.489063978218752	0.2630924149706257
-0.489002943062502	0.2777237386156795
-0.488941907906252	0.29160194662573646
-0.488880872750002	0.30337164773003855
-0.488819837593752	0.31425304725964964
-0.488758802437502	0.32290675095964894
-0.488697767281252	0.3305681245487013
-0.488636732125002	0.3359149311429205
-0.488575696968752	0.3401986966269458
-0.488514661812502	0.3421151816358478
-0.488453626656252	0.3429327239059946
-0.488392591500002	0.3413655565479564
-0.488331556343752	0.33869913174291405
-0.488270521187502	0.3336662676147139
-0.488209486031252	0.32756946254543284
-0.488148450875002	0.31915987060546885
-0.488087415718752	0.30975660185581516
-0.488026380562502	0.29812853222912966
-0.487965345406252	0.2856105992027381
-0.487904310250002	0.27098843776654863
-0.487843275093752	0.2556116744233031
-0.487782239937502	0.23828142021347604
-0.487721204781252	0.2203605434914844
-0.487660169625002	0.2006640319486109
-0.487599134468752	0.1805662569138107
-0.487538099312502	0.15889421644227286
-0.487477064156252	0.13703180112858793
-0.487416029000002	0.11381590863928255
-0.487354993843752	0.09063774930851276
-0.487293958687502	0.06634183069196342
-0.487232923531252	0.04232431000113673
-0.487171888375002	0.017434862758473776
-0.487110853218752	-0.006927893658402066
-0.487049818062502	-0.03191163923657152
-0.486988782906252	-0.05611786618240455
-0.486927747750002	-0.08069418156750394
-0.486866712593752	-0.10424475911300678
-0.486805677437502	-0.12791969595054423
-0.486744642281252	-0.15032839128909653
-0.486683607125002	-0.17262592851702807
-0.486622571968752	-0.19342937998676468
-0.486561536812502	-0.2139012093488904
-0.486500501656252	-0.2326684546210626
-0.486439466500002	-0.25090319666231425
-0.486378431343752	-0.2672445644579116
-0.486317396187502	-0.2828762568116759
-0.486256361031252	-0.2964513918795541
-0.486195325875002	-0.30916704231323877
-0.486134290718752	-0.31969194279012375
-0.486073255562502	-0.32923801212810055
-0.486012220406252	-0.3364909145437567
-0.485951185250002	-0.34267857372841193
-0.485890150093752	-0.3465045688322138
-0.485829114937502	-0.34921363824692353
-0.485768079781252	-0.3495279097577721
-0.485707044625002	-0.34870938956943703
-0.485646009468752	-0.34549902185921033
-0.485584974312502	-0.3411761630979639
-0.485523939156252	-0.3345004695303062
-0.485462904000002	-0.32676835731561377
-0.485401868843752	-0.316757720452371
-0.485340833687502	-0.30578138229444163
-0.485279798531252	-0.29263463868162415
-0.485218763375002	-0.27864570219831636
-0.485157728218752	-0.2626261001242852
-0.485096693062502	-0.24591809713652837
-0.485035657906252	-0.22734794063113595
-0.484974622750002	-0.20827030197010257
-0.484913587593752	-0.18752436415674764
-0.484852552437502	-0.1664752767298722
-0.484791517281252	-0.14397312455380257
-0.484730482125002	-0.12139138230725276
-0.484669446968752	-0.09758877081451021
-0.484608411812502	-0.07394475817949515
-0.484547376656252	-0.04932427627110912
-0.484486341500002	-0.02511030213581933
-0.484425306343752	-0.00017145339019172297
-0.484364271187502	0.02410837015726293
-0.484303236031252	0.04885945978813422
-0.484242200875002	0.07269959551024231
-0.484181165718752	0.09676059861290283
-0.484120130562502	0.11966451391078674
-0.484059095406252	0.14254725532948245
-0.483998060250002	0.16403766885137067
-0.483937025093752	0.18527821917735066
-0.483875989937502	0.20490695063404754
-0.483814954781252	0.2240752042698143
-0.483753919625002	0.24143245117030585
-0.483692884468752	0.2581410310611769
-0.483631849312502	0.27286385539657576
-0.483570814156252	0.28677614001424157
-0.483509779000002	0.29855598500171815
-0.483448743843752	0.30939309758719613
-0.483387708687502	0.31798221186276576
-0.483326673531252	0.3255288160494432
-0.483265638375002	0.3307454049529594
-0.483204603218752	0.33485420149108447
-0.483143568062502	0.33658623752039146
-0.483082532906252	0.3371810572381556
-0.483021497750002	0.33538863627058624
-0.482960462593752	0.3324660635382926
-0.482899427437502	0.32718228663137583
-0.482838392281252	0.3208117789058557
-0.482777357125002	0.3121421149086419
-0.482716321968752	0.3024646186086256
-0.482655286812502	0.29058477356297685
-0.482594251656252	0.2778098537940754
-0.482533216500002	0.2629621813499306
-0.482472181343752	0.24736373150306326
-0.482411146187502	0.22985226179911966
-0.482350111031252	0.21176288267198085
-0.482289075875002	0.191947061004709
-0.482228040718752	0.17175120568689736
-0.482167005562502	0.1500384931208353
-0.482105970406252	0.12816452905202713
-0.482044935250002	0.10500199469551642
-0.481983900093752	0.08191336206386347
-0.481922864937502	0.05777842478170724
-0.481861829781252	0.033964046936092535
-0.481800794625002	0.009354608696348356
-0.481739759468752	-0.01468122084787814
-0.481678724312502	-0.03925711340322436
-0.481617689156252	-0.06300520665995504
-0.481556654000002	-0.08703986536369496
-0.481495618843752	-0.10999670541938417
-0.481434583687502	-0.13299337684204754
-0.481373548531252	-0.1546715578042243
-0.481312513375002	-0.1761547492693885
-0.481251478218752	-0.19609314846675727
-0.481190443062502	-0.21561850634163485
-0.481129407906252	-0.23339187249029186
-0.481068372750002	-0.25055547137915024
-0.481007337593752	-0.26578330513277476
-0.480946302437502	-0.28023006910965087
-0.480885267281252	-0.29258458400352333
-0.480824232125002	-0.3040157257084134
-0.480763196968752	-0.3132287075286745
-0.480702161812502	-0.32140800342339737
-0.480641126656252	-0.32727646071544847
-0.480580091500002	-0.3320352269847345
-0.480519056343752	-0.33442568067393247
-0.480458021187502	-0.3356663590438607
-0.480396986031252	-0.3345176997177027
-0.480335950875002	-0.33221596694809913
-0.480274915718752	-0.3275408074580135
-0.480213880562502	-0.3217461679579016
-0.480152845406252	-0.3136306666945332
-0.480091810250002	-0.3044655076253749
-0.480030775093752	-0.2930676643309807
-0.479969739937502	-0.2807247970551173
-0.479908704781252	-0.2662712518940822
-0.479847669625002	-0.25100998260747526
-0.479786634468752	-0.2337913816758604
-0.479725599312502	-0.21593220059363627
-0.479664564156252	-0.19629722665854535
-0.479603529000002	-0.17621520970058072
-0.479542493843752	-0.1545633936968209
-0.479481458687502	-0.13268046436702002
-0.479420423531252	-0.10945394578209629
-0.479359388375002	-0.08623015089662706
-0.479298353218752	-0.06190450599085044
-0.479237318062502	-0.037828492752159874
-0.479176282906252	-0.012902893582521459
-0.479115247750002	0.011518234960990319
-0.479054212593752	0.03653139154433274
-0.478993177437502	0.06078260268245604
-0.478932142281252	0.08536834406439177
-0.478871107125002	0.10893739772804932
-0.478810071968752	0.132588891494049
-0.478749036812502	0.15497700770343528
-0.478688001656252	0.1772061270294427
-0.478626966500002	0.19793839240504135
-0.478565931343752	0.21828590643284285
-0.478504896187502	0.2369211928640144
-0.478443861031252	0.25496637557803503
-0.478382825875002	0.2711065587754818
-0.478321790718752	0.2864760033160988
-0.478260755562502	0.29977433326611647
-0.478199720406252	0.3121497704090686
-0.478138685250002	0.3223181511865147
-0.478077650093752	0.33144317198238826
-0.478016614937502	0.3382582373881338
-0.477955579781252	0.3439437073945449
-0.477894544625002	0.34725156124608597
-0.477833509468752	0.34937964574252617
-0.477772474312502	0.3490991571105112
-0.477711439156252	0.3476258732122745
-0.477650404000002	0.3437504594307861
-0.477589368843752	0.33870668446899194
-0.477528333687502	0.3313045451036761
-0.477467298531252	0.3227954693668426
-0.477406263375002	0.31200826040277974
-0.477345228218752	0.30021129047579354
-0.477284193062502	0.2862512682367271
-0.477223157906252	0.2714124204620079
-0.477162122750002	0.254558100985112
-0.477101087593752	0.236986959747506
-0.477040052437502	0.2175774016238842
-0.476979017281252	0.19764075460325042
-0.476917982125002	0.17606856523316167
-0.476856946968752	0.15418280987653227
-0.476795911812502	0.13088603090482284
-0.476734876656252	0.10750857658037405
-0.476673841500002	0.08296160111306199
-0.476612806343752	0.058581365307337915
-0.476551771187502	0.03328509927867675
-0.476490736031252	0.008412360937679523
-0.476429700875002	-0.01711619133383913
-0.476368665718752	-0.041960400914050434
-0.476307630562502	-0.06719891654290096
-0.476246595406252	-0.09149368070411348
-0.476185560250002	-0.11592536222718594
-0.476124525093752	-0.13916073303913087
-0.476063489937502	-0.16228513892068924
-0.476002454781252	-0.1839727797548825
-0.475941419625002	-0.20531625273332438
-0.475880384468752	-0.22499966263152085
-0.475819349312502	-0.24412524089544105
-0.475758314156252	-0.2613893033107001
-0.475697279000002	-0.27790588467338234
-0.475636243843752	-0.2923855684214338
-0.475575208687502	-0.30595611387161054
-0.475514173531252	-0.3173441463052362
-0.475453138375002	-0.3276927708898684
-0.475392103218752	-0.3357461042388837
-0.475331068062502	-0.34266388767880435
-0.475270032906252	-0.347208841376451
-0.475208997750002	-0.35055826137730023
-0.475147962593752	-0.3514942044583641
-0.475086927437502	-0.3512120684377472
-0.475025892281252	-0.3485135936443362
-0.474964857125002	-0.3446124278705813
-0.474903821968752	-0.3383299465395417
-0.474842786812502	-0.33089779997130936
-0.474781751656252	-0.3211565509032558
-0.474720716500002	-0.3103552180358007
-0.474659681343752	-0.29735271771902533
-0.474598646187502	-0.2834144139792763
-0.474537611031252	-0.267416381651223
-0.474476575875002	-0.25063894816526994
-0.474415540718752	-0.23197380359985492
-0.474354505562502	-0.21271452884162848
-0.474293470406252	-0.1917665623261296
-0.474232435250002	-0.17043474768586045
-0.474171400093752	-0.14763613809617637
-0.474110364937502	-0.1246845693241814
-0.474049329781252	-0.10050634882594672
-0.473988294625002	-0.07642185288327354
-0.473927259468752	-0.051364088820070326
-0.473866224312502	-0.026657352488743558
-0.473805189156252	-0.0012386830228051384
-0.473744154000002	0.023566421995611805
-0.473683118843752	0.048819647778341364
-0.473622083687502	0.07319704372143175
-0.473561048531252	0.09776178203025773
-0.473500013375002	0.12119421472053958
-0.473438978218752	0.14456171106345503
-0.473377943062502	0.16655160474886135
-0.473316907906252	0.18823807623402428
-0.473255872750002	0.20831798417060812
-0.473194837593752	0.2278747969972351
-0.473133802437502	0.2456172475642983
-0.473072767281252	0.262640341609123
-0.473011732125002	0.2776668420240863
-0.472950696968752	0.29180527510566406
-0.472889661812502	0.3037942847193021
-0.472828626656252	0.31475763587920524
-0.472767591500002	0.3234513848824417
-0.472706556343752	0.33101589935459785
-0.472645521187502	0.3362258439338189
-0.472584486031252	0.3402391954667235
-0.472523450875002	0.3418500419364761
-0.472462415718752	0.34223458702638465
-0.472401380562502	0.3402067718219437
-0.472340345406252	0.3369612492203686
-0.472279310250002	0.3313318325329686
-0.472218275093752	0.3245314465126812
-0.472157239937502	0.3154133959530713
-0.472096204781252	0.30520829998490395
-0.472035169625002	0.2927881760510659
-0.471974134468752	0.27940037054697575
-0.471913099312502	0.26393446184010955
-0.471852064156252	0.2476531870777517
-0.471791029000002	0.2294621699808809
-0.471729993843752	0.21063786505306598
-0.471668958687502	0.19010011015270167
-0.471607923531252	0.16913708730544483
-0.471546888375002	0.14668072918019026
-0.471485853218752	0.12402870832516953
-0.471424818062502	0.10012267639869593
-0.471363782906252	0.07626732867705277
-0.471302747750002	0.05141149748957481
-0.471241712593752	0.026864255569558983
-0.471180677437502	0.0015789342415180579
-0.471119642281252	-0.023133772096086275
-0.471058607125002	-0.0483188135024571
-0.470997571968752	-0.07266664323801121
-0.470936536812502	-0.09722331684447462
-0.470875501656252	-0.12068321414367296
-0.470814466500002	-0.14409625767773906
-0.470753431343752	-0.16616349823904128
-0.470692396187502	-0.18794138226205445
-0.470631361031252	-0.20814022688472306
-0.470570325875002	-0.22782553602585473
-0.470509290718752	-0.24571932600991434
-0.470448255562502	-0.2628984672258822
-0.470387220406252	-0.27809886485993085
-0.470326185250002	-0.29241083741395435
-0.470265150093752	-0.30458609517011953
-0.470204114937502	-0.31573017252615965
-0.470143079781252	-0.32461219991330015
-0.470082044625002	-0.33235435106051797
-0.470021009468752	-0.33774443815161154
-0.469959974312502	-0.34192234824394563
-0.469898939156252	-0.3436954530086862
-0.469837904000002	-0.3442220324377198
-0.469776868843752	-0.34232950059040995
-0.469715833687502	-0.3391948117223566
-0.469654798531252	-0.3336654970732831
-0.469593763375002	-0.326937054066523
-0.469532728218752	-0.31787679961828685
-0.469471693062502	-0.30769823423618753
-0.469410657906252	-0.2952877225299919
-0.469349622750002	-0.2818758395922162
-0.469288587593752	-0.26636686790985553
-0.469227552437502	-0.2500071460304529
-0.469166517281252	-0.23171738765637262
-0.469105482125002	-0.212758030326459
-0.469044446968752	-0.19206439412304005
-0.468983411812502	-0.17090904532061205
