Time	Frequency
-0.5000463502187529	-0.3107962048126931
-0.4999853150625029	-0.3339110692772847
-0.4999242799062529	-0.35408377593004153
-0.4998632447500029	-0.37113908165395765
-0.4998022095937529	-0.38492895750309275
-0.4997411744375029	-0.3953338235344166
-0.4996801392812529	-0.40226362905270496
-0.4996191041250029	-0.40565865542438634
-0.4995580689687529	-0.4054900198045056
-0.4994970338125029	-0.4017599550983367
-0.4994359986562529	-0.39450181274112867
-0.4993749635000029	-0.38377973970158713
-0.4993139283437529	-0.3696881844531419
-0.4992528931875029	-0.35235103895756514
-0.4991918580312529	-0.3319205834523364
-0.4991308228750029	-0.30857618713131857
-0.4990697877187529	-0.28252270729074463
-0.4990087525625029	-0.25398875598310405
-0.4989477174062529	-0.22322467993852899
-0.4988866822500029	-0.19050040236949065
-0.4988256470937529	-0.156103066432398
-0.4987646119375029	-0.12033451547698351
-0.4987035767812529	-0.0835086981662751
-0.4986425416250029	-0.04594890720915693
-0.4985815064687529	-0.007984946424140583
-0.4985204713125029	0.030049718843212603
-0.4984594361562529	0.0678209170694477
-0.4983984010000029	0.10499662650253838
-0.4983373658437529	0.1412499489038576
-0.4982763306875029	0.1762619507826568
-0.4982152955312529	0.20972440554039132
-0.4981542603750029	0.24134259212938375
-0.4980932252187529	0.2708377615520791
-0.4980321900625029	0.29794968877240136
-0.4979711549062529	0.32243891130801106
-0.4979101197500029	0.34408881836403665
-0.4978490845937529	0.36270759811754516
-0.4977880494375029	0.378129894981263
-0.4977270142812529	0.3902183094824381
-0.4976659791250029	0.39886455599130466
-0.4976049439687529	0.4039905019801327
-0.4975439088125029	0.40554880815282085
-0.4974828736562529	0.40352338079647804
-0.4974218385000029	0.39792955121807877
-0.4973608033437529	0.38881391731707854
-0.4972997681875029	0.37625400090725947
-0.4972387330312529	0.36035754480252047
-0.4971776978750029	0.3412616232750413
-0.4971166627187529	0.3191314370203339
-0.4970556275625029	0.294158893054991
-0.4969945924062529	0.2665609488038528
-0.4969335572500029	0.23657769207778062
-0.4968725220937529	0.20447031098350063
-0.4968114869375029	0.17051877634363236
-0.4967504517812529	0.1350194292046636
-0.4966894166250029	0.09828235888695279
-0.4966283814687529	0.06062872738087754
-0.4965673463125029	0.022387990335572573
-0.4965063111562529	-0.016105064077021395
-0.4964452760000029	-0.05451314921428286
-0.4963842408437529	-0.09249950663376683
-0.4963232056875029	-0.1297308167742028
-0.4962621705312529	-0.16588011912702105
-0.4962011353750029	-0.20062970157834034
-0.4961401002187529	-0.23367386080341687
-0.4960790650625029	-0.26472162861495807
-0.4960180299062529	-0.2934992708295004
-0.4959569947500029	-0.31975274862537284
-0.4958959595937529	-0.34324993835151707
-0.4958349244375029	-0.36378266713732893
-0.4957738892812529	-0.38116855674918393
-0.4957128541250029	-0.39525266238983764
-0.4956518189687529	-0.4059088018055877
-0.4955907838125029	-0.41304072913727063
-0.4955297486562529	-0.41658295974374066
-0.4954687135000029	-0.4165013617112466
-0.4954076783437529	-0.4127935354320278
-0.4953466431875029	-0.40548874977470273
-0.4952856080312529	-0.394647821487546
-0.4952245728750029	-0.3803625076099452
-0.4951635377187529	-0.3627547726564856
-0.4951025025625029	-0.3419757406709718
-0.4950414674062529	-0.3182043475786281
-0.4949804322500029	-0.29164585376210955
-0.4949193970937529	-0.262529983638035
-0.4948583619375029	-0.231109016634557
-0.4947973267812529	-0.19765551708886056
-0.4947362916250029	-0.16245998774597373
-0.4946752564687529	-0.12582835877064055
-0.4946142213125029	-0.08807926148842245
-0.4945531861562529	-0.0495412871299441
-0.4944921510000029	-0.010550106853383595
-0.4944311158437529	0.028554482206960625
-0.4943700806875029	0.06743152797705475
-0.4943090455312529	0.10574186387093185
-0.4942480103750029	0.14315119868579074
-0.4941869752187529	0.17933289341119726
-0.4941259400625029	0.2139709593469509
-0.4940649049062529	0.2467627963859556
-0.4940038697500029	0.27742174728890295
-0.4939428345937529	0.3056798485537776
-0.4938817994375029	0.33128991895717363
-0.4938207642812529	0.354027962911867
-0.4937597291250029	0.3736950144124014
-0.4936986939687529	0.39011890240176184
-0.4936376588125029	0.4031558875037809
-0.4935766236562529	0.41269173830656614
-0.4935155885000029	0.4186429616948834
-0.4934545533437529	0.42095737258724114
-0.4933935181875029	0.4196146697779532
-0.4933324830312529	0.414626601322904
-0.4932714478750029	0.4060368337815947
-0.4932104127187529	0.3939206681914421
-0.4931493775625029	0.3783842814908763
-0.4930883424062529	0.35956391719000724
-0.4930273072500029	0.3376246042102211
-0.4929662720937529	0.31275878672182095
-0.4929052369375029	0.2851846166231105
-0.4928442017812529	0.25514401473866055
-0.4927831666250029	0.2229006482798842
-0.4927221314687529	0.1887374918243286
-0.4926610963125029	0.15295445642195302
-0.4926000611562529	0.11586569564782832
-0.4925390260000029	0.07779686768010137
-0.4924779908437529	0.039082306570095295
-0.4924169556875029	6.199086880041446e-05
-0.4923559205312529	-0.038921321438016306
-0.4922948853750029	-0.07752520414195789
-0.4922338502187529	-0.11541054145614879
-0.4921728150625029	-0.1522444964712553
-0.4921117799062529	-0.18770348526950545
-0.4920507447500029	-0.22147598623081868
-0.4919897095937529	-0.2532653272205546
-0.4919286744375029	-0.2827922517747412
-0.4918676392812529	-0.3097974527154481
-0.4918066041250029	-0.3340437959487671
-0.4917455689687529	-0.355318459526254
-0.4916845338125029	-0.37343482154847696
-0.4916234986562529	-0.3882340535515359
-0.4915624635000029	-0.39958662956024565
-0.4915014283437529	-0.4073933649615192
-0.4914403931875029	-0.4115863981811922
-0.4913793580312529	-0.4121297456014043
-0.4913183228750029	-0.409019625747517
-0.4912572877187529	-0.40228455394118195
-0.4911962525625029	-0.3919850238438818
-0.4911352174062529	-0.37821306970237745
-0.4910741822500029	-0.3610913881346416
-0.4910131470937529	-0.3407723137514469
-0.4909521119375029	-0.3174364667057389
-0.4908910767812529	-0.2912911643247421
-0.4908300416250029	-0.2625686168004141
-0.4907690064687529	-0.23152384494098563
-0.4907079713125029	-0.19843248535757307
-0.4906469361562529	-0.1635883248946991
-0.4905859010000029	-0.12730073870756659
-0.4905248658437529	-0.08989190436240131
-0.4904638306875029	-0.05169404837076706
-0.4904027955312529	-0.013046438994927745
-0.4903417603750029	0.02570761922118888
-0.4902807252187529	0.06422371127467222
-0.4902196900625029	0.10215952068133215
-0.4901586549062529	0.13917772671578263
-0.4900976197500029	0.17494905843898872
-0.4900365845937529	0.20915518379108922
-0.4899755494375029	0.24149154488002295
-0.4899145142812529	0.2716700813943724
-0.4898534791250029	0.2994217114669618
-0.4897924439687529	0.32449884162813497
-0.4897314088125029	0.3466774421518057
-0.4896703736562529	0.36575914249250824
-0.4896093385000029	0.3815729589799612
-0.4895483033437529	0.39397680616738007
-0.4894872681875029	0.402858807297629
-0.4894262330312529	0.40813826684520677
-0.4893651978750029	0.4097664430537488
-0.4893041627187529	0.4077269331732118
-0.4892431275625029	0.4020359135222668
-0.4891820924062529	0.39274194241101024
-0.4891210572500029	0.3799255943158219
-0.4890600220937529	0.36369875204803503
-0.4889989869375029	0.34420360606781886
-0.4889379517812529	0.3216114641241555
-0.4888769166250029	0.2961211937038214
-0.4888158814687529	0.26795751908119714
-0.4887548463125029	0.2373690107199242
-0.4886938111562529	0.20462592493935355
-0.4886327760000029	0.17001780494280422
-0.4885717408437529	0.1338509213932659
-0.4885107056875029	0.09644557119958314
-0.4884496705312529	0.05813327229349369
-0.4883886353750029	0.019253783998156183
-0.4883276002187529	-0.0198478696828294
-0.4882665650625029	-0.05882443915528572
-0.4882055299062529	-0.09732959699616563
-0.4881444947500029	-0.13502089674715953
-0.4880834595937529	-0.17156292176803933
-0.4880224244375029	-0.20663022082041588
-0.4879613892812529	-0.23991015849798453
-0.4879003541250029	-0.2711057556147276
-0.4878393189687529	-0.29993833433923034
-0.4877782838125029	-0.3261499229278306
-0.4877172486562529	-0.3495056458685033
-0.4876562135000029	-0.3697958008870226
-0.4875951783437529	-0.3868376621953037
-0.4875341431875029	-0.40047724601951973
-0.4874731080312529	-0.41059055533220223
-0.4874120728750029	-0.417084815422932
-0.4873510377187529	-0.4198992561473859
-0.4872900025625029	-0.4190056566197707
-0.4872289674062529	-0.4144086868439387
-0.4871679322500029	-0.40614579938335216
-0.4871068970937529	-0.39428699344255036
-0.4870458619375029	-0.37893416519161804
-0.4869848267812529	-0.3602202413154378
-0.4869237916250029	-0.3383080350879761
-0.4868627564687529	-0.31338877935709253
-0.4868017213125029	-0.28568050534411826
-0.4867406861562529	-0.2554260744283454
-0.4866796510000029	-0.22289105648454985
-0.4866186158437529	-0.188361410972667
-0.4865575806875029	-0.1521409240902775
-0.4864965455312529	-0.11454855728838127
-0.4864355103750029	-0.07591560201410447
-0.4863744752187529	-0.03658278324841631
-0.4863134400625029	0.003102805825005472
-0.4862524049062529	0.042790741938931294
-0.4861913697500029	0.082130387705414
-0.4861303345937529	0.1207739933542894
-0.4860692994375029	0.15837981984328495
-0.4860082642812529	0.19461513288952276
-0.4859472291250029	0.2291591541389051
-0.4858861939687529	0.2617059905806894
-0.4858251588125029	0.29196723002013125
-0.4857641236562529	0.3196746428226876
-0.4857030885000029	0.34458247459269487
-0.4856420533437529	0.3664696758426954
-0.4855810181875029	0.38514189512663916
-0.4855199830312529	0.400433168696275
-0.4854589478750029	0.4122074778320288
-0.4853979127187529	0.4203598719789255
-0.4853368775625029	0.4248175265016733
-0.4852758424062529	0.4255403172919479
-0.4852148072500029	0.42252122629456856
-0.4851537720937529	0.4157864439669843
-0.4850927369375029	0.40539508227925086
-0.4850317017812529	0.39143875027047764
-0.4849706666250029	0.3740406723625347
-0.4849096314687529	0.35335467006546856
-0.4848485963125029	0.3295637733448885
-0.4847875611562529	0.30287860577024567
-0.4847265260000029	0.27353556139082963
-0.4846654908437529	0.24179464399295264
-0.4846044556875029	0.20793723337064562
-0.4845434205312529	0.17226357922259983
-0.4844823853750029	0.13509007700818204
-0.4844213502187529	0.09674652941703196
-0.4843603150625029	0.05757322776029532
-0.4842992799062529	0.017917818686991792
-0.4842382447500029	-0.021867627200024584
-0.4841772095937529	-0.06142988901877941
-0.4841161744375029	-0.10041766767535001
-0.4840551392812529	-0.13848468112968354
-0.4839941041250029	-0.17529289472240406
-0.4839330689687529	-0.21051531126479783
-0.4838720338125029	-0.24383910887096497
-0.4838109986562529	-0.274968289641553
-0.4837499635000029	-0.3036263506551841
-0.4836889283437529	-0.329558833342983
-0.4836278931875029	-0.352535446528654
-0.4835668580312529	-0.37235229882908555
-0.4835058228750029	-0.3888335921828557
-0.4834447877187529	-0.40183326005220354
-0.4833837525625029	-0.4112362913133525
-0.4833227174062529	-0.4169597038482059
-0.4832616822500029	-0.4189533723231853
-0.4832006470937529	-0.41720042867237833
-0.4831396119375029	-0.41171745476181
-0.4830785767812529	-0.40255433292130627
-0.4830175416250029	-0.38979381650360595
-0.4829565064687529	-0.37355079988126255
-0.4828954713125029	-0.3539713094119704
-0.4828344361562529	-0.3312311974253396
-0.4827734010000029	-0.3055345948852303
-0.4827123658437529	-0.2771121053224592
-0.4826513306875029	-0.2462187147868595
-0.4825902955312529	-0.2131315723480047
-0.4825292603750029	-0.17814748316785228
-0.4824682252187529	-0.14158029765068675
-0.4824071900625029	-0.10375806052189272
-0.4823461549062529	-0.06502013849138792
-0.4822851197500029	-0.025714153040000565
-0.4822240845937529	0.013807119696639229
-0.4821630494375029	0.05318886225308214
-0.4821020142812529	0.09207748666081468
-0.4820409791250029	0.1301236700163885
-0.4819799439687529	0.16698560753014438
-0.4819189088125029	0.20233196925059807
-0.4818578736562529	0.23584495108912518
-0.4817968385000029	0.2672230920033512
-0.4817358033437529	0.2961839373801386
-0.4816747681875029	0.3224667037504466
-0.4816137330312529	0.3458344513733891
-0.4815526978750029	0.3660763743066147
-0.4814916627187529	0.3830096058562939
-0.4814306275625029	0.3964809049976226
-0.4813695924062529	0.4063680376255614
-0.4813085572500029	0.41258087799979487
-0.4812475220937529	0.415062267169884
-0.4811864869375029	0.4137884804077223
-0.4811254517812529	0.4087695269382241
-0.4810644166250029	0.40004901304778484
-0.4810033814687529	0.3877038231072183
-0.4809423463125029	0.3718434052623925
-0.4808813111562529	0.352608837311646
-0.4808202760000029	0.3301715626031682
-0.4807592408437529	0.3047318632918826
-0.4806982056875029	0.2765171149234133
-0.4806371705312529	0.24577970188707265
-0.4805761353750029	0.2127948496974588
-0.4805151002187529	0.17785806363650966
-0.4804540650625029	0.1412825959032289
-0.4803930299062529	0.10339659600751068
-0.4803319947500029	0.06454011351387967
-0.4802709595937529	0.025062234112397365
-0.4802099244375029	-0.014682294394886233
-0.4801488892812529	-0.05433601683836128
-0.4800878541250029	-0.09354210211120854
-0.4800268189687529	-0.13194754090938793
-0.4799657838125029	-0.1692062391963288
-0.4799047486562529	-0.20498224706809498
-0.4798437135000029	-0.23895262615400284
-0.4797826783437529	-0.2708105500958334
-0.4797216431875029	-0.30026785272337886
-0.4796606080312529	-0.3270578299641543
-0.4795995728750029	-0.35093750558806436
-0.4795385377187529	-0.37168985973372004
-0.4794775025625029	-0.38912588429419015
-0.4794164674062529	-0.4030861205252529
-0.4793554322500029	-0.413442316120097
-0.4792943970937529	-0.4200984077128674
-0.4792333619375029	-0.42299154993967214
-0.4791723267812529	-0.42209260932003756
-0.4791112916250029	-0.4174064796565681
-0.4790502564687529	-0.4089720871743134
-0.4789892213125029	-0.39686198848751697
-0.4789281861562529	-0.3811818441964123
-0.4788671510000029	-0.3620693755480165
-0.4788061158437529	-0.3396932566919416
-0.4787450806875029	-0.31425154866272925
-0.4786840455312529	-0.28596994334799536
-0.4786230103750029	-0.2550998265692584
-0.4785619752187529	-0.22191590654110038
-0.4785009400625029	-0.18671391393509876
-0.4784399049062529	-0.1498078314226381
-0.4783788697500029	-0.1115271203620017
-0.4783178345937529	-0.07221388373105891
-0.4782567994375029	-0.03221956187611485
-0.4781957642812529	0.008097961368583479
-0.4781347291250029	0.04837772266690317
-0.4780736939687529	0.0882589330455721
-0.4780126588125029	0.1273840682015002
-0.4779516236562529	0.1654022781825403
-0.4778905885000029	0.2019723965862782
-0.4778295533437529	0.23676607782831555
-0.4777685181875029	0.2694707459038528
-0.4777074830312529	0.2997923962991745
-0.4776464478750029	0.32745828254122894
-0.4775854127187529	0.35221932250687726
-0.4775243775625029	0.3738524217856997
-0.4774633424062529	0.39216242818758834
-0.4774023072500029	0.406983945862541
-0.4773412720937529	0.4181828220535551
-0.4772802369375029	0.4256573484879709
-0.4772192017812529	0.4293392549066564
-0.4771581666250029	0.42919425211628
-0.4770971314687529	0.42522244327338804
-0.4770360963125029	0.4174582860090399
-0.4769750611562529	0.4059703078701367
-0.4769140260000029	0.3908605447064864
-0.4768529908437529	0.37226357363116686
-0.4767919556875029	0.35034537659417875
-0.4767309205312529	0.3253018427684949
-0.4766698853750029	0.2973569913672444
-0.4766088502187529	0.2667610237040927
-0.4765478150625029	0.23378804458601082
-0.4764867799062529	0.1987335778231736
-0.4764257447500029	0.16191203724306613
-0.4763647095937529	0.12365371346777632
-0.4763036744375029	0.08430199416806408
-0.4762426392812529	0.044210173491915264
-0.4761816041250029	0.003738243695955922
-0.4761205689687529	-0.03675016729574805
-0.4760595338125029	-0.07689137303656235
-0.4759984986562529	-0.11632455072594242
-0.4759374635000029	-0.15469528134834162
-0.4758764283437529	-0.19165862545139614
-0.4758153931875029	-0.22688216921199833
-0.4757543580312529	-0.2600492428203921
-0.4756933228750029	-0.29086147672391904
-0.4756322877187529	-0.319041819354771
-0.4755712525625029	-0.34433677972560894
-0.4755102174062529	-0.36651888744919714
-0.4754491822500029	-0.38538870059205443
-0.4753881470937529	-0.40077657022708424
-0.4753271119375029	-0.41254430876372244
-0.4752660767812529	-0.420586268613755
-0.4752050416250029	-0.4248305139866259
-0.4751440064687529	-0.42523927343996
-0.4750829713125029	-0.4218094749258655
-0.4750219361562529	-0.4145726745517702
-0.4749609010000029	-0.4035948019281278
-0.4748998658437529	-0.388975644603578
-0.4748388306875029	-0.37084783637314755
-0.4747777955312529	-0.349375814019953
-0.4747167603750029	-0.32475420957482626
-0.4746557252187529	-0.2972061989523816
-0.4745946900625029	-0.26698145036407434
-0.4745336549062529	-0.2343538742034312
-0.4744726197500029	-0.19961918137614956
-0.4744115845937529	-0.1630921873659702
-0.4743505494375029	-0.1251040021417077
-0.4742895142812529	-0.08599900501708212
-0.4742284791250029	-0.04613176602438002
-0.4741674439687529	-0.005863817804796315
-0.4741064088125029	0.03443958666662474
-0.4740453736562529	0.07441282124522948
-0.4739843385000029	0.1136931519363603
-0.4739233033437529	0.15192403347464428
-0.4738622681875029	0.18875839314584214
-0.4738012330312529	0.2238616815721468
-0.4737401978750029	0.25691498808136215
-0.4736791627187529	0.28761791217022
-0.4736181275625029	0.3156912671529157
-0.4735570924062529	0.3408796811851146
-0.4734960572500029	0.362953838039504
-0.4734350220937529	0.3817126259774724
-0.4733739869375029	0.39698498236023183
-0.4733129517812529	0.408631388471934
-0.4732519166250029	0.4165452380088868
-0.4731908814687529	0.4206537403655871
-0.4731298463125029	0.42091864420974107
-0.4730688111562529	0.41733659009989177
-0.4730077760000029	0.4099391305737863
-0.4729467408437529	0.39879251662258364
-0.4728857056875029	0.3839970395653655
-0.4728246705312529	0.3656862119650423
-0.4727636353750029	0.3440255165529729
-0.4727026002187529	0.31921093460101885
-0.4726415650625029	0.29146721702689943
-0.4725805299062529	0.26104580048045073
-0.4725194947500029	0.22822257911377655
-0.4724584595937529	0.19329540614010554
-0.4723974244375029	0.1565813824319851
-0.4723363892812529	0.11841403146605586
-0.4722753541250029	0.07914020858051989
-0.4722143189687529	0.03911701825546291
-0.4721532838125029	-0.0012914106599732542
-0.4720922486562529	-0.041717347605280626
-0.4720312135000029	-0.08179259637600801
-0.4719701783437529	-0.12115203063851648
-0.4719091431875029	-0.15943684632022687
-0.4718481080312529	-0.1962977221926442
-0.4717870728750029	-0.2313982139643784
-0.4717260377187529	-0.2644175813253857
-0.4716650025625029	-0.29505391121060587
-0.4716039674062529	-0.3230267302160359
-0.4715429322500029	-0.3480796252615636
-0.4714818970937529	-0.3699826395001084
-0.4714208619375029	-0.3885342117388931
-0.4713598267812529	-0.4035632734854363
-0.4712987916250029	-0.41493054524164824
-0.4712377564687529	-0.4225300500590016
-0.4711767213125029	-0.4262899817805533
-0.4711156861562529	-0.4261733637755753
-0.4710546510000029	-0.422178520164822
-0.4709936158437529	-0.4143389383864586
-0.4709325806875029	-0.40272318048215855
-0.4708715455312529	-0.3874341050133766
-0.4708105103750029	-0.36860807619153363
-0.4707494752187529	-0.3464136920451784
-0.4706884400625029	-0.3210502589860734
-0.4706274049062529	-0.29274605649237684
-0.4705663697500029	-0.2617561796782741
-0.4705053345937529	-0.22836037301702727
-0.4704442994375029	-0.19286036147534302
-0.4703832642812529	-0.1555772091451699
-0.4703222291250029	-0.1168484073396635
-0.4702611939687529	-0.07702473098890109
-0.4702001588125029	-0.03646720748574589
-0.4701391236562529	0.004456331432732773
-0.4700780885000029	0.045374463119916726
-0.4700170533437529	0.08591559317686684
-0.4699560181875029	0.12571137550680872
-0.4698949830312529	0.16439996813681684
-0.4698339478750029	0.20162946552944963
-0.4697729127187529	0.2370609463717027
-0.4697118775625029	0.2703717032348966
-0.4696508424062529	0.30125811383110285
