Time	Frequency
-0.5000262263124995	0.12937961080021548
-0.4999651911562495	0.10793047712716812
-0.4999041559999995	0.08530319072684556
-0.4998431208437495	0.06283996408681514
-0.4997820856874995	0.03942773855459984
-0.4997210505312495	0.01641290737852051
-0.4996600153749995	-0.007314768777870145
-0.4995989802187495	-0.030407088003157896
-0.4995379450624995	-0.053973871389675084
-0.4994769099062495	-0.07666751357275685
-0.4994158747499995	-0.09959983197330044
-0.4993548395937495	-0.1214262041904258
-0.4992938044374995	-0.1432628193540122
-0.4992327692812495	-0.16377038294412435
-0.4991717341249995	-0.1840717451264453
-0.4991106989687495	-0.2028351592354265
-0.4990496638124995	-0.22119229897981704
-0.4989886286562495	-0.23782105706009743
-0.4989275934999995	-0.25386391198161296
-0.4988665583437495	-0.2680102788282177
-0.4988055231874995	-0.2814152065956164
-0.4987444880312495	-0.29278129273351566
-0.4986834528749995	-0.30327768481436185
-0.4986224177187495	-0.3116215389297444
-0.4985613825624995	-0.31899735064345797
-0.4985003474062495	-0.3241379228142825
-0.4984393122499995	-0.3282440348749091
-0.4983782770937495	-0.3300649139345027
-0.4983172419374995	-0.33081822924031573
-0.4982562067812495	-0.32927007577187356
-0.4981951716249995	-0.32665528412716033
-0.4981341364687495	-0.32175691663471434
-0.4980731013124995	-0.3158268901284734
-0.4980120661562495	-0.3076649894682634
-0.4979510309999995	-0.2985398009482325
-0.4978899958437495	-0.2872672449956998
-0.4978289606874995	-0.27513182514662526
-0.4977679255312495	-0.26096468504958314
-0.4977068903749995	-0.2460651645036473
-0.4976458552187495	-0.22927840614564624
-0.4975848200624995	-0.21191722096076093
-0.4975237849062495	-0.19283922913141444
-0.4974627497499995	-0.17336906952014214
-0.4974017145937495	-0.15237506706274856
-0.4973406794374995	-0.13119180858645402
-0.4972796442812495	-0.10869633270476729
-0.4972186091249995	-0.08623108231765335
-0.4971575739687495	-0.0626796457648268
-0.4970965388124995	-0.03939006634907235
-0.4970355036562495	-0.015250176081776177
-0.4969744684999995	0.008388731975997658
-0.4969134333437495	0.03263699445361001
-0.4968523981874995	0.05614249405447994
-0.4967913630312495	0.08001617368968696
-0.4967303278749995	0.10290754464094991
-0.4966692927187495	0.12593058209473937
-0.4966082575624995	0.14773883884749264
-0.4965472224062495	0.16945172190681554
-0.4964861872499995	0.18972913984574144
-0.4964251520937495	0.20969819729908193
-0.4963641169374995	0.22802738756375215
-0.4963030817812495	0.24585361678621162
-0.4962420466249995	0.26185600743844645
-0.4961810114687495	0.27718320305816685
-0.4961199763124995	0.2905267467610932
-0.4960589411562495	0.30304873339482014
-0.4959979059999995	0.3134546989550503
-0.4959368708437495	0.32292160429501654
-0.4958758356874995	0.33017026688262235
-0.4958148005312495	0.3363936458949933
-0.4957537653749995	0.34032880942748234
-0.4956927302187495	0.3431855276622032
-0.4956316950624995	0.3437177598916277
-0.4955706599062495	0.34315256068718464
-0.4955096247499995	0.3402610799314065
-0.4954485895937495	0.3362877794812207
-0.4953875544374995	0.33002095150612154
-0.4953265192812495	0.3227222361092412
-0.4952654841249995	0.3131966685989498
-0.4952044489687495	0.30272249613510205
-0.4951434138124995	0.2901207500730545
-0.4950823786562495	0.27668537979526725
-0.4950213434999995	0.2612523426865019
-0.4949603083437495	0.24513006605504944
-0.4948992731874995	0.2271680525412868
-0.4948382380312495	0.2086876887496409
-0.4947772028749995	0.18855037906011504
-0.4947161677187495	0.168088674594759
-0.4946551325624995	0.14617398540110438
-0.4945940974062495	0.12414802049011545
-0.4945330622499995	0.10089008725206638
-0.4944720270937495	0.07774886402605763
-0.4944109919374995	0.053609274623413666
-0.4943499567812495	0.029824635171250845
-0.4942889216249995	0.005283096271194949
-0.4942278864687495	-0.018659822185005327
-0.4941668513124995	-0.04311520327273489
-0.4941058161562495	-0.06672779774717237
-0.4940447809999995	-0.09061040381252788
-0.4939837458437495	-0.11341051341941676
-0.4939227106874995	-0.13624509332308607
-0.4938616755312495	-0.1577667976186349
-0.4938006403749995	-0.1790991241753958
-0.4937396052187495	-0.1989022037350646
-0.4936785700624995	-0.21830831019182725
-0.4936175349062495	-0.23598721450563914
-0.4935564997499995	-0.25308203112372685
-0.4934954645937495	-0.2682741350095358
-0.4934344294374995	-0.28271933736270627
-0.4933733942812495	-0.2951123487003628
-0.4933123591249995	-0.3066232695003201
-0.4932513239687495	-0.3159616088233978
-0.4931902888124995	-0.3243130670234193
-0.4931292536562495	-0.33040310232799364
-0.4930682184999995	-0.3354340176152694
-0.4930071833437495	-0.33814805167035666
-0.4929461481874995	-0.3397647723151184
-0.4928851130312495	-0.33904368567146537
-0.4928240778749995	-0.3372219370757777
-0.4927630427187495	-0.3330764370008839
-0.4927020075624995	-0.32786186576609594
-0.4926409724062495	-0.32037231759518736
-0.4925799372499995	-0.3118796113234431
-0.4925189020937495	-0.30119444986405225
-0.4924578669374995	-0.28960504434892165
-0.4923968317812495	-0.27593779473981833
-0.4923357966249995	-0.26149622893241725
-0.4922747614687495	-0.24512120264042286
-0.4922137263124995	-0.2281301695773186
-0.4921526911562495	-0.2093769132394811
-0.4920916559999995	-0.19019113228019338
-0.4920306208437495	-0.16943774020321736
-0.4919695856874995	-0.1484567686758073
-0.4919085505312495	-0.1261222062753338
-0.4918475153749995	-0.10378229209825586
-0.4917864802187495	-0.08031788551783989
-0.4917254450624995	-0.057083110657697285
-0.4916644099062495	-0.032963338729782445
-0.4916033747499995	-0.009316163661774523
-0.4915423395937495	0.014971006792233768
-0.4914813044374995	0.03853959655779475
-0.4914202692812495	0.06250266360100018
-0.4913592341249995	0.0855031678800401
-0.4912981989687495	0.10865714611705946
-0.4912371638124995	0.13061156705273158
-0.4911761286562495	0.15248788788241238
-0.4911150934999995	0.17293949870236897
-0.4910540583437495	0.193095621697202
-0.4909930231874995	0.2116183334247895
-0.4909319880312495	0.22964680322599432
-0.4908709528749995	0.24585389108555605
-0.4908099177187495	0.26139070877881615
-0.4907488825624995	0.2749427684019789
-0.4906878474062495	0.2876748688026438
-0.4906268122499995	0.29828679309767464
-0.4905657770937495	0.3079584971787436
-0.4905047419374995	0.3154053599954716
-0.4904437067812495	0.32182366089597053
-0.4903826716249995	0.3259453725771346
-0.4903216364687495	0.32898393462682307
-0.4902606013124995	0.32968857881083136
-0.4901995661562495	0.32929038950604483
-0.4901385309999995	0.32655616409567106
-0.4900774958437495	0.32273476103760196
-0.4900164606874995	0.3166104901165373
-0.4899554255312495	0.30944974667535136
-0.4898943903749995	0.300053942376895
-0.4898333552187495	0.2897064183641522
-0.4897723200624995	0.27722491589864123
-0.4897112849062495	0.26390878957951985
-0.4896502497499995	0.2485910048479682
-0.4895892145937495	0.232585664427603
-0.4895281794374995	0.21473953466329895
-0.4894671442812495	0.19637990434162367
-0.4894061091249995	0.17636564460478563
-0.4893450739687495	0.15603537203986748
-0.4892840388124995	0.13425810650899347
-0.4892230036562495	0.11238175162423202
-0.4891619684999995	0.08928327991676861
-0.4891009333437495	0.06631761838203407
-0.4890398981874995	0.04236737011204875
-0.4889788630312495	0.01879207057457097
-0.4889178278749995	-0.005522491745194474
-0.4888567927187495	-0.02921469408712977
-0.4887957575624995	-0.05339808732250788
-0.4887347224062495	-0.07671148333350197
-0.4886736872499995	-0.10027034239223657
-0.4886126520937495	-0.12271644713503264
-0.4885516169374995	-0.1451696686690291
-0.4884905817812495	-0.1662772483566118
-0.4884295466249995	-0.18716588698654668
-0.4883685114687495	-0.2064906569515708
-0.4883074763124995	-0.22538738538775718
-0.4882464411562495	-0.2425211679885266
-0.4881854059999995	-0.2590390832949978
-0.4881243708437495	-0.27361824876052915
-0.4880633356874995	-0.28741887250730935
-0.4880023005312495	-0.29913184873245086
-0.4879412653749995	-0.309932142712628
-0.4878802302187495	-0.31852589807487836
-0.4878191950624995	-0.326104147035342
-0.4877581599062495	-0.33138944560461303
-0.4876971247499995	-0.3355898905165752
-0.4876360895937495	-0.3374452750177992
-0.4875750544374995	-0.33818139895088783
-0.4875140192812495	-0.33655576233657886
-0.4874529841249995	-0.3338121567683901
-0.4873919489687495	-0.3287258884471343
-0.4873309138124995	-0.32255865850139015
-0.4872698786562495	-0.3141033152871991
-0.4872088434999995	-0.30463902115229197
-0.4871478083437495	-0.2929755384294619
-0.4870867731874995	-0.28040868523268975
-0.4870257380312495	-0.2657641565643186
-0.4869647028749995	-0.2503532832367408
-0.4869036677187495	-0.23301638436332622
-0.4868426325624995	-0.21507883487024593
-0.4867815974062495	-0.19539396528685124
-0.4867205622499995	-0.17529944108975917
-0.4866595270937495	-0.15365971848387455
-0.4865984919374995	-0.13182274971040087
-0.4865374567812495	-0.10866199587049243
-0.4864764216249995	-0.08553347495278725
-0.4864153864687495	-0.0613173483134903
-0.4863543513124995	-0.03737531312229127
-0.4862933161562495	-0.012591779791314468
-0.4862322809999995	0.011668377987080748
-0.4861712458437495	0.036519050071761906
-0.4861102106874995	0.06059474883123444
-0.4860491755312495	0.08501024882615642
-0.4859881403749995	0.10840204236435186
-0.4859271052187495	0.1318883412130074
-0.4858660700624995	0.15411017912421407
-0.4858050349062495	0.17619171392878516
-0.4857439997499995	0.19678095394793152
-0.4856829645937495	0.21701039888460683
-0.4856219294374995	0.23553735082252084
-0.4855608942812495	0.25350487306169917
-0.4854998591249995	0.26958166592852156
-0.4854388239687495	0.28492337429065073
-0.4853777888124995	0.2982119961743197
-0.4853167536562495	0.3106174867963433
-0.4852557184999995	0.3208367694025478
-0.4851946833437495	0.33005558068568663
-0.4851336481874995	0.3369870611807445
-0.4850726130312495	0.3428338763809535
-0.4850115778749995	0.34632635532484546
-0.4849505427187495	0.34868489357477717
-0.4848895075624995	0.34865762219610713
-0.4848284724062495	0.34748310193997767
-0.4847674372499995	0.343927516685956
-0.4847064020937495	0.33924765419396347
-0.4846453669374995	0.33222762830047753
-0.4845843317812495	0.32414214251324314
-0.4845232966249995	0.31379274448212063
-0.4844622614687495	0.3024713782316056
-0.4844012263124995	0.2889961668774758
-0.4843401911562495	0.2746752599616297
-0.4842791559999995	0.2583421575613784
-0.4842181208437495	0.24131984954756164
-0.4841570856874995	0.22245568871647195
-0.4840960505312495	0.20308583398927604
-0.4840350153749995	0.18206968317890457
-0.4839739802187495	0.16075461993209933
-0.4839129450624995	0.1380100216303715
-0.4838519099062495	0.11519231756895688
-0.4837908747499995	0.09117860535438553
-0.4837298395937495	0.06733199156375427
-0.4836688044374995	0.04253484377053109
-0.4836077692812495	0.018154464248015013
-0.4835467341249995	-0.006924065956538063
-0.4834856989687495	-0.031331843287828204
-0.4834246638124995	-0.056183679112339784
-0.4833636286562495	-0.08011169208369232
-0.4833025934999995	-0.10423319536573969
-0.4832415583437495	-0.12718393822153126
-0.4831805231874995	-0.1500863230858707
-0.4831194880312495	-0.17158223396036199
-0.4830584528749995	-0.19280163775899684
-0.4829974177187495	-0.2123949663668011
-0.4829363825624995	-0.2315020576404516
-0.4828753474062495	-0.2487841223730308
-0.4828143122499995	-0.26539299835235597
-0.4827532770937495	-0.28000266579759503
-0.4826922419374995	-0.29377883578542247
-0.4826312067812495	-0.3054100166600181
-0.4825701716249995	-0.31607737166123756
-0.4825091364687495	-0.3244853736232191
-0.4824481013124995	-0.33183192582102744
-0.4823870661562495	-0.3368385673575497
-0.4823260309999995	-0.3407208802131798
-0.4822649958437495	-0.34221822401825325
-0.4822039606874995	-0.342564428496345
-0.4821429255312495	-0.3405170604434181
-0.4820818903749995	-0.3373283943161258
-0.4820208552187495	-0.33177421165358434
-0.4819598200624995	-0.3251250479675719
-0.4818987849062495	-0.31617452680448893
-0.4818377497499995	-0.3062108854473837
-0.4817767145937495	-0.2940448492677808
-0.4817156794374995	-0.2809814278531788
-0.4816546442812495	-0.2658473472534707
-0.4815936091249995	-0.24996312629575465
-0.4815325739687495	-0.232170050451296
-0.4814715388124995	-0.21380255302605172
-0.4814105036562495	-0.1937147426288735
-0.4813494684999995	-0.17325309108116954
-0.4812884333437495	-0.15128251453518105
-0.4812273981874995	-0.12915939276549812
-0.4811663630312495	-0.10575721591822715
-0.4811053278749995	-0.08243993544367219
-0.4810442927187495	-0.058087197766425076
-0.4809832575624995	-0.03406802346927594
-0.4809222224062495	-0.009265671538767882
-0.4808611872499995	0.014948359842629854
-0.4808001520937495	0.03968985432872881
-0.4807391169374995	0.06358747287335273
-0.4806780817812495	0.08775868136030743
-0.4806170466249995	0.11083498088087054
-0.4805560114687495	0.13393813183399028
-0.4804949763124995	0.15570505366171497
-0.4804339411562495	0.1772643680080852
-0.4803729059999995	0.19726087781781876
-0.4803118708437495	0.2168324631359196
-0.4802508356874995	0.23463413792036947
-0.4801898005312495	0.25181525763988516
-0.4801287653749995	0.2670431543471347
-0.4800677302187495	0.28148063055101136
-0.4800066950624995	0.2938091888777872
-0.4799456599062495	0.3052067959759271
-0.4798846247499995	0.3143706734951273
-0.4798235895937495	0.32249534444925443
-0.4797625544374995	0.3282949824978552
-0.4797015192812495	0.3329817249984816
-0.4796404841249995	0.3352875686366014
-0.4795794489687495	0.33644295620434206
-0.4795184138124995	0.33519821596829125
-0.4794573786562495	0.33280240855465154
-0.4793963434999995	0.32802431255920045
-0.4793353083437495	0.32213153817433343
-0.4792742731874995	0.3139110500408434
-0.4792132380312495	0.304648550791618
-0.4791522028749995	0.2931485485712351
-0.4790911677187495	0.28071400702956073
-0.4790301325624995	0.26616596621365085
-0.4789690974062495	0.2508234601006291
-0.4789080622499995	0.23352270076880668
-0.4788470270937495	0.2155972711270076
-0.4787859919374995	0.19589687821283797
-0.4787249567812495	0.1757678186300216
-0.4786639216249995	0.154071341046301
-0.4786028864687495	0.1321643648384723
-0.4785418513124995	0.10891745558767242
-0.4784808161562495	0.08569586137471831
-0.4784197809999995	0.06137704901163391
-0.4783587458437495	0.037332101594362274
-0.4782977106874995	0.01244284221892746
-0.4782366755312495	-0.01191642804428361
-0.4781756403749995	-0.036862188299094496
-0.4781146052187495	-0.061019586334763294
-0.4780535700624995	-0.08550609716830142
-0.4779925349062495	-0.10894902123341549
-0.4779314997499995	-0.1324695000581446
-0.4778704645937495	-0.15469963610505338
-0.4778094294374995	-0.17676683760239167
-0.4777483942812495	-0.19731057063889754
-0.4776873591249995	-0.21746699469846478
-0.4776263239687495	-0.2358853161547423
-0.4775652888124995	-0.25371276592611935
-0.4775042536562495	-0.26961049155258954
-0.4774432184999995	-0.28473885913783714
-0.4773821833437495	-0.297772915605114
-0.4773211481874995	-0.309887967140918
-0.4772601130312495	-0.3197746183381251
-0.4771990778749995	-0.32862462127155073
-0.4771380427187495	-0.33514546966613906
-0.4770770075624995	-0.34054651983791395
-0.4770159724062495	-0.34355314366017153
-0.4769549372499995	-0.34539309649197064
-0.4768939020937495	-0.34481023596839155
-0.4768328669374995	-0.3430511357883272
-0.4767718317812495	-0.33887835985330417
-0.4767107966249995	-0.3335573256760455
-0.4766497614687495	-0.32586913470344253
-0.4765887263124995	-0.31709768197565497
-0.4765276911562495	-0.30604204887537684
-0.4764666559999995	-0.29400385723714323
-0.4764056208437495	-0.2797992271647623
-0.4763445856874995	-0.2647463965751583
-0.4762835505312495	-0.2476772240122566
-0.4762225153749995	-0.22992509498103536
-0.4761614802187495	-0.2103359827295471
-0.4761004450624995	-0.19025663318897776
-0.4760394099062495	-0.16854520953129112
-0.4759783747499995	-0.1465597604805281
-0.4759173395937495	-0.12316844534955314
-0.4758563044374995	-0.09973831853854988
-0.4757952692812495	-0.07514514188902562
-0.4757342341249995	-0.050762481069988825
-0.4756731989687495	-0.025471135546239608
-0.4756121638124995	-0.0006485591382556023
-0.4755511286562495	0.024822087843090347
-0.4754900934999995	0.04956216582821283
-0.4754290583437495	0.07468888488065853
-0.4753680231874995	0.09882515986964387
-0.4753069880312495	0.12309130402340242
-0.4752459528749995	0.14611447744137568
-0.4751849177187495	0.16902075516041926
-0.4751238825624995	0.19044418659288675
-0.4750628474062495	0.21151915166165386
-0.4750018122499995	0.2308890501504244
-0.4749407770937495	0.24969895910664797
-0.4748797419374995	0.26660391632998276
-0.4748187067812495	0.28276185254382424
-0.4747576716249995	0.2968414808908187
-0.4746966364687495	0.310015491715011
-0.4746356013124995	0.3209680199182621
-0.4745745661562495	0.3308881167698358
-0.4745135309999995	0.33847676745132227
-0.4744524958437495	0.34494063788200613
-0.4743914606874995	0.34899864574667827
-0.4743304255312495	0.3518759619550598
-0.4742693903749995	0.35231013760647145
-0.4742083552187495	0.35154535522392194
-0.4741473200624995	0.34833811195374126
-0.4740862849062495	0.3439517129140813
-0.4740252497499995	0.33716151243276005
-0.4739642145937495	0.32924965338596074
-0.4739031794374995	0.31900986024540007
-0.4738421442812495	0.3077424343778845
-0.4737811091249995	0.2942586016790627
-0.4737200739687495	0.2798757566468576
-0.4736590388124995	0.26342138773460533
-0.4735980036562495	0.2462285684894272
-0.4735369684999995	0.2271394607503417
-0.4734759333437495	0.2075010746015675
-0.4734148981874995	0.18616834227463128
-0.4733538630312495	0.16450017408950166
-0.4732928278749995	0.1413621102613348
-0.4732317927187495	0.11812266643185612
-0.4731707575624995	0.09365559972516353
-0.4731097224062495	0.06933653561638987
-0.4730486872499995	0.04404487572267698
-0.4729876520937495	0.019160723900305092
-0.4729266169374995	-0.006433582031475486
-0.4728655817812495	-0.031356192554686066
-0.4728045466249995	-0.05672458448075337
-0.4727435114687495	-0.08115795503626409
-0.4726824763124995	-0.10577636135985147
-0.4726214411562495	-0.12920278583064523
-0.4725604059999995	-0.15256260381189138
-0.4724993708437495	-0.1744852552760778
-0.4724383356874995	-0.19610404877161305
-0.4723773005312495	-0.21605742360411304
-0.4723162653749995	-0.2354890662512293
-0.4722552302187495	-0.2530487720767277
-0.4721941950624995	-0.26989285733755525
-0.4721331599062495	-0.2846845804997334
-0.4720721247499995	-0.29859485676378855
-0.4720110895937495	-0.3103022503603303
-0.4719500544374995	-0.3209939525959771
-0.4718890192812495	-0.3293653420253685
-0.4718279841249995	-0.3366212217898591
-0.4717669489687495	-0.34147494266539885
-0.4717059138124995	-0.3451498941360151
-0.4716448786562495	-0.34637817353314154
-0.4715838434999995	-0.34640233871056875
-0.4715228083437495	-0.34397362136715337
-0.4714617731874995	-0.340353927097742
-0.4714007380312495	-0.3343136002110299
-0.4713397028749995	-0.3271336704191918
-0.4712786677187495	-0.3176031727829646
-0.4712176325624995	-0.30702163566291285
-0.4711565974062495	-0.2941959597458166
-0.4710955622499995	-0.28044316540505815
-0.4710345270937495	-0.26458682009446666
-0.4709734919374995	-0.24796004747056763
-0.4709124567812495	-0.22940153340871833
-0.4708514216249995	-0.21025878953157184
-0.4707903864687495	-0.189383734253669
-0.4707293513124995	-0.16813625252152783
-0.4706683161562495	-0.14537933991439622
-0.4706072809999995	-0.12248295742659804
-0.4705462458437495	-0.09831878887380167
-0.4704852106874995	-0.07426437826616925
-0.4704241755312495	-0.04919751178072029
-0.4703631403749995	-0.02450064879662129
-0.4703021052187495	0.000945026067326984
-0.4702410700624995	0.025754904224567752
-0.4701800349062495	0.05104721041085734
-0.4701189997499995	0.07543797635330525
-0.4700579645937495	0.10004765601898485
-0.4699969294374995	0.1234957220746475
-0.4699358942812495	0.14690762624187448
-0.4698748591249995	0.16890900562696415
-0.4698138239687495	0.19063297653768782
