Time	Frequency
-0.5000334617187434	0.2953644142480153
-0.4999724265624934	0.3109619725597141
-0.4999113914062434	0.3247375703482728
-0.4998503562499934	0.33660727627314707
-0.4997893210937434	0.3464985381243293
-0.4997282859374934	0.35435067464981895
-0.4996672507812434	0.36011520869168806
-0.4996062156249934	0.363756191825257
-0.4995451804687434	0.3652504162117634
-0.4994841453124934	0.3645875659737172
-0.4994231101562434	0.3617702805461041
-0.4993620749999934	0.3568141597054849
-0.4993010398437434	0.3497476554303699
-0.4992400046874934	0.34061193261226536
-0.4991789695312434	0.32946060154295503
-0.4991179343749934	0.3163594264228107
-0.4990568992187434	0.3013859092418413
-0.4989958640624934	0.2846288591533693
-0.4989348289062434	0.26618781859961543
-0.4988737937499934	0.24617253424255497
-0.4988127585937434	0.22470221283070277
-0.4987517234374934	0.2019048986973301
-0.4986906882812434	0.1779166350895258
-0.4986296531249934	0.15288067448204545
-0.4985686179687434	0.12694663014523322
-0.4985075828124934	0.1002695459270364
-0.4984465476562434	0.0730089965981567
-0.4983855124999934	0.04532808705226473
-0.4983244773437434	0.01739251929810092
-0.4982634421874934	-0.010630465206357414
-0.4982024070312434	-0.038573035228422585
-0.4981413718749934	-0.06626783815914886
-0.4980803367187434	-0.09354894917488284
-0.4980193015624934	-0.12025296231225242
-0.4979582664062434	-0.14621986664869535
-0.4978972312499934	-0.17129411783579926
-0.4978361960937434	-0.19532551360645367
-0.4977751609374934	-0.21817012220122547
-0.4977141257812434	-0.23969117510239604
-0.4976530906249934	-0.25975985470684404
-0.4975920554687434	-0.27825612148056295
-0.4975310203124934	-0.29506940428589434
-0.4974699851562434	-0.31009929620092297
-0.4974089499999934	-0.3232561532079384
-0.4973479148437434	-0.33446165343571244
-0.4972868796874934	-0.34364924760351545
-0.4972258445312434	-0.3507646033316708
-0.4971648093749934	-0.3557659008366639
-0.4971037742187434	-0.3586241181907865
-0.4970427390624934	-0.3593231886602955
-0.4969817039062434	-0.3578601223966912
-0.4969206687499934	-0.35424500827860755
-0.4968596335937434	-0.34850097316905615
-0.4967985984374934	-0.3406640335115304
-0.4967375632812434	-0.33078288752816715
-0.4966765281249934	-0.3189186214911489
-0.4966154929687434	-0.30514434414497843
-0.4965544578124934	-0.2895447341463726
-0.4964934226562434	-0.2722155562356678
-0.4964323874999934	-0.25326305530782905
-0.4963713523437434	-0.23280332908439666
-0.4963103171874934	-0.2109616303191504
-0.4962492820312434	-0.1878715819935322
-0.4961882468749934	-0.16367441647631276
-0.4961272117187434	-0.13851805884467894
-0.4960661765624934	-0.11255630014867574
-0.4960051414062434	-0.08594778098775947
-0.4959441062499934	-0.05885512049809443
-0.4958830710937434	-0.031443842636719656
-0.4958220359374934	-0.0038814431290962546
-0.4957610007812434	0.023663674432902335
-0.4956999656249934	0.051023223606378704
-0.4956389304687434	0.07803000999367574
-0.4955778953124934	0.10451901770402242
-0.4955168601562434	0.130328358230017
-0.4954558249999934	0.15530028415173847
-0.4953947898437434	0.17928214743000936
-0.4953337546874934	0.202127326426471
-0.4952727195312434	0.22369612099694636
-0.4952116843749934	0.24385660963795813
-0.4951506492187434	0.2624854484974197
-0.4950896140624934	0.2794686493503464
-0.4950285789062434	0.2947022232551319
-0.4949675437499934	0.3080928945892097
-0.4949065085937434	0.3195586046680609
-0.4948454734374934	0.3290290562934127
-0.4947844382812434	0.33644613558509473
-0.4947234031249934	0.341764271676125
-0.4946623679687434	0.34495070943311784
-0.4946013328124934	0.34598574305018615
-0.4945402976562434	0.3448628044249974
-0.4944792624999934	0.34158854043752856
-0.4944182273437434	0.3361827613234008
-0.4943571921874934	0.32867832583985845
-0.4942961570312434	0.31912096218294456
-0.4942351218749934	0.3075689690496625
-0.4941740867187434	0.29409289543903866
-0.4941130515624934	0.278775083739889
-0.4940520164062434	0.2617092094203409
-0.4939909812499934	0.2429996709587172
-0.4939299460937434	0.22276100781276334
-0.4938689109374934	0.20111716410217167
-0.4938078757812434	0.1782007477489743
-0.4937468406249934	0.15415224911460038
-0.4936858054687434	0.12911915192734572
-0.4936247703124934	0.1032550515761973
-0.4935637351562434	0.0767187369888733
-0.4935026999999934	0.049673188678455125
-0.4934416648437434	0.022284613505540726
-0.4933806296874934	-0.005278585008025362
-0.4933195945312434	-0.032846815710154784
-0.4932585593749934	-0.06025036347262617
-0.4931975242187434	-0.08732040133867384
-0.4931364890624934	-0.113890029196595
-0.4930754539062434	-0.139795304703408
-0.4930144187499934	-0.16487624468878878
-0.4929533835937434	-0.1889777847362388
-0.4928923484374934	-0.21195075273603653
-0.4928313132812434	-0.23365279287084176
-0.4927702781249934	-0.25394919256252146
-0.4927092429687434	-0.2727137782643144
-0.4926482078124934	-0.28982962906827836
-0.4925871726562434	-0.305189849633779
-0.4925261374999934	-0.31869817309676546
-0.4924651023437434	-0.330269628088751
-0.4924040671874934	-0.33983099568113506
-0.4923430320312434	-0.3473213109958473
-0.4922819968749934	-0.35269222582920734
-0.4922209617187434	-0.35590831475876894
-0.4921599265624934	-0.3569473054935219
-0.4920988914062434	-0.3558002135120958
-0.4920378562499934	-0.3524714204612291
-0.4919768210937434	-0.34697864156810854
-0.4919157859374934	-0.33935284195790877
-0.4918547507812434	-0.3296380404571313
-0.4917937156249934	-0.3178910659889247
-0.4917326804687434	-0.3041812034570051
-0.4916716453124934	-0.2885897921383492
-0.4916106101562434	-0.2712097283936465
-0.4915495749999934	-0.25214491112573567
-0.4914885398437434	-0.23150961220879662
-0.4914275046874934	-0.20942778355101846
-0.4913664695312434	-0.18603231137679935
-0.4913054343749934	-0.1614642070902485
-0.4912443992187434	-0.13587174101960545
-0.4911833640624934	-0.10940958735332262
-0.4911223289062434	-0.0822377928206165
-0.4910612937499934	-0.05452090482019158
-0.4910002585937434	-0.02642690316730749
-0.4909392234374934	0.00187380237899251
-0.4908781882812434	0.030209419241767357
-0.4908171531249934	0.05840780475431776
-0.4907561179687434	0.08629754259016757
-0.4906950828124934	0.11370896041228641
-0.4906340476562434	0.14047519594386715
-0.4905730124999934	0.166433206267761
-0.4905119773437434	0.19142475567162529
-0.4904509421874934	0.2152974054130427
-0.4903899070312434	0.2379054476363263
-0.4903288718749934	0.25911075918745613
-0.4902678367187434	0.2787837223394348
-0.4902068015624934	0.29680394954073497
-0.4901457664062434	0.313061085646868
-0.4900847312499934	0.3274554316616555
-0.4900236960937434	0.33989861230877566
-0.4899626609374934	0.3503140766465718
-0.4899016257812434	0.3586376142079834
-0.4898405906249934	0.36481772117477257
-0.4897795554687434	0.3688159345010074
-0.4897185203124934	0.37060709000415526
-0.4896574851562434	0.3701794405820414
-0.4895964499999934	0.3675348007513735
-0.4895354148437434	0.3626884545124031
-0.4894743796874934	0.35566917639922435
-0.4894133445312434	0.34651894244843423
-0.4893523093749934	0.3352928030043814
-0.4892912742187434	0.3220584288995682
-0.4892302390624934	0.3068958286373266
-0.4891692039062434	0.2898967384660057
-0.4891081687499934	0.2711641865094342
-0.4890471335937434	0.25081176351884726
-0.4889860984374934	0.22896301318798315
-0.4889250632812434	0.2057506268126079
-0.4888640281249934	0.1813156650233976
-0.4888029929687434	0.1558066726290128
-0.4887419578124934	0.12937880295063797
-0.4886809226562434	0.1021928458872359
-0.4886198874999934	0.07441425676550388
-0.4885588523437434	0.046212143088135704
-0.4884978171874934	0.017758209165708284
-0.4884367820312434	-0.010774235814387818
-0.4883757468749934	-0.03921141993430614
-0.4883147117187434	-0.06738010733691328
-0.4882536765624934	-0.09510870034421204
-0.4881926414062434	-0.12222826154585363
-0.4881316062499934	-0.14857358360091022
-0.4880705710937434	-0.17398416621486318
-0.4880095359374934	-0.19830525438525481
-0.4879485007812434	-0.22138871345083522
-0.4878874656249934	-0.24309402827510784
-0.4878264304687434	-0.2632890905995648
-0.4877653953124934	-0.2818510725593013
-0.4877043601562434	-0.29866713994303884
-0.4876433249999934	-0.3136351733909386
-0.4875822898437434	-0.3266643873620438
-0.4875212546874934	-0.33767590757117266
-0.4874602195312434	-0.3466032203208208
-0.4873991843749934	-0.3533926498828038
-0.4873381492187434	-0.35800361756015336
-0.4872771140624934	-0.36040895912086623
-0.4872160789062434	-0.36059505083743354
-0.4871550437499934	-0.35856192585274876
-0.4870940085937434	-0.35432326424670024
-0.4870329734374934	-0.3479063126077497
-0.4869719382812434	-0.33935173354695686
-0.4869109031249934	-0.32871333554314086
-0.4868498679687434	-0.31605778100856796
-0.4867888328124934	-0.30146413269804745
-0.4867277976562434	-0.28502342897153343
-0.4866667624999934	-0.26683805976455377
-0.4866057273437434	-0.24702121180804718
-0.4865446921874934	-0.2256960994595427
-0.4864836570312434	-0.20299528310692994
-0.4864226218749934	-0.17905979128214353
-0.4863615867187434	-0.15403829519120232
-0.4863005515624934	-0.128086169681161
-0.4862395164062434	-0.10136456822935148
-0.4861784812499934	-0.0740393917966498
-0.4861174460937434	-0.04628029407989587
-0.4860564109374934	-0.018259627569045273
-0.4859953757812434	0.009848626841888907
-0.4859343406249934	0.037869905011229665
-0.4858733054687434	0.06563017479208977
-0.4858122703124934	0.09295698555616774
-0.4857512351562434	0.11968054937558643
-0.4856901999999934	0.14563476069566358
-0.4856291648437434	0.17065828014931841
-0.4855681296874934	0.19459545895694408
-0.4855070945312434	0.2172973759343309
-0.4854460593749934	0.23862270158505927
-0.4853850242187434	0.25843862607769263
-0.4853239890624934	0.2766216360772828
-0.4852629539062434	0.2930583060500688
-0.4852019187499934	0.30764602432708205
-0.4851408835937434	0.320293577400813
-0.4850798484374934	0.33092178682231616
-0.4850188132812434	0.33946393191189256
-0.4849577781249934	0.3458662484468677
-0.4848967429687434	0.35008818283594717
-0.4848357078124934	0.35210272925946823
-0.4847746726562434	0.3518965358225618
-0.4847136374999934	0.3494700446179881
-0.4846526023437434	0.3448374628096201
-0.4845915671874934	0.33802670111266425
-0.4845305320312434	0.3290791976644359
-0.4844694968749934	0.31804967195331624
-0.4844084617187434	0.3050057956875871
-0.4843474265624934	0.29002777649630546
-0.4842863914062434	0.27320786744063835
-0.4842253562499934	0.25464981164244804
-0.4841643210937434	0.23446819111212822
-0.4841032859374934	0.21278773164327922
-0.4840422507812434	0.1897425572382744
-0.4839812156249934	0.1654752963493174
-0.4839201804687434	0.1401363092086951
-0.4838591453124934	0.1138826473454772
-0.4837981101562434	0.08687718535408352
-0.4837370749999934	0.059287538379761806
-0.4836760398437434	0.0312850647744331
-0.4836150046874934	0.0030438094803926846
-0.4835539695312434	-0.025260588824528626
-0.4834929343749934	-0.053451986177648514
-0.4834318992187434	-0.08135480568143755
-0.4833708640624934	-0.10879514615863067
-0.4833098289062434	-0.13560184139333828
-0.4832487937499934	-0.16160755166985488
-0.4831877585937434	-0.186649759518931
-0.4831267234374934	-0.21057182769106442
-0.4830656882812434	-0.23322393858305518
-0.4830046531249934	-0.25446404990820387
-0.4829436179687434	-0.2741587526401097
-0.4828825828124934	-0.2921841489976022
-0.4828215476562434	-0.3084265635024292
-0.4827605124999934	-0.3227833235973969
-0.4826994773437434	-0.33516334529759345
-0.4826384421874934	-0.34548773794150317
-0.4825774070312434	-0.3536902988142557
-0.4825163718749934	-0.35971790816902904
-0.4824553367187434	-0.3635309119674248
-0.4823943015624934	-0.365103317177105
-0.4823332664062434	-0.3644230304058619
-0.4822722312499934	-0.3614918690449589
-0.4822111960937434	-0.3563256340887789
-0.4821501609374934	-0.34895394936522234
-0.4820891257812434	-0.33942015466735365
-0.4820280906249934	-0.3277809829565425
-0.4819670554687434	-0.3141062796332864
-0.4819060203124934	-0.29847851694553656
-0.4818449851562434	-0.28099235283526935
-0.4817839499999934	-0.2617539854244803
-0.4817229148437434	-0.2408805743685896
-0.4816618796874934	-0.21849946410866775
-0.4816008445312434	-0.19474742208962478
-0.4815398093749934	-0.16976981251908715
-0.4814787742187434	-0.14371967299025334
-0.4814177390624934	-0.11675678200425521
-0.4813567039062434	-0.08904669601339334
-0.4812956687499934	-0.060759676396428604
-0.4812346335937434	-0.0320696895688854
-0.4811735984374934	-0.0031532955497474927
-0.4811125632812434	0.025811430670831515
-0.4810515281249934	0.05464599748932367
-0.4809904929687434	0.0831726260195494
-0.4809294578124934	0.11121531504175462
-0.4808684226562434	0.13860097822712947
-0.4808073874999934	0.16516047339246537
-0.4807463523437434	0.1907296980900672
-0.4806853171874934	0.2151505682083589
-0.4806242820312434	0.23827203095717817
-0.4805632468749934	0.2599510040804341
-0.4805022117187434	0.28005324175114554
-0.4804411765624934	0.29845421309518255
-0.4803801414062434	0.3150398338622552
-0.4803191062499934	0.3297072196415675
-0.4802580710937434	0.34236531385692265
-0.4801970359374934	0.3529354412660898
-0.4801360007812434	0.3613518467092064
-0.4800749656249934	0.36756206033996136
-0.4800139304687434	0.3715272683657446
-0.4799528953124934	0.3732225340320207
-0.4798918601562434	0.37263698127590134
-0.4798308249999934	0.3697738467756496
-0.4797697898437434	0.36465049317320014
-0.4797087546874934	0.35729827507708906
-0.4796477195312434	0.34776238807733745
-0.4795866843749934	0.3361015579776546
-0.4795256492187434	0.3223877135177833
-0.4794646140624934	0.30670552215541225
-0.4794035789062434	0.28915188358689475
-0.4793425437499934	0.2698353294094682
-0.4792815085937434	0.2488753480613023
-0.4792204734374934	0.22640165637655832
-0.4791594382812434	0.20255339505532216
-0.4790984031249934	0.17747825545036855
-0.4790373679687434	0.1513315805325719
-0.4789763328124934	0.12427540859759381
-0.4789152976562434	0.096477428352038
-0.4788542624999934	0.06810999596453572
-0.4787932273437434	0.03934900671485487
-0.4787321921874934	0.010372852146304753
-0.4786711570312434	-0.018638720734596843
-0.4786101218749934	-0.047505731718401785
-0.4785490867187434	-0.07604904235874248
-0.4784880515624934	-0.10409154931477037
-0.4784270164062434	-0.13145918133150325
-0.4783659812499934	-0.15798212226014696
-0.4783049460937434	-0.18349571173454243
-0.4782439109374934	-0.20784163818366355
-0.4781828757812434	-0.23086876125929348
-0.4781218406249934	-0.25243420258724397
-0.4780608054687434	-0.27240415368330567
-0.4779997703124934	-0.2906547207737063
-0.4779387351562434	-0.3070727503221931
-0.4778776999999934	-0.32155645693367935
-0.4778166648437434	-0.33401616852860727
-0.4777556296874934	-0.34437475861191796
-0.4776945945312434	-0.35256828828441494
-0.4776335593749934	-0.3585462329238936
-0.4775725242187434	-0.36227198539592403
-0.4775114890624934	-0.363722918219326
-0.4774504539062434	-0.3628906788135754
-0.4773894187499934	-0.35978112361554454
-0.4773283835937434	-0.3544143813958999
-0.4772673484374934	-0.3468246656070615
-0.4772063132812434	-0.33706010992145496
-0.4771452781249934	-0.32518244423636
-0.4770842429687434	-0.3112666290869792
-0.4770232078124934	-0.2954003935121036
-0.4769621726562434	-0.27768366758448887
-0.4769011374999934	-0.25822800469589835
-0.4768401023437434	-0.2371558382403955
-0.4767790671874934	-0.21459976744712203
-0.4767180320312434	-0.19070168841774784
-0.4766569968749934	-0.16561195280909746
-0.4765959617187434	-0.13948838839965597
-0.4765349265624934	-0.11249534465723762
-0.4764738914062434	-0.08480265677914631
-0.4764128562499934	-0.05658458358601509
-0.4763518210937434	-0.028018703384100334
-0.4762907859374934	0.0007151478696328516
-0.4762297507812434	0.02943606916480255
-0.4761687156249934	0.05796318574817735
-0.4761076804687434	0.0861167715496232
-0.4760466453124934	0.113719407415119
-0.4759856101562434	0.14059709845069046
-0.4759245749999934	0.1665803070510101
-0.4758635398437434	0.191505098093419
-0.4758025046874934	0.2152141084354575
-0.4757414695312434	0.2375575637167165
-0.4756804343749934	0.2583942127897696
-0.4756193992187434	0.27759222372999665
-0.4755583640624934	0.295030010109934
-0.4754973289062434	0.31059699486425335
-0.4754362937499934	0.32419431660316456
-0.4753752585937434	0.3357354583572772
-0.4753142234374934	0.34514678002643717
-0.4752531882812434	0.3523680097040738
-0.4751921531249934	0.3573526070819572
-0.4751311179687434	0.36006807772777505
-0.4750700828124934	0.36049617823217983
-0.4750090476562434	0.35863303698630367
-0.4749480124999934	0.3544891924485029
-0.4748869773437434	0.34808952342859095
-0.4748259421874934	0.33947311690600435
-0.4747649070312434	0.3286930082872386
-0.4747038718749934	0.315815886587308
-0.4746428367187434	0.3009216460052657
-0.4745818015624934	0.2841029265793363
-0.4745207664062434	0.26546452058481756
-0.4744597312499934	0.24512271153935877
-0.4743986960937434	0.22320458879741376
-0.4743376609374934	0.19984721371213474
-0.4742766257812434	0.17519678360563432
-0.4742155906249934	0.14940771873416564
-0.4741545554687434	0.12264168707919143
-0.4740935203124934	0.09506662940997558
-0.4740324851562434	0.06685564514852446
-0.4739714499999934	0.038185949347400015
-0.4739104148437434	0.009237779812840272
-0.4738493796874934	-0.01980679045197893
-0.4737883445312434	-0.048764941852578694
-0.4737273093749934	-0.07745429144322924
-0.4736662742187434	-0.10569403107644046
-0.4736052390624934	-0.13330602966532928
-0.4735442039062434	-0.16011603542504793
-0.4734831687499934	-0.1859546741650204
-0.4734221335937434	-0.2106585949528799
-0.4733610984374934	-0.23407146801941317
-0.4733000632812434	-0.25604495577127234
-0.4732390281249934	-0.2764397047417106
-0.4731779929687434	-0.2951261421804788
-0.4731169578124934	-0.31198540530281355
-0.4730559226562434	-0.3269099817535209
-0.4729948874999934	-0.33980448553761844
-0.4729338523437434	-0.3505862076785398
-0.4728728171874934	-0.3591856603170965
-0.4728117820312434	-0.3655470412536567
-0.4727507468749934	-0.36962854969872655
-0.4726897117187434	-0.37140271451885376
-0.4726286765624934	-0.3708565161975288
-0.4725676414062434	-0.3679915337472303
-0.4725066062499934	-0.3628238941578443
-0.4724455710937434	-0.3553842218713971
-0.4723845359374934	-0.3457174247946602
-0.4723235007812434	-0.33388243863260536
-0.4722624656249934	-0.31995185523530895
-0.4722014304687434	-0.30401148446476794
-0.4721403953124934	-0.2861598056212513
-0.4720793601562434	-0.2665073821238527
-0.4720183249999934	-0.24517613540378927
-0.4719572898437434	-0.22229863863095242
-0.4718962546874934	-0.19801722298259192
-0.4718352195312434	-0.17248315966489794
-0.4717741843749934	-0.14585563776460916
-0.4717131492187434	-0.11830084670681099
-0.4716521140624934	-0.08999086121304478
-0.4715910789062434	-0.06110262025974657
-0.4715300437499934	-0.03181677880862745
-0.4714690085937434	-0.002316591222848864
-0.4714079734374934	0.027213241855920337
-0.4713469382812434	0.0565877506009329
-0.4712859031249934	0.08562282725621302
-0.4712248679687434	0.1141364329631656
-0.4711638328124934	0.14194967449332785
-0.4711027976562434	0.1688880396092079
-0.4710417624999934	0.1947823575326477
-0.4709807273437434	0.219470017776216
-0.4709196921874934	0.24279585503750908
-0.4708586570312434	0.26461325795945007
-0.4707976218749934	0.284784978397706
-0.4707365867187434	0.3031841219187139
-0.4706755515624934	0.3196948275119832
-0.4706145164062434	0.3342131191954563
-0.4705534812499934	0.3466474726956467
-0.4704924460937434	0.35691946587108925
-0.4704314109374934	0.3649642362946587
-0.4703703757812434	0.37073092003871533
-0.4703093406249934	0.37418297778621473
-0.4702483054687434	0.3752984055247545
-0.4701872703124934	0.37406993542426265
-0.4701262351562434	0.37050501104874406
-0.4700651999999934	0.36462584045265517
-0.4700041648437434	0.3564691599749331
-0.4699431296874934	0.34608612028992985
-0.4698820945312434	0.3335418533424092
-0.4698210593749934	0.3189151839581605
-0.4697600242187434	0.30229803650408604
-0.4696989890624934	0.2837949464562767
