Time	Frequency
-0.5000231284687402	0.0030386318065205196
-0.4999620933124902	-0.024763116573534822
-0.4999010581562402	-0.05236257611813576
-0.4998400229999902	-0.07959033517723774
-0.4997789878437402	-0.10627921210513915
-0.4997179526874902	-0.13226539786471178
-0.4996569175312402	-0.1573893793424102
-0.4995958823749902	-0.18149696079201538
-0.4995348472187402	-0.20444018805152744
-0.4994738120624902	-0.22607828835173424
-0.4994127769062402	-0.24627851698106318
-0.4993517417499902	-0.2649169547877287
-0.4992907065937402	-0.28187934966804923
-0.4992296714374902	-0.2970616933573305
-0.4991686362812402	-0.31037102759697677
-0.4991076011249902	-0.32172584453357694
-0.4990465659687402	-0.3310567499934254
-0.4989855308124902	-0.33830676519210573
-0.4989244956562402	-0.3434317859013374
-0.4988634604999902	-0.34640077260952934
-0.4988024253437402	-0.3471960117757901
-0.4987413901874902	-0.34581318371107844
-0.4986803550312402	-0.34226142323007736
-0.4986193198749902	-0.33656325275430166
-0.4985582847187402	-0.32875445073605336
-0.4984972495624902	-0.3188838469720583
-0.4984362144062402	-0.3070130049581177
-0.4983751792499902	-0.29321587964915535
-0.4983141440937402	-0.27757832383206227
-0.4982531089374902	-0.2601976150838017
-0.4981920737812402	-0.24118181044896936
-0.4981310386249902	-0.22064912720849436
-0.4980700034687402	-0.19872718505304549
-0.4980089683124902	-0.17555224486583032
-0.4979479331562402	-0.15126836514418746
-0.4978868979999902	-0.12602652499330638
-0.4978258628437402	-0.09998366357923218
-0.4977648276874902	-0.07330178035090425
-0.4977037925312402	-0.046146846669695235
-0.4976427573749902	-0.018687887045040784
-0.4975817222187402	0.008904158480825096
-0.4975206870624902	0.03645740936344536
-0.4974596519062402	0.06380017185793742
-0.4973986167499902	0.09076194089984455
-0.4973375815937402	0.11717449422940714
-0.4972765464374902	0.14287291718566847
-0.4972155112812402	0.1676966047487418
-0.4971544761249902	0.1914903108855659
-0.4970934409687402	0.21410501839049795
-0.4970324058124902	0.23539897804532112
-0.4969713706562402	0.2552384745484578
-0.4969103354999902	0.27349874125641527
-0.4968493003437402	0.2900646998907638
-0.4967882651874902	0.3048316603839291
-0.4967272300312402	0.31770603481253873
-0.4966661948749902	0.3286058361825174
-0.4966051597187402	0.337461283428448
-0.4965441245624902	0.3442151624329439
-0.4964830894062402	0.34882323861193437
-0.4964220542499902	0.3512545164020214
-0.4963610190937402	0.3514914423584466
-0.4962999839374902	0.3495300312954018
-0.4962389487812402	0.3453798799948754
-0.4961779136249902	0.3390641516293094
-0.4961168784687402	0.33061939394923573
-0.4960558433124902	0.32009538125321135
-0.4959948081562402	0.3075547514687986
-0.4959337729999902	0.2930726984473004
-0.4958727378437402	0.27673644278855186
-0.4958117026874902	0.2586447678385578
-0.4957506675312402	0.23890737650070665
-0.4956896323749902	0.2176442326854525
-0.4956285972187402	0.1949848402131601
-0.4955675620624902	0.17106742107147008
-0.4955065269062402	0.1460381084187215
-0.4954454917499902	0.12005000903484524
-0.4953844565937402	0.09326229061910947
-0.4953234214374902	0.06583920965023166
-0.4952623862812402	0.03794903748644737
-0.4952013511249902	0.009763151631461141
-0.4951403159687402	-0.018545182205628275
-0.4950792808124902	-0.04680173342367268
-0.4950182456562402	-0.07483247034049922
-0.4949572104999902	-0.10246460313837605
-0.4948961753437402	-0.12952764199905248
-0.4948351401874902	-0.155854499105139
-0.4947741050312402	-0.18128241482063265
-0.4947130698749902	-0.20565414626242956
-0.4946520347187402	-0.2288187151640596
-0.4945909995624902	-0.2506325535624193
-0.4945299644062402	-0.27096024906526306
-0.4944689292499902	-0.28967547406750915
-0.4944078940937402	-0.30666170514702323
-0.4943468589374902	-0.3218130058805406
-0.4942858237812402	-0.3350346651085113
-0.4942247886249902	-0.34624375418997044
-0.4941637534687402	-0.35536972885503565
-0.4941027183124902	-0.3623547651704755
-0.4940416831562402	-0.36715423873877295
-0.4939806479999902	-0.3697369048390244
-0.4939196128437402	-0.370085178815847
-0.4938585776874902	-0.3681951959509065
-0.4937975425312402	-0.3640768880202272
-0.4937365073749902	-0.35775389279712877
-0.4936754722187402	-0.3492634483713342
-0.4936144370624902	-0.3386561399171991
-0.4935534019062402	-0.32599562844923435
-0.4934923667499902	-0.31135823380300065
-0.4934313315937402	-0.2948324883220176
-0.4933702964374902	-0.2765185994810941
-0.4933092612812402	-0.25652781804685226
-0.4932482261249902	-0.23498178402888897
-0.4931871909687402	-0.21201173939542142
-0.4931261558124902	-0.18775779989264754
-0.4930651206562402	-0.16236797723521953
-0.4930040854999902	-0.13599739361031
-0.4929430503437402	-0.10880722632459923
-0.4928820151874902	-0.08096378126077453
-0.4928209800312402	-0.052637428102533634
-0.4927599448749902	-0.024001563964706627
-0.4926989097187402	0.0047684311621122195
-0.4926378745624902	0.03349635470392588
-0.4925768394062402	0.062006159974834135
-0.4925158042499902	0.09012316085312697
-0.4924547690937402	0.11767500429053744
-0.4923937339374902	0.14449282345362288
-0.4923326987812402	0.1704122425379243
-0.4922716636249902	0.19527438432309754
-0.4922106284687402	0.21892689479629407
-0.4921495933124902	0.24122483805160436
-0.4920885581562402	0.26203166620890983
-0.4920275229999902	0.2812199701184504
-0.4919664878437402	0.2986723765451302
-0.4919054526874902	0.31428219602111496
-0.4918444175312402	0.3279541248824946
-0.4917833823749902	0.3396048483930484
-0.4917223472187402	0.3491635154666109
-0.4916613120624902	0.35657225131710846
-0.4916002769062402	0.3617864356948865
-0.4915392417499902	0.3647750731207724
-0.4914782065937402	0.36552090303334783
-0.4914171714374902	0.3640205833335878
-0.4913561362812402	0.36028466446089075
-0.4912951011249902	0.3543375560652692
-0.4912340659687402	0.3462173692754119
-0.4911730308124902	0.33597568125290533
-0.4911119956562402	0.3236772328658194
-0.4910509604999902	0.3093995057365919
-0.4909899253437402	0.29323227724282264
-0.4909288901874902	0.2752770279979415
-0.4908678550312402	0.2556463585346297
-0.4908068198749902	0.23446324814753608
-0.4907457847187402	0.21186033055413891
-0.4906847495624902	0.18797904183405534
-0.4906237144062402	0.16296877862344858
-0.4905626792499902	0.1369859285588374
-0.4905016440937402	0.11019294097013532
-0.4904406089374902	0.08275727771981754
-0.4903795737812402	0.05485042622499093
-0.4903185386249902	0.026646766364555225
-0.4902575034687402	-0.0016774600416532305
-0.4901964683124902	-0.02994526317035594
-0.4901354331562402	-0.05798001913065889
-0.4900743979999902	-0.08560654439906619
-0.4900133628437402	-0.1126522270346323
-0.4899523276874902	-0.13894803850133575
-0.4898912925312402	-0.16432968539399326
-0.4898302573749902	-0.18863850999207488
-0.4897692222187402	-0.21172261598935097
-0.4897081870624902	-0.23343768391966863
-0.4896471519062402	-0.25364798946339584
-0.4895861167499902	-0.2722271836397018
-0.4895250815937402	-0.289059097895506
-0.4894640464374902	-0.30403849176052233
-0.4894030112812402	-0.31707168098825944
-0.4893419761249902	-0.3280771660075789
-0.4892809409687402	-0.33698609853964584
-0.4892199058124902	-0.34374276985210717
-0.4891588706562402	-0.3483049015999509
-0.4890978354999902	-0.3506439833436717
-0.4890368003437402	-0.35074538566392777
-0.4889757651874902	-0.34860852262966446
-0.4889147300312402	-0.34424680630336346
-0.4888536948749902	-0.3376876098988177
-0.4887926597187402	-0.3289720771789514
-0.4887316245624902	-0.31815487985016633
-0.4886705894062402	-0.30530388576489387
-0.4886095542499902	-0.2904997330873053
-0.4885485190937402	-0.27383533321672504
-0.4884874839374902	-0.2554153078041616
-0.4884264487812402	-0.2353553143541499
-0.4883654136249902	-0.21378135524769143
-0.4883043784687402	-0.19082898219125796
-0.4882433433124902	-0.1666424510832185
-0.4881823081562402	-0.14137381998610385
-0.4881212729999902	-0.11518202882751066
-0.4880602378437402	-0.08823186444661744
-0.4879992026874902	-0.060692982337272154
-0.4879381675312402	-0.03273879312434653
-0.4878771323749902	-0.004545442898073637
-0.4878160972187402	0.023709359743634213
-0.4877550620624902	0.05184739407158906
-0.4876940269062402	0.07969105133260673
-0.4876329917499902	0.1070645065757409
-0.4875719565937402	0.1337947221741535
-0.4875109214374902	0.15971264404624502
-0.4874498862812402	0.18465412298274753
-0.4873888511249902	0.20846112157612692
-0.4873278159687402	0.23098252383062962
-0.4872667808124902	0.2520752461449311
-0.4872057456562402	0.2716049948906785
-0.4871447104999902	0.2894472541917258
-0.4870836753437402	0.3054879489014258
-0.4870226401874902	0.3196242236637125
-0.4869616050312402	0.3317651315625005
-0.4869005698749902	0.34183209399320547
-0.4868395347187402	0.3497595594990211
-0.4867784995624902	0.3554952492943851
-0.4867174644062402	0.3590006707954786
-0.4866564292499902	0.36025119630183183
-0.4865953940937402	0.3592363826783836
-0.4865343589374902	0.35595991346935496
-0.4864733237812402	0.35043969103220124
-0.4864122886249902	0.34270765708981576
-0.4863512534687402	0.3328096538224546
-0.4862902183124902	0.3208051179720766
-0.4862291831562402	0.30676672372453084
-0.4861681479999902	0.2907799583563772
-0.4861071128437402	0.27294254115914746
-0.4860460776874902	0.25336390907008177
-0.4859850425312402	0.23216442945744242
-0.4859240073749902	0.20947477055766187
-0.4858629722187402	0.18543497740368603
-0.4858019370624902	0.16019370295390825
-0.4857409019062402	0.1339072012370818
-0.4856798667499902	0.10673841844086365
-0.4856188315937402	0.0788559293208476
-0.4855577964374902	0.05043292414807696
-0.4854967612812402	0.02164609286493554
-0.4854357261249902	-0.007325458613412266
-0.4853746909687402	-0.036301306876763244
-0.4853136558124902	-0.06510090726799893
-0.4852526206562402	-0.09354462931085508
-0.4851915854999902	-0.1214549781705442
-0.4851305503437402	-0.14865763017588374
-0.4850695151874902	-0.1749825715577328
-0.4850084800312402	-0.20026514142425014
-0.4849474448749902	-0.22434708701070047
-0.4848864097187402	-0.24707753823003198
-0.4848253745624902	-0.2683139715259203
-0.4847643394062402	-0.2879230858203921
-0.4847033042499902	-0.30578168129380073
-0.4846422690937402	-0.3217773998211361
-0.4845812339374902	-0.33580944404436547
-0.4845201987812402	-0.34778924031987174
-0.4844591636249902	-0.35764094761419374
-0.4843981284687402	-0.3653020147763755
-0.4843370933124902	-0.3707234923289314
-0.4842760581562402	-0.3738704397090034
-0.4842150229999902	-0.37472205719068874
-0.4841539878437402	-0.37327191464815773
-0.4840929526874902	-0.3695279233976479
-0.4840319175312402	-0.36351235040229474
-0.4839708823749902	-0.35526165353224165
-0.4839098472187402	-0.34482626987823106
-0.4838488120624902	-0.332270319795677
-0.4837877769062402	-0.317671187298565
-0.4837267417499902	-0.30111906779273495
-0.4836657065937402	-0.2827163905951192
-0.4836046714374902	-0.26257718920053463
-0.4835436362812402	-0.24082639562622613
-0.4834826011249902	-0.2175990697750045
-0.4834215659687402	-0.19303952732103677
-0.4833605308124902	-0.1673004763046675
-0.4832994956562402	-0.14054203774438162
-0.4832384604999902	-0.1129307712982885
-0.4831774253437402	-0.08463858077764386
-0.4831163901874902	-0.05584172989281874
-0.4830553550312402	-0.026719622282239574
-0.4829943198749902	0.0025462220630381185
-0.4829332847187402	0.0317733515048233
-0.4828722495624902	0.06077952963850834
-0.4828112144062402	0.0893838757865076
-0.4827501792499902	0.11740796123060546
-0.4826891440937402	0.14467702001243396
-0.4826281089374902	0.17102092446976408
-0.4825670737812402	0.19627539012645287
-0.4825060386249902	0.220282893964658
-0.4824450034687402	0.2428937331280181
-0.4823839683124902	0.26396695609713583
-0.4823229331562402	0.283371228411151
-0.4822618979999902	0.3009856979917661
-0.4822008628437402	0.3167007189350884
-0.4821398276874902	0.3304185914888526
-0.4820787925312402	0.3420541202292364
-0.4820177573749902	0.35153522406369786
-0.4819567222187402	0.3588033153129525
-0.4818956870624902	0.3638137740240493
-0.4818346519062402	0.366536101568129
-0.4817736167499902	0.3669542667474016
-0.4817125815937402	0.3650666636710879
-0.4816515464374902	0.36088626111832484
-0.4815905112812402	0.35444040915926733
-0.4815294761249902	0.3457707671521352
-0.4814684409687402	0.3349329730887085
-0.4814074058124902	0.32199634882093847
-0.4813463706562402	0.3070434334538997
-0.4812853354999902	0.29016948074763343
-0.4812243003437402	0.2714818845531212
-0.4811632651874902	0.25109944651831545
-0.4811022300312402	0.22915170345991576
-0.4810411948749902	0.20577804483176906
-0.4809801597187402	0.18112691334042297
-0.4809191245624902	0.15535477646373483
-0.4808580894062402	0.12862523537650794
-0.4807970542499902	0.1011079214182584
-0.4807360190937402	0.07297748029375757
-0.4806749839374902	0.044412436985183754
-0.4806139487812402	0.015594084122816066
-0.4805529136249902	-0.013294669256802786
-0.4804918784687402	-0.04207044429755822
-0.4804308433124902	-0.0705505579810239
-0.4803698081562402	-0.0985541712541633
-0.4803087729999902	-0.12590345215397866
-0.4802477378437402	-0.15242465105258107
-0.4801867026874902	-0.17794929190132844
-0.4801256675312402	-0.2023151227047457
-0.4800646323749902	-0.22536724978358733
-0.4800035972187402	-0.24695906419663952
-0.4799425620624902	-0.2669531634418412
-0.4798815269062402	-0.2852222823688152
-0.4798204917499902	-0.3016500301266416
-0.4797594565937402	-0.3161317063248137
-0.4796984214374902	-0.3285748816989324
-0.4796373862812402	-0.3389000925239261
-0.4795763511249902	-0.3470412375842387
-0.4795153159687402	-0.3529461065016237
-0.4794542808124902	-0.35657663862489486
-0.4793932456562402	-0.3579092154878265
-0.4793322104999902	-0.3569347998863721
-0.4792711753437402	-0.3536589967097768
-0.4792101401874902	-0.34810204260836236
-0.4791491050312402	-0.34029865820316835
-0.4790880698749902	-0.33029786587192966
-0.4790270347187402	-0.31816265077899175
-0.4789659995624902	-0.3039696085380069
-0.4789049644062402	-0.28780842431961307
-0.4788439292499902	-0.2697813581695976
-0.4787828940937402	-0.2500025422911591
-0.4787218589374902	-0.2285973404555231
-0.4786608237812402	-0.20570147530466174
-0.4785997886249902	-0.18146024366372104
-0.4785387534687402	-0.15602757249606827
-0.4784777183124902	-0.12956500928679188
-0.4784166831562402	-0.1022407965434873
-0.4783556479999902	-0.07422869266392584
-0.4782946128437402	-0.04570697174786089
-0.4782335776874902	-0.016857224327438875
-0.4781725425312402	0.012136736347536065
-0.4781115073749902	0.04109009417282078
-0.4780504722187402	0.06981815846834173
-0.4779894370624902	0.09813755820743134
-0.4779284019062402	0.12586741019950212
-0.4778673667499902	0.15283043150873032
-0.4778063315937402	0.17885413952852425
-0.4777452964374902	0.2037718623533722
-0.4776842612812402	0.22742387039264308
-0.4776232261249902	0.24965836399013897
-0.4775621909687402	0.27033243919752004
-0.4775011558124902	0.28931300978241775
-0.4774401206562402	0.3064776675380773
-0.4773790854999902	0.32171542381964713
-0.4773180503437402	0.33492750086000384
-0.4772570151874902	0.3460278689212358
-0.4771959800312402	0.35494388911648267
-0.4771349448749902	0.3616167180416476
-0.4770739097187402	0.36600173655818025
-0.4770128745624902	0.3680688108421184
-0.4769518394062402	0.3678025057100129
-0.4768908042499902	0.3652022055266434
-0.4768297690937402	0.36028209088937546
-0.4767687339374902	0.3530711119301254
-0.4767076987812402	0.34361275105757955
-0.4766466636249902	0.3319648236591395
-0.4765856284687402	0.31819905357521827
-0.4765245933124902	0.3024006909747808
-0.4764635581562402	0.28466792228909266
-0.4764025229999902	0.2651113001928657
-0.4763414878437402	0.24385302186850938
-0.4762804526874902	0.2210261766726671
-0.4762194175312402	0.19677389028441725
-0.4761583823749902	0.17124845241563771
-0.4760973472187402	0.1446103096536605
-0.4760363120624902	0.11702711982417838
-0.4759752769062402	0.0886726039987705
-0.4759142417499902	0.05972552586643421
-0.4758532065937402	0.03036852391151734
-0.4757921714374902	0.0007869390480012152
-0.4757311362812402	-0.028832307434847788
-0.4756701011249902	-0.058301967794046304
-0.4756090659687402	-0.08743560428882059
-0.4755480308124902	-0.11604881051238802
-0.4754869956562402	-0.14396033436038436
-0.4754259604999902	-0.17099330720057282
-0.4753649253437402	-0.19697629299760092
-0.4753038901874902	-0.22174442732516775
-0.4752428550312402	-0.24514045182162822
-0.4751818198749902	-0.26701573021327535
-0.4751207847187402	-0.28723117989401936
-0.4750597495624902	-0.30565817358196057
-0.4749987144062402	-0.32217936290590626
-0.4749376792499902	-0.33668942214717484
-0.4748766440937402	-0.34909573161802565
-0.4748156089374902	-0.3593189755439848
-0.4747545737812402	-0.367293644959286
-0.4746935386249902	-0.3729684628136933
-0.4746325034687402	-0.3763067321191098
-0.4745714683124902	-0.37728655248246357
-0.4745104331562402	-0.3759009914077687
-0.4744493979999902	-0.37215811798586207
-0.4743883628437402	-0.366080970895148
-0.4743273276874902	-0.35770741340196516
-0.4742662925312402	-0.3470899005466201
-0.4742052573749902	-0.3342951581393031
-0.4741442222187402	-0.31940375707519575
-0.4740831870624902	-0.30250961010668176
-0.4740221519062402	-0.2837193921825267
-0.4739611167499902	-0.26315184067681596
-0.4739000815937402	-0.24093704084467868
-0.4738390464374902	-0.21721557264084473
-0.4737780112812402	-0.1921376282276944
-0.4737169761249902	-0.1658620831092417
-0.4736559409687402	-0.13855544857479593
-0.4735949058124902	-0.11039085280282772
-0.4735338706562402	-0.0815469040419498
-0.4734728354999902	-0.052206604986850744
-0.4734118003437402	-0.022556131331938786
-0.4733507651874902	0.007216320208700381
-0.4732897300312402	0.036921717370001376
-0.4732286948749902	0.06637143210296623
-0.4731676597187402	0.09537842848844384
-0.4731066245624902	0.12375843231640478
-0.4730455894062402	0.151331155800545
-0.4729845542499902	0.17792139333323934
-0.4729235190937402	0.2033601787798034
-0.4728624839374902	0.22748588272113723
-0.4728014487812402	0.25014516331383513
-0.4727404136249902	0.27119405927027757
-0.4726793784687402	0.29049880961034336
-0.4726183433124902	0.3079368042831829
-0.4725573081562402	0.3233972852960359
-0.4724962729999902	0.33678212628180515
-0.4724352378437402	0.34800641833643486
-0.4723742026874902	0.35699904491394335
-0.4723131675312402	0.3637031277770985
-0.4722521323749902	0.3680764005826925
-0.4721910972187402	0.37009148158449306
-0.4721300620624902	0.36973605644679114
-0.4720690269062402	0.36701296401062755
-0.4720079917499902	0.361940176315958
-0.4719469565937402	0.35455070270397104
-0.4718859214374902	0.3448923676071328
-0.4718248862812402	0.33302752677594805
-0.4717638511249902	0.3190326593636003
-0.4717028159687402	0.3029979002319768
-0.4716417808124902	0.2850264431964852
-0.4715807456562402	0.2652339217535838
-0.4715197104999902	0.2437476302793961
-0.4714586753437402	0.2207057602993816
-0.4713976401874902	0.19625646782676276
-0.4713366050312402	0.17055699295123486
-0.4712755698749902	0.1437725814941609
-0.4712145347187402	0.11607548893455988
-0.4711534995624902	0.08764387116578709
-0.4710924644062402	0.058660598842111854
-0.4710314292499902	0.02931214021399204
-0.4709703940937402	-0.00021263788430151196
-0.4709093589374902	-0.02972373088271772
-0.4708483237812402	-0.05903111759116743
-0.4707872886249902	-0.08794612451423829
-0.4707262534687402	-0.11628245319292718
-0.4706652183124902	-0.1438575501527824
-0.4706041831562402	-0.1704936563914565
-0.4705431479999902	-0.1960190149528485
-0.4704821128437402	-0.22026895930074605
-0.4704210776874902	-0.24308695107840453
-0.4703600425312402	-0.2643256357751514
-0.4702990073749902	-0.28384773893097454
-0.4702379722187402	-0.3015269964151396
-0.4701769370624902	-0.3172489323337967
-0.4701159019062402	-0.33091165193519567
-0.4700548667499902	-0.342426419895407
-0.4699938315937402	-0.35171834874834096
-0.4699327964374902	-0.3587267474117621
-0.4698717612812402	-0.36340567840774046
-0.4698107261249902	-0.36572409206513057
-0.4697496909687402	-0.36566619380595
