Time	Frequency
-0.5000405903437581	0.07733851065719355
-0.49997955518750814	0.043003912189510066
-0.49991852003125814	0.008347334669448753
-0.49985748487500814	-0.026374515053799272
-0.49979644971875814	-0.06090436790457727
-0.49973541456250814	-0.09498628507026978
-0.49967437940625814	-0.12836764790957012
-0.49961334425000814	-0.1608009734266286
-0.49955230909375814	-0.19204586251952416
-0.49949127393750814	-0.2218707288641103
-0.49943023878125814	-0.25005458448746204
-0.49936920362500814	-0.27638872821490895
-0.49930816846875814	-0.300678212604747
-0.49924713331250814	-0.32274349173021455
-0.49918609815625814	-0.34242156267463053
-0.49912506300000814	-0.35956737617864787
-0.49906402784375814	-0.37405484658651966
-0.49900299268750814	-0.385777784269676
-0.49894195753125814	-0.39465079888204885
-0.49888092237500814	-0.40060980817543407
-0.49881988721875814	-0.4036126764762098
-0.49875885206250814	-0.40363939987003494
-0.49869781690625814	-0.40069236394136826
-0.49863678175000814	-0.3947962792711275
-0.49857574659375814	-0.38599800284405433
-0.49851471143750814	-0.37436622565078703
-0.49845367628125814	-0.3599909019037597
-0.49839264112500814	-0.34298264129820205
-0.49833160596875814	-0.32347181907248956
-0.49827057081250814	-0.30160764679216623
-0.49820953565625814	-0.2775570094254031
-0.49814850050000814	-0.2515032450655939
-0.49808746534375814	-0.22364474630159487
-0.49802643018750814	-0.19419345397248514
-0.49796539503125814	-0.1633733051264606
-0.49790435987500814	-0.13141847531800863
-0.49784332471875814	-0.09857169684891773
-0.49778228956250814	-0.0650823385726797
-0.49772125440625814	-0.031204592827360884
-0.49766021925000814	0.0028044784489837547
-0.49759918409375814	0.03668689989010084
-0.49753814893750814	0.07018565790505031
-0.49747711378125814	0.10304677872967619
-0.49741607862500814	0.13502109263034062
-0.49735504346875814	0.16586626272593513
-0.49729400831250814	0.19534850972945725
-0.49723297315625814	0.22324446334338638
-0.49717193800000814	0.24934281918554208
-0.49711090284375814	0.273445909153732
-0.49704986768750814	0.29537131517051035
-0.49698883253125814	0.314953088533163
-0.49692779737500814	0.33204318886268636
-0.49686676221875814	0.34651246476718345
-0.49680572706250814	0.3582517344562314
-0.49674469190625814	0.3671725704344029
-0.49668365675000814	0.3732079960768777
-0.49662262159375814	0.3763130014867173
-0.49656158643750814	0.3764648712592632
-0.49650055128125814	0.3736634088430065
-0.49643951612500814	0.3679308807175601
-0.49637848096875814	0.35931193862975735
-0.49631744581250814	0.34787319620380736
-0.49625641065625814	0.3337028266115543
-0.49619537550000814	0.31690981698356424
-0.49613434034375814	0.2976232089707773
-0.49607330518750814	0.27599111131215714
-0.49601227003125814	0.25217955473427667
-0.49595123487500814	0.22637129597468125
-0.49589019971875814	0.19876436608293188
-0.49582916456250814	0.1695706562500415
-0.49576812940625814	0.1390142263676702
-0.49570709425000814	0.10732968304564305
-0.49564605909375814	0.0747603609579064
-0.49558502393750814	0.041556476262961856
-0.49552398878125814	0.007973276998881661
-0.49546295362500814	-0.025730987530937145
-0.49540191846875814	-0.059296909483701324
-0.49534088331250814	-0.09246600786434955
-0.49527984815625814	-0.12498260216392923
-0.49521881300000814	-0.15659582110782777
-0.49515777784375814	-0.18706149566125213
-0.49509674268750814	-0.21614397870315777
-0.49503570753125814	-0.2436180345040009
-0.49497467237500814	-0.2692704329426116
-0.49491363721875814	-0.29290171597285086
-0.49485260206250814	-0.31432759942777694
-0.49479156690625814	-0.33338047183628505
-0.49473053175000814	-0.3499106455854679
-0.49466949659375814	-0.3637874916022638
-0.49460846143750814	-0.3749004970565014
-0.49454742628125814	-0.3831600591319287
-0.49448639112500814	-0.38849823876940864
-0.49442535596875814	-0.39086923248480243
-0.49436432081250814	-0.3902498113542042
-0.49430328565625814	-0.38663943898791997
-0.49424225050000814	-0.38006034713049597
-0.49418121534375814	-0.37055736348536145
-0.49412018018750814	-0.3581975777072142
-0.49405914503125814	-0.3430698840909832
-0.49399810987500814	-0.3252842723895893
-0.49393707471875814	-0.304971062859692
-0.49387603956250814	-0.28227988584997343
-0.49381500440625814	-0.25737859292340215
-0.49375396925000814	-0.23045197773131887
-0.49369293409375814	-0.2017003888536087
-0.49363189893750814	-0.17133822528387888
-0.49357086378125814	-0.13959232089475368
-0.49350982862500814	-0.10670022823548551
-0.49344879346875814	-0.07290839619844192
-0.49338775831250814	-0.03847038079673084
-0.49332672315625814	-0.0036448211261285654
-0.49326568800000814	0.031306418175419404
-0.49320465284375814	0.06612031230896324
-0.49314361768750814	0.10053463515832187
-0.49308258253125814	0.13428990878675479
-0.49302154737500814	0.16713150886268804
-0.49296051221875814	0.19881140800053865
-0.49289947706250814	0.22909025097385746
-0.49283844190625814	0.25773905155879545
-0.49277740675000814	0.284540966507012
-0.49271637159375814	0.30929301094966954
-0.49265533643750814	0.33180749111178126
-0.49259430128125814	0.35191356116088074
-0.49253326612500814	0.3694584388926365
-0.49247223096875814	0.384308623523631
-0.49241119581250814	0.39635090996649036
-0.49235016065625814	0.4054932460919499
-0.49228912550000814	0.41166546448065616
-0.49222809034375814	0.4148198142331764
-0.49216705518750814	0.4149313333139441
-0.49210602003125814	0.411998062935908
-0.49204498487500814	0.40604106120455075
-0.49198394971875814	0.3971042581372864
-0.49192291456250814	0.38525414184900336
-0.49186187940625814	0.37057924761070365
-0.49180084425000814	0.35318951636521295
-0.49173980909375814	0.33321544688431537
-0.49167877393750814	0.3108071329693267
-0.49161773878125814	0.28613311835272426
-0.49155670362500814	0.2593791316544195
-0.49149566846875814	0.23074667848688743
-0.49143463331250814	0.20045150882547588
-0.49137359815625814	0.16872200035470458
-0.49131256300000814	0.13579740751286704
-0.49125152784375814	0.1019260647209505
-0.49119049268750814	0.06736348363301832
-0.49112945753125814	0.03237040952204381
-0.49106842237500814	-0.002789128659742337
-0.49100738721875814	-0.037849857255957575
-0.49094635206250814	-0.07254728364452367
-0.49088531690625814	-0.10661967168090912
-0.49082428175000814	-0.13981005205963512
-0.49076324659375814	-0.17186822686746944
-0.49070221143750814	-0.20255258116687325
-0.49064117628125814	-0.23163201193510288
-0.49058014112500814	-0.2588876675388805
-0.49051910596875814	-0.2841145593814115
-0.49045807081250814	-0.307123265624729
-0.49039703565625814	-0.3277412013385529
-0.49033600050000814	-0.3458140829987785
-0.49027496534375814	-0.3612070579049133
-0.49021393018750814	-0.3738056985006642
-0.49015289503125814	-0.38351696373110866
-0.49009185987500814	-0.39026982236790086
-0.49003082471875814	-0.3940158915576522
-0.48996978956250814	-0.39472971983042066
-0.48990875440625814	-0.3924090678548495
-0.48984771925000814	-0.3870748747258367
-0.48978668409375814	-0.37877112490184917
-0.48972564893750814	-0.3675645286026112
-0.48966461378125814	-0.3535439757502152
-0.48960357862500814	-0.33681992586715376
-0.48954254346875814	-0.31752349064944485
-0.48948150831250814	-0.29580550968810043
-0.48942047315625814	-0.2718353492091125
-0.48935943800000814	-0.24579962120257806
-0.48929840284375814	-0.2179007948129969
-0.48923736768750814	-0.18835558271313965
-0.48917633253125814	-0.15739335033601057
-0.48911529737500814	-0.12525432540904707
-0.48905426221875814	-0.09218775818569529
-0.48899322706250814	-0.058450051895158596
-0.48893219190625814	-0.02430274338802245
-0.48887115675000814	0.009989464958150921
-0.48881012159375814	0.04416072171518357
-0.48874908643750814	0.07794611515824298
-0.48868805128125814	0.1110836627779698
-0.48862701612500814	0.14331631901008945
-0.48856598096875814	0.1743940056547758
-0.48850494581250814	0.20407545571033742
-0.48844391065625814	0.23213012570798014
-0.48838287550000814	0.25833996170508183
-0.48832184034375814	0.282501043171035
-0.48826080518750814	0.304425214109963
-0.48819977003125814	0.3239414718499631
-0.48813873487500814	0.3408973429434123
-0.48807769971875814	0.35516002717246864
-0.48801666456250814	0.36661743661970136
-0.48795562940625814	0.3751790830127134
-0.48789459425000814	0.3807767540054982
-0.48783355909375814	0.38336507882811727
-0.48777252393750814	0.3829218671802126
-0.48771148878125814	0.3794483037786858
-0.48765045362500814	0.37296894745002845
-0.48758941846875814	0.3635315578862806
-0.48752838331250814	0.35120673778905526
-0.48746734815625814	0.33608740805302056
-0.48740631300000814	0.3182881030284853
-0.48734527784375814	0.2979441031009139
-0.48728424268750814	0.2752104162028156
-0.48722320753125814	0.250260577049324
-0.48716217237500814	0.2232853458342597
-0.48710113721875814	0.19449125103200754
-0.48704010206250814	0.1640989861706088
-0.48697906690625814	0.13234176463145453
-0.48691803175000814	0.09946348602855022
-0.48685699659375814	0.06571692065125037
-0.48679596143750814	0.031361727168404886
-0.48673492628125814	-0.003337527564837019
-0.48667389112500814	-0.03811336465063467
-0.48661285596875814	-0.072697522572915
-0.48655182081250814	-0.10682291489600752
-0.48649078565625814	-0.14022579173099395
-0.48642975050000814	-0.17264769559166562
-0.48636871534375814	-0.20383747765043303
-0.48630768018750814	-0.23355324638208325
-0.48624664503125814	-0.2615641973334953
-0.48618560987500814	-0.28765245172118015
-0.48612457471875814	-0.31161466201427235
-0.48606353956250814	-0.3332636725200351
-0.48600250440625814	-0.3524298991422726
-0.48594146925000814	-0.36896268417717176
-0.48588043409375814	-0.38273146577212097
-0.48581939893750814	-0.3936267588680193
-0.48575836378125814	-0.40156107786657963
-0.48569732862500814	-0.40646955604443374
-0.48563629346875814	-0.40831050272541297
-0.48557525831250814	-0.4070657371267515
-0.48551422315625814	-0.4027407158085725
-0.48545318800000814	-0.3953645495466422
-0.48539215284375814	-0.38498975693714266
-0.48533111768750814	-0.3716919046295482
-0.48527008253125814	-0.35556903155111885
-0.48520904737500814	-0.3367409041106783
-0.48514801221875814	-0.3153481356558122
-0.48508697706250814	-0.2915510785233361
-0.48502594190625814	-0.26552865767731354
-0.48496490675000814	-0.23747695976784347
-0.48490387159375814	-0.2076077642419378
-0.48484283643750814	-0.17614693296680956
-0.48478180128125814	-0.14333264555059466
-0.48472076612500814	-0.10941363028651004
-0.48465973096875814	-0.0746472182322912
-0.48459869581250814	-0.03929738972627701
-0.48453766065625814	-0.003632742226066361
-0.48447662550000814	0.032075565598503566
-0.48441559034375814	0.06755589216326026
-0.48435455518750814	0.10253821355817387
-0.48429352003125814	0.13675618183621002
-0.48423248487500814	0.1699491969082749
-0.48417144971875814	0.20186438244247515
-0.48411041456250814	0.23225856884470134
-0.48404937940625814	0.2609001274569749
-0.48398834425000814	0.28757079246144024
-0.48392730909375814	0.31206734620115284
-0.48386627393750814	0.3342031251739623
-0.48380523878125814	0.35380956942953656
-0.48374420362500814	0.37073742817168137
-0.48368316846875814	0.384857980447459
-0.48362213331250814	0.3960640060314725
-0.48356109815625814	0.4042706130862736
-0.48350006300000814	0.409415943751585
-0.48343902784375814	0.41146158396357674
-0.48337799268750814	0.4103929603031605
-0.48331695753125814	0.40621937800824304
-0.48325592237500814	0.3989740141714943
-0.48319488721875814	0.38871364859562657
-0.48313385206250814	0.3755182312471824
-0.48307281690625814	0.3594902925050551
-0.48301178175000814	0.34075413819141426
-0.48295074659375814	0.3194549324121993
-0.48288971143750814	0.29575753595738763
-0.48282867628125814	0.26984529741115587
-0.48276764112500814	0.24191860324453662
-0.48270660596875814	0.2121933635213897
-0.48264557081250814	0.180899342148527
-0.48258453565625814	0.14827838250253128
-0.48252350050000814	0.11458255856733418
-0.48246246534375814	0.08007222550528158
-0.48240143018750814	0.04501400826775603
-0.48234039503125814	0.009678758603473912
-0.48227935987500814	-0.025660543975904435
-0.48221832471875814	-0.06073091440196785
-0.48215728956250814	-0.09526142073894524
-0.48209625440625814	-0.12898535325270188
-0.48203521925000814	-0.16164222015514612
-0.48197418409375814	-0.19297978556396145
-0.48191314893750814	-0.22275605807148627
-0.48185211378125814	-0.25074108350433527
-0.48179107862500814	-0.2767188053001247
-0.48173004346875814	-0.30048871443658776
-0.48166900831250814	-0.3218673770098444
-0.48160797315625814	-0.34068990853906017
-0.48154693800000814	-0.356811205489964
-0.48148590284375814	-0.3701071180616521
-0.48142486768750814	-0.3804753942507669
-0.48136383253125814	-0.38783648024608347
-0.48130279737500814	-0.3921341534178761
-0.48124176221875814	-0.3933359543654834
-0.48118072706250814	-0.3914334628473147
-0.48111969190625814	-0.3864423467979163
-0.48105865675000814	-0.3784022785073788
-0.48099762159375814	-0.36737660914394943
-0.48093658643750814	-0.3534519066127869
-0.48087555128125814	-0.3367372781069704
-0.48081451612500814	-0.31736354478892886
-0.48075348096875814	-0.29548222675829233
-0.48069244581250814	-0.27126437710655726
-0.48063141065625814	-0.24489926684694846
-0.48057037550000814	-0.2165929248179502
-0.48050934034375814	-0.1865665326928377
-0.48044830518750814	-0.155054724561271
-0.48038727003125814	-0.12230379227319818
-0.48032623487500814	-0.08856972422620916
-0.48026519971875814	-0.05411627253013628
-0.48020416456250814	-0.019212892754667445
-0.48014312940625814	0.015867348513005645
-0.48008209425000814	0.05084990389713792
-0.48002105909375814	0.08546085826857121
-0.47996002393750814	0.11942905269718171
-0.47989898878125814	0.1524882402859474
-0.47983795362500814	0.18437907932422676
-0.47977691846875814	0.2148512125161293
-0.47971588331250814	0.24366521871240623
-0.47965484815625814	0.2705944254785435
-0.47959381300000814	0.29542674279069236
-0.47953277784375814	0.31796627166498503
-0.47947174268750814	0.3380348580445905
-0.47941070753125814	0.355473486406446
-0.47934967237500814	0.3701435260423802
-0.47928863721875814	0.3819278185867434
-0.47922760206250814	0.39073159395699636
-0.47916656690625814	0.3964832436266237
-0.47910553175000814	0.39913486138631427
-0.47904449659375814	0.3986626591950175
-0.47898346143750814	0.3950671434016232
-0.47892242628125814	0.3883731399682043
-0.47886139112500814	0.37862961411134066
-0.47880035596875814	0.36590929921301024
-0.47873932081250814	0.35030815382613567
-0.47867828565625814	0.3319446246545125
-0.47861725050000814	0.31095874200189183
-0.47855621534375814	0.2875110505382124
-0.47849518018750814	0.26178135534510694
-0.47843414503125814	0.23396736424794434
-0.47837310987500814	0.20428314148127974
-0.47831207471875814	0.17295744081959705
-0.47825103956250814	0.14023199729899805
-0.47819000440625814	0.10635956272358431
-0.47812896925000814	0.07160203455457465
-0.47806793409375814	0.03622837049095377
-0.47800689893750814	0.0005125162783104887
-0.47794586378125814	-0.03526868656583776
-0.47788482862500814	-0.07083775333448881
-0.47782379346875814	-0.1059185613783889
-0.47776275831250814	-0.14023863783024682
-0.47770172315625814	-0.17353121579772815
-0.47764068800000814	-0.20553730080653904
-0.47757965284375814	-0.2360077415881346
-0.47751861768750814	-0.2647051094279055
-0.47745758253125814	-0.29140562077536364
-0.47739654737500814	-0.31590083901483806
-0.47733551221875814	-0.33799930541280504
-0.47727447706250814	-0.35752807219785804
-0.47721344190625814	-0.3743340402266988
-0.47715240675000814	-0.3882851334478131
-0.47709137159375814	-0.39927141465925575
-0.47703033643750814	-0.4072058549224545
-0.47696930128125814	-0.41202511576240747
-0.47690826612500814	-0.4136900036910928
-0.47684723096875814	-0.41218578837611797
-0.47678619581250814	-0.4075223757421109
-0.47672516065625814	-0.39973417761550056
-0.47666412550000814	-0.3888799337066249
-0.47660309034375814	-0.37504219527170013
-0.47654205518750814	-0.35832675745215115
-0.47648102003125814	-0.33886180135797705
-0.47641998487500814	-0.3167969421854995
-0.47635894971875814	-0.2923020616926171
-0.47629791456250814	-0.26556598470195136
-0.47623687940625814	-0.23679505424305664
-0.47617584425000814	-0.2062114892127072
-0.47611480909375814	-0.17405170497849884
-0.47605377393750814	-0.14056444270499008
-0.47599273878125814	-0.1060088620701433
-0.47593170362500814	-0.07065252729548763
-0.47587066846875814	-0.034769312005807525
-0.47580963331250814	0.001362720319096575
-0.47574859815625814	0.03746348735769946
-0.47568756300000814	0.07325305292853676
-0.47562652784375814	0.10845382942571469
-0.47556549268750814	0.14279274015438248
-0.47550445753125814	0.17600333471838536
-0.47544342237500814	0.2078278719662321
-0.47538238721875814	0.2380193577915256
-0.47532135206250814	0.26634344589779657
-0.47526031690625814	0.29258027319218577
-0.47519928175000814	0.3165262244246363
-0.47513824659375814	0.3379954480016616
-0.47507721143750814	0.35682138789105394
-0.47501617628125814	0.3728580668847946
-0.47495514112500814	0.38598120152241666
-0.47489410596875814	0.3960892406995422
-0.47483307081250814	0.40310410458266893
-0.47477203565625814	0.4069718698777197
-0.47471100050000814	0.4076631356378085
-0.47464996534375814	0.4051733057699889
-0.47458893018750814	0.3995226274259221
-0.47452789503125814	0.390756016918326
-0.47446685987500814	0.3789427659687248
-0.47440582471875814	0.3641759509941055
-0.47434478956250814	0.34657177700490566
-0.47428375440625814	0.3262686164099803
-0.47422271925000814	0.3034259906791786
-0.47416168409375814	0.2782232957964695
-0.47410064893750814	0.25085840950035926
-0.47403961378125814	0.22154618146603336
-0.47397857862500814	0.19051670937225856
-0.47391754346875814	0.15801359828158626
-0.47385650831250814	0.12429199802599408
-0.47379547315625814	0.08961668228924584
-0.47373443800000814	0.05425991996967919
-0.47367340284375814	0.018499371093434046
-0.47361236768750814	-0.017384075000463697
-0.47355133253125814	-0.05310854120800267
-0.47349029737500814	-0.0883932903781218
-0.47342926221875814	-0.12296102909463497
-0.47336822706250814	-0.156539985241551
-0.47330719190625814	-0.1888661015406536
-0.47324615675000814	-0.21968509468371097
-0.47318512159375814	-0.24875441276250013
-0.47312408643750814	-0.27584523194865634
-0.47306305128125814	-0.3007441346377957
-0.47300201612500814	-0.32325490939327683
-0.47294098096875814	-0.3432000111479775
-0.47287994581250814	-0.3604219977165176
-0.47281891065625814	-0.3747847942309304
-0.47275787550000814	-0.3861746940551215
-0.47269684034375814	-0.3945013761813151
-0.47263580518750814	-0.3996985030615708
-0.47257477003125814	-0.4017243460454809
-0.47251373487500814	-0.4005620788193718
-0.47245269971875814	-0.39621991840134724
-0.47239166456250814	-0.3887311094735187
-0.47233062940625814	-0.3781536190326585
-0.47226959425000814	-0.36456975593199714
-0.47220855909375814	-0.34808547786757243
-0.47214752393750814	-0.3288296190471892
-0.47208648878125814	-0.3069528519354064
-0.47202545362500814	-0.2826265369470444
-0.47196441846875814	-0.25604139402811016
-0.47190338331250814	-0.22740596878735728
-0.47184234815625814	-0.19694507076336856
-0.47178131300000814	-0.16489795372299426
-0.47172027784375814	-0.13151647327051913
-0.47165924268750814	-0.0970631288786205
-0.47159820753125814	-0.06180895168394392
-0.47153717237500814	-0.02603145041514868
-0.47147613721875814	0.009987629576761055
-0.47141510206250814	0.04596449075764928
-0.47135406690625814	0.08161549236897668
-0.47129303175000814	0.11665944085059085
-0.47123199659375814	0.15081972328445964
-0.47117096143750814	0.18382656842311698
-0.47110992628125814	0.21541910852129148
-0.47104889112500814	0.24534745386117246
-0.47098785596875814	0.27337469275385107
-0.47092682081250814	0.2992787052756348
-0.47086578565625814	0.3228539953878549
-0.47080475050000814	0.34391322796094426
-0.47074371534375814	0.36228879458195434
-0.47068268018750814	0.37783409157449305
-0.47062164503125814	0.3904247010628513
-0.47056060987500814	0.39995940140078423
-0.47049957471875814	0.40636092979449406
