Time	Frequency
-0.5000449279062593	0.22450996505639764
-0.4999838927500093	0.20414472457139127
-0.4999228575937593	0.18249148049915087
-0.4998618224375093	0.15967601326104502
-0.4998007872812593	0.13583101965477104
-0.4997397521250093	0.11109542617996873
-0.4996787169687593	0.08561346782183527
-0.4996176818125093	0.059533957158176116
-0.4995566466562593	0.033009329625566075
-0.4994956115000093	0.006194785088238677
-0.4994345763437593	-0.0207526004865052
-0.4993735411875093	-0.04767484964105469
-0.4993125060312593	-0.07441393469218671
-0.4992514708750093	-0.10081280587824087
-0.4991904357187593	-0.1267161830844603
-0.4991294005625093	-0.15197161332178288
-0.4990683654062593	-0.17643022362403246
-0.4990073302500093	-0.19994773367683125
-0.4989462950937593	-0.22238517966770535
-0.4988852599375093	-0.24360983472232337
-0.4988242247812593	-0.2634959297405328
-0.4987631896250093	-0.28192541024580275
-0.4987021544687593	-0.2987886601885748
-0.4986411193125093	-0.31398510438506966
-0.4985800841562593	-0.32742385676326813
-0.4985190490000093	-0.3390241992495379
-0.4984580138437593	-0.3487161413799223
-0.4983969786875093	-0.3564407383563061
-0.4983359435312593	-0.36215055399087454
-0.4982749083750093	-0.36580984297517233
-0.4982138732187593	-0.3673948486897911
-0.4981528380625093	-0.3668939001007309
-0.4980918029062593	-0.36430751110798765
-0.4980307677500093	-0.3596483816144044
-0.4979697325937593	-0.3529413209022796
-0.4979086974375093	-0.34422312901614555
-0.4978476622812593	-0.33354236313560925
-0.4977866271250093	-0.3209590863977646
-0.4977255919687593	-0.30654449211077395
-0.4976645568125093	-0.29038053573476297
-0.4976035216562593	-0.27255940337634194
-0.4975424865000093	-0.25318303833587175
-0.4974814513437593	-0.23236249043538015
-0.4974204161875093	-0.21021732955812725
-0.4973593810312593	-0.18687487165753852
-0.4972983458750093	-0.16246953776624742
-0.4972373107187593	-0.137141962833812
-0.4971762755625093	-0.11103825272223497
-0.4971152404062593	-0.08430909092443306
-0.4970542052500093	-0.057108856221916034
-0.4969931700937593	-0.029594767250919068
-0.4969321349375093	-0.0019258514406948388
-0.4968710997812593	0.025737819867242558
-0.4968100646250093	0.05323627561274399
-0.4967490294687593	0.08041037090163883
-0.4966879943125093	0.10710290690235075
-0.4966269591562593	0.13315942864781796
-0.4965659240000093	0.15842919863044733
-0.4965048888437593	0.18276604933571078
-0.4964438536875093	0.20602926740091426
-0.4963828185312593	0.22808441507096028
-0.4963217833750093	0.24880410252749835
-0.4962607482187593	0.2680687810759853
-0.4961997130625093	0.28576739183431044
-0.4961386779062593	0.30179808880161657
-0.4960776427500093	0.3160687712839611
-0.4960166075937593	0.32849768708990484
-0.4959555724375093	0.3390138698593095
-0.4958945372812593	0.3475576010808762
-0.4958335021250093	0.35408072548352615
-0.4957724669687593	0.358546975649092
-0.4957114318125093	0.3609321495908331
-0.4956503966562593	0.3612242956753345
-0.4955893615000093	0.3594237503772101
-0.4955283263437593	0.35554317115228407
-0.4954672911875093	0.3496074355886764
-0.4954062560312593	0.3416535250709833
-0.4953452208750093	0.33173028244009023
-0.4952841857187593	0.3198981600077452
-0.4952231505625093	0.3062288205582448
-0.4951621154062593	0.2908047774650949
-0.4951010802500093	0.27371883496612
-0.4950400450937593	0.25507362921446514
-0.4949790099375093	0.23498094044530865
-0.4949179747812593	0.2135611025725975
-0.4948569396250093	0.1909422433828683
-0.4947959044687593	0.16725957081163084
-0.4947348693125093	0.14265455279342046
-0.4946738341562593	0.11727407642573777
-0.4946127990000093	0.09126960813714506
-0.4945517638437593	0.06479626306974369
-0.4944907286875093	0.038011943815543944
-0.4944296935312593	0.011076312364621022
-0.4943686583750093	-0.015850026443632963
-0.4943076232187593	-0.0426066038076441
-0.4942465880625093	-0.06903392307672732
-0.4941855529062593	-0.09497451395931587
-0.4941245177500093	-0.12027375087658547
-0.4940634825937593	-0.14478088438333908
-0.4940024474375093	-0.16834983155077834
-0.4939414122812593	-0.1908401251140121
-0.4938803771250093	-0.21211768869972783
-0.4938193419687593	-0.23205567946231456
-0.4937583068125093	-0.25053521342400076
-0.4936972716562593	-0.26744606245912245
-0.4936362365000093	-0.282687371136936
-0.4935752013437593	-0.2961681623467864
-0.4935141661875093	-0.30780798719171787
-0.4934531310312593	-0.3175373188669098
-0.4933920958750093	-0.3252980202550608
-0.4933310607187593	-0.3310436710683468
-0.4932700255625093	-0.3347398592424051
-0.4932089904062593	-0.33636438204954133
-0.4931479552500093	-0.33590738929956726
-0.4930869200937593	-0.33337144099401805
-0.4930258849375093	-0.328771506326796
-0.4929648497812593	-0.3221348682059953
-0.4929038146250093	-0.3135009806619814
-0.4928427794687593	-0.3029212260330697
-0.4927817443125093	-0.2904586296457068
-0.4927207091562593	-0.27618747725409837
-0.4926596740000093	-0.26019289210321583
-0.4925986388437593	-0.24257031962208875
-0.4925376036875093	-0.22342498693731022
-0.4924765685312593	-0.20287124954021746
-0.4924155333750093	-0.18103196453844284
-0.4923544982187593	-0.15803770542051027
-0.4922934630625093	-0.13402604728628453
-0.4922324279062593	-0.10914071541841851
-0.4921713927500093	-0.08353073313193402
-0.4921103575937593	-0.057349591209296
-0.4920493224375093	-0.030754241634145932
-0.4919882872812593	-0.003904274429762673
-0.4919272521250093	0.023039114004863047
-0.4918662169687593	0.04991403072231605
-0.4918051818125093	0.07655886794604956
-0.4917441466562593	0.10281328601233665
-0.4916831115000093	0.1285190731592867
-0.4916220763437593	0.1535212500814663
-0.4915610411875093	0.17766881885500171
-0.4915000060312593	0.2008158063454773
-0.4914389708750093	0.22282203258561734
-0.4913779357187593	0.24355401525569764
-0.4913169005625093	0.26288573758894107
-0.4912558654062593	0.2806994054562866
-0.4911948302500093	0.2968861663652888
-0.4911337950937593	0.31134674673047236
-0.4910727599375093	0.32399206437219397
-0.4910117247812593	0.3347437475981593
-0.4909506896250093	0.3435346336959268
-0.4908896544687593	0.35030914111268846
-0.4908286193125093	0.3550236604776301
-0.4907675841562593	0.35764675360925186
-0.4907065490000093	0.35815942627854763
-0.4906455138437593	0.35655517430249306
-0.4905844786875093	0.3528401033009721
-0.4905234435312593	0.3470328328547787
-0.4904624083750093	0.3391644603149813
-0.4904013732187593	0.3292783264484021
-0.4903403380625093	0.31742981634486234
-0.4902793029062593	0.3036859960888851
-0.4902182677500093	0.2881252652043557
-0.4901572325937593	0.27083685364624394
-0.4900961974375093	0.25192034241095246
-0.4900351622812593	0.23148505225803342
-0.4899741271250093	0.20964940317521907
-0.4899130919687593	0.18654022526836267
-0.4898520568125093	0.1622920163538973
-0.4897910216562593	0.13704613130572893
-0.4897299865000093	0.11094995982344158
-0.4896689513437593	0.08415604216629043
-0.4896079161875093	0.05682119113337803
-0.4895468810312593	0.029105534428883778
-0.4894858458750093	0.0011715810424126115
-0.4894248107187593	-0.026816739128585926
-0.4893637755625093	-0.054695069579327474
-0.4893027404062593	-0.0822995550147924
-0.4892417052500093	-0.10946789635568095
-0.4891806700937593	-0.13604022935281948
-0.4891196349375093	-0.16186011987959753
-0.4890585997812593	-0.1867755089382161
-0.4889975646250093	-0.21063958527711213
-0.4889365294687593	-0.23331167195886396
-0.4888754943125093	-0.25465806943102287
-0.4888144591562593	-0.2745528766664327
-0.4887534240000093	-0.2928786818660524
-0.4886923888437593	-0.30952733385696957
-0.4886313536875093	-0.3244005408849805
-0.4885703185312593	-0.33741049987865057
-0.4885092833750093	-0.34848037921836983
-0.4884482482187593	-0.3575448170446087
-0.4883872130625093	-0.36455030613967765
-0.4883261779062593	-0.36945549667527017
-0.4882651427500093	-0.3722315000090787
-0.4882041075937593	-0.37286198587431635
-0.4881430724375093	-0.3713433854250185
-0.4880820372812593	-0.367684808279741
-0.4880210021250093	-0.36190810634254156
-0.4879599669687593	-0.3540476413688851
-0.4878989318125093	-0.34415018440711914
-0.4878378966562593	-0.3322745531537028
-0.4877768615000093	-0.31849135023873143
-0.4877158263437593	-0.3028824714244499
-0.4876547911875093	-0.2855406898150615
-0.4875937560312593	-0.26656904524273234
-0.4875327208750093	-0.24608029448192006
-0.4874716857187593	-0.22419618939911484
-0.4874106505625093	-0.20104679010022425
-0.4873496154062593	-0.17676969598710895
-0.4872885802500093	-0.15150917774377218
-0.4872275450937593	-0.12541540289734623
-0.4871665099375093	-0.09864345185191616
-0.4871054747812593	-0.07135247599055113
-0.4870444396250093	-0.04370468551183731
-0.4869834044687593	-0.015864423910725685
-0.4869223693125093	0.012002824167973531
-0.4868613341562593	0.03973143162761267
-0.4868002990000093	0.06715659382056363
-0.4867392638437593	0.09411534539499464
-0.4866782286875093	0.12044749124731716
-0.4866171935312593	0.1459966059495665
-0.4865561583750093	0.1706109431302438
-0.4864951232187593	0.19414434166841568
-0.4864340880625093	0.21645714501389723
-0.4863730529062593	0.23741693864276636
-0.4863120177500093	0.25689949607155865
-0.4862509825937593	0.27478933918518966
-0.4861899474375093	0.2909806146734066
-0.4861289122812593	0.30537757966676854
-0.4860678771250093	0.3178952824197294
-0.4860068419687593	0.3284600092500062
-0.4859458068125093	0.33700976311680814
-0.4858847716562593	0.34349462163647704
-0.4858237365000093	0.347877057129668
-0.4857627013437593	0.3501321370870848
-0.4857016661875093	0.3502477067316919
-0.4856406310312593	0.3482244469753623
-0.4855795958750093	0.34407588001222267
-0.4855185607187593	0.3378282972886309
-0.4854575255625093	0.3295205904730612
-0.4853964904062593	0.3192040489665612
-0.4853354552500093	0.3069420186195946
-0.4852744200937593	0.2928095719539348
-0.4852133849375093	0.27689300917546505
-0.4851523497812593	0.2592894003698844
-0.4850913146250093	0.24010594837866653
-0.4850302794687593	0.2194594153646962
-0.4849692443125093	0.19747533828377042
-0.4849082091562593	0.17428738710544778
-0.4848471740000093	0.15003644149972276
-0.4847861388437593	0.12486988405361282
-0.4847251036875093	0.09894057237501679
-0.4846640685312593	0.07240605288357826
-0.4846030333750093	0.04542751894783936
-0.4845419982187593	0.0181689118184626
-0.4844809630625093	-0.009204106685251368
-0.4844199279062593	-0.03652514398075504
-0.4843588927500093	-0.06362803983835234
-0.4842978575937593	-0.09034793592099567
-0.4842368224375093	-0.11652217544780294
-0.4841757872812593	-0.14199138867296243
-0.4841147521250093	-0.16660034157954118
-0.4840537169687593	-0.1901989820593072
-0.4839926818125093	-0.2126432487913825
-0.4839316466562593	-0.23379600650835597
-0.4838706115000093	-0.2535278489685987
-0.4838095763437593	-0.27171787297867284
-0.4837485411875093	-0.28825444922929855
-0.4836875060312593	-0.30303583369314163
-0.4836264708750093	-0.3159708607976168
-0.4835654357187593	-0.32697944300353937
-0.4835044005625093	-0.3359930774035498
-0.4834433654062593	-0.34295527143159343
-0.4833823302500093	-0.347821880056565
-0.4833212950937593	-0.350561384209576
-0.4832602599375093	-0.3511550800065565
-0.4831992247812593	-0.3495972139417704
-0.4831381896250093	-0.3458950093533413
-0.4830771544687593	-0.3400686406849164
-0.4830161193125093	-0.33215111552523974
-0.4829550841562593	-0.3221880863905704
-0.4828940490000093	-0.3102375832813238
-0.4828330138437593	-0.29636966536580256
-0.4827719786875093	-0.2806660251021508
-0.4827109435312593	-0.26321947424220454
-0.4826499083750093	-0.24413342000977786
-0.4825888732187593	-0.22352123970212973
-0.4825278380625093	-0.20150558992238668
-0.4824668029062593	-0.17821770657281688
-0.4824057677500093	-0.15379656881357107
-0.4823447325937593	-0.1283881395400451
-0.4822836974375093	-0.1021444031502765
-0.4822226622812593	-0.07522254596758317
-0.4821616271250093	-0.04778393259755437
-0.4821005919687593	-0.01999319207350779
-0.4820395568125093	0.007982804542883176
-0.4819785216562593	0.0359759270102511
-0.4819174865000093	0.06381781067782176
-0.4818564513437593	0.09134086185475494
-0.4817954161875093	0.1183792655880849
-0.4817343810312593	0.1447700180158728
-0.4816733458750093	0.17035383877840682
-0.4816123107187593	0.19497622603648135
-0.4815512755625093	0.21848830260113958
-0.4814902404062593	0.2407477773729324
-0.4814292052500093	0.2616197765965092
-0.4813681700937593	0.28097767384450556
-0.4813071349375093	0.2987038467255623
-0.4812460997812593	0.3146904032743683
-0.4811850646250093	0.32883983356044244
-0.4811240294687593	0.3410655974785339
-0.4810629943125093	0.3512926682172716
-0.4810019591562593	0.3594579696633014
-0.4809409240000093	0.36551078662508507
-0.4808798888437593	0.3694130639305924
-0.4808188536875093	0.3711396470476863
-0.4807578185312593	0.3706784447915975
-0.4806967833750093	0.3680305044279499
-0.4806357482187593	0.36321002028036736
-0.4805747130625093	0.35624425012141714
-0.4805136779062593	0.34717336197863485
-0.4804526427500093	0.33605020190655943
-0.4803916075937593	0.32293997693223053
-0.4803305724375093	0.3079198750633227
-0.4802695372812593	0.2910786089139874
-0.4802085021250093	0.2725158733142179
-0.4801474669687593	0.25234177727210216
-0.4800864318125093	0.23067615938940997
-0.4800253966562593	0.20764788199753637
-0.4799643615000093	0.18339406558030935
-0.4799033263437593	0.15805926478254329
-0.4798422911875093	0.13179458021403534
-0.4797812560312593	0.10475678999156302
-0.4797202208750093	0.07710736564097384
-0.4796591857187593	0.04901153658141036
-0.4795981505625093	0.02063727758352623
-0.4795371154062593	-0.00784571457803518
-0.4794760802500093	-0.0362670080928234
-0.4794150450937593	-0.06445650958368335
-0.4793540099375093	-0.09224542885544688
-0.4792929747812593	-0.11946738285941096
-0.4792319396250093	-0.14595930501214177
-0.4791709044687593	-0.17156252398071653
-0.4791098693125093	-0.19612362866358887
-0.4790488341562593	-0.21949548652030318
-0.4789877990000093	-0.24153807760104448
-0.4789267638437593	-0.26211934738497833
-0.4788657286875093	-0.2811160440640877
-0.4788046935312593	-0.29841441144530534
-0.4787436583750093	-0.3139109494539943
-0.4786826232187593	-0.3275129498037834
-0.4786215880625093	-0.3391391819210194
-0.4785605529062593	-0.3487202508374854
-0.4784995177500093	-0.3561991579314376
-0.4784384825937593	-0.36153152839581976
-0.4783774474375093	-0.3646859855638804
-0.4783164122812593	-0.36564426789815785
-0.4782553771250093	-0.3644013976470533
-0.4781943419687593	-0.3609656861705663
-0.4781333068125093	-0.3553587003738251
-0.4780722716562593	-0.34761514048224657
-0.4780112365000093	-0.3377826175267744
-0.4779502013437593	-0.32592140118448465
-0.4778891661875093	-0.3121040172741799
-0.4778281310312593	-0.296414864868696
-0.4777670958750093	-0.2789496478998212
-0.4777060607187593	-0.25981487686126
-0.4776450255625093	-0.23912713087773857
-0.4775839904062593	-0.21701246715769865
-0.4775229552500093	-0.1936055497328649
-0.4774619200937593	-0.1690489251851153
-0.4774008849375093	-0.14349210689371616
-0.4773398497812593	-0.1170907035338571
-0.4772788146250093	-0.09000544853566582
-0.4772177794687593	-0.06240124872713944
-0.4771567443125093	-0.034446193675124574
-0.4770957091562593	-0.006310501925292728
-0.4770346740000093	0.02183447831853609
-0.4769736388437593	0.04981731565377137
-0.4769126036875093	0.07746755192367107
-0.4768515685312593	0.10461670786356753
-0.4767905333750093	0.13109934447652036
-0.4767294982187593	0.1567540379965971
-0.4766684630625093	0.18142435933106232
-0.4766074279062593	0.20495986471209252
-0.4765463927500093	0.22721696457684826
-0.4764853575937593	0.24805983673905993
-0.4764243224375093	0.26736122070470864
-0.4763632872812593	0.2850032278461678
-0.4763022521250093	0.3008780352457209
-0.4762412169687593	0.3148885674103376
-0.4761801818125093	0.3269490685224949
-0.4761191466562593	0.33698564622747224
-0.4760581115000093	0.34493671765037975
-0.4759970763437593	0.3507533939286051
-0.4759360411875093	0.35439978160514246
-0.4758750060312593	0.35585320060013825
-0.4758139708750093	0.3551043391762303
-0.4757529357187593	0.3521573077698384
-0.4756919005625093	0.3470296256513887
-0.4756308654062593	0.3397521148292329
-0.4755698302500093	0.33036872743338636
-0.4755087950937593	0.3189362718626997
-0.4754477599375093	0.3055240866464171
-0.4753867247812593	0.290213615717823
-0.4753256896250093	0.2730979081370072
-0.4752646544687593	0.2542810999352695
-0.4752036193125093	0.23387771824825593
-0.4751425841562593	0.21201204748373093
-0.4750815490000093	0.18881734566979966
-0.4750205138437593	0.16443505950113885
-0.4749594786875093	0.13901392569575188
-0.4748984435312593	0.11270912695924112
-0.4748374083750093	0.08568129828459736
-0.4747763732187593	0.05809557825082897
-0.4747153380625093	0.0301206010256853
-0.4746543029062593	0.0019274511541656917
-0.4745932677500093	-0.026311328974947642
-0.4745322325937593	-0.05442287874286261
-0.4744711974375093	-0.0822349539944784
-0.4744101622812593	-0.10957709013873672
-0.4743491271250093	-0.1362815749258035
-0.4742880919687593	-0.16218449190569217
-0.4742270568125093	-0.18712672153180537
-0.4741660216562593	-0.21095493334290405
-0.4741049865000093	-0.2335224757383397
-0.4740439513437593	-0.2546903344291472
-0.4739829161875093	-0.2743279370906012
-0.4739218810312593	-0.29231398182266816
-0.4738608458750093	-0.30853717640988965
-0.4737998107187593	-0.3228969111563387
-0.4737387755625093	-0.3353039032950295
-0.4736777404062593	-0.34568072118512405
-0.4736167052500093	-0.3539622855894825
-0.4735556700937593	-0.360096262211194
-0.4734946349375093	-0.3640433968420212
-0.4734335997812593	-0.3657777499617451
-0.4733725646250093	-0.3652868826091441
-0.4733115294687593	-0.36257191807635464
-0.4732504943125093	-0.35764756477609955
-0.4731894591562593	-0.35054201584551586
-0.4731284240000093	-0.34129680394418604
-0.4730673888437593	-0.32996653444675583
-0.4730063536875093	-0.3166185846271612
-0.4729453185312593	-0.3013326733448023
-0.4728842833750093	-0.28420041166958626
-0.4728232482187593	-0.2653247184950351
-0.4727622130625093	-0.24481923006969736
-0.4727011779062593	-0.22280758970311634
-0.4726401427500093	-0.19942271360887065
-0.4725791075937593	-0.1748059675716008
-0.4725180724375093	-0.14910633921099134
-0.4724570372812593	-0.12247949458670422
-0.4723960021250093	-0.0950868669427116
-0.4723349669687593	-0.0670946411498726
-0.4722739318125093	-0.03867278396913867
-0.4722128966562593	-0.009993948845641195
-0.4721518615000093	0.018767503708877697
-0.4720908263437593	0.047436648006071266
-0.4720297911875093	0.0758389859513553
-0.4719687560312593	0.10380157600412691
-0.4719077208750093	0.13115406328679896
-0.4718466857187593	0.15772969849262944
-0.4717856505625093	0.1833664177335732
-0.4717246154062593	0.20790775853678894
-0.4716635802500093	0.2312039208922822
-0.4716025450937593	0.2531125545306838
-0.4715415099375093	0.2734997791895756
-0.4714804747812593	0.2922408663396763
-0.4714194396250093	0.3092211308715109
-0.4713584044687593	0.324336542783179
-0.4712973693125093	0.33749442383825856
-0.4712363341562593	0.34861400613295795
-0.4711752990000093	0.35762691679130904
-0.4711142638437593	0.3644776332248227
-0.4710532286875093	0.36912379845281174
-0.4709921935312593	0.371536506253707
-0.4709311583750093	0.3717004837030799
-0.4708701232187593	0.3696141795636547
-0.4708090880625093	0.3652897990147534
-0.4707480529062593	0.35875321711767244
-0.4706870177500093	0.350043844605689
-0.4706259825937593	0.339214379260043
-0.4705649474375093	0.32633050378456907
-0.4705039122812593	0.3114704756207983
-0.4704428771250093	0.2947246686282282
-0.4703818419687593	0.2761950134566769
-0.4703208068125093	0.2559943904162741
-0.4702597716562593	0.23424593659448653
-0.4701987365000093	0.2110822862094511
-0.4701377013437593	0.18664481002020872
-0.4700766661875093	0.1610826597399481
-0.4700156310312593	0.1345519862167515
-0.4699545958750093	0.10721486075885331
-0.4698935607187593	0.07923837524676203
-0.4698325255625093	0.050793565304746914
-0.4697714904062593	0.022054396521139573
-0.4697104552500093	-0.006803319325950535
