Time	Frequency
-0.5000360011875102	0.3536291268527068
-0.49997496603126024	0.36343836228064785
-0.49991393087501024	0.3706142787137223
-0.49985289571876024	0.3751010982302399
-0.49979186056251024	0.3768624906722367
-0.49973082540626024	0.37588181574914514
-0.49966979025001024	0.3721622673354985
-0.49960875509376024	0.3657268742732667
-0.49954771993751024	0.3566183227068771
-0.49948668478126024	0.344898700033002
-0.49942564962501024	0.33064901576667505
-0.49936461446876024	0.3139686754477097
-0.49930357931251024	0.2949747332857567
-0.49924254415626024	0.27380109671380537
-0.49918150900001024	0.250597533837072
-0.49912047384376024	0.22552864317670115
-0.49905943868751024	0.19877263389893368
-0.49899840353126024	0.17052007253042425
-0.49893736837501024	0.1409725202011661
-0.49887633321876024	0.11034105069320131
-0.49881529806251024	0.07884477205203452
-0.49875426290626024	0.04670922046275761
-0.49869322775001024	0.014164749874693357
-0.49863219259376024	-0.018555142134550107
-0.49857115743751024	-0.051215490673498634
-0.49851012228126024	-0.08358153997658595
-0.49844908712501024	-0.11542051238096135
-0.49838805196876024	-0.14650318052884523
-0.49832701681251024	-0.17660563966824244
-0.49826598165626024	-0.20551084140230472
-0.49820494650001024	-0.23301020344272044
-0.49814391134376024	-0.25890516626691484
-0.49808287618751024	-0.28300850578718767
-0.49802184103126024	-0.30514586915313496
-0.49796080587501024	-0.32515686210410294
-0.49789977071876024	-0.3428963748713151
-0.49783873556251024	-0.358235528232739
-0.49777770040626024	-0.37106265799374016
-0.49771666525001024	-0.3812841578262723
-0.49765563009376024	-0.3888250914158388
-0.49759459493751024	-0.3936298406557067
-0.49753355978126024	-0.39566241803434865
-0.49747252462501024	-0.39490683645827435
-0.49741148946876024	-0.39136714129943384
-0.49735045431251024	-0.38506747078606085
-0.49728941915626024	-0.37605183651849955
-0.49722838400001024	-0.3643838420519815
-0.49716734884376024	-0.3501462330050288
-0.49710631368751024	-0.33344028465594283
-0.49704527853126024	-0.3143851164967761
-0.49698424337501024	-0.2931167958011142
-0.49692320821876024	-0.2697873945204643
-0.49686217306251024	-0.24456387772433422
-0.49680113790626024	-0.2176269152924021
-0.49674010275001024	-0.1891695565746861
-0.49667906759376024	-0.1593958822479276
-0.49661803243751024	-0.1285194669594104
-0.49655699728126024	-0.09676190564098737
-0.49649596212501024	-0.06435117618660756
-0.49643492696876024	-0.03151996258807512
-0.49637389181251024	0.0014959380058181594
-0.49631285665626024	0.03445943296299584
-0.49625182150001024	0.06713376958554669
-0.49619078634376024	0.09928427828439515
-0.49612975118751024	0.13068008622694197
-0.49606871603126024	0.16109575850261376
-0.49600768087501024	0.19031298407211109
-0.49594664571876024	0.21812209476807615
-0.49588561056251024	0.2443236514603352
-0.49582457540626024	0.2687298484732502
-0.49576354025001024	0.29116590746222804
-0.49570250509376024	0.31147132743453443
-0.49564146993751024	0.32950105787300266
-0.49558043478126024	0.3451265835934181
-0.49551939962501024	0.3582368019638964
-0.49545836446876024	0.36873890542891324
-0.49539732931251024	0.376558991676348
-0.49533629415626024	0.38164266299299465
-0.49527525900001024	0.3839553836925547
-0.49521422384376024	0.3834827520774208
-0.49515318868751024	0.38023062035462785
-0.49509215353126024	0.374225026754649
-0.49503111837501024	0.36551204873082765
-0.49497008321876024	0.3541574308839218
-0.49490904806251024	0.34024615164863414
-0.49484801290626024	0.3238817732425193
-0.49478697775001024	0.30518571514573317
-0.49472594259376024	0.2842963719951153
-0.49466490743751024	0.2613680859591261
-0.49460387228126024	0.23657006443225934
-0.49454283712501024	0.2100851224672299
-0.49448180196876024	0.18210834998121192
-0.49442076681251024	0.15284572562414225
-0.49435973165626024	0.12251257819595163
-0.49429869650001024	0.09133204951598076
-0.49423766134376024	0.05953344758658638
-0.49417662618751024	0.02735057465299714
-0.49411559103126024	-0.004979929866834881
-0.49405455587501024	-0.03722041464738153
-0.49399352071876024	-0.06913382753874572
-0.49393248556251024	-0.10048556046856817
-0.49387145040626024	-0.1310450825138566
-0.49381041525001024	-0.16058764886038987
-0.49374938009376024	-0.18889601353276336
-0.49368834493751024	-0.2157618377987261
-0.49362730978126024	-0.24098746757096534
-0.49356627462501024	-0.2643871430306459
-0.49350523946876024	-0.28578853203564886
-0.49344420431251024	-0.30503389424293165
-0.49338316915626024	-0.3219812741757861
-0.49332213400001024	-0.3365055898619287
-0.49326109884376024	-0.3484994308578776
-0.49320006368751024	-0.35787402731393536
-0.49313902853126024	-0.3645597147851282
-0.49307799337501024	-0.368506640541418
-0.49301695821876024	-0.3696849630545182
-0.49295592306251024	-0.36808522536405847
-0.49289488790626024	-0.36371833437568046
-0.49283385275001024	-0.3566155342389728
-0.49277281759376024	-0.3468281982207179
-0.49271178243751024	-0.33442741075921295
-0.49265074728126024	-0.3195035329169638
-0.49258971212501024	-0.3021654648810394
-0.49252867696876024	-0.28253995231941315
-0.49246764181251024	-0.26077056540192844
-0.49240660665626024	-0.2370167618639462
-0.49234557150001024	-0.21145262976049278
-0.49228453634376024	-0.1842657076427677
-0.49222350118751024	-0.15565555431741596
-0.49216246603126024	-0.12583232176923204
-0.49210143087501024	-0.09501522667818371
-0.49204039571876024	-0.06343094168715371
-0.49197936056251024	-0.031311929242057744
-0.49191832540626024	0.0011052202299102927
-0.49185729025001024	0.033581577681422295
-0.49179625509376024	0.06587757099609333
-0.49173521993751024	0.09775474447126654
-0.49167418478126024	0.12897758455095304
-0.49161314962501024	0.1593150887359087
-0.49155211446876024	0.18854264945148905
-0.49149107931251024	0.21644354018845965
-0.49143004415626024	0.24281064027622945
-0.49136900900001024	0.2674478392934095
-0.49130797384376024	0.2901715846730843
-0.49124693868751024	0.31081216970931963
-0.49118590353126024	0.32921500898100575
-0.49112486837501024	0.3452418064954118
-0.49106383321876024	0.3587714879235772
-0.49100279806251024	0.36970126840232526
-0.49094176290626024	0.3779472047707054
-0.49088072775001024	0.38344503712344236
-0.49081969259376024	0.3861504954577149
-0.49075865743751024	0.38603976631215753
-0.49069762228126024	0.38310961322052783
-0.49063658712501024	0.3773774282588473
-0.49057555196876024	0.3688811541793744
-0.49051451681251024	0.35767895344636147
-0.49045348165626024	0.3438488856547098
-0.49039244650001024	0.3274882615024661
-0.49033141134376024	0.3087130198010061
-0.49027037618751024	0.2876568330978759
-0.49020934103126024	0.2644701952343812
-0.49014830587501024	0.23931927440300488
-0.49008727071876024	0.2123847725752353
-0.49002623556251024	0.18386055341468982
-0.48996520040626024	0.15395227472933953
-0.48990416525001024	0.12287586687063176
-0.48984313009376024	0.0908559724335483
-0.48978209493751024	0.05812431611145706
-0.48972105978126024	0.024917974104734807
-0.48966002462501024	-0.008522286454722448
-0.48959898946876024	-0.041953852983517
-0.48953795431251024	-0.07513397225843355
-0.48947691915626024	-0.10782156450414775
-0.48941588400001024	-0.13977895918046895
-0.48935484884376024	-0.17077367538143953
-0.48929381368751024	-0.20058010073156654
-0.48923277853126024	-0.2289811292206602
-0.48917174337501024	-0.255769815047403
-0.48911070821876024	-0.2807508202359431
-0.48904967306251024	-0.30374191767738634
-0.48898863790626024	-0.32457526107732315
-0.48892760275001024	-0.3430987095391088
-0.48886656759376024	-0.3591768687105576
-0.48880553243751024	-0.3726921276282109
-0.48874449728126024	-0.3835455527661804
-0.48868346212501024	-0.39165754829964883
-0.48862242696876024	-0.39696855419221416
-0.48856139181251024	-0.39943937596048046
-0.48850035665626024	-0.3990515894969989
-0.48843932150001024	-0.3958075992526316
-0.48837828634376024	-0.3897306910479538
-0.48831725118751024	-0.380864838291042
-0.48825621603126024	-0.36927439279867336
-0.48819518087501024	-0.35504364237629327
-0.48813414571876024	-0.3382761681638346
-0.48807311056251024	-0.319094132648211
-0.48801207540626024	-0.29763734757039145
-0.48795104025001024	-0.2740623013076612
-0.48789000509376024	-0.2485409800583191
-0.48782896993751024	-0.22125963957644335
-0.48776793478126024	-0.1924174208099133
-0.48770689962501024	-0.16222492610004752
-0.48764586446876024	-0.13090262843806602
-0.48758482931251024	-0.09867931177051323
-0.48752379415626024	-0.06579036344315387
-0.48746275900001024	-0.03247604007689242
-0.48740172384376024	0.0010202555435012476
-0.48734068868751024	0.03445380393219554
-0.48727965353126024	0.06758035520711167
-0.48721861837501024	0.10015788158262347
-0.48715758321876024	0.13194843403665873
-0.48709654806251024	0.16271981654807813
-0.48703551290626024	0.1922473330138004
-0.48697447775001024	0.2203154561747654
-0.48691344259376024	0.24671934784601202
-0.48685240743751024	0.2712664859006929
-0.48679137228126024	0.2937779194093784
-0.48673033712501024	0.314089770049398
-0.48666930196876024	0.33205428961054506
-0.48660826681251024	0.34754104983272893
-0.48654723165626024	0.36043786848114306
-0.48648619650001024	0.37065161591933127
-0.48642516134376024	0.3781089922614433
-0.48636412618751024	0.3827569418373773
-0.48630309103126024	0.38456319576712844
-0.48624205587501024	0.38351637580010456
-0.48618102071876024	0.3796262045019476
-0.48611998556251024	0.3729233414467364
-0.48605895040626024	0.36345923560446247
-0.48599791525001024	0.3513057045972473
-0.48593688009376024	0.3365544272236117
-0.48587584493751024	0.31931628853972815
-0.48581480978126024	0.2997205220474598
-0.48575377462501024	0.27791382005933307
-0.48569273946876024	0.25405920039824365
-0.48563170431251024	0.22833483709097918
-0.48557066915626024	0.2009327621088948
-0.48550963400001024	0.17205739876451243
-0.48544859884376024	0.14192411096280608
-0.48538756368751024	0.11075759920562334
-0.48532652853126024	0.07879019107929336
-0.48526549337501024	0.04626024620944014
-0.48520445821876024	0.01341022563432068
-0.48514342306251024	-0.019514918244918574
-0.48508238790626024	-0.05226970391632062
-0.48502135275001024	-0.08460983008453284
-0.48496031759376024	-0.1162940583916696
-0.48489928243751024	-0.14708596715825376
-0.48483824728126024	-0.17675565183203296
-0.48477721212501024	-0.20508159459950973
-0.48471617696876024	-0.23185204797515171
-0.48465514181251024	-0.25686690360285963
-0.48459410665626024	-0.2799389224570018
-0.48453307150001024	-0.30089527868929594
-0.48447203634376024	-0.31957882057555337
-0.48441100118751024	-0.3358491758693096
-0.48434996603126024	-0.3495839051669785
-0.48428893087501024	-0.36067930800379583
-0.48422789571876024	-0.36905130321010393
-0.48416686056251024	-0.37463596543277444
-0.48410582540626024	-0.37739010768614406
-0.48404479025001024	-0.3772915090359776
-0.48398375509376024	-0.374339186878735
-0.48392271993751024	-0.36855334205847684
-0.48386168478126024	-0.35997526437773414
-0.48380064962501024	-0.34866702472989336
-0.48373961446876024	-0.33471101333693415
-0.48367857931251024	-0.31820937582006886
-0.48361754415626024	-0.29928321347718034
-0.48355650900001024	-0.27807176998269456
-0.48349547384376024	-0.2547313173583583
-0.48343443868751024	-0.22943410341464035
-0.48337340353126024	-0.20236701000428117
-0.48331236837501024	-0.17373021147881615
-0.48325133321876024	-0.14373570175340664
-0.48319029806251024	-0.11260570305766465
-0.48312926290626024	-0.080571049437557
-0.48306822775001024	-0.04786946874873068
-0.48300719259376024	-0.014743825463306146
-0.48294615743751024	0.01855966441491696
-0.48288512228126024	0.051793292899349176
-0.48282408712501024	0.08470965865710169
-0.48276305196876024	0.11706351192264168
-0.48270201681251024	0.14861359278915964
-0.48264098165626024	0.17912438991138274
-0.48257994650001024	0.20836794835933095
-0.48251891134376024	0.2361254794724472
-0.48245787618751024	0.26218909142376134
-0.48239684103126024	0.2863632422522482
-0.48233580587501024	0.30846627430319595
-0.48227477071876024	0.32833172280860234
-0.48221373556251024	0.3458095857077085
-0.48215270040626024	0.36076744656129
-0.48209166525001024	0.37309143804798084
-0.48203063009376024	0.3826871721530911
-0.48196959493751024	0.3894803422047491
-0.48190855978126024	0.39341741674576586
-0.48184752462501024	0.3944659321552188
-0.48178648946876024	0.39261484104017913
-0.48172545431251024	0.38787454646071773
-0.48166441915626024	0.38027687168749175
-0.48160338400001024	0.3698748336566534
-0.48154234884376024	0.35674225050344066
-0.48148131368751024	0.3409732332880013
-0.48142027853126024	0.32268147119898805
-0.48135924337501024	0.30199943132274026
-0.48129820821876024	0.2790773695705175
-0.48123717306251024	0.25408223153701265
-0.48117613790626024	0.22719642978286622
-0.48111510275001024	0.1986165146283874
-0.48105406759376024	0.1685516666399089
-0.48099303243751024	0.1372222661889901
-0.48093199728126024	0.10485811298009198
-0.48087096212501024	0.07169689713364291
-0.48080992696876024	0.037982297047481614
-0.48074889181251024	0.0039622444976831995
-0.48068785665626024	-0.030112879496552423
-0.48062682150001024	-0.06399222266681942
-0.48056578634376024	-0.0974261421483346
-0.48050475118751024	-0.1301682414185539
-0.48044371603126024	-0.1619770648890325
-0.48038268087501024	-0.19261796303465228
-0.48032164571876024	-0.221864807371097
-0.48026061056251024	-0.2495016657209574
-0.48019957540626024	-0.2753244699464226
-0.48013854025001024	-0.29914243956226544
-0.48007750509376024	-0.3207795822363065
-0.48001646993751024	-0.34007599195504645
-0.47995543478126024	-0.35688899902624505
-0.47989439962501024	-0.3710943083193756
-0.47983336446876024	-0.38258686918059287
-0.47977232931251024	-0.39128170387786504
-0.47971129415626024	-0.3971145235800942
-0.47965025900001024	-0.40004223185253074
-0.47958922384376024	-0.4000432523294182
-0.47952818868751024	-0.39711767475044607
-0.47946715353126024	-0.39128731257072885
-0.47940611837501024	-0.3825954855738992
-0.47934508321876024	-0.37110677738537123
-0.47928404806251024	-0.3569064965789627
-0.47922301290626024	-0.34010010654960715
-0.47916197775001024	-0.3208124150324202
-0.47910094259376024	-0.29918666786201803
-0.47903990743751024	-0.2753834852857144
-0.47897887228126024	-0.24957968010318013
-0.47891783712501024	-0.22196694484492835
-0.47885680196876024	-0.19275042215360164
-0.47879576681251024	-0.16214721742009358
-0.47873473165626024	-0.13038472411899435
-0.47867369650001024	-0.0976990199025854
-0.47861266134376024	-0.06433301776993543
-0.47855162618751024	-0.030534743735964702
-0.47849059103126024	0.0034445551098443153
-0.47842955587501024	0.03735228254556511
-0.47836852071876024	0.07093633244316239
-0.47830748556251024	0.10394703408841954
-0.47824645040626024	0.136138938766859
-0.47818541525001024	0.16727272254775846
-0.47812438009376024	0.19711690231134532
-0.47806334493751024	0.22544963546758043
-0.47800230978126024	0.25206030805980534
-0.47794127462501024	0.2767511633446401
-0.47788023946876024	0.2993387569342234
-0.47781920431251024	0.3196553176645555
-0.47775816915626024	0.3375500567052295
-0.47769713400001024	0.35289021305643964
-0.47763609884376024	0.36556214801542886
-0.47757506368751024	0.37547210642187445
-0.47751402853126024	0.3825470131721865
-0.47745299337501024	0.38673494145705034
-0.47739195821876024	0.38800557428388743
-0.47733092306251024	0.3863503988531759
-0.47726988790626024	0.3817827884281306
-0.47720885275001024	0.37433792536529104
-0.47714781759376024	0.3640725071918803
-0.47708678243751024	0.3510643864188673
-0.47702574728126024	0.3354119250101643
-0.47696471212501024	0.3172333476256067
-0.47690367696876024	0.2966657801846743
-0.47684264181251024	0.27386430247177584
-0.47678160665626024	0.24900075121709714
-0.47672057150001024	0.22226245027992772
-0.47665953634376024	0.1938508315157106
-0.47659850118751024	0.16397988707448274
-0.47653746603126024	0.13287464352440304
-0.47647643087501024	0.10076940554768957
-0.47641539571876024	0.06790605530449169
-0.47635436056251024	0.03453223399679908
-0.47629332540626024	0.0008994554223082621
-0.47623229025001024	-0.03273870969841555
-0.47617125509376024	-0.0661286213870698
-0.47611021993751024	-0.09901837621604827
-0.47604918478126024	-0.13115977910005516
-0.47598814962501024	-0.16231014644281086
-0.47592711446876024	-0.1922341694644845
-0.47586607931251024	-0.220705654612755
-0.47580504415626024	-0.24750922378617257
-0.47574400900001024	-0.27244199160822485
-0.47568297384376024	-0.2953149689863412
-0.47562193868751024	-0.3159546476292163
-0.47556090353126024	-0.33420416435555006
-0.47549986837501024	-0.34992459440820856
-0.47543883321876024	-0.3629959296354547
-0.47537779806251024	-0.3733180347749827
-0.47531676290626024	-0.3808113890087965
-0.47525572775001024	-0.3854176879779893
-0.47519469259376024	-0.3871003268660845
-0.47513365743751024	-0.38584463352358456
-0.47507262228126024	-0.3816580528583653
-0.47501158712501024	-0.37457004141643285
-0.47495055196876024	-0.3646319179753352
-0.47488951681251024	-0.3519164352084481
-0.47482848165626024	-0.3365172992622696
-0.47476744650001024	-0.3185484346874852
-0.47470641134376024	-0.2981431631210585
-0.47464537618751024	-0.275453219770698
-0.47458434103126024	-0.25064760076685216
-0.47452330587501024	-0.22391133488017717
-0.47446227071876024	-0.19544407162991867
-0.47440123556251024	-0.16545862095872474
-0.47434020040626024	-0.1341793509768689
-0.47427916525001024	-0.10184049880792607
-0.47421813009376024	-0.06868444027831318
-0.47415709493751024	-0.03495984965383462
-0.47409605978126024	-0.0009198699991085665
-0.47403502462501024	0.033179843938285936
-0.47397398946876024	0.06708295973710574
-0.47391295431251024	0.10053447558172941
-0.47385191915626024	0.13328258724081116
-0.47379088400001024	0.16508058040914406
-0.47372984884376024	0.19568874328575087
-0.47366881368751024	0.22487608099120163
-0.47360777853126024	0.2524221379285433
-0.47354674337501024	0.2781186197937977
-0.47348570821876024	0.3017709787903499
-0.47342467306251024	0.3231998591101124
-0.47336363790626024	0.34224251647360165
-0.47330260275001024	0.3587539675942702
-0.47324156759376024	0.37260817021623455
-0.47318053243751024	0.3836989169141275
-0.47311949728126024	0.39194069463741915
-0.47305846212501024	0.39726932070758963
-0.47299742696876024	0.3996424176050197
-0.47293639181251024	0.39903980209638584
-0.47287535665626024	0.39546357783007563
-0.47281432150001024	0.38893820567980597
-0.47275328634376024	0.3795102725781582
-0.47269225118751024	0.3672482017813154
-0.47263121603126024	0.35224171845353436
-0.47257018087501024	0.334601220678491
-0.47250914571876024	0.3144569194962867
-0.47244811056251024	0.2919579246179732
-0.47238707540626024	0.26727108746888145
-0.47232604025001024	0.2405797855524276
-0.47226500509376024	0.21208255916951296
-0.47220396993751024	0.1819915844985275
-0.47214293478126024	0.15053115859898802
-0.47208189962501024	0.11793592783618712
-0.47202086446876024	0.08444923090572043
-0.47195982931251024	0.05032119672529446
-0.47189879415626024	0.015806889455173535
-0.47183775900001024	-0.018835574294863135
-0.47177672384376024	-0.053347039572735296
-0.47171568868751024	-0.08746915477140114
-0.47165465353126024	-0.12094642740592855
-0.47159361837501024	-0.15352807271943072
-0.47153258321876024	-0.1849699157734368
-0.47147154806251024	-0.2150362808546414
-0.47141051290626024	-0.2435016622586811
-0.47134947775001024	-0.2701525816421043
-0.47128844259376024	-0.29478903555649505
-0.47122740743751024	-0.3172261267302592
-0.47116637228126024	-0.3372954259658429
-0.47110533712501024	-0.3548461994689982
-0.47104430196876024	-0.3697466699606524
-0.47098326681251024	-0.381884863915692
-0.47092223165626024	-0.3911696164612502
-0.47086119650001024	-0.39753114099500075
-0.47080016134376024	-0.40092165611196107
-0.47073912618751024	-0.4013157076656087
-0.47067809103126024	-0.39871037067969994
-0.47061705587501024	-0.393125321204259
-0.47055602071876024	-0.3846026331208645
-0.47049498556251024	-0.3732065476915413
-0.47043395040626024	-0.35902292082294657
