Time	Frequency
-0.5000264646874939	-0.02395024926490733
-0.4999654295312439	0.000576852201687259
-0.4999043943749939	0.025102854158269728
-0.4998433592187439	0.04949658661492109
-0.4997823240624939	0.07362760011586894
-0.4997212889062439	0.09736669343873623
-0.4996602537499939	0.12058677693827445
-0.4995992185937439	0.14316339121464972
-0.4995381834374939	0.16497550025044877
-0.4994771482812439	0.18590602247271154
-0.4994161131249939	0.20584254092780105
-0.4993550779687439	0.2246778507232135
-0.4992940428124939	0.2423105497833222
-0.4992330076562439	0.2586455814741329
-0.4991719724999939	0.2735947344690673
-0.4991109373437439	0.28707712060808993
-0.4990499021874939	0.2990196016025169
-0.4989888670312439	0.3093571990492888
-0.4989278318749939	0.3180334112725062
-0.4988667967187439	0.32500056080341366
-0.4988057615624939	0.33022000676391655
-0.4987447264062439	0.3336623997234134
-0.4986836912499939	0.33530779885855594
-0.4986226560937439	0.3351458310929593
-0.4985616209374939	0.3331756958253085
-0.4985005857812439	0.3294062387279638
-0.4984395506249939	0.32385584190009353
-0.4983785154687439	0.316552400851541
-0.4983174803124939	0.30753311539908523
-0.4982564451562439	0.29684435918747926
-0.4981954099999939	0.28454138461620165
-0.4981343748437439	0.2706880817559297
-0.4980733396874939	0.2553565988989772
-0.4980123045312439	0.2386270131381865
-0.4979512693749939	0.2205868615601081
-0.4978902342187439	0.20133071668551164
-0.4978291990624939	0.1809596733685739
-0.4977681639062439	0.1595808065566211
-0.4977071287499939	0.13730664083541239
-0.4976460935937439	0.11425449686374466
-0.4975850584374939	0.0905459415670432
-0.4975240232812439	0.0663060954178717
-0.4974629881249939	0.04166297210511164
-0.4974019529687439	0.0167468322206819
-0.4973409178124939	-0.008310551440704373
-0.4972798826562439	-0.03337652500811919
-0.4972188474999939	-0.058318363858019
-0.4971578123437439	-0.08300385217094298
-0.4970967771874939	-0.10730211711808466
-0.4970357420312439	-0.13108417455613489
-0.4969747068749939	-0.15422378270170833
-0.4969136717187439	-0.17659795884899246
-0.4968526365624939	-0.19808776813342865
-0.4967916014062439	-0.218578833001112
-0.4967305662499939	-0.2379620622189945
-0.4966695310937439	-0.25613413647868116
-0.4966084959374939	-0.2729981234259033
-0.4965474607812439	-0.2884639726831565
-0.4964864256249939	-0.30244898728265873
-0.4964253904687439	-0.31487830160753144
-0.4963643553124939	-0.3256852324621512
-0.4963033201562439	-0.33481170799754095
-0.4962422849999939	-0.3422084953574618
-0.4961812498437439	-0.34783555897231067
-0.4961202146874939	-0.3516621851955092
-0.4960591795312439	-0.3536672454461279
-0.4959981443749939	-0.35383921479397124
-0.4959371092187439	-0.352176344700174
-0.4958760740624939	-0.34868656168216244
-0.4958150389062439	-0.34338754897382406
-0.4957540037499939	-0.33630654530493875
-0.4956929685937439	-0.3274803032505723
-0.4956319334374939	-0.3169548120133263
-0.4955708982812439	-0.30478514016989944
-0.4955098631249939	-0.2910350600739455
-0.4954488279687439	-0.2757768012013494
-0.4953877928124939	-0.2590905924792994
-0.4953267576562439	-0.2410642937433478
-0.4952657224999939	-0.221792894477196
-0.4952046873437439	-0.2013780528838003
-0.4951436521874939	-0.17992749780731293
-0.4950826170312439	-0.15755452061351097
-0.4950215818749939	-0.13437733489504416
-0.4949605467187439	-0.11051846050887563
-0.4948995115624939	-0.08610407593370988
-0.4948384764062439	-0.06126334188141055
-0.4947774412499939	-0.0361277188360431
-0.4947164060937439	-0.010830267615347425
-0.4946553709374939	0.014495075593474077
-0.4945943357812439	0.03971416610234018
-0.4945333006249939	0.06469343620812087
-0.4944722654687439	0.08930053363799398
-0.4944112303124939	0.11340509180191782
-0.4943501951562439	0.13687937712195525
-0.4942891599999939	0.1595989974165251
-0.4942281248437439	0.18144357649831563
-0.4941670896874939	0.20229734179257572
-0.4941060545312439	0.2220498374169424
-0.4940450193749939	0.24059640443927405
-0.4939839842187439	0.2578388618570848
-0.4939229490624939	0.2736859113163268
-0.4938619139062439	0.28805373944836515
-0.4938008787499939	0.30086636678820117
-0.4937398435937439	0.3120561557448755
-0.4936788084374939	0.3215640784465998
-0.4936177732812439	0.32934011689352977
-0.4935567381249939	0.33534347936608333
-0.4934957029687439	0.3395428475025991
-0.4934346678124939	0.34191654302540736
-0.4933736326562439	0.3424526406434944
-0.4933125974999939	0.34114904408840113
-0.4932515623437439	0.33801349593567304
-0.4931905271874939	0.3330635405141234
-0.4931294920312439	0.3263264371221522
-0.4930684568749939	0.3178390127908517
-0.4930074217187439	0.3076474744337221
-0.4929463865624939	0.2958071549104761
-0.4928853514062439	0.2823822455266552
-0.4928243162499939	0.2674454121345633
-0.4927632810937439	0.25107746278838033
-0.4927022459374939	0.23336686722002634
-0.4926412107812439	0.21440933130658035
-0.4925801756249939	0.1943072515865345
-0.4925191404687439	0.17316918116761312
-0.4924581053124939	0.15110927443368896
-0.4923970701562439	0.12824662909524848
-0.4923360349999939	0.1047046988157104
-0.4922749998437439	0.08061060045748179
-0.4922139646874939	0.05609444593128497
-0.4921529295312439	0.03128865800075896
-0.4920918943749939	0.006327226307550812
-0.4920308592187439	-0.018654958693653717
-0.4919698240624939	-0.043522892096411664
-0.4919087889062439	-0.06814211684919731
-0.4918477537499939	-0.09237948179878032
-0.4917867185937439	-0.11610385708269867
-0.4917256834374939	-0.13918681673608047
-0.4916646482812439	-0.16150335344098407
-0.4916036131249939	-0.18293252799866935
-0.4915425779687439	-0.20335814297373186
-0.4914815428124939	-0.22266935135398122
-0.4914205076562439	-0.24076126635116982
-0.4913594724999939	-0.25753550978242384
-0.4912984373437439	-0.27290077970306875
-0.4912374021874939	-0.2867732851376342
-0.4911763670312439	-0.2990772776458706
-0.4911153318749939	-0.3097453718046042
-0.4910542967187439	-0.31871901106069184
-0.4909932615624939	-0.32594867819074597
-0.4909322264062439	-0.3313942819515967
-0.4908711912499939	-0.3350252617053331
-0.4908101560937439	-0.3368208614701116
-0.4907491209374939	-0.33677015984405057
-0.4906880857812439	-0.33487220145035324
-0.4906270506249939	-0.33113595489401754
-0.4905660154687439	-0.3255803131910097
-0.4905049803124939	-0.3182339615074981
-0.4904439451562439	-0.30913525491613264
-0.4903829099999939	-0.29833200347956973
-0.4903218748437439	-0.2858812201627385
-0.4902608396874939	-0.27184883230267437
-0.4901998045312439	-0.25630931523801187
-0.4901387693749939	-0.23934530781533983
-0.4900777342187439	-0.22104716647987196
-0.4900166990624939	-0.2015124965804386
-0.4899556639062439	-0.18084559892719645
-0.4898946287499939	-0.15915696745936764
-0.4898335935937439	-0.13656263612916733
-0.4897725584374939	-0.11318361642191217
-0.4897115232812439	-0.08914518739766882
-0.4896504881249939	-0.06457629498376678
-0.4895894529687439	-0.039608796231912914
-0.4895284178124939	-0.014376794354010044
-0.4894673826562439	0.01098410520655043
-0.4894063474999939	0.036337508225339515
-0.4893453123437439	0.0615469828015883
-0.4892842771874939	0.08647674639896447
-0.4892232420312439	0.1109925063741938
-0.4891622068749939	0.13496201799999308
-0.4891011717187439	0.1582559602717638
-0.4890401365624939	0.18074852443002026
-0.4889791014062439	0.20231814550845365
-0.4889180662499939	0.22284814110934895
-0.4888570310937439	0.24222734039999633
-0.4887959959374939	0.26035069875089417
-0.4887349607812439	0.2771198555774383
-0.4886739256249939	0.2924436585867945
-0.4886128904687439	0.3062386939593531
-0.4885518553124939	0.3184296972392242
-0.4884908201562439	0.32894998767015876
-0.4884297849999939	0.3377418317094704
-0.4883687498437439	0.3447567440251482
-0.4883077146874939	0.3499557805409173
-0.4882466795312439	0.353309713150239
-0.4881856443749939	0.35479924307068955
-0.4881246092187439	0.3544150590132849
-0.4880635740624939	0.35215794030726605
-0.4880025389062439	0.3480387161390859
-0.4879415037499939	0.3420782501121321
-0.4878804685937439	0.3343072999657335
-0.4878194334374939	0.324766389331309
-0.4877583982812439	0.31350556426117193
-0.4876973631249939	0.30058415679860645
-0.4876363279687439	0.28607044879755833
-0.4875752928124939	0.27004132237626444
-0.4875142576562439	0.2525818412534143
-0.4874532224999939	0.2337848068014902
-0.4873921873437439	0.21375025104813614
-0.4873311521874939	0.19258491727829186
-0.4872701170312439	0.17040166194761028
-0.4872090818749939	0.14731888381853253
-0.4871480467187439	0.1234598552141171
-0.4870870115624939	0.09895208558307174
-0.4870259764062439	0.07392662840353875
-0.4869649412499939	0.048517366268874706
-0.4869039060937439	0.02286030562804107
-0.4868428709374939	-0.002907172125816161
-0.4867818357812439	-0.028647019535888375
-0.4867208006249939	-0.05422131696345882
-0.4866597654687439	-0.0794929580795637
-0.4865987303124939	-0.10432644824080031
-0.4865376951562439	-0.12858858645087531
-0.4864766599999939	-0.15214921492579792
-0.4864156248437439	-0.17488191275157972
-0.4863545896874939	-0.19666468461360695
-0.4862935545312439	-0.21738060716066565
-0.4862325193749939	-0.2369184891581277
-0.4861714842187439	-0.2551734399515751
-0.4861104490624939	-0.2720474740488497
-0.4860494139062439	-0.28745001494806444
-0.4859883787499939	-0.3012983985989338
-0.4859273435937439	-0.31351833433433884
-0.4858663084374939	-0.32404428157114246
-0.4858052732812439	-0.3328198455781225
-0.4857442381249939	-0.3397980423623321
-0.4856832029687439	-0.34494160859626394
-0.4856221678124939	-0.34822314372055535
-0.4855611326562439	-0.3496253356931224
-0.4855000974999939	-0.3491409821894343
-0.4854390623437439	-0.34677310739219985
-0.4853780271874939	-0.3425348837407646
-0.4853169920312439	-0.3364496224456873
-0.4852559568749939	-0.3285506019427798
-0.4851949217187439	-0.31888093813246804
-0.4851338865624939	-0.3074933104628266
-0.4850728514062439	-0.29444972144882764
-0.4850118162499939	-0.27982113313810675
-0.4849507810937439	-0.26368711311465187
-0.4848897459374939	-0.24613537909543556
-0.4848287107812439	-0.22726136045397038
-0.4847676756249939	-0.20716765214763755
-0.4847066404687439	-0.1859634890162784
-0.4846456053124939	-0.16376413131087875
-0.4845845701562439	-0.14069028155090305
-0.4845235349999939	-0.11686737515276287
-0.4844624998437439	-0.09242497019261586
-0.4844014646874939	-0.06749597993441274
-0.4843404295312439	-0.042216012824081106
-0.4842793943749939	-0.016722606873511726
-0.4842183592187439	0.008845527127004317
-0.4841573240624939	0.03434920943161453
-0.4840962889062439	0.05964961280616804
-0.4840352537499939	0.08460893421766583
-0.4839742185937439	0.10909123577075898
-0.4839131834374939	0.13296308287740316
-0.4838521482812439	0.15609437291706366
-0.4837911131249939	0.17835894997877644
-0.4837300779687439	0.1996353569496762
-0.4836690428124939	0.2198074460479634
-0.4836080076562439	0.23876507613937253
-0.4835469724999939	0.2564046299658278
-0.4834859373437439	0.2726296590881463
-0.4834249021874939	0.28735135500959913
-0.4833638670312439	0.3004890728612838
-0.4833028318749939	0.3119707349086827
-0.4832417967187439	0.3217332752062493
-0.4831807615624939	0.3297229234158264
-0.4831197264062439	0.33589557740821857
-0.4830586912499939	0.3402169675059709
-0.4829976560937439	0.3426629209398884
-0.4829366209374939	0.34321943100350055
-0.4828755857812439	0.34188280170751706
-0.4828145506249939	0.33865961680025014
-0.4827535154687439	0.3335667511381671
-0.4826924803124939	0.32663125612441934
-0.4826314451562439	0.31789023511219006
-0.4825704099999939	0.30739063817293844
-0.4825093748437439	0.2951890079596711
-0.4824483396874939	0.28135119330532277
-0.4823873045312439	0.2659519767275753
-0.4823262693749939	0.24907468193411803
-0.4822652342187439	0.23081072013851445
-0.4822041990624939	0.2112591153755627
-0.4821431639062439	0.19052592747039762
-0.4820821287499939	0.16872373288595405
-0.4820210935937439	0.1459709660521627
-0.4819600584374939	0.12239131907669938
-0.4818990232812439	0.09811303006001358
-0.4818379881249939	0.07326822845639056
-0.4817769529687439	0.047992186111760274
-0.4817159178124939	0.022422609913597107
-0.4816548826562439	-0.0033011515525537194
-0.4815938474999939	-0.029038796023296568
-0.4815328123437439	-0.054649907997823696
-0.4814717771874939	-0.07999465495107504
-0.4814107420312439	-0.10493460912495986
-0.4813497068749939	-0.12933345324702838
-0.4812886717187439	-0.15305775624053666
-0.4812276365624939	-0.17597767994082722
-0.4811666014062439	-0.19796771321702233
-0.4811055662499939	-0.21890732476261496
-0.4810445310937439	-0.2386816660584727
-0.4809834959374939	-0.2571821479001808
-0.4809224607812439	-0.274307085195303
-0.4808614256249939	-0.28996221811759887
-0.4808003904687439	-0.3040612621565263
-0.4807393553124939	-0.31652634274627484
-0.4806783201562439	-0.3272884697033755
-0.4806172849999939	-0.3362878785437381
-0.4805562498437439	-0.34347439095887006
-0.4804952146874939	-0.3488076727864004
-0.4804341795312439	-0.35225747275752556
-0.4803731443749939	-0.3538037897427853
-0.4803121092187439	-0.35343697814128466
-0.4802510740624939	-0.3511578283103182
-0.4801900389062439	-0.3469775365727616
-0.4801290037499939	-0.3409176880618473
-0.4800679685937439	-0.3330101007294429
-0.4800069334374939	-0.32329670802135646
-0.4799458982812439	-0.31182928033500507
-0.4798848631249939	-0.29866920511427003
-0.4798238279687439	-0.283887103765922
-0.4797627928124939	-0.26756250322179914
-0.4797017576562439	-0.24978334251344983
-0.4796407224999939	-0.23064558683982408
-0.4795796873437439	-0.21025260917347285
-0.4795186521874939	-0.18871470840812826
-0.4794576170312439	-0.16614846787469925
-0.4793965818749939	-0.14267614006153367
-0.4793355467187439	-0.1184249836603215
-0.4792745115624939	-0.09352655506178056
-0.4792134764062439	-0.0681160147159637
-0.4791524412499939	-0.04233136664462383
-0.4790914060937439	-0.016312741043776856
-0.4790303709374939	0.009798410740751114
-0.4789693357812439	0.03586004507769634
-0.4789083006249939	0.061730359674072255
-0.4788472654687439	0.08726848027940873
-0.4787862303124939	0.11233534060408612
-0.4787251951562439	0.13679433150752618
-0.4786641599999939	0.16051214716372386
-0.4786031248437439	0.1833594231149066
-0.4785420896874939	0.20521153454827887
-0.4784810545312439	0.2259492086762373
-0.4784200193749939	0.2454592201708719
-0.4783589842187439	0.2636350001363018
-0.4782979490624939	0.2803772047246246
-0.4782369139062439	0.2955943039968521
-0.4781758787499939	0.3092030420019534
-0.4781148435937439	0.32112892628328327
-0.4780538084374939	0.33130662242579006
-0.4779927732812439	0.3396803235426692
-0.4779317381249939	0.3462040581064712
-0.4778707029687439	0.3508419494895548
-0.4778096678124939	0.3535684115999382
-0.4777486326562439	0.3543683008985107
-0.4776875974999939	0.3532369911018525
-0.4776265623437439	0.35018042919561615
-0.4775655271874939	0.34521507111850974
-0.4775044920312439	0.3383678404976834
-0.4774434568749939	0.32967593968915754
-0.4773824217187439	0.3191867009568703
-0.4773213865624939	0.30695727451515786
-0.4772603514062439	0.2930543939233088
-0.4771993162499939	0.27755392428659575
-0.4771382810937439	0.26054054836547985
-0.4770772459374939	0.2421072189687097
-0.4770162107812439	0.22235472905385917
-0.4769551756249939	0.20139109575362993
-0.4768941404687439	0.1793310302968585
-0.4768331053124939	0.15629527845326782
-0.4767720701562439	0.13240995832961058
-0.4767110349999939	0.1078059088959378
-0.4766499998437439	0.08261792216709772
-0.4765889646874939	0.056984053842234865
-0.4765279295312439	0.031044843808283425
-0.4764668943749939	0.004942547108051231
-0.4764058592187439	-0.021179636411419355
-0.4763448240624939	-0.0471783635127438
-0.4762837889062439	-0.07291090128110092
-0.4762227537499939	-0.09823594751541659
-0.4761617185937439	-0.12301439175705313
-0.4761006834374939	-0.14711005296520963
-0.4760396482812439	-0.17039049720012914
-0.4759786131249939	-0.1927276706224986
-0.4759175779687439	-0.2139987024713761
-0.4758565428124939	-0.23408650298875827
-0.4757955076562439	-0.25288045561830225
-0.4757344724999939	-0.2702770078290201
-0.4756734373437439	-0.28618025556013155
-0.4756124021874939	-0.3005024586678395
-0.4755513670312439	-0.3131645353758126
-0.4754903318749939	-0.3240965064927111
-0.4754292967187439	-0.3332378648599076
-0.4753682615624939	-0.34053793935408805
-0.4753072264062439	-0.34595614847089745
-0.4752461912499939	-0.3494622615994163
-0.4751851560937439	-0.3510365287097426
-0.4751241209374939	-0.35066983977449623
-0.4750630857812439	-0.3483637386006299
-0.4750020506249939	-0.3441304515341613
-0.4749410154687439	-0.3379928017173477
-0.4748799803124939	-0.3299841069035645
-0.4748189451562439	-0.3201479868954459
-0.4747579099999939	-0.3085381375934301
-0.4746968748437439	-0.29521804319182104
-0.4746358396874939	-0.28026061235404587
-0.4745748045312439	-0.26374781332887487
-0.4745137693749939	-0.2457701936573094
-0.4744527342187439	-0.2264264197689756
-0.4743916990624939	-0.205822697608733
-0.4743306639062439	-0.18407223966748862
-0.4742696287499939	-0.16129460450876365
-0.4742085935937439	-0.13761505497084062
-0.4741475584374939	-0.11316389359936403
-0.4740865232812439	-0.08807569757735534
-0.4740254881249939	-0.062488650947587356
-0.4739644529687439	-0.036543691977794904
-0.4739034178124939	-0.010383848725001081
-0.4738423826562439	0.01584666246314157
-0.4737813474999939	0.04200311988293964
-0.4737203123437439	0.06794118637475292
-0.4736592771874939	0.09351765169890555
-0.4735982420312439	0.11859123745664275
-0.4735372068749939	0.1430233826569424
-0.4734761717187439	0.16667897694392034
-0.4734151365624939	0.1894271781622951
-0.4733541014062439	0.2111420296438963
-0.4732930662499939	0.23170328428703746
-0.4732320310937439	0.2509969387916921
-0.4731709959374939	0.26891598631358543
-0.4731099607812439	0.28536090335005526
-0.4730489256249939	0.30024030216449843
-0.4729878904687439	0.3134713448209482
-0.4729268553124939	0.32498028806908213
-0.4728658201562439	0.3347028245867211
-0.4728047849999939	0.3425845031907949
-0.4727437498437439	0.34858098376293306
-0.4726827146874939	0.3526583220500662
-0.4726216795312439	0.354793146296444
-0.4725606443749939	0.35497279180396896
-0.4724996092187439	0.35319539161607977
-0.4724385740624939	0.34946986220640586
-0.4723775389062439	0.34381590267032985
-0.4723165037499939	0.33626384227022693
-0.4722554685937439	0.32685452927698755
-0.4721944334374939	0.3156390613980423
-0.4721333982812439	0.30267855837708385
-0.4720723631249939	0.28804378122359237
-0.4720113279687439	0.271814791259524
-0.4719502928124939	0.25408047601723893
-0.4718892576562439	0.23493809351660885
-0.4718282224999939	0.21449270380355218
-0.4717671873437439	0.19285664514778475
-0.4717061521874939	0.17014885170631222
-0.4716451170312439	0.14649426085094483
-0.4715840818749939	0.12202308212256346
-0.4715230467187439	0.09687010956235373
-0.4714620115624939	0.07117396328280161
-0.4714009764062439	0.04507631813924221
-0.4713399412499939	0.018721159678287694
-0.4712789060937439	-0.0077460684808021004
-0.4712178709374939	-0.03417921192782424
-0.4711568357812439	-0.06043225478965306
-0.4710958006249939	-0.08636009110899659
-0.4710347654687439	-0.11181936837394753
-0.4709737303124939	-0.13666924085282672
-0.4709126951562439	-0.16077218133690932
-0.4708516599999939	-0.18399472594199595
-0.4707906248437439	-0.2062082189529035
-0.4707295896874939	-0.22728952555707058
-0.4706685545312439	-0.24712173273148882
-0.4706075193749939	-0.265594758803562
-0.4705464842187439	-0.28260601726052503
-0.4704854490624939	-0.2980609520495213
-0.4704244139062439	-0.31187357897381907
-0.4703633787499939	-0.3239669597748976
-0.4703023435937439	-0.33427364289146316
-0.4702413084374939	-0.3427360392753464
-0.4701802732812439	-0.3493067237762767
-0.4701192381249939	-0.35394875270883
-0.4700582029687439	-0.356635810613953
-0.4699971678124939	-0.3573524273178168
-0.4699361326562439	-0.3560940037143736
-0.4698750974999939	-0.3528669078587703
-0.4698140623437439	-0.34768838298265703
-0.4697530271874939	-0.3405865163447927
