Time	Frequency
-0.5000212293749939	-3.752212866777897e-25
-0.49996019421874394	-3.264893766385103e-25
-0.49989915906249394	-2.7619411810170743e-25
-0.49983812390624394	-2.2459136618908014e-25
-0.49977708874999394	-1.7194353238871417e-25
-0.49971605359374394	-1.185184041125253e-25
-0.49965501843749394	-6.458760928906527e-26
-0.49959398328124394	-1.0425434525450821e-26
-0.49953294812499394	4.3692753518223264e-26
-0.49947191296874394	9.749177634192941e-26
-0.49941087781249394	1.5069812443357063e-25
-0.49934984265624394	2.030413018367106e-25
-0.49928880749999394	2.5425520644613786e-25
-0.49922777234374394	3.0407952072021496e-25
-0.49916673718749394	3.522610179474776e-25
-0.49910570203124394	3.9855480572167005e-25
-0.49904466687499394	4.427256886377628e-25
-0.49898363171874394	4.845492227184017e-25
-0.49892259656249394	5.238130229193737e-25
-0.49886156140624394	5.6031769261551305e-25
-0.49880052624999394	5.9387794310681995e-25
-0.49873949109374394	6.2432354553017e-25
-0.49867845593749394	6.515000972610434e-25
-0.49861742078124394	6.752699865358026e-25
-0.49855638562499394	6.955129008915567e-25
-0.49849535046874394	7.121266363389598e-25
-0.49843431531249394	7.250274650670215e-25
-0.49837328015624394	7.341506965269823e-25
-0.49831224499999394	7.3945090178893245e-25
-0.49825120984374394	7.409022555115178e-25
-0.49819017468749394	7.384985859610126e-25
-0.49812913953124394	7.322534827791541e-25
-0.49806810437499394	7.222001773252479e-25
-0.49800706921874394	7.08391431809286e-25
-0.49794603406249394	6.908992293118015e-25
-0.49788499890624394	6.698144513418307e-25
-0.49782396374999394	6.452463933952075e-25
-0.49776292859374394	6.173222435992047e-25
-0.49770189343749394	5.861863857717704e-25
-0.49764085828124394	5.519997475029966e-25
-0.49757982312499394	5.149388972753636e-25
-0.49751878796874394	4.751952170985395e-25
-0.49745775281249394	4.329738977765401e-25
-0.49739671765624394	3.8849289644221996e-25
-0.49733568249999394	3.4198183684034957e-25
-0.49727464734374394	2.936808065234952e-25
-0.49721361218749394	2.4383921867973765e-25
-0.49715257703124394	1.9271441648922893e-25
-0.49709154187499394	1.405705011298479e-25
-0.49703050671874394	8.767679023208811e-26
-0.49696947156249394	3.4306700193570225e-26
-0.49690843640624394	-1.926389927337553e-26
-0.49684740124999394	-7.27579372393868e-26
-0.49678636609374394	-1.2589864375052546e-25
-0.49672533093749394	-1.7841090532536628e-25
-0.49666429578124394	-2.3002273164284288e-25
-0.49660326062499394	-2.8046659199836706e-25
-0.49654222546874394	-3.294808742540178e-25
-0.49648119031249394	-3.76811105281043e-25
-0.49642015515624394	-4.222113846906857e-25
-0.49635911999999394	-4.654455628252452e-25
-0.49629808484374394	-5.062884824119131e-25
-0.49623704968749394	-5.445271709267626e-25
-0.49617601453124394	-5.799618524232249e-25
-0.49611497937499394	-6.124071066220309e-25
-0.49605394421874394	-6.416926966538143e-25
-0.49599290906249394	-6.676645507791681e-25
-0.49593187390624394	-6.901854898421455e-25
-0.49587083874999394	-7.091360105543303e-25
-0.49580980359374394	-7.244148184691286e-25
-0.49574876843749394	-7.3593946650739575e-25
-0.49568773328124394	-7.436466984793202e-25
-0.49562669812499394	-7.474928308005701e-25
-0.49556566296874394	-7.474539804296519e-25
-0.49550462781249394	-7.4352619783640985e-25
-0.49544359265624394	-7.357255038337815e-25
-0.49538255749999394	-7.24087813953269e-25
-0.49532152234374394	-7.086687790497081e-25
-0.49526048718749394	-6.895434971619106e-25
-0.49519945203124394	-6.668061639066944e-25
-0.49513841687499394	-6.405695728717453e-25
-0.49507738171874394	-6.109645842495861e-25
-0.49501634656249394	-5.7813944072480895e-25
-0.49495531140624394	-5.422590275064812e-25
-0.49489427624999394	-5.035040503301089e-25
-0.49483324109374394	-4.620700810813441e-25
-0.49477220593749394	-4.181666432673705e-25
-0.49471117078124394	-3.7201604788233002e-25
-0.49465013562499394	-3.238523645783147e-25
-0.49458910046874394	-2.739201027390402e-25
-0.49452806531249394	-2.2247316298973724e-25
-0.49446703015624394	-1.6977330429443278e-25
-0.49440599499999394	-1.160889816808292e-25
-0.49434495984374394	-6.1693946453037e-26
-0.49428392468749394	-6.865754935837468e-27
-0.49422288953124394	4.81155154822408e-26
-0.49416185437499394	1.0296884636777816e-25
-0.49410081921874394	1.5741356057522546e-25
-0.49403978406249394	2.1117089463583336e-25
-0.49397874890624394	2.6396532554782586e-25
-0.49391771374999394	3.15526130716992e-25
-0.49385667859374394	3.6558853081271465e-25
-0.49379564343749394	4.138953479157828e-25
-0.49373460828124394	4.601980852591114e-25
-0.49367357312499394	5.042583492111304e-25
-0.49361253796874394	5.458490121942259e-25
-0.49355150281249394	5.847553977878305e-25
-0.49349046765624394	6.207764047368911e-25
-0.49342943249999394	6.537255415532341e-25
-0.49336839734374394	6.834318728982457e-25
-0.49330736218749394	7.097409178104863e-25
-0.49324632703124394	7.32515454970936e-25
-0.49318529187499394	7.516362447304451e-25
-0.49312425671874394	7.670026278792807e-25
-0.49306322156249394	7.785330635986196e-25
-0.49300218640624394	7.861655898490219e-25
-0.49294115124999394	7.898580914458182e-25
-0.49288011609374394	7.895885843663065e-25
-0.49281908093749394	7.8535530949684315e-25
-0.49275804578124394	7.771767742480453e-25
-0.49269701062499394	7.650916444091727e-25
-0.49263597546874394	7.491585908995289e-25
-0.49257494031249394	7.2945596466578015e-25
-0.49251390515624394	7.060814399810706e-25
-0.49245286999999394	6.791515053436127e-25
-0.49239183484374394	6.488008782381002e-25
-0.49233079968749394	6.151818271046288e-25
-0.49226976453124394	5.784634258744539e-25
-0.49220872937499394	5.388306273016891e-25
-0.49214769421874394	4.964834126472307e-25
-0.49208665906249394	4.516357043667167e-25
-0.49202562390624394	4.045143295268107e-25
-0.49196458874999394	3.553577836368797e-25
-0.49190355359374394	3.044151345382589e-25
-0.49184251843749394	2.519446176184496e-25
-0.49178148328124394	1.9821246011295074e-25
-0.49172044812499394	1.4349133202307552e-25
-0.49165941296874394	8.805916335654971e-26
-0.49159837781249394	3.2197541547585496e-26
-0.49153734265624394	-2.3809613397448902e-26
-0.49147630749999394	-7.96775609847425e-26
-0.49141527234374394	-1.3512221636200114e-25
-0.49135423718749394	-1.89861543787368e-25
-0.49129320203124394	-2.436170618003113e-25
-0.49123216687499394	-2.961152398241682e-25
-0.49117113171874394	-3.4708897576769906e-25
-0.49111009656249394	-3.9627881893190782e-25
-0.49104906140624394	-4.434345065473319e-25
-0.49098802624999394	-4.883160750974212e-25
-0.49092699109374394	-5.306951979804645e-25
-0.49086595593749394	-5.703563493071451e-25
-0.49080492078124394	-6.070978737601612e-25
-0.49074388562499394	-6.407330870204154e-25
-0.49068285046874394	-6.710911837268083e-25
-0.49062181531249394	-6.980181875919066e-25
-0.49056078015624394	-7.213776712667562e-25
-0.49049974499999394	-7.410515266534667e-25
-0.49043870984374394	-7.569405603426874e-25
-0.49037767468749394	-7.6896499064499165e-25
-0.49031663953124394	-7.770648967195086e-25
-0.49025560437499394	-7.812005063887637e-25
-0.49019456921874394	-7.8135243008571435e-25
-0.49013353406249394	-7.775217433386732e-25
-0.49007249890624394	-7.697300176609073e-25
-0.49001146374999394	-7.5801918129033475e-25
-0.48995042859374394	-7.4245134644040985e-25
-0.48988939343749394	-7.231084570927642e-25
-0.48982835828124394	-7.000919141886013e-25
-0.48976732312499394	-6.735220211639847e-25
-0.48970628796874394	-6.435373947238933e-25
-0.48964525281249394	-6.102942419996319e-25
-0.48958421765624394	-5.739655752785638e-25
-0.48952318249999394	-5.3474029764968475e-25
-0.48946214734374394	-4.928222783095846e-25
-0.48940111218749394	-4.484292395220988e-25
-0.48934007703124394	-4.0179172259050646e-25
-0.48927904187499394	-3.5315178982962503e-25
-0.48921800671874394	-3.027619348186086e-25
-0.48915697156249394	-2.508835651802051e-25
-0.48909593640624394	-1.9778592361031553e-25
-0.48903490124999394	-1.4374442127956447e-25
-0.48897386609374394	-8.903943150328029e-26
-0.48891283093749394	-3.3954752504425087e-26
-0.48885179578124394	2.1223886422913856e-26
-0.48879076062499394	7.62102276696651e-26
-0.48872972546874394	1.3071903417302894e-25
-0.48866869031249394	1.8446748788807016e-25
-0.48860765515624394	2.3717676429180775e-25
-0.48854661999999394	2.8857333481122657e-25
-0.48848558484374394	3.383905451905904e-25
-0.48842454968749394	3.8636983462243117e-25
-0.48836351453124394	4.322622122707741e-25
-0.48830247937499394	4.758294508250579e-25
-0.48824144421874394	5.168454144031071e-25
-0.48818040906249394	5.550971206517596e-25
-0.48811937390624394	5.903859887822878e-25
-0.48805833874999394	6.225287290570756e-25
-0.48799730359374394	6.5135842087366875e-25
-0.48793626843749394	6.767252838925037e-25
-0.48787523328124394	6.984975656341253e-25
-0.48781419812499394	7.165620998880898e-25
-0.48775316296874394	7.308250473125173e-25
-0.48769212781249394	7.412122481657078e-25
-0.48763109265624394	7.476697488501992e-25
-0.48757005749999394	7.501639590168696e-25
-0.48750902234374394	7.486819553568488e-25
-0.48744798718749394	7.432314526897729e-25
-0.48738695203124394	7.3384085991986535e-25
-0.48732591687499394	7.205590663147851e-25
-0.48726488171874394	7.034552638684095e-25
-0.48720384656249394	6.826185331838027e-25
-0.48714281140624394	6.581574557858104e-25
-0.48708177624999394	6.30199489885497e-25
-0.48702074109374394	5.988903770376844e-25
-0.48695970593749394	5.643933571101658e-25
-0.48689867078124394	5.268883386235223e-25
-0.48683763562499394	4.865709696539545e-25
-0.48677660046874394	4.436516610044898e-25
-0.48671556531249394	3.9835442806633815e-25
-0.48665453015624394	3.509157976768079e-25
-0.48659349499999394	3.015835619384841e-25
-0.48653245984374394	2.5061551466810136e-25
-0.48647142468749394	1.9827807496171122e-25
-0.48641038953124394	1.4484493415739845e-25
-0.48634935437499394	9.05956501279463e-26
-0.48628831921874394	3.5814163846063346e-26
-0.48622728406249394	-1.921264082937458e-26
-0.48616624890624394	-7.419645272331874e-26
-0.48610521374999394	-1.2884902465197754e-25
-0.48604417859374394	-1.8288368958847492e-25
-0.48598314343749394	-2.360167716520905e-25
-0.48592210828124394	-2.879692151839305e-25
-0.48586107312499394	-3.3846787025077e-25
-0.48580003796874394	-3.8724704567755367e-25
-0.48573900281249394	-4.340498205242656e-25
-0.48567796765624394	-4.78629431517778e-25
-0.48561693249999394	-5.207505210541209e-25
-0.48555589734374394	-5.60190415512548e-25
-0.48549486218749394	-5.967402368893203e-25
-0.48543382703124394	-6.302060636658454e-25
-0.48537279187499394	-6.604098804057676e-25
-0.48531175671874394	-6.87190579056868e-25
-0.48525072156249394	-7.1040473202858485e-25
-0.48518968640624394	-7.299274636564189e-25
-0.48512865124999394	-7.456529484865072e-25
-0.48506761609374394	-7.574951736480288e-25
-0.48500658093749394	-7.65388190786641e-25
-0.48494554578124394	-7.692866710137563e-25
-0.48488451062499394	-7.691659678249338e-25
-0.48482347546874394	-7.65022440127492e-25
-0.48476244031249394	-7.568733055855344e-25
-0.48470140515624394	-7.447567407897332e-25
-0.48464036999999394	-7.287315291054835e-25
-0.48457933484374394	-7.088769224577623e-25
-0.48451829968749394	-6.852921069395846e-25
-0.48445726453124394	-6.580958172329165e-25
-0.48439622937499394	-6.274256324819146e-25
-0.48433519421874394	-5.934373533760291e-25
-0.48427415906249394	-5.5630413144427e-25
-0.48421312390624394	-5.1621566944845e-25
-0.48415208874999394	-4.733771296064869e-25
-0.48409105359374394	-4.280082047801998e-25
-0.48403001843749394	-3.8034185164138094e-25
-0.48396898328124394	-3.306232171547961e-25
-0.48390794812499394	-2.7910828353688926e-25
-0.48384691296874394	-2.2606253334612226e-25
-0.48378587781249394	-1.7175971054956437e-25
-0.48372484265624394	-1.1648015809543808e-25
-0.48366380749999394	-6.050966879619861e-26
-0.48360277234374394	-4.137692599359803e-27
-0.48354173718749394	5.234391835483885e-26
-0.48348070203124394	1.0864259323174051e-25
-0.48341966687499394	1.644664538617471e-25
-0.48335863171874394	2.1952589056856325e-25
-0.48329759656249394	2.7353509755108086e-25
-0.48323656140624394	3.2621345460779144e-25
-0.48317552624999394	3.7728715241452107e-25
-0.48311449109374394	4.264904360337455e-25
-0.48305345593749394	4.735671720523471e-25
-0.48299242078124394	5.182720314241298e-25
-0.48293138562499394	5.603719052383567e-25
-0.48287035046874394	5.996470285034733e-25
-0.48280931531249394	6.358921771076144e-25
-0.48274828015624394	6.689177577666324e-25
-0.48268724499999394	6.985507445622425e-25
-0.48262620984374394	7.246356778584699e-25
-0.48256517468749394	7.470353842351169e-25
-0.48250413953124394	7.656317966331177e-25
-0.48244310437499394	7.803264985138883e-25
-0.48238206921874394	7.910413217156218e-25
-0.48232103406249394	7.9771869431455975e-25
-0.48225999890624394	8.003220126013222e-25
-0.48219896374999394	7.988357926650247e-25
-0.48213792859374394	7.932658168495132e-25
-0.48207689343749394	7.836390529579003e-25
-0.48201585828124394	7.700035870845216e-25
-0.48195482312499394	7.524283334582512e-25
-0.48189378796874394	7.310027270844369e-25
-0.48183275281249394	7.058362281329211e-25
-0.48177171765624394	6.7705781243369095e-25
-0.48171068249999394	6.448152534082966e-25
-0.48164964734374394	6.092744094041098e-25
-0.48158861218749394	5.706183366505746e-25
-0.48152757703124394	5.290463725834505e-25
-0.48146654187499394	4.847730404978419e-25
-0.48140550671874394	4.380270799556524e-25
-0.48134447156249394	3.890500397093372e-25
-0.48128343640624394	3.3809528534747435e-25
-0.48122240124999394	2.8542644565961213e-25
-0.48116136609374394	2.313162002841385e-25
-0.48110033093749394	1.7604478026171836e-25
-0.48103929578124394	1.1989859173772088e-25
-0.48097826062499394	6.316858991987935e-26
-0.48091722546874394	6.1489158655758895e-27
-0.48085619031249394	-5.0864753504938256e-26
-0.48079515515624394	-1.075766745675878e-25
-0.48073411999999394	-1.636926409830734e-25
-0.48067308484374394	-2.189214495109574e-25
-0.48061204968749394	-2.729764945761849e-25
-0.48055101453124394	-3.2557720881060677e-25
-0.48048997937499394	-3.764505587035991e-25
-0.48042894421874394	-4.253324877117697e-25
-0.48036790906249394	-4.7196927458289035e-25
-0.48030687390624394	-5.161188337628111e-25
-0.48024583874999394	-5.575520679787802e-25
-0.48018480359374394	-5.960540092908632e-25
-0.48012376843749394	-6.31424936858043e-25
-0.48006273328124394	-6.634814982453606e-25
-0.48000169812499394	-6.920575707039131e-25
-0.47994066296874394	-7.170052533869671e-25
-0.47987962781249394	-7.381955368576691e-25
-0.47981859265624394	-7.555190708892731e-25
-0.47975755749999394	-7.688866778564104e-25
-0.47969652234374394	-7.782299023987372e-25
-0.47963548718749394	-7.835012741190164e-25
-0.47957445203124394	-7.846746761906012e-25
-0.47951341687499394	-7.817453932064319e-25
-0.47945238171874394	-7.747302197819041e-25
-0.47939134656249394	-7.636673110711659e-25
-0.47933031140624394	-7.486160647852655e-25
-0.47926927624999394	-7.296567367182766e-25
-0.47920824109374394	-7.06890103816984e-25
-0.47914720593749394	-6.804368856103076e-25
-0.47908617078124394	-6.504371505074533e-25
-0.47902513562499394	-6.170495764345196e-25
-0.47896410046874394	-5.804506310265493e-25
-0.47890306531249394	-5.40833648049369e-25
-0.47884203015624394	-4.984077966458724e-25
-0.47878099499999394	-4.533970748502248e-25
-0.47871995984374394	-4.0603900276990106e-25
-0.47865892468749394	-3.5658349601580082e-25
-0.47859788953124394	-3.052915298891313e-25
-0.47853685437499394	-2.524337242607703e-25
-0.47847581921874394	-1.982889958026898e-25
-0.47841478406249394	-1.4314303075595554e-25
-0.47835374890624394	-8.728687107955083e-26
-0.47829271374999394	-3.1015264423050825e-26
-0.47823167859374394	2.537473917420592e-26
-0.47817064343749394	8.158547590501588e-26
-0.47810960828124394	1.3732013872691715e-25
-0.47804857312499394	1.9228440414173096e-25
-0.47798753796874394	2.4618792588147793e-25
-0.47792650281249394	2.987459428109883e-25
-0.47786546765624394	3.496806292009352e-25
-0.47780443249999394	3.9872277108961204e-25
-0.47774339734374394	4.456129703825666e-25
-0.47768236218749394	4.901031893101458e-25
-0.47762132703124394	5.319579509224042e-25
-0.47756029187499394	5.709556015426173e-25
-0.47749925671874394	6.068895471637541e-25
-0.47743822156249394	6.395692483718907e-25
-0.47737718640624394	6.688213398335974e-25
-0.47731615124999394	6.944904273059957e-25
-0.47725511609374394	7.164400526380627e-25
-0.47719408093749394	7.345532747886117e-25
-0.47713304578124394	7.487334445962207e-25
-0.47707201062499394	7.589045722544695e-25
-0.47701097546874394	7.650118804085917e-25
-0.47694994031249394	7.6702197749206185e-25
-0.47688890515624394	7.649231559026211e-25
-0.47682786999999394	7.587253516917499e-25
-0.47676683484374394	7.484602225935413e-25
-0.47670579968749394	7.3418086439937275e-25
-0.47664476453124394	7.159616759415016e-25
-0.47658372937499394	6.93897839553606e-25
-0.47652269421874394	6.6810496099488935e-25
-0.47646165906249394	6.3871835918829965e-25
-0.47640062390624394	6.058924461550917e-25
-0.47633958874999394	5.697998584290397e-25
-0.47627855359374394	5.306306083023205e-25
-0.47621751843749394	4.885910723397808e-25
-0.47615648328124394	4.439028455285674e-25
-0.47609544812499394	3.968017511495647e-25
-0.47603441296874394	3.475363791160618e-25
-0.47597337781249394	2.9636697658260114e-25
-0.47591234265624394	2.4356394777419414e-25
-0.47585130749999394	1.8940652403800036e-25
-0.47579027234374394	1.3418122870982582e-25
-0.47572923718749394	7.818040781557308e-26
-0.47566820203124394	2.170067923935116e-26
-0.47560716687499394	-3.495865722965419e-26
-0.47554613171874394	-9.149713944390883e-26
-0.47548509656249394	-1.4761478523021722e-25
-0.47542406140624394	-2.0301365698713183e-25
-0.47536302624999394	-2.5739940256509347e-25
-0.47530199109374394	-3.104829150273752e-25
-0.47524095593749394	-3.619816899173814e-25
-0.47517992078124394	-4.1162154292405745e-25
-0.47511888562499394	-4.591378256974087e-25
-0.47505785046874394	-5.042770251582332e-25
-0.47499681531249394	-5.467980260962219e-25
-0.47493578015624394	-5.8647334969214e-25
-0.47487474499999394	-6.230904784862327e-25
-0.47481370984374394	-6.564528603681896e-25
-0.47475267468749394	-6.863810830263409e-25
-0.47469163953124394	-7.127136966745222e-25
-0.47463060437499394	-7.353082305845888e-25
-0.47456956921874394	-7.540418021653902e-25
-0.47450853406249394	-7.688119241475757e-25
-0.47444749890624394	-7.795369290284561e-25
-0.47438646374999394	-7.86156527459472e-25
-0.47432542859374394	-7.886320435747448e-25
-0.47426439343749394	-7.869467172100221e-25
-0.47420335828124394	-7.8110573458942835e-25
-0.47414232312499394	-7.711362734890491e-25
-0.47408128796874394	-7.570873291773458e-25
-0.47402025281249394	-7.390295015749042e-25
-0.47395921765624394	-7.170546137655482e-25
-0.47389818249999394	-6.91275256953027e-25
-0.47383714734374394	-6.61824195719048e-25
-0.47377611218749394	-6.288536881687899e-25
-0.47371507703124394	-5.92534690472799e-25
-0.47365404187499394	-5.5305596102548045e-25
-0.47359300671874394	-5.106230841999685e-25
-0.47353197156249394	-4.654573770378101e-25
-0.47347093640624394	-4.1779477273412915e-25
-0.47340990124999394	-3.678844885910595e-25
-0.47334886609374394	-3.1598783962635356e-25
-0.47328783093749394	-2.623767790950815e-25
-0.47322679578124394	-2.073324945549913e-25
-0.47316576062499394	-1.5114390340287028e-25
-0.47310472546874394	-9.410618086014367e-26
-0.47304369031249394	-3.6519173839413816e-26
-0.47298265515624394	2.1314199598082603e-26
-0.47292161999999394	7.908956799523766e-26
-0.47286058484374394	1.3650258275333407e-25
-0.47279954968749394	1.9325072671711095e-25
-0.47273851453124394	2.490347461166531e-25
-0.47267747937499394	3.0356036305088874e-25
-0.47261644421874394	3.565397209257159e-25
-0.47255540906249394	4.0769298285676283e-25
-0.47249437390624394	4.56749826115586e-25
-0.47243333874999394	5.0345080046737185e-25
-0.47237230359374394	5.475488275896951e-25
-0.47231126843749394	5.888103859544723e-25
-0.47225023328124394	6.270168369899876e-25
-0.47218919812499394	6.619655664051416e-25
