Time	Frequency
-0.5000601417812618	-5.412343310100257e-25
-0.4999991066250118	-5.106266272996451e-25
-0.4999380714687618	-4.77109169886782e-25
-0.4998770363125118	-4.408842662285575e-25
-0.4998160011562618	-4.0217031936963803e-25
-0.4997549660000118	-3.6120048285314854e-25
-0.4996939308437618	-3.182213597545566e-25
-0.4996328956875118	-2.734913802535928e-25
-0.4995718605312618	-2.2727946646219775e-25
-0.4995108253750118	-1.7986325789231327e-25
-0.4994497902187618	-1.3152759132143652e-25
-0.4993887550625118	-8.256269788148524e-26
-0.4993277199062618	-3.326257150352683e-26
-0.4992666847500118	1.6076885341171774e-26
-0.4992056495937618	6.515949584159316e-26
-0.4991446144375118	1.1369069106904492e-25
-0.4990835792812618	1.613792380927415e-25
-0.4990225441250118	2.0793891400778816e-25
-0.4989615089687618	2.5309030802374963e-25
-0.4989004738125118	2.9656242872892596e-25
-0.4988394386562618	3.380943490388594e-25
-0.4987784035000118	3.774367346452569e-25
-0.4987173683437618	4.143534217115263e-25
-0.4986563331875118	4.486227105132667e-25
-0.4985952980312618	4.800388173412425e-25
-0.4985342628750118	5.084129734931293e-25
-0.4984732277187618	5.335747281620338e-25
-0.4984121925625118	5.553728019736573e-25
-0.4983511574062618	5.736761300392794e-25
-0.4982901222500118	5.883745826714464e-25
-0.4982290870937618	5.993796352442678e-25
-0.4981680519375118	6.066249721550008e-25
-0.4981070167812618	6.100667760877895e-25
-0.4980459816250118	6.096841415956138e-25
-0.4979849464687618	6.05479062235368e-25
-0.4979239113125118	5.974765737686929e-25
-0.4978628761562618	5.857244846845351e-25
-0.4978018410000118	5.702932058939174e-25
-0.4977408058437618	5.512752660553887e-25
-0.4976797706875118	5.287848168223871e-25
-0.4976187355312618	5.029569324753118e-25
-0.4975577003750118	4.739468305814156e-25
-0.4974966652187618	4.419289328145699e-25
-0.4974356300625118	4.0709585533983875e-25
-0.4973745949062618	3.6965724810876803e-25
-0.4973135597500118	3.2983856487742988e-25
-0.4972525245937618	2.8787967861675004e-25
-0.4971914894375118	2.4403354535629173e-25
-0.4971304542812618	1.985645792971388e-25
-0.4970694191250118	1.5174718156006027e-25
-0.4970083839687618	1.0386404048660246e-25
-0.4969473488125118	5.520442572225762e-26
-0.4968863136562618	6.062581198755102e-27
-0.4968252785000118	-4.3264216163467515e-26
-0.4967642433437618	-9.247724063526051e-26
-0.4967032081875118	-1.412783300235503e-25
-0.4966421730312618	-1.8937139792499193e-25
-0.4965811378750118	-2.364644830249581e-25
-0.4965201027187618	-2.8227127099544505e-25
-0.4964590675625118	-3.2651300380669196e-25
-0.4963980324062618	-3.68919995243672e-25
-0.4963369972500118	-4.0923336587274654e-25
-0.4962759620937618	-4.47206525726923e-25
-0.4962149269375118	-4.826067072562824e-25
-0.4961538917812618	-5.152163658921959e-25
-0.4960928566250118	-5.448344319574188e-25
-0.4960318214687618	-5.712776499809455e-25
-0.4959707863125118	-5.94381508271084e-25
-0.4959097511562618	-6.140014587066923e-25
-0.4958487160000118	-6.300135759416832e-25
-0.4957876808437618	-6.42315496481559e-25
-0.4957266456875118	-6.508269037466312e-25
-0.4956656105312618	-6.554901411366105e-25
-0.4956045753750118	-6.562704838255485e-25
-0.4955435402187618	-6.531564239852761e-25
-0.4954825050625118	-6.461597193532839e-25
-0.4954214699062618	-6.353153628626542e-25
-0.4953604347500118	-6.206813698746894e-25
-0.4952993995937618	-6.0233847291164515e-25
-0.4952383644375118	-5.803896236697354e-25
-0.4951773292812618	-5.5495942402428e-25
-0.4951162941250118	-5.261933654228657e-25
-0.4950552589687618	-4.9425700268085335e-25
-0.4949942238125118	-4.593349685206924e-25
-0.4949331886562618	-4.216298491283933e-25
-0.4948721535000118	-3.8136103999163424e-25
-0.4948111183437618	-3.3876341782482407e-25
-0.4947500831875118	-2.9408593196101077e-25
-0.4946890480312618	-2.475901279408366e-25
-0.4946280128750118	-1.995486628925633e-25
-0.4945669777187618	-1.5024352965622001e-25
-0.4945059425625118	-9.996454982149615e-26
-0.4944449074062618	-4.9007506269217687e-26
-0.4943838722500118	2.327500164432723e-27
-0.4943228370937618	5.373799943928488e-26
-0.4942618019375118	1.0492078723304213e-25
-0.4942007667812618	1.5557383961804022e-25
-0.4941397316250118	2.053981595823279e-25
-0.4940786964687618	2.540993753995202e-25
-0.4940176613125118	3.0138981484271863e-25
-0.4939566261562618	3.469898741013198e-25
-0.4938955910000118	3.9063000311920377e-25
-0.4938345558437618	4.32052118966509e-25
-0.4937735206875118	4.710112702907043e-25
-0.4937124855312618	5.072770383494086e-25
-0.4936514503750118	5.406349700582078e-25
-0.4935904152187618	5.708878663623117e-25
-0.4935293800625118	5.978569279840759e-25
-0.4934683449062618	6.21382899313319e-25
-0.4934073097500118	6.4132694556270725e-25
-0.4933462745937618	6.575716171052408e-25
-0.4932852394375118	6.700213950155837e-25
-0.4932242042812618	6.78603470872061e-25
-0.4931631691250118	6.8326798709127875e-25
-0.4931021339687618	6.839885277766459e-25
-0.4930410988125118	6.807621413497786e-25
-0.4929800636562618	6.736094814684294e-25
-0.4929190285000118	6.62574597582863e-25
-0.4928579933437618	6.477247613998239e-25
-0.4927969581875118	6.291500012061205e-25
-0.4927359230312618	6.069626314949331e-25
-0.4926748878750118	5.812965384901888e-25
-0.4926138527187618	5.52306410914433e-25
-0.4925528175625118	5.201668400951175e-25
-0.4924917824062618	4.8507118655994515e-25
-0.4924307472500118	4.472305926508845e-25
-0.4923697120937618	4.0687249142862657e-25
-0.4923086769375118	3.6423952120756233e-25
-0.4922476417812618	3.1958778997159253e-25
-0.4921866066250118	2.7318559103105853e-25
-0.4921255714687618	2.2531160502314974e-25
-0.4920645363125118	1.762533454350681e-25
-0.4920035011562618	1.2630539970924179e-25
-0.4919424660000118	7.576762662224177e-26
-0.4918814308437618	2.4943419435464207e-26
-0.4918203956875118	-2.5862187407997384e-26
-0.4917593605312618	-7.634425888573876e-26
-0.4916983253750118	-1.2619994502320363e-25
-0.4916372902187618	-1.7513008065079336e-25
-0.4915762550625118	-2.228412700469972e-25
-0.4915152199062618	-2.690473270008558e-25
-0.4914541847500118	-3.134713378993333e-25
-0.4913931495937618	-3.5584704562087165e-25
-0.4913321144375118	-3.9592062516529223e-25
-0.4912710792812618	-4.3345218394773245e-25
-0.4912100441250118	-4.682171366287256e-25
-0.4911490089687618	-5.000076973848372e-25
-0.4910879738125118	-5.28633968868893e-25
-0.4910269386562618	-5.539252912977928e-25
-0.4909659035000118	-5.7573105102010755e-25
-0.4909048683437618	-5.939218221872286e-25
-0.4908438331875118	-6.08389955935893e-25
-0.4907827980312618	-6.190503899102772e-25
-0.4907217628750118	-6.25841055508371e-25
-0.4906607277187618	-6.2872334523423745e-25
-0.4905996925625118	-6.2768227791714335e-25
-0.4905386574062618	-6.227266712044335e-25
-0.4904776222500118	-6.138890246249064e-25
-0.4904165870937618	-6.012253879800883e-25
-0.4903555519375118	-5.848149961642291e-25
-0.4902945167812618	-5.647598089648859e-25
-0.4902334816250118	-5.41183916319955e-25
-0.4901724464687618	-5.1423275194679855e-25
-0.4901114113125118	-4.8407229848304445e-25
-0.4900503761562618	-4.508879937199195e-25
-0.4899893410000118	-4.14883708842204e-25
-0.4899283058437618	-3.7628045192337803e-25
-0.4898672706875118	-3.353151054683323e-25
-0.4898062355312618	-2.922389043270246e-25
-0.4897452003750118	-2.473160285435704e-25
-0.4896841652187618	-2.0082192348938937e-25
-0.4896231300625118	-1.5304170944678755e-25
-0.4895620949062618	-1.0426837976348163e-25
-0.4895010597500118	-5.480109959317935e-26
-0.4894400245937618	-4.943383581409745e-27
-0.4893789894375118	4.4998811216513355e-26
-0.4893179542812618	9.471879603681734e-26
-0.4892569191250118	1.4391116473760377e-25
-0.4891958839687618	1.9227353010901996e-25
-0.4891348488125118	2.3950841711124265e-25
-0.4890738136562618	2.853250393692472e-25
-0.4890127785000118	3.294410823599305e-25
-0.4889517433437618	3.7158440605003074e-25
-0.4888907081875118	4.1149471098900715e-25
-0.4888296730312618	4.489251133563459e-25
-0.4887686378750118	4.836436524668603e-25
-0.4887076027187618	5.154347088138257e-25
-0.4886465675625118	5.441003143939484e-25
-0.4885855324062618	5.694613779574215e-25
-0.4885244972500118	5.913587382733262e-25
-0.4884634620937618	6.096542220418719e-25
-0.4884024269375118	6.242313983778307e-25
-0.4883413917812618	6.3499639085151765e-25
-0.4882803566250118	6.418783643446759e-25
-0.4882193214687618	6.448300780181171e-25
-0.4881582863125118	6.438280783075193e-25
-0.4880972511562618	6.38872948740183e-25
-0.4880362160000118	6.299892529761867e-25
-0.4879751808437618	6.172254466696542e-25
-0.4879141456875118	6.006535806052898e-25
-0.4878531105312618	5.803688739953475e-25
-0.4877920753750118	5.564891826661685e-25
-0.4877310402187618	5.291542454275414e-25
-0.4876700050625118	4.985249211220886e-25
-0.4876089699062618	4.647821645734162e-25
-0.4875479347500118	4.2812600568258715e-25
-0.4874868995937618	3.8877425091353377e-25
-0.4874258644375118	3.4696133559071904e-25
-0.4873648292812618	3.029367149000839e-25
-0.4873037941250118	2.569635588362104e-25
-0.4872427589687618	2.093170085770354e-25
-0.4871817238125118	1.6028260987893184e-25
-0.4871206886562618	1.1015457264410695e-25
-0.4870596535000118	5.923394029559914e-26
-0.4869986183437618	7.826904283017392e-27
-0.4869375831875118	-4.3757281538512175e-26
-0.4868765480312618	-9.52078675163274e-26
-0.4868155128750118	-1.462147964301358e-25
-0.4867544777187618	-1.964703274031169e-25
-0.4866934425625118	-2.4567109927998e-25
-0.4866324074062618	-2.9351982676858087e-25
-0.4865713722500118	-3.3972720534342103e-25
-0.4865103370937618	-3.8401361481350103e-25
-0.4864493019375118	-4.26110819076442e-25
-0.4863882667812618	-4.657636768606816e-25
-0.4863272316250118	-5.027315307399376e-25
-0.4862661964687618	-5.367899095165825e-25
-0.4862051613125118	-5.6773164494267065e-25
-0.4861441261562618	-5.9536836534906305e-25
-0.4860830910000118	-6.195314515016013e-25
-0.4860220558437618	-6.400732689660526e-25
-0.4859610206875118	-6.568678539404141e-25
-0.4858999855312618	-6.698119262815736e-25
-0.4858389503750118	-6.788253126236126e-25
-0.4857779152187618	-6.838516112721369e-25
-0.4857168800625118	-6.848584400004973e-25
-0.4856558449062618	-6.818377057543475e-25
-0.4855948097500118	-6.748056497660468e-25
-0.4855337745937618	-6.638027425816572e-25
-0.4854727394375118	-6.488935059282803e-25
-0.4854117042812618	-6.301660545223575e-25
-0.4853506691250118	-6.077316720633063e-25
-0.4852896339687618	-5.817240441155521e-25
-0.4852285988125118	-5.522985587045093e-25
-0.4851675636562618	-5.196312906151198e-25
-0.4851065285000118	-4.839180130005435e-25
-0.4850454933437618	-4.453729570850653e-25
-0.4849844581875118	-4.04227597010649e-25
-0.4849234230312618	-3.607291421967559e-25
-0.4848623878750118	-3.151391970882144e-25
-0.4848013527187618	-2.677320108657476e-25
-0.4847403175625118	-2.1879298649979503e-25
-0.4846792824062618	-1.6861677542028624e-25
-0.4846182472500118	-1.175057017020442e-25
-0.4845572120937618	-6.576770714899588e-26
-0.4844961769375118	-1.3714682290253556e-26
-0.4844351417812618	3.833958990969009e-26
-0.4843741066250118	9.008120808864437e-26
-0.4843130714687618	1.411981237142588e-25
-0.4842520363125118	1.9138207377251808e-25
-0.4841910011562618	2.4033035099441316e-25
-0.4841299660000118	2.8774774028336957e-25
-0.4840689308437618	3.3334826584296336e-25
-0.4840078956875118	3.768569727819562e-25
-0.4839468605312618	4.180115349764487e-25
-0.4838858253750118	4.565639624604721e-25
-0.4838247902187618	4.922819727719876e-25
-0.4837637550625118	5.249505701561924e-25
-0.4837027199062618	5.543731965355828e-25
-0.4836416847500118	5.803730995116701e-25
-0.4835806495937618	6.027942531057511e-25
-0.4835196144375118	6.215024669337195e-25
-0.4834585792812618	6.36386061373311e-25
-0.4833975441250118	6.473567061422681e-25
-0.4833365089687618	6.543498297235092e-25
-0.4832754738125118	6.5732513054654955e-25
-0.4832144386562618	6.562667476068547e-25
-0.4831534035000118	6.511834260525293e-25
-0.4830923683437618	6.421084344891919e-25
-0.4830313331875118	6.290993865651718e-25
-0.4829702980312618	6.122378985626075e-25
-0.4829092628750118	5.916290929424293e-25
-0.4828482277187618	5.674009686020475e-25
-0.4827871925625118	5.397036263763155e-25
-0.4827261574062618	5.087083802463788e-25
-0.4826651222500118	4.746066607814589e-25
-0.4826040870937618	4.37608951393055e-25
-0.4825430519375118	3.979433877262279e-25
-0.4824820167812618	3.558545135572211e-25
-0.4824209816250118	3.116016236460669e-25
-0.4823599464687618	2.654573723199278e-25
-0.4822989113125118	2.177059327441944e-25
-0.4822378761562618	1.6864143208508283e-25
-0.4821768410000118	1.1856598163790976e-25
-0.4821158058437618	6.778803875491005e-26
-0.4820547706875118	1.6620281847741967e-26
-0.4819937355312618	-3.46220356450168e-26
-0.4819327003750118	-8.56232457997613e-26
-0.4818716652187618	-1.3606907082723488e-25
-0.4818106300625118	-1.8564851591682724e-25
-0.4817495949062618	-2.3405594200748105e-25
-0.4816885597500118	-2.809926943178471e-25
-0.4816275245937618	-3.2616919720946583e-25
-0.4815664894375118	-3.6930646446995247e-25
-0.4815054542812618	-4.1013806455231907e-25
-0.4814444191250118	-4.484115500465976e-25
-0.4813833839687618	-4.83890143632404e-25
-0.4813223488125118	-5.163541207098292e-25
-0.4812613136562618	-5.4560222790271335e-25
-0.4812002785000118	-5.714528217206209e-25
-0.4811392433437618	-5.9374513195847885e-25
-0.4810782081875118	-6.123401034575756e-25
-0.4810171730312618	-6.271214003700552e-25
-0.4809561378750118	-6.379960149657558e-25
-0.4808951027187618	-6.448949154098077e-25
-0.4808340675625118	-6.477734723814402e-25
-0.4807730324062618	-6.466117104218976e-25
-0.4807119972500118	-6.4141449723655705e-25
-0.4806509620937618	-6.322114609324559e-25
-0.4805899269375118	-6.190568991975885e-25
-0.4805288917812618	-6.020293648325178e-25
-0.4804678566250118	-5.812313084840705e-25
-0.4804068214687618	-5.567883414637709e-25
-0.4803457863125118	-5.288486034901689e-25
-0.4802847511562618	-4.975817335692332e-25
-0.4802237160000118	-4.631779769896746e-25
-0.4801626808437618	-4.258469038315124e-25
-0.4801016456875118	-3.8581625296746126e-25
-0.4800406105312618	-3.433304298806575e-25
-0.4799795753750118	-2.9864910693265165e-25
-0.4799185402187618	-2.520455872899321e-25
-0.4798575050625118	-2.0380517488094888e-25
-0.4797964699062618	-1.5422339000747573e-25
-0.4797354347500118	-1.0360416621972819e-25
-0.4796743995937618	-5.225805433538757e-26
-0.4796133644375118	-5.00234431071814e-28
-0.4795523292812618	5.13513871067364e-26
-0.4794912941250118	1.0297808511494607e-25
-0.4794302589687618	1.5406232091135646e-25
-0.4793692238125118	2.0428969172569018e-25
-0.4793081886562618	2.533508032510594e-25
-0.4792471535000118	3.0094327587285452e-25
-0.4791861183437618	3.467734671375618e-25
-0.4791250831875118	3.905584403099399e-25
-0.4790640480312618	4.320275312294078e-25
-0.4790030128750118	4.7092420294534775e-25
-0.4789419777187618	5.07007465940213e-25
-0.4788809425625118	5.400534609526214e-25
-0.4788199074062618	5.698568321331294e-25
-0.4787588722500118	5.962319499000582e-25
-0.4786978370937618	6.190141536935063e-25
-0.4786368019375118	6.380606552595964e-25
-0.4785757667812618	6.532515611442082e-25
-0.4785147316250118	6.6449050142407e-25
-0.4784536964687618	6.717053288249283e-25
-0.4783926613125118	6.748485208467062e-25
-0.4783316261562618	6.738975032800162e-25
-0.4782705910000118	6.688548200798213e-25
-0.4782095558437618	6.597480965462255e-25
-0.4781485206875118	6.466299331968883e-25
-0.4780874855312618	6.295775418814789e-25
-0.4780264503750118	6.086923429896376e-25
-0.4779654152187618	5.840993109337327e-25
-0.4779043800625118	5.559462535876327e-25
-0.4778433449062618	5.244028847702423e-25
-0.4777823097500118	4.896598459197566e-25
-0.4777212745937618	4.519274783388621e-25
-0.4776602394375118	4.1143460370806965e-25
-0.4775992042812618	3.68427111674624e-25
-0.4775381691250118	3.2316642838331587e-25
-0.4774771339687618	2.759279589461368e-25
-0.4774160988125118	2.269993778399457e-25
-0.4773550636562618	1.766789181265111e-25
-0.4772940285000118	1.2527342450292412e-25
-0.4772329933437618	7.309665094792301e-26
-0.4771719581875118	2.046715215166789e-26
-0.4771109230312618	-3.229352585408618e-26
-0.4770498878750118	-8.486291108405394e-26
-0.4769888527187618	-1.3691954390004303e-25
-0.4769278175625118	-1.881449711236971e-25
-0.4768667824062618	-2.382256907652118e-25
-0.4768057472500118	-2.8685510982618385e-25
-0.4767447120937618	-3.337353988060398e-25
-0.4766836769375118	-3.7857934553910865e-25
-0.4766226417812618	-4.211121442316491e-25
-0.4765616066250118	-4.610730402984726e-25
-0.4765005714687618	-4.982169990720799e-25
-0.4764395363125118	-5.323161982526186e-25
-0.4763785011562618	-5.631614180001156e-25
-0.4763174660000118	-5.905633737775996e-25
-0.4762564308437618	-6.143538669710398e-25
-0.4761953956875118	-6.343868236188146e-25
-0.4761343605312618	-6.505392470966937e-25
-0.4760733253750118	-6.627119191978251e-25
-0.4760122902187618	-6.7083010001650395e-25
-0.4759512550625118	-6.748439142431927e-25
-0.4758902199062618	-6.747287624610189e-25
-0.4758291847500118	-6.704853912462207e-25
-0.4757681495937618	-6.6213998794201605e-25
-0.4757071144375118	-6.497439516504479e-25
-0.4756460792812618	-6.333736585797658e-25
-0.4755850441250118	-6.131299398253698e-25
-0.4755240089687618	-5.89137535896451e-25
-0.4754629738125118	-5.615442629582031e-25
-0.4754019386562618	-5.305201894338991e-25
-0.4753409035000118	-4.962565398071708e-25
-0.4752798683437618	-4.589645502480915e-25
-0.4752188331875118	-4.188741868502975e-25
-0.4751577980312618	-3.7623269276992706e-25
-0.4750967628750118	-3.313031256896956e-25
-0.4750357277187618	-2.8436269159620915e-25
-0.4749746925625118	-2.3570106743417936e-25
-0.4749136574062618	-1.8561864655237917e-25
-0.4748526222500118	-1.3442460615896828e-25
-0.4747915870937618	-8.243509123886763e-26
-0.4747305519375118	-2.997123042688489e-26
-0.4746695167812618	2.264287700818203e-26
-0.4746084816250118	7.508207696103117e-26
-0.4745474464687618	1.270222862675643e-25
-0.4744864113125118	1.7814236043752194e-25
-0.4744253761562618	2.281261953937377e-25
-0.4743643410000118	2.7666461036961547e-25
-0.4743033058437618	3.2345730217076405e-25
-0.4742422706875118	3.6821465759451177e-25
-0.4741812355312618	4.1065961345246303e-25
-0.4741202003750118	4.505293046249113e-25
-0.4740591652187618	4.875767734537542e-25
-0.4739981300625118	5.215723980817958e-25
-0.4739370949062618	5.5230543747645335e-25
-0.4738760597500118	5.795852690495928e-25
-0.4738150245937618	6.032425592538236e-25
-0.4737539894375118	6.231304318757899e-25
-0.4736929542812618	6.391252159000298e-25
-0.4736319191250118	6.511274061437364e-25
-0.4735708839687618	6.590621233713084e-25
-0.4735098488125118	6.6287972136634335e-25
-0.4734488136562618	6.6255600779793595e-25
-0.4733877785000118	6.580924729410021e-25
-0.4733267433437618	6.495162499195307e-25
-0.4732657081875118	6.3687997997175485e-25
-0.4732046730312618	6.202614922760213e-25
-0.4731436378750118	5.997633256759217e-25
-0.4730826027187618	5.755121238955161e-25
-0.4730215675625118	5.476578358053978e-25
-0.4729605324062618	5.163728311549647e-25
-0.4728994972500118	4.818507884770067e-25
-0.4728384620937618	4.443055973422588e-25
-0.4727774269375118	4.039699157319519e-25
-0.4727163917812618	3.6109387156485e-25
-0.4726553566250118	3.159433820991319e-25
-0.4725943214687618	2.687986697949178e-25
-0.4725332863125118	2.1995238724296314e-25
-0.4724722511562618	1.6970785254322526e-25
-0.4724112160000118	1.1837727459480788e-25
-0.4723501808437618	6.627963648488855e-26
-0.4722891456875118	1.3738890815070615e-26
-0.4722281105312618	-3.891816733125143e-26
-0.4721670753750118	-9.136385652325395e-26
-0.4721060402187618	-1.432716523143503e-25
-0.4720450050625118	-1.9431824829076814e-25
-0.4719839699062618	-2.4418554492616926e-25
-0.4719229347500118	-2.9256261496583966e-25
-0.4718618995937618	-3.3914762258968465e-25
-0.4718008644375118	-3.8364978097299867e-25
-0.4717398292812618	-4.25791048224458e-25
-0.4716787941250118	-4.653079640212921e-25
-0.4716177589687618	-5.019532268712413e-25
-0.4715567238125118	-5.35497274057123e-25
