Time	Frequency
-0.5000377251249972	0.311775362951382
-0.4999766899687472	0.32194336667102724
-0.4999156548124972	0.33026215121725555
-0.4998546196562472	0.33668393431640975
-0.4997935844999972	0.34117155648469294
-0.4997325493437472	0.3436987763829786
-0.4996715141874972	0.34425035725206976
-0.4996104790312472	0.3428222030886277
-0.4995494438749972	0.33942136757368585
-0.4994884087187472	0.3340660180537661
-0.4994273735624972	0.3267853603267255
-0.4993663384062472	0.3176194445976001
-0.4993053032499972	0.30661899394478964
-0.4992442680937472	0.2938450733852581
-0.4991832329374972	0.27936880330514946
-0.4991221977812472	0.263270918764046
-0.4990611626249972	0.2456413666117704
-0.4990001274687472	0.22657875966059704
-0.4989390923124972	0.206189873300694
-0.4988780571562472	0.1845890100794323
-0.4988170219999972	0.16189738830209097
-0.4987559868437472	0.1382424607548488
-0.4986949516874972	0.11375718472841692
-0.4986339165312472	0.08857930012812973
-0.4985728813749972	0.06285055751883771
-0.4985118462187472	0.03671589559713402
-0.4984508110624972	0.010322663694704136
-0.4983897759062472	-0.016180222733085673
-0.4983287407499972	-0.04264311525854269
-0.4982677055937472	-0.06891647201353929
-0.4982066704374972	-0.09485171000835797
-0.4981456352812472	-0.12030201776850388
-0.4980846001249972	-0.14512320139285795
-0.4980235649687472	-0.16917448272952312
-0.4979625298124972	-0.1923193156080986
-0.4979014946562472	-0.21442612625139065
-0.4978404594999972	-0.2353690826618434
-0.4977794243437472	-0.25502878912609966
-0.4977183891874972	-0.27329296702984907
-0.4976573540312472	-0.29005709120810386
-0.4975963188749972	-0.3052249853054836
-0.4975352837187472	-0.3187093714484666
-0.4974742485624972	-0.33043234842812935
-0.4974132134062472	-0.340325854604757
-0.4973521782499972	-0.3483320617604844
-0.4972911430937472	-0.35440368031274216
-0.4972301079374972	-0.35850426412104747
-0.4971690727812472	-0.36060839625042407
-0.4971080376249972	-0.36070186474544214
-0.4970470024687472	-0.3587817222364825
-0.4969859673124972	-0.354856336250969
-0.4969249321562472	-0.34894533452180604
-0.4968638969999972	-0.34107950397689146
-0.4968028618437472	-0.3313006357653967
-0.4967418266874972	-0.31966127646630166
-0.4966807915312472	-0.3062244698596493
-0.4966197563749972	-0.2910633794112029
-0.4965587212187472	-0.2742609095532319
-0.4964976860624972	-0.255909224270488
-0.4964366509062472	-0.2361092539192329
-0.4963756157499972	-0.2149701103340003
-0.4963145805937472	-0.19260852198271988
-0.4962535454374972	-0.16914812433658477
-0.4961925102812472	-0.14471881875672815
-0.4961314751249972	-0.11945602499685239
-0.4960704399687472	-0.09349992068438451
-0.4960094048124972	-0.06699466907383526
-0.4959483696562472	-0.04008759095950614
-0.4958873344999972	-0.012928376400353754
-0.4958262993437472	0.014331808510614797
-0.4957652641874972	0.04154111646964271
-0.4957042290312472	0.06854791040673129
-0.4956431938749972	0.0952016029063309
-0.4955821587187472	0.12135349964036282
-0.4955211235624972	0.14685763163239388
-0.4954600884062472	0.17157160339712377
-0.4953990532499972	0.19535735962610476
-0.4953380180937472	0.21808199267238298
-0.4952769829374972	0.23961847695148192
-0.4952159477812472	0.25984638385039033
-0.4951549126249972	0.27865258750233884
-0.4950938774687472	0.2959318603451617
-0.4950328423124972	0.3115875245994442
-0.4949718071562472	0.3255319359753588
-0.4949107719999972	0.33768704793539506
-0.4948497368437472	0.3479847975752052
-0.4947887016874972	0.35636753667329696
-0.4947276665312472	0.36278832676072503
-0.4946666313749972	0.36721123325826055
-0.4946055962187472	0.36961152219027216
-0.4945445610624972	0.36997579385123064
-0.4944835259062472	0.36830209713208417
-0.4944224907499972	0.36459988890002654
-0.4943614555937472	0.35889005545205777
-0.4943004204374972	0.3512047255613315
-0.4942393852812472	0.34158716545981876
-0.4941783501249972	0.3300914739695023
-0.4941173149687472	0.3167823351901152
-0.4940562798124972	0.3017346211576142
-0.4939952446562472	0.28503299635112445
-0.4939342094999972	0.2667714307774646
-0.4938731743437472	0.24705267442189946
-0.4938121391874972	0.22598769508436192
-0.4937511040312472	0.20369503140488984
-0.4936900688749972	0.18030015151007167
-0.4936290337187472	0.15593472575148562
-0.4935679985624972	0.1307359083378507
-0.4935069634062472	0.1048455380453747
-0.4934459282499972	0.0784093687120553
-0.4933848930937472	0.051576216664432135
-0.4933238579374972	0.024497157255934827
-0.4932628227812472	-0.0026753704219090076
-0.4932017876249972	-0.029788376153407087
-0.4931407524687472	-0.05668923604401275
-0.4930797173124972	-0.08322649436241696
-0.4930186821562472	-0.10925078260473436
-0.4929576469999972	-0.1346156190702191
-0.4928966118437472	-0.15917823885456425
-0.4928355766874972	-0.1828004622037306
-0.4927745415312472	-0.20534936919233543
-0.4927135063749972	-0.22669816647242322
-0.4926524712187472	-0.24672682486091113
-0.4925914360624972	-0.26532281469565006
-0.4925304009062472	-0.2823816937967465
-0.4924693657499972	-0.29780774860329856
-0.4924083305937472	-0.3115145165913787
-0.4923472954374972	-0.32342526785562786
-0.4922862602812472	-0.33347347159060636
-0.4922252251249972	-0.34160314446827267
-0.4921641899687472	-0.3477691973307189
-0.4921031548124972	-0.35193767539811127
-0.4920421196562472	-0.35408596456511743
-0.4919810844999972	-0.354202916581515
-0.4919200493437472	-0.35228892529270206
-0.4918590141874972	-0.34835591015227985
-0.4917979790312472	-0.342427276494652
-0.4917369438749972	-0.3345377589590834
-0.4916759087187472	-0.32473325773759326
-0.4916148735624972	-0.3130705491226368
-0.4915538384062472	-0.2996169986196905
-0.4914928032499972	-0.2844501525547067
-0.4914317680937472	-0.26765732866128317
-0.4913707329374972	-0.24933510224278943
-0.4913096977812472	-0.22958876355709068
-0.4912486626249972	-0.2085317405759449
-0.4911876274687472	-0.18628492937939303
-0.4911265923124972	-0.1629760377136849
-0.4910655571562472	-0.13873883732673647
-0.4910045219999972	-0.1137124218996897
-0.4909434868437472	-0.08804041145731682
-0.4908824516874972	-0.06187013362441236
-0.4908214165312472	-0.035351797969624545
-0.4907603813749972	-0.008637634568696128
-0.4906993462187472	0.018118970393908994
-0.4906383110624972	0.04476434914483125
-0.4905772759062472	0.07114542709560134
-0.4905162407499972	0.09711057142596395
-0.4904552055937472	0.12251050073852475
-0.4903941704374972	0.14719909863093852
-0.4903331352812472	0.17103425603011616
-0.4902721001249972	0.19387869180690778
-0.4902110649687472	0.21560072529224006
-0.4901500298124972	0.23607503809594632
-0.4900889946562472	0.255183380269342
-0.4900279594999972	0.27281526842901177
-0.4899669243437472	0.2888685912525143
-0.4899058891874972	0.3032502122241127
-0.4898448540312472	0.31587651239230896
-0.4897838188749972	0.3266738420386516
-0.4897227837187472	0.3355789939498525
-0.4896617485624972	0.34253951536904514
-0.4896007134062472	0.34751405309297384
-0.4895396782499972	0.35047257791574654
-0.4894786430937472	0.3513965627602355
-0.4894176079374972	0.3502791061672844
-0.4893565727812472	0.3471249579770876
-0.4892955376249972	0.34195052541958115
-0.4892345024687472	0.33478375842562147
-0.4891734673124972	0.32566402487527296
-0.4891124321562472	0.31464186884299433
-0.4890513969999972	0.301778745709942
-0.4889903618437472	0.2871466734008048
-0.4889293266874972	0.2708278265108028
-0.4888682915312472	0.25291407531192767
-0.4888072563749972	0.2335064698764442
-0.4887462212187472	0.21271467024221866
-0.4886851860624972	0.19065631830475346
-0.4886241509062472	0.16745638488948722
-0.4885631157499972	0.14324645793789464
-0.4885020805937472	0.11816399162913509
-0.4884410454374972	0.09235152016457993
-0.4883800102812472	0.06595587550757372
-0.4883189751249972	0.03912732945306796
-0.4882579399687472	0.012018728890113843
-0.4881969048124972	-0.015215337298481619
-0.4881358696562472	-0.04241944874213191
-0.4880748344999972	-0.06943822769458936
-0.4880137993437472	-0.09611723168561805
-0.4879527641874972	-0.12230382553615646
-0.4878917290312472	-0.1478480599486894
-0.4878306938749972	-0.1726035262406725
-0.4877696587187472	-0.1964281933489071
-0.4877086235624972	-0.21918521676619943
-0.4876475884062472	-0.2407437405712003
-0.4875865532499972	-0.2609796174878482
-0.4875255180937472	-0.2797761469892072
-0.4874644829374972	-0.2970247293022558
-0.4874034477812472	-0.3126255054142805
-0.4873424126249972	-0.32648792421744444
-0.4872813774687472	-0.33853125157211045
-0.4872203423124972	-0.34868507382106934
-0.4871593071562472	-0.35688965771899156
-0.4870982719999972	-0.36309634663998763
-0.4870372368437472	-0.36726780395268044
-0.4869762016874972	-0.3693782712575493
-0.4869151665312472	-0.36941368238136685
-0.4868541313749972	-0.3673717923294611
-0.4867930962187472	-0.3632621629755238
-0.4867320610624972	-0.35710614248953343
-0.4866710259062472	-0.3489367348536403
-0.4866099907499972	-0.33879842316769515
-0.4865489555937472	-0.326746930665611
-0.4864879204374972	-0.3128488956808661
-0.4864268852812472	-0.29718152038062096
-0.4863658501249972	-0.2798321052764107
-0.4863048149687472	-0.2608975950820628
-0.4862437798124972	-0.24048399064091783
-0.4861827446562472	-0.21870580547399684
-0.4861217094999972	-0.19568534276531047
-0.4860606743437472	-0.17155208105696118
-0.4859996391874972	-0.14644187397139571
-0.4859386040312472	-0.12049623012998911
-0.4858775688749972	-0.09386148049965744
-0.4858165337187472	-0.06668793337884037
-0.4857554985624972	-0.03912907717674121
-0.4856944634062472	-0.011340631013081784
-0.4856334282499972	0.01652028206548837
-0.4855723930937472	0.04429607066481315
-0.4855113579374972	0.07182953498690757
-0.4854503227812472	0.09896481967902414
-0.4853892876249972	0.1255482362259397
-0.4853282524687472	0.15142919978251604
-0.4852672173124972	0.17646106235848413
-0.4852061821562472	0.20050193988576243
-0.4851451469999972	0.22341557758857905
-0.4850841118437472	0.245072046509322
-0.4850230766874972	0.26534857157103997
-0.4849620415312472	0.28413018902653076
-0.4849010063749972	0.30131041409872245
-0.4848399712187472	0.3167918656468664
-0.4847789360624972	0.3304868043175915
-0.4847179009062472	0.3423176710000279
-0.4846568657499972	0.3522174937850239
-0.4845958305937472	0.36013031660938716
-0.4845347954374972	0.3660114839895216
-0.4844737602812472	0.369827938612509
-0.4844127251249972	0.37155838330883945
-0.4843516899687472	0.3711934274513971
-0.4842906548124972	0.3687356419355514
-0.4842296196562472	0.3641995326637489
-0.4841685844999972	0.3576114984690118
-0.4841075493437472	0.34900963327459783
-0.4840465141874972	0.33844356895435374
-0.4839854790312472	0.3259741444074349
-0.4839244438749972	0.3116731029341212
-0.4838634087187472	0.29562264985683573
-0.4838023735624972	0.27791501768455584
-0.4837413384062472	0.25865191081137634
-0.4836803032499972	0.23794395556622172
-0.4836192680937472	0.21591005250491135
-0.4835582329374972	0.19267668770312638
-0.4834971977812472	0.16837723856860107
-0.4834361626249972	0.14315119086973327
-0.4833751274687472	0.11714334274333485
-0.4833140923124972	0.09050298875875978
-0.4832530571562472	0.0633830426667925
-0.4831920219999972	0.035939191482134605
-0.4831309868437472	0.008328976563114055
-0.4830699516874972	-0.019289113436539006
-0.4830089165312472	-0.0467565050798842
-0.4829478813749972	-0.07391551827015763
-0.4828868462187472	-0.10061021375393267
-0.4828258110624972	-0.12668733329076012
-0.4827647759062472	-0.1519971310861619
-0.4827037407499972	-0.17639431052838092
-0.4826427055937472	-0.19973876706841043
-0.4825816704374972	-0.22189648073179544
-0.4825206352812472	-0.24274022495766703
-0.4824596001249972	-0.2621503449433789
-0.4823985649687472	-0.2800154219516298
-0.4823375298124972	-0.29623291672615815
-0.4822764946562472	-0.31070979918054675
-0.4822154594999972	-0.32336301311379856
-0.4821544243437472	-0.33412005208256673
-0.4820933891874972	-0.3429192868936949
-0.4820323540312472	-0.34971041320767454
-0.4819713188749972	-0.3544546511105179
-0.4819102837187472	-0.35712506964098445
-0.4818492485624972	-0.35770666378209115
-0.4817882134062472	-0.35619649922139346
-0.4817271782499972	-0.35260371017500547
-0.4816661430937472	-0.3469494495145231
-0.4816051079374972	-0.3392667944323008
-0.4815440727812472	-0.32960052092396797
-0.4814830376249972	-0.3180068980885028
-0.4814220024687472	-0.3045533212845635
-0.4813609673124972	-0.2893179707343312
-0.4812999321562472	-0.2723893247231875
-0.4812388969999972	-0.2538656926557643
-0.4811778618437472	-0.2338546205664048
-0.4811168266874972	-0.2124722884334262
-0.4810557915312472	-0.18984285178874885
-0.4809947563749972	-0.16609769750168965
-0.4809337212187472	-0.141374740193858
-0.4808726860624972	-0.11581757560774639
-0.4808116509062472	-0.08957467877819743
-0.4807506157499972	-0.0627985683963586
-0.4806895805937472	-0.03564487626506687
-0.4806285454374972	-0.008271520745155046
-0.4805675102812472	0.019162297223211524
-0.4805064751249972	0.04649690279854723
-0.4804454399687472	0.07357315832082892
-0.4803844048124972	0.10023336125186783
-0.4803233696562472	0.12632210589476067
-0.4802623344999972	0.151687270885386
-0.4802012993437472	0.17618080925187238
-0.4801402641874972	0.19965968365228787
-0.4800792290312472	0.22198663026096532
-0.4800181938749972	0.24303101716348532
-0.4799571587187472	0.2626695493688209
-0.4798961235624972	0.28078700807647394
-0.4798350884062472	0.2972769493803371
-0.4797740532499972	0.3120422578297054
-0.4797130180937472	0.3249957919935131
-0.4796519829374972	0.33606081641822755
-0.4795909477812472	0.34517153029420805
-0.4795299126249972	0.3522733805452996
-0.4794688774687472	0.3573234371164649
-0.4794078423124972	0.360290624582918
-0.4793468071562472	0.3611559089258494
-0.4792857719999972	0.35991243070827844
-0.4792247368437472	0.3565655243302918
-0.4791637016874972	0.35113273559767183
-0.4791026665312472	0.3436436748720509
-0.4790416313749972	0.33413991282720934
-0.4789805962187472	0.32267469106426094
-0.4789195610624972	0.3093126695452928
-0.4788585259062472	0.29412951724323566
-0.4787974907499972	0.27721152619859757
-0.4787364555937472	0.2586550693283872
-0.4786754204374972	0.23856609433107884
-0.4786143852812472	0.21705949167222985
-0.4785533501249972	0.19425843982568775
-0.4784923149687472	0.17029370648585357
-0.4784312798124972	0.14530288394922905
-0.4783702446562472	0.11942960603670143
-0.4783092094999972	0.09282271663219159
-0.4782481743437472	0.0656354236354256
-0.4781871391874972	0.038024391371863656
-0.4781261040312472	0.01014887487438059
-0.4780650688749972	-0.017830259677514927
-0.4780040337187472	-0.04575139607675454
-0.4779429985624972	-0.07345315392974014
-0.4778819634062472	-0.10077529257822317
-0.4778209282499972	-0.1275596615892168
-0.4777598930937472	-0.15365110090912504
-0.4776988579374972	-0.17889834237940988
-0.4776378227812472	-0.2031549086776961
-0.4775767876249972	-0.2262799184575455
-0.4775157524687472	-0.24813896508290026
-0.4774547173124972	-0.26860484926828065
-0.4773936821562472	-0.2875583321623354
-0.4773326469999972	-0.30488885742679883
-0.4772716118437472	-0.3204951585566387
-0.4772105766874972	-0.3342858735282826
-0.4771495415312472	-0.34618007360504754
-0.4770885063749972	-0.3561077450927305
-0.4770274712187472	-0.3640101833526858
-0.4769664360624972	-0.3698403614207492
-0.4769054009062472	-0.37356319463361637
-0.4768443657499972	-0.37515575869821705
-0.4767833305937472	-0.37460742697302063
-0.4767222954374972	-0.3719199355311268
-0.4766612602812472	-0.3671073907922917
-0.4766002251249972	-0.36019618169431145
-0.4765391899687472	-0.3512248491436474
-0.4764781548124972	-0.3402438539741926
-0.4764171196562472	-0.32731530753703014
-0.4763560844999972	-0.31251260403412223
-0.4762950493437472	-0.29592001236282167
-0.4762340141874972	-0.27763219126340105
-0.4761729790312472	-0.2577536421765808
-0.4761119438749972	-0.23639811655560175
-0.4760509087187472	-0.21368796140730298
-0.4759898735624972	-0.18975340008854039
-0.4759288384062472	-0.1647318101505416
-0.4758678032499972	-0.13876690463387972
-0.4758067680937472	-0.11200791679187577
-0.4757457329374972	-0.0846087336972643
-0.4756846977812472	-0.05672700800879661
-0.4756236626249972	-0.02852324065473899
-0.4755626274687472	-0.0001598710595616209
-0.4755015923124972	0.028199696351298018
-0.4754405571562472	0.05639201214877526
-0.4753795219999972	0.0842545267216126
-0.4753184868437472	0.11162658153447216
-0.4752574516874972	0.13835024830559464
-0.4751964165312472	0.1642713582907558
-0.4751353813749972	0.1892403173030383
-0.4750743462187472	0.2131129936102529
-0.4750133110624972	0.23575159043292668
-0.4749522759062472	0.2570253972334929
-0.4748912407499972	0.2768115956449656
-0.4748302055937472	0.2949959495386042
-0.4747691704374972	0.3114734757477223
-0.4747081352812472	0.3261490793523955
-0.4746471001249972	0.33893806538305726
-0.4745860649687472	0.3497666869933653
-0.4745250298124972	0.35857254485762724
-0.4744639946562472	0.36530495123978923
-0.4744029594999972	0.3699252674448941
-0.4743419243437472	0.3724070769889035
-0.4742808891874972	0.37273640177337347
-0.4742198540312472	0.3709117375123734
-0.4741588188749972	0.36694410944948547
-0.4740977837187472	0.36085697905768777
-0.4740367485624972	0.35268614038575685
-0.4739757134062472	0.3424794930559206
-0.4739146782499972	0.3302967891257133
-0.4738536430937472	0.3162092715464403
-0.4737926079374972	0.30029928009022705
-0.4737315727812472	0.2826597672383578
-0.4736705376249972	0.2633937513556228
-0.4736095024687472	0.24261375649087114
-0.4735484673124972	0.22044110478267379
-0.4734874321562472	0.1970052836100032
-0.4734263969999972	0.172443117009949
-0.4733653618437472	0.1468980309561051
-0.4733043266874972	0.1205192046977471
-0.4732432915312472	0.09346067863849669
-0.4731822563749972	0.06588049855450762
-0.4731212212187472	0.03793975432303147
-0.4730601860624972	0.009801681690495763
-0.4729991509062472	-0.018369305156925392
-0.4729381157499972	-0.046408609175424866
-0.4728770805937472	-0.07415233189008215
-0.4728160454374972	-0.1014382995685845
-0.4727550102812472	-0.1281069741356667
-0.4726939751249972	-0.15400240853232347
-0.4726329399687472	-0.17897312840982393
-0.4725719048124972	-0.20287304601946657
-0.4725108696562472	-0.22556229990939253
-0.4724498344999972	-0.24690807746777807
-0.4723887993437472	-0.2667854070399634
-0.4723277641874972	-0.28507785157947474
-0.4722667290312472	-0.30167825273831583
-0.4722056938749972	-0.316489291895511
-0.4721446587187472	-0.3294241381374158
-0.4720836235624972	-0.34040687643812845
-0.4720225884062472	-0.34937304042168776
-0.4719615532499972	-0.3562699184302656
-0.4719005180937472	-0.36105693259223404
-0.4718394829374972	-0.36370582499760207
-0.4717784477812472	-0.36420086864915696
-0.4717174126249972	-0.36253894961157707
-0.4716563774687472	-0.35872957717305815
-0.4715953423124972	-0.35279487386446423
-0.4715343071562472	-0.34476939279953106
-0.4714732719999972	-0.33469998832795145
-0.4714122368437472	-0.3226454804998917
-0.4713512016874972	-0.3086763811091635
-0.4712901665312472	-0.29287442591062995
-0.4712291313749972	-0.27533215218036067
-0.4711680962187472	-0.25615232024819273
-0.4711070610624972	-0.23544735647346055
-0.4710460259062472	-0.21333866157445702
-0.4709849907499972	-0.1899559323086941
-0.4709239555937472	-0.16543639319866102
-0.4708629204374972	-0.13992399013427864
-0.4708018852812472	-0.11356857583537272
-0.4707408501249972	-0.08652500262360421
-0.4706798149687472	-0.05895223101280994
-0.4706187798124972	-0.03101242610169763
-0.4705577446562472	-0.002869944708976036
-0.4704967094999972	0.0253095447972761
-0.4704356743437472	0.05336010748076796
-0.4703746391874972	0.08111646500046867
-0.4703136040312472	0.10841499064000484
-0.4702525688749972	0.13509465738928814
-0.4701915337187472	0.16099797814567052
-0.4701304985624972	0.18597196669126734
-0.4700694634062472	0.20986897113293088
-0.4700084282499972	0.23254764199128186
-0.4699473930937472	0.2538736259042667
-0.4698863579374972	0.2737205253166418
-0.4698253227812472	0.2919704773134566
-0.4697642876249972	0.3085149967400618
