Time	Frequency
-0.5000603512187638	4.1306782259874657e-25
-0.4999993160625138	4.2532258466585965e-25
-0.4999382809062638	4.337688348534534e-25
-0.4998772457500138	4.383273212932595e-25
-0.4998162105937638	4.389539004726401e-25
-0.4997551754375138	4.356397583590268e-25
-0.4996941402812638	4.284116383967096e-25
-0.4996331051250138	4.173315950359461e-25
-0.4995720699687638	4.0249639030054303e-25
-0.4995110348125138	3.8403676634812383e-25
-0.4994499996562638	3.6211614289556498e-25
-0.4993889645000138	3.369292827031548e-25
-0.4993279293437638	3.0870048338418e-25
-0.4992668941875138	2.776815948582919e-25
-0.4992058590312638	2.441497627529332e-25
-0.4991448238750138	2.0840492091797325e-25
-0.4990837887187638	1.7076714237835138e-25
-0.4990227535625138	1.3157371207201055e-25
-0.4989617184062638	9.117613150754243e-26
-0.4989006832500138	4.993691503877354e-26
-0.4988396480937638	8.22637524977759e-27
-0.4987786129375138	-3.358077125022769e-26
-0.4987175777812638	-7.510873496459593e-26
-0.4986565426250138	-1.1598407485647518e-25
-0.4985955074687638	-1.55839096550747e-25
-0.4985344723125138	-1.9431506286063243e-25
-0.4984734371562638	-2.3106560776680006e-25
-0.4984124020000138	-2.65759727043955e-25
-0.4983513668437638	-2.980848241794707e-25
-0.4982903316875138	-3.2774959130077357e-25
-0.4982292965312638	-3.544865377573505e-25
-0.4981682613750138	-3.780545508576579e-25
-0.4981072262187638	-3.982409715044261e-25
-0.4980461910625138	-4.148635981808349e-25
-0.4979851559062638	-4.27772332844617e-25
-0.4979241207500138	-4.368505105099706e-25
-0.4978630855937638	-4.420160456797538e-25
-0.4978020504375138	-4.432221040108534e-25
-0.4977410152812638	-4.404576028787193e-25
-0.4976799801250138	-4.33747302087004e-25
-0.4976189449687638	-4.231515841609979e-25
-0.4975579098125138	-4.0876594811451e-25
-0.4974968746562638	-3.9072013034230278e-25
-0.4974358395000138	-3.6917697963370776e-25
-0.4973748043437638	-3.4433095326591787e-25
-0.4973137691875138	-3.1640640306263526e-25
-0.4972527340312638	-2.8565555106396097e-25
-0.4971916988750138	-2.5235619600164147e-25
-0.4971306637187638	-2.168092440612042e-25
-0.4970696285625138	-1.7933594520735012e-25
-0.4970085934062638	-1.4027503746363033e-25
-0.4969475582500138	-9.997966076591289e-26
-0.4968865230937638	-5.881417724989516e-26
-0.4968254879375138	-1.715086081689783e-26
-0.4967644527812638	2.4633478669795444e-26
-0.4967034176250138	6.616087725429024e-26
-0.4966423824687638	1.0705567465217596e-25
-0.4965813473125138	1.4694787952099068e-25
-0.4965203121562638	1.85476595152604e-25
-0.4964592770000138	2.2229321042153216e-25
-0.4963982418437638	2.5706460968378005e-25
-0.4963372066875138	2.8947622596070853e-25
-0.4962761715312638	3.192348191159745e-25
-0.4962151363750138	3.460712365841497e-25
-0.4961541012187638	3.6974278650588125e-25
-0.4960930660625138	3.9003548057883992e-25
-0.4960320309062638	4.0676601237045755e-25
-0.4959709957500138	4.197833635260589e-25
-0.4959099605937638	4.28970256260306e-25
-0.4958489254375138	4.342441792834293e-25
-0.4957878902812638	4.355581605102923e-25
-0.4957268551250138	4.329012408057094e-25
-0.4956658199687638	4.262985091404148e-25
-0.4956047848125138	4.158109719521317e-25
-0.4955437496562638	4.0153494806217522e-25
-0.4954827145000138	3.836012285650086e-25
-0.4954216793437638	3.621739096828271e-25
-0.4953606441875138	3.374488754939563e-25
-0.4952996090312638	3.0965209460576473e-25
-0.4952385738750138	2.7903747902593736e-25
-0.4951775387187638	2.4588468705625365e-25
-0.4951165035625138	2.104965077223039e-25
-0.4950554684062638	1.7319613818251416e-25
-0.4949944332500138	1.3432432506129926e-25
-0.4949333980937638	9.423610726135331e-26
-0.4948723629375138	5.329774444240711e-26
-0.4948113277812638	1.1883338854869434e-26
-0.4947502926250138	-2.9628644789835103e-26
-0.4946892574687638	-7.085868276036393e-26
-0.4946282223125138	-1.1142975643128997e-25
-0.4945671871562638	-1.5097076882508203e-25
-0.4945061520000138	-1.8911987658654775e-25
-0.4944451168437638	-2.255278703540251e-25
-0.4943840816875138	-2.598612575939589e-25
-0.4943230465312638	-2.918054221005209e-25
-0.4942620113750138	-3.2106743143786146e-25
-0.4942009762187638	-3.4737869262181728e-25
-0.4941399410625138	-3.7049751144216115e-25
-0.4940789059062638	-3.902111853821169e-25
-0.4940178707500138	-4.063380558817443e-25
-0.4939568355937638	-4.187291253365341e-25
-0.4938958004375138	-4.2726943850111275e-25
-0.4938347652812638	-4.318791756264221e-25
-0.4937737301250138	-4.325143497509675e-25
-0.4937126949687638	-4.291672719629754e-25
-0.4936516598125138	-4.218666210017186e-25
-0.4935906246562638	-4.1067718962912095e-25
-0.4935295895000138	-3.956993344651177e-25
-0.4934685543437638	-3.7706806721871057e-25
-0.4934075191875138	-3.549518341325699e-25
-0.4933464840312638	-3.295510256693549e-25
-0.4932854488750138	-3.0109613258186766e-25
-0.4932244137187638	-2.6984567556195e-25
-0.4931633785625138	-2.3608386958399353e-25
-0.4931023434062638	-2.0011803378578304e-25
-0.4930413082500138	-1.622758001819423e-25
-0.4929802730937638	-1.2290214489248362e-25
-0.4929192379375138	-8.235624466423206e-26
-0.4928582027812638	-4.1008186339137496e-26
-0.4927971676250138	7.643299255721603e-28
-0.4927361324687638	4.2579540318771566e-26
-0.4926750973125138	8.405503405772383e-26
-0.4926140621562638	1.248112051462988e-25
-0.4925530270000138	1.6447485012815943e-25
-0.4924919918437638	2.026824242138554e-25
-0.4924309566875138	2.390834600578124e-25
-0.4923699215312638	2.7334377024743122e-25
-0.4923088863750138	3.051484640333694e-25
-0.4922478512187638	3.342048645228945e-25
-0.4921868160625138	3.602451939385701e-25
-0.4921257809062638	3.8302902865217173e-25
-0.4920647457500138	4.023454904930815e-25
-0.4920037105937638	4.180152417275644e-25
-0.4919426754375138	4.29892077156015e-25
-0.4918816402812638	4.378643409771862e-25
-0.4918206051250138	4.418559183818689e-25
-0.4917595699687638	4.418269778181767e-25
-0.4916985348125138	4.377743687996896e-25
-0.4916374996562638	4.297316303352104e-25
-0.4915764645000138	4.177687626951925e-25
-0.4915154293437638	4.019915667901926e-25
-0.4914543941875138	3.825407196468126e-25
-0.4913933590312638	3.595905165958142e-25
-0.4913323238750138	3.3334728942288256e-25
-0.4912712887187638	3.040475404712979e-25
-0.4912102535625138	2.7195582438476036e-25
-0.4911492184062638	2.3736231497975794e-25
-0.4910881832500138	2.0058019132237972e-25
-0.4910271480937638	1.6194281464407537e-25
-0.4909661129375138	1.218006320502662e-25
-0.4909050777812638	8.051805643681919e-26
-0.4908440426250138	3.8470108220615106e-26
-0.4907830074687638	-3.9610035989094965e-27
-0.4907219723125138	-4.638933772994445e-26
-0.4906609371562638	-8.842879397221359e-26
-0.4905999020000138	-1.296965817552072e-25
-0.4905388668437638	-1.6981676348856833e-25
-0.4904778316875138	-2.0842367281172183e-25
-0.4904167965312638	-2.451652546499557e-25
-0.4903557613750138	-2.7970630709369227e-25
-0.4902947262187638	-3.117315332738324e-25
-0.4902336910625138	-3.409484517631104e-25
-0.4901726559062638	-3.6709005908600143e-25
-0.4901116207500138	-3.899173033031199e-25
-0.4900505855937638	-4.092212757141052e-25
-0.4899895504375138	-4.248251234067925e-25
-0.4899285152812638	-4.365856905641525e-25
-0.4898674801250138	-4.4439486908557165e-25
-0.4898064449687638	-4.481805433500049e-25
-0.4897454098125138	-4.479073241405587e-25
-0.4896843746562638	-4.435768733733205e-25
-0.4896233395000138	-4.352278701926337e-25
-0.4895623043437638	-4.229357473230025e-25
-0.4895012691875138	-4.068119337611674e-25
-0.4894402340312638	-3.8700291936598174e-25
-0.4893791988750138	-3.636888968892978e-25
-0.4893181637187638	-3.3708212202282756e-25
-0.4892571285625138	-3.074250278325743e-25
-0.4891960934062638	-2.7498794687768306e-25
-0.4891350582500138	-2.4006671689124973e-25
-0.4890740230937638	-2.029799607020978e-25
-0.4890129879375138	-1.6406616363252137e-25
-0.4889519527812638	-1.2368059786945724e-25
-0.4888909176250138	-8.219205489216097e-26
-0.4888298824687638	-3.9979520602572456e-26
-0.4887688473125138	2.5713440284428462e-27
-0.4887078121562638	4.507171017129095e-26
-0.4886467770000138	8.713313528316066e-26
-0.4885857418437638	1.283711415190957e-25
-0.4885247066875138	1.6840872983998714e-25
-0.4884636715312638	2.068798291801514e-25
-0.4884026363750138	2.4343268194546342e-25
-0.4883416012187638	2.7773305271392803e-25
-0.4882805660625138	3.0946727942473215e-25
-0.4882195309062638	3.383452567147577e-25
-0.4881584957500138	3.6410294586732796e-25
-0.4880974605937638	3.865049483211625e-25
-0.4880364254375138	4.053466125201763e-25
-0.4879753902812638	4.20455898459293e-25
-0.4879143551250138	4.316950691230372e-25
-0.4878533199687638	4.389618109628717e-25
-0.4877922848125138	4.421903533975217e-25
-0.4877312496562638	4.413519519617434e-25
-0.4876702145000138	4.364552380344191e-25
-0.4876091793437638	4.27546150003442e-25
-0.4875481441875138	4.147074632440839e-25
-0.4874871090312638	3.9805813879295374e-25
-0.4874260738750138	3.777521458546663e-25
-0.4873650387187638	3.539771364705216e-25
-0.4873040035625138	3.2695268056124155e-25
-0.4872429684062638	2.9692827806336214e-25
-0.4871819332500138	2.641810767548534e-25
-0.4871208980937638	2.2901334360396473e-25
-0.4870598629375138	1.9174965689024622e-25
-0.4869988277812638	1.527339544732305e-25
-0.4869377926250138	1.1232640898352332e-25
-0.4868767574687638	7.090001174248804e-26
-0.4868157223125138	2.8837292756280644e-26
-0.4867546871562638	-1.3473334948655145e-26
-0.4866936520000138	-5.564107132969302e-26
-0.4866326168437638	-9.727630819317998e-26
-0.4865715816875138	-1.3799432709256711e-25
-0.4865105465312638	-1.7741873003494509e-25
-0.4864495113750138	-2.151849609374067e-25
-0.4863884762187638	-2.509436470307918e-25
-0.4863274410625138	-2.8436390129108427e-25
-0.4862664059062638	-3.151362539360546e-25
-0.4862053707500138	-3.4297560183157134e-25
-0.4861443355937638	-3.676238755065809e-25
-0.4860833004375138	-3.88852290574091e-25
-0.4860222652812638	-4.064636526436185e-25
-0.4859612301250138	-4.202940549454224e-25
-0.4859001949687638	-4.302144385174971e-25
-0.4858391598125138	-4.361318698456398e-25
-0.4857781246562638	-4.379902863807968e-25
-0.4857170895000138	-4.3577116160517735e-25
-0.4856560543437638	-4.294936086660148e-25
-0.4855950191875138	-4.192142450814983e-25
-0.4855339840312638	-4.0502672479147467e-25
-0.4854729488750138	-3.870608245157754e-25
-0.4854119137187638	-3.6548133531680824e-25
-0.4853508785625138	-3.4048650993226516e-25
-0.4852898434062638	-3.12306274679391e-25
-0.4852288082500138	-2.8120011278021457e-25
-0.4851677730937638	-2.4745469098646107e-25
-0.4851067379375138	-2.113812307817555e-25
-0.4850457027812638	-1.7331264038921763e-25
-0.4849846676250138	-1.3360044368470904e-25
-0.4849236324687638	-9.26115669990842e-26
-0.4848625973125138	-5.072495974123444e-26
-0.4848015621562638	-8.32805875337896e-27
-0.4847405270000138	3.418673216648025e-26
-0.4846794918437638	7.642569584491113e-26
-0.4846184566875138	1.1799741265697787e-25
-0.4845574215312638	1.5851642626247792e-25
-0.4844963863750138	1.9760676225499704e-25
-0.4844353512187638	2.3490539461907325e-25
-0.4843743160625138	2.7006568369329423e-25
-0.4843132809062638	3.027604999031507e-25
-0.4842522457500138	3.3268532345881145e-25
-0.4841912105937638	3.595610395469747e-25
-0.4841301754375138	3.8313653790835115e-25
-0.4840691402812638	4.031910554206936e-25
-0.4840081051250138	4.195362393757761e-25
-0.4839470699687638	4.320179000091112e-25
-0.4838860348125138	4.405174553902721e-25
-0.4838249996562638	4.449530706765032e-25
-0.4837639645000138	4.452803882653287e-25
-0.4837029293437638	4.414930337547782e-25
-0.4836418941875138	4.336226286303251e-25
-0.4835808590312638	4.217385679104063e-25
-0.4835198238750138	4.05947382075873e-25
-0.4834587887187638	3.8639177984703654e-25
-0.4833977535625138	3.6324936054546587e-25
-0.4833367184062638	3.3673096101962556e-25
-0.4832756832500138	3.070787984805033e-25
-0.4832146480937638	2.745641524517433e-25
-0.4831536129375138	2.394849681384693e-25
-0.4830925777812638	2.0216304841337786e-25
-0.4830315426250138	1.6294114217608595e-25
-0.4829705074687638	1.221797753474139e-25
-0.4829094723125138	8.025388002023408e-26
-0.4828484371562638	3.754944279706075e-26
-0.4827874020000138	-5.540183864153227e-27
-0.4827263668437638	-4.861781111949734e-26
-0.4826653316875138	-9.12861404499824e-26
-0.4826042965312638	-1.3315141994829154e-25
-0.4825432613750138	-1.7382709611355172e-25
-0.4824822262187638	-2.1293736658017287e-25
-0.4824211910625138	-2.5012070585222405e-25
-0.4823601559062638	-2.8503319176927014e-25
-0.4822991207500138	-3.1735165277003006e-25
-0.4822380855937638	-3.467768052045014e-25
-0.4821770504375138	-3.730358288680598e-25
-0.4821160152812638	-3.958851035086935e-25
-0.4820549801250138	-4.151123951229598e-25
-0.4819939449687638	-4.3053875245363615e-25
-0.4819329098125138	-4.420203733779477e-25
-0.4818718746562638	-4.494497660556348e-25
-0.4818108395000138	-4.527568632427098e-25
-0.4817498043437638	-4.519096891481035e-25
-0.4816887691875138	-4.469146093848016e-25
-0.4816277340312638	-4.378163803830986e-25
-0.4815666988750138	-4.246976723264651e-25
-0.4815056637187638	-4.0767837796126567e-25
-0.4814446285625138	-3.869144941172162e-25
-0.4813835934062638	-3.625966988754667e-25
-0.4813225582500138	-3.3494861573165433e-25
-0.4812615230937638	-3.042247257271752e-25
-0.4812004879375138	-2.707080740994203e-25
-0.4811394527812638	-2.347075962757295e-25
-0.4810784176250138	-1.9655534309186016e-25
-0.4810173824687638	-1.5660335832221215e-25
-0.4809563473125138	-1.1522042161014343e-25
-0.4808953121562638	-7.278870940662373e-26
-0.4808342770000138	-2.9700162942660956e-26
-0.4807732418437638	1.364707003464632e-26
-0.4807122066875138	5.685234576925719e-26
-0.4806511715312638	9.95162604335223e-26
-0.4805901363750138	1.4124429921067586e-25
-0.4805291012187638	1.8165054939694516e-25
-0.4804680660625138	2.2036128622856936e-25
-0.4804070309062638	2.570183588683571e-25
-0.4803459957500138	2.912826299767341e-25
-0.4802849605937638	3.228370897343531e-25
-0.4802239254375138	3.5138973258572666e-25
-0.4801628902812638	3.7667641453639356e-25
-0.4801018551250138	3.984631844813276e-25
-0.4800408199687638	4.165485517524902e-25
-0.4799797848125138	4.307653312134487e-25
-0.4799187496562638	4.409822159145735e-25
-0.4798577145000138	4.471050178933016e-25
-0.4797966793437638	4.490775242754667e-25
-0.4797356441875138	4.4688210107587125e-25
-0.4796746090312638	4.405397721781578e-25
-0.4796135738750138	4.301101448539014e-25
-0.4795525387187638	4.156907764893851e-25
-0.4794915035625138	3.974163480424128e-25
-0.4794304684062638	3.754573836746102e-25
-0.4793694332500138	3.5001869847902173e-25
-0.4793083980937638	3.213375079877504e-25
-0.4792473629375138	2.8968119982260883e-25
-0.4791863277812638	2.553449382517095e-25
-0.4791252926250138	2.186487950374594e-25
-0.4790642574687638	1.7993493184228339e-25
-0.4790032223125138	1.3956430793295426e-25
-0.4789421871562638	9.791338638391181e-26
-0.4788811520000138	5.537062595396254e-26
-0.4788201168437638	1.2332823958959842e-26
-0.4787590816875138	-3.0798465755242196e-26
-0.4786980465312638	-7.362082527115277e-26
-0.4786370113750138	-1.157345645441131e-25
-0.4785759762187638	-1.5674655828553915e-25
-0.4785149410625138	-1.962738762382671e-25
-0.4784539059062638	-2.3394728996214065e-25
-0.4783928707500138	-2.694148812167281e-25
-0.4783318355937638	-3.0234511429764996e-25
-0.4782708004375138	-3.3243011853507444e-25
-0.4782097652812638	-3.5938849117186568e-25
-0.4781487301250138	-3.8296788693914783e-25
-0.4780876949687638	-4.0294750045677945e-25
-0.4780266598125138	-4.191400062052857e-25
-0.4779656246562638	-4.313934451233303e-25
-0.4779045895000138	-4.395925419358886e-25
-0.4778435543437638	-4.436598902819361e-25
-0.4777825191875138	-4.435566444014944e-25
-0.4777214840312638	-4.392828855078686e-25
-0.4776604488750138	-4.308777006729495e-25
-0.4775994137187638	-4.184187516464816e-25
-0.4775383785625138	-4.020216522226099e-25
-0.4774773434062638	-3.8183883530511276e-25
-0.4774163082500138	-3.580581945499138e-25
-0.4773552730937638	-3.3090134455403237e-25
-0.4772942379375138	-3.006215085340812e-25
-0.4772332027812638	-2.6750126655480124e-25
-0.4771721676250138	-2.318498642709642e-25
-0.4771111324687638	-1.9400031506092095e-25
-0.4770500973125138	-1.5430642111484362e-25
-0.4769890621562638	-1.1313930646107035e-25
-0.4769280270000138	-7.088410810669412e-26
-0.4768669918437638	-2.7936326379344166e-26
-0.4768059566875138	1.5301921622978188e-26
-0.4767449215312638	5.842550651839655e-26
-0.4766838863750138	1.0103025366466128e-25
-0.4766228512187638	1.4271655716595648e-25
-0.4765618160625138	1.8309326210832556e-25
-0.4765007809062638	2.2178119697041524e-25
-0.4764397457500138	2.5841678941595565e-25
-0.4763787105937638	2.926555335956939e-25
-0.4763176754375138	3.2417502356511255e-25
-0.4762566402812638	3.5267826361750486e-25
-0.4761956051250138	3.7789619311911166e-25
-0.4761345699687638	3.995903715235883e-25
-0.4760735348125138	4.175552329099297e-25
-0.4760124996562638	4.316198805661703e-25
-0.4759514645000138	4.4164991557503695e-25
-0.4758904293437638	4.475485425176783e-25
-0.4758293941875138	4.4925757355232085e-25
-0.4757683590312638	4.467580103915151e-25
-0.4757073238750138	4.400701828913902e-25
-0.4756462887187638	4.292536552737355e-25
-0.4755852535625138	4.144066322070761e-25
-0.4755242184062638	3.956651041692711e-25
-0.4754631832500138	3.7320158918150935e-25
-0.4754021480937638	3.472235065538758e-25
-0.4753411129375138	3.179713330038682e-25
-0.4752800777812638	2.857162856275532e-25
-0.4752190426250138	2.507578738037436e-25
-0.4751580074687638	2.1342107589030413e-25
-0.4750969723125138	1.7405330779973466e-25
-0.4750359371562638	1.3302125619057488e-25
-0.4749749020000138	9.07073293030037e-26
-0.4749138668437638	4.750622733555336e-26
-0.4748528316875138	3.8211703801766626e-27
-0.4747917965312638	-3.9939858207135697e-26
-0.4747307613750138	-8.336788368113363e-26
-0.4746697262187638	-1.2605685528196028e-25
-0.4746086910625138	-1.6760731705655241e-25
-0.4745476559062638	-2.076302858626742e-25
-0.4744866207500138	-2.4575082824840565e-25
-0.4744255855937638	-2.8161155384826272e-25
-0.4743645504375138	-3.1487606615885186e-25
-0.4743035152812638	-3.4523200266589526e-25
-0.4742424801250138	-3.7239408642571516e-25
-0.4741814449687638	-3.961067470363402e-25
-0.4741204098125138	-4.161465261152969e-25
-0.4740593746562638	-4.323242448986027e-25
-0.4739983395000138	-4.444867305982618e-25
-0.4739373043437638	-4.525183171957608e-25
-0.4738762691875138	-4.56341926059699e-25
-0.4738152340312638	-4.559198276183561e-25
-0.4737541988750138	-4.51253990789328e-25
-0.4736931637187638	-4.423861142048638e-25
-0.4736321285625138	-4.2939724649954e-25
-0.4735710934062638	-4.124070321469941e-25
-0.4735100582500138	-3.915726500506801e-25
-0.4734490230937638	-3.67087313428912e-25
-0.4733879879375138	-3.3917852676031635e-25
-0.4733269527812638	-3.081059245418239e-25
-0.4732659176250138	-2.7415887654422425e-25
-0.4732048824687638	-2.3765383240652258e-25
-0.4731438473125138	-1.989312564472403e-25
-0.4730828121562638	-1.583525864357109e-25
-0.4730217770000138	-1.1629675282659527e-25
-0.4729607418437638	-7.315665551929109e-26
-0.4728997066875138	-2.933555955638092e-26
-0.4728386715312638	1.4756828961673602e-26
-0.4727776363750138	5.870805379852301e-26
-0.4727166012187638	1.0210684099657902e-25
-0.4726555660625138	1.4454700401102832e-25
-0.4725945309062638	1.8563116435771075e-25
-0.4725334957500138	2.249745461931083e-25
-0.4724724605937638	2.622085972714955e-25
-0.4724114254375138	2.969843958529451e-25
-0.4723503902812638	3.2897601995216223e-25
-0.4722893551250138	3.578835529666041e-25
-0.4722283199687638	3.8343593190490335e-25
-0.4721672848125138	4.0539352092499065e-25
-0.4721062496562638	4.235503442159016e-25
-0.4720452145000138	4.377360767293583e-25
-0.4719841793437638	4.478176073330374e-25
-0.4719231441875138	4.537003677894967e-25
-0.4718621090312638	4.553291808887696e-25
-0.4718010738750138	4.526888285060872e-25
-0.4717400387187638	4.45804208826149e-25
-0.4716790035625138	4.347401007629771e-25
