Time	Frequency
-0.5000288489999889	1.707743980361277e-25
-0.4999678138437389	1.3536351866926894e-25
-0.4999067786874889	9.855619020776394e-26
-0.4998457435312389	6.07187237007021e-26
-0.4997847083749889	2.2227927824186858e-26
-0.4997236732187389	-1.6532583140439557e-26
-0.4996626380624889	-5.517633010059044e-26
-0.4996016029062389	-9.331764367342264e-26
-0.4995405677499889	-1.3057564966144537e-25
-0.4994795325937389	-1.6657803921285462e-25
-0.4994184974374889	-2.0096468049410046e-25
-0.4993574622812389	-2.333914071801062e-25
-0.4992964271249889	-2.635332487580863e-25
-0.4992353919687389	-2.910878503560546e-25
-0.4991743568124889	-3.157783885117003e-25
-0.4991133216562389	-3.3735638563913265e-25
-0.4990522864999889	-3.556042590904185e-25
-0.4989912513437389	-3.7033738434599583e-25
-0.4989302161874889	-3.8140607723567586e-25
-0.4988691810312389	-3.886970327424057e-25
-0.4988081458749889	-3.921345154984056e-25
-0.4987471107187389	-3.916811103689216e-25
-0.4986860755624889	-3.8733815347712707e-25
-0.4986250404062389	-3.7914570170311927e-25
-0.4985640052499889	-3.671821884499066e-25
-0.4985029700937389	-3.515636653246566e-25
-0.4984419349374889	-3.3244263375347945e-25
-0.4983808997812389	-3.100066040182582e-25
-0.4983198646249889	-2.844761845930721e-25
-0.4982588294687389	-2.5610296587726194e-25
-0.4981977943124889	-2.2516696402287147e-25
-0.4981367591562389	-1.9197391547140385e-25
-0.4980757239999889	-1.5685219998709274e-25
-0.4980146888437389	-1.2014956297792918e-25
-0.4979536536874889	-8.222974317076891e-26
-0.4978926185312389	-4.346875042616526e-26
-0.4978315833749889	-4.251179028134888e-27
-0.4977705482187389	3.5033595014060834e-26
-0.4977095130624889	7.399534249145576e-26
-0.4976484779062389	1.1224688882928475e-25
-0.4975874427499889	1.4940788692781364e-25
-0.4975264075937389	1.8510872097991918e-25
-0.4974653724374889	2.189941267714731e-25
-0.4974043372812389	2.5072675583122964e-25
-0.4973433021249889	2.7999058813270657e-25
-0.4972822669687389	3.0649401160402292e-25
-0.4972212318124889	3.2997287289132882e-25
-0.4971601966562389	3.501929768972548e-25
-0.4970991614999889	3.66952558427552e-25
-0.4970381263437389	3.800842576389034e-25
-0.4969770911874889	3.894567775718936e-25
-0.4969160560312389	3.949763130480362e-25
-0.4968550208749889	3.965873602850519e-25
-0.4967939857187389	3.942734256745778e-25
-0.4967329505624889	3.8805711886210483e-25
-0.4966719154062389	3.7799996533315584e-25
-0.4966108802499889	3.64201845910818e-25
-0.4965498450937389	3.4679993833534345e-25
-0.4964888099374889	3.259674524929028e-25
-0.4964277747812389	3.019118371440194e-25
-0.4963667396249889	2.7487276358090937e-25
-0.4963057044687389	2.4511974649971545e-25
-0.4962446693124889	2.1294941921269727e-25
-0.4961836341562389	1.7868263331926271e-25
-0.4961225989999889	1.426612160696059e-25
-0.4960615638437389	1.0524459422109734e-25
-0.4960005286874889	6.6806183138161e-26
-0.4959394935312389	2.7729648836427934e-26
-0.4958784583749889	-1.1594879024968835e-26
-0.4958174232187389	-5.077475798128977e-26
-0.4957563880624889	-8.941875052021562e-26
-0.4956953529062389	-1.2714091495297888e-25
-0.4956343177499889	-1.6356449054551915e-25
-0.4955732825937389	-1.983256962790819e-25
-0.4955122474374889	-2.310772957099672e-25
-0.4954512122812389	-2.6149216801913536e-25
-0.4953901771249889	-2.8926658605431974e-25
-0.4953291419687389	-3.1412316995167965e-25
-0.4952681068124889	-3.358137999947037e-25
-0.4952070716562389	-3.5412202333839233e-25
-0.4951460364999889	-3.688652749423045e-25
-0.4950850013437389	-3.798967256029975e-25
-0.4950239661874889	-3.8710671344165803e-25
-0.4949629310312389	-3.904239290137516e-25
-0.4949018958749889	-3.8981607929692656e-25
-0.4948408607187389	-3.8529026417263494e-25
-0.4947798255624889	-3.768929031241118e-25
-0.4947187904062389	-3.6470927736061344e-25
-0.4946577552499889	-3.48862707395331e-25
-0.4945967200937389	-3.2951329260022084e-25
-0.4945356849374889	-3.0685636769046464e-25
-0.4944746497812389	-2.811205001077732e-25
-0.4944136146249889	-2.5256523672735065e-25
-0.4943525794687389	-2.2147851541338616e-25
-0.4942915443124889	-1.8817373646082672e-25
-0.4942305091562389	-1.529866973988446e-25
-0.4941694739999889	-1.1627215479318172e-25
-0.4941084388437389	-7.840029446492503e-26
-0.4940474036874889	-3.975303852014451e-26
-0.4939863685312389	-7.201767999524974e-28
-0.4939253333749889	3.830453889141633e-26
-0.4938642982187389	7.692733586481225e-26
-0.4938032630624889	1.1475842258995493e-25
-0.4937422279062389	1.5141585988545367e-25
-0.4936811927499889	1.8652942192041501e-25
-0.4936201575937389	2.1974439009925547e-25
-0.4935591224374889	2.5072497556154555e-25
-0.4934980872812389	2.791579109139988e-25
-0.4934370521249889	3.047554415690406e-25
-0.4933760169687389	3.2725828277946324e-25
-0.4933149818124889	3.4643835274608305e-25
-0.4932539466562389	3.6210085483948063e-25
-0.4931929114999889	3.7408651002107876e-25
-0.4931318763437389	3.822729859266092e-25
-0.4930708411874889	3.8657622026661417e-25
-0.4930098060312389	3.869513384251975e-25
-0.4929487708749889	3.8339298268084526e-25
-0.4928877357187389	3.7593555556366763e-25
-0.4928267005624889	3.646527556159739e-25
-0.4927656654062389	3.496569298296926e-25
-0.4927046302499889	3.310979541564747e-25
-0.4926435950937389	3.0916170038847896e-25
-0.4925825599374889	2.8406824891546893e-25
-0.4925215247812389	2.560696234627453e-25
-0.4924604896249889	2.2544731992204918e-25
-0.4923994544687389	1.925094601730387e-25
-0.4923384193124889	1.57587689243197e-25
-0.4922773841562389	1.2103388948435254e-25
-0.4922163489999889	8.321660418753616e-26
-0.4921553138437389	4.451732994841732e-26
-0.4920942786874889	5.3267321261708216e-27
-0.4920332435312389	-3.3959369746383254e-26
-0.4919722083749889	-7.294391468615926e-26
-0.4919111732187389	-1.1123264876636936e-25
-0.4918501380624889	-1.4843808909961362e-25
-0.4917891029062389	-1.8418341679406952e-25
-0.4917280677499889	-2.1810635003183165e-25
-0.4916670325937389	-2.4986267018629054e-25
-0.4916059974374889	-2.7912987806180742e-25
-0.4915449622812389	-3.0561033585045014e-25
-0.4914839271249889	-3.2903428640858125e-25
-0.4914228919687389	-3.4916269376552396e-25
-0.4913618568124889	-3.6578954870180044e-25
-0.4913008216562389	-3.7874404122528866e-25
-0.4912397864999889	-3.878923038007577e-25
-0.4911787513437389	-3.9313873111207857e-25
-0.4911177161874889	-3.9442702979813946e-25
-0.4910566810312389	-3.917407950191251e-25
-0.4909956458749889	-3.8510365587061947e-25
-0.4909346107187389	-3.745791425307442e-25
-0.4908735755624889	-3.602699913610963e-25
-0.4908125404062389	-3.4231718731740504e-25
-0.4907515052499889	-3.208985522384432e-25
-0.4906904700937389	-2.9622694326427174e-25
-0.4906294349374889	-2.685481859599846e-25
-0.4905683997812389	-2.3813857157659756e-25
-0.4905073646249889	-2.053020879233771e-25
-0.4904463294687389	-1.7036739429720624e-25
-0.4903852943124889	-1.3368453140651223e-25
-0.4903242591562389	-9.562133899729145e-26
-0.4902632239999889	-5.655983507474636e-26
-0.4902021888437389	-1.689232116214095e-26
-0.4901411536874889	2.2982554003322928e-26
-0.4900801185312389	6.266380505268e-26
-0.4900190833749889	1.0175218171410188e-25
-0.4899580482187389	1.3985413708622092e-25
-0.4898970130624889	1.765858943419505e-25
-0.4898359779062389	2.115772196485908e-25
-0.4897749427499889	2.444752614079129e-25
-0.4897139075937389	2.749480584184166e-25
-0.4896528724374889	3.0268788506268536e-25
-0.4895918372812389	3.274144791288929e-25
-0.4895308021249889	3.488777177581679e-25
-0.4894697669687389	3.668603190869161e-25
-0.4894087318124889	3.8117995588016568e-25
-0.4893476966562389	3.9169111275377607e-25
-0.4892866614999889	3.982866604991464e-25
-0.4892256263437389	4.0089882376636385e-25
-0.4891645911874889	3.9950001643391315e-25
-0.4891035560312389	3.941030468842547e-25
-0.4890425208749889	3.847610405226949e-25
-0.4889814857187389	3.715669495014605e-25
-0.4889204505624889	3.546525612116893e-25
-0.4888594154062389	3.341872789379107e-25
-0.4887983802499889	3.1037633180300795e-25
-0.4887373450937389	2.834587864531072e-25
-0.4886763099374889	2.5370514080601233e-25
-0.4886152747812389	2.2141453466295343e-25
-0.4885542396249889	1.8691185031355534e-25
-0.4884932044687389	1.5054434527666386e-25
-0.4884321693124889	1.1267818673343913e-25
-0.4883711341562389	7.369480840736356e-26
-0.4883100989999889	3.3986920156655016e-26
-0.4882490638437389	-6.045265010481644e-27
-0.4881880286874889	-4.599821987520445e-26
-0.4881269935312389	-8.546919114081258e-26
-0.4880659583749889	-1.2406009652543702e-25
-0.4880049232187389	-1.6138180484377116e-25
-0.4879438880624889	-1.9705785894879236e-25
-0.4878828529062389	-2.3072840325561886e-25
-0.4878218177499889	-2.6205382868918725e-25
-0.4877607825937389	-2.9071814908542194e-25
-0.4876997474374889	-3.164322929850322e-25
-0.4876387122812389	-3.389369529046487e-25
-0.4875776771249889	-3.580053161738674e-25
-0.4875166419687389	-3.7344526333606156e-25
-0.4874556068124889	-3.8510144347030745e-25
-0.4873945716562389	-3.928567454374757e-25
-0.4873335364999889	-3.9663357175567494e-25
-0.4872725013437389	-3.963946445551633e-25
-0.4872114661874889	-3.9214330363634652e-25
-0.4871504310312389	-3.839236212712937e-25
-0.4870893958749889	-3.7181984118127166e-25
-0.4870283607187389	-3.559556226188481e-25
-0.4869673255624889	-3.364927718494732e-25
-0.4869062904062389	-3.1362958348226106e-25
-0.4868452552499889	-2.8759890309289487e-25
-0.4867842200937389	-2.5866572123356286e-25
-0.4867231849374889	-2.2712451183554435e-25
-0.4866621497812389	-1.932962830658294e-25
-0.4866011146249889	-1.575252646004384e-25
-0.4865400794687389	-1.2017549818189839e-25
-0.4864790443124889	-8.162707873088846e-26
-0.4864180091562389	-4.2272315863875825e-26
-0.4863569739999889	-2.51183689165098e-27
-0.4862959388437389	3.7249624043690004e-26
-0.4862349036874889	7.660724401925534e-26
-0.4861738685312389	1.1516020668998228e-25
-0.4861128333749889	1.5251584283918527e-25
-0.4860517982187389	1.8829359935318137e-25
-0.4859907630624889	2.221288812557217e-25
-0.4859297279062389	2.5367680451264395e-25
-0.4858686927499889	2.826156995876223e-25
-0.4858076575937389	3.0865037550840984e-25
-0.4857466224374889	3.3151514323543693e-25
-0.4856855872812389	3.509765362534005e-25
-0.4856245521249889	3.6683570552090517e-25
-0.4855635169687389	3.789304102134826e-25
-0.4855024818124889	3.8713675168046166e-25
-0.4854414466562389	3.913704014389721e-25
-0.4853804114999889	3.915874860756569e-25
-0.4853193763437389	3.8778507779501167e-25
-0.4852583411874889	3.80001193374842e-25
-0.4851973060312389	3.683144845378089e-25
-0.4851362708749889	3.528433978189415e-25
-0.4850752357187389	3.3374503205903115e-25
-0.4850142005624889	3.112135368955875e-25
-0.4849531654062389	2.854781368293599e-25
-0.4848921302499889	2.5680087228505036e-25
-0.4848310950937389	2.2547385502348654e-25
-0.4847700599374889	1.9181638625095869e-25
-0.4847090247812389	1.561716998663608e-25
-0.4846479896249889	1.18903428211087e-25
-0.4845869544687389	8.039197546162118e-26
-0.4845259193124889	4.103062199337921e-26
-0.4844648841562389	1.2214805995938173e-27
-0.4844038489999889	-3.862850958378603e-26
-0.4843428138437389	-7.81118099238163e-26
-0.4842817786874889	-1.1682441268777707e-25
-0.4842207435312389	-1.5436988502679113e-25
-0.4841597083749889	-1.9036360378491357e-25
-0.4840986732187389	-2.2443645394068217e-25
-0.4840376380624889	-2.5623874016821306e-25
-0.4839766029062389	-2.8544380590104756e-25
-0.4839155677499889	-3.117511857394559e-25
-0.4838545325937389	-3.348899212314941e-25
-0.4837934974374889	-3.546211652700282e-25
-0.4837324622812389	-3.707407000619964e-25
-0.4836714271249889	-3.8308109626135192e-25
-0.4836103919687389	-3.915133140798397e-25
-0.4835493568124889	-3.959481832622615e-25
-0.4834883216562389	-3.9633724003601875e-25
-0.4834272864999889	-3.926732761502563e-25
-0.4833662513437389	-3.849904768436583e-25
-0.4833052161874889	-3.733640177376147e-25
-0.4832441810312389	-3.5790940873540807e-25
-0.4831831458749889	-3.387812860016698e-25
-0.4831221107187389	-3.1617186794035723e-25
-0.4830610755624889	-2.9030905057973983e-25
-0.4830000404062389	-2.6145406336303043e-25
-0.4829390052499889	-2.298988385050775e-25
-0.4828779700937389	-1.9596307124434257e-25
-0.4828169349374889	-1.5999095827696697e-25
-0.4827558997812389	-1.2234768722764713e-25
-0.4826948646249889	-8.341576940254177e-26
-0.4826338294687389	-4.3591085877331464e-26
-0.4825727943124889	-3.278912310986656e-27
-0.4825117591562389	3.711024961037424e-26
-0.4824507239999889	7.716483013673843e-26
-0.4823896888437389	1.164764093211116e-25
-0.4823286536874889	1.5464389454187568e-25
-0.4822676185312389	1.912775850796593e-25
-0.4822065833749889	2.2600320978843677e-25
-0.4821455482187389	2.5846567701413073e-25
-0.4820845130624889	2.883328205918861e-25
-0.4820234779062389	3.152986811832639e-25
-0.4819624427499889	3.390867687739804e-25
-0.4819014075937389	3.594528025172256e-25
-0.4818403724374889	3.7618725171457603e-25
-0.4817793372812389	3.8911758853684726e-25
-0.4817183021249889	3.981098675954765e-25
-0.4816572669687389	4.030703571839564e-25
-0.4815962318124889	4.0394632975536133e-25
-0.4815351966562389	4.007267128556433e-25
-0.4814741614999889	3.9344224096105095e-25
-0.4814131263437389	3.821650716366604e-25
-0.4813520911874889	3.670082039810635e-25
-0.4812910560312389	3.4812421647541655e-25
-0.4812300208749889	3.257038297532202e-25
-0.4811689857187389	2.9997391796335922e-25
-0.4811079505624889	2.711952270324515e-25
-0.4810469154062389	2.3965976720340003e-25
-0.4809858802499889	2.056877525016933e-25
-0.4809248450937389	1.6962445021374983e-25
-0.4808638099374889	1.3183659369588417e-25
-0.4808027747812389	9.270865086946818e-26
-0.4807417396249889	5.263895699925122e-26
-0.4806807044687389	1.2035565721708934e-26
-0.4806196693124889	-2.8687846521919624e-26
-0.4805586341562389	-6.911623931949927e-26
-0.4804975989999889	-1.0883747604595059e-25
-0.4804365638437389	-1.4744646605229825e-25
-0.4803755286874889	-1.8454940357238906e-25
-0.4803144935312389	-2.1976773586114234e-25
-0.4802534583749889	-2.5274204949127437e-25
-0.4801924232187389	-2.8313581023975146e-25
-0.4801313880624889	-3.10638738110764e-25
-0.4800703529062389	-3.349700555825807e-25
-0.4800093177499889	-3.5588134299697376e-25
-0.4799482825937389	-3.7315911350022785e-25
-0.4798872474374889	-3.866269904780931e-25
-0.4798262122812389	-3.961475439693551e-25
-0.4797651771249889	-4.0162373665612137e-25
-0.4797041419687389	-4.029998655575068e-25
-0.4796431068124889	-4.002622311104802e-25
-0.4795820716562389	-3.934392352238577e-25
-0.4795210364999889	-3.8260112542304435e-25
-0.4794600013437389	-3.6785930835475075e-25
-0.4793989661874889	-3.493651828290432e-25
-0.4793379310312389	-3.2730864709966327e-25
-0.4792768958749889	-3.019161277722217e-25
-0.4792158607187389	-2.7344830787748834e-25
-0.4791548255624889	-2.421974277028573e-25
-0.4790937904062389	-2.0848432635126543e-25
-0.4790327552499889	-1.7265516093446453e-25
-0.4789717200937389	-1.3507782394319044e-25
-0.4789106849374889	-9.613825470037738e-26
-0.4788496497812389	-5.623637339353061e-26
-0.4787886146249889	-1.57820978778218e-26
-0.4787275794687389	2.4808921464656675e-26
-0.4786665443124889	6.511963912936227e-26
-0.4786055091562389	1.0473569386947745e-25
-0.4785444739999889	1.4324991107589766e-25
-0.4784834388437389	1.8026631252346486e-25
-0.4784224036874889	2.1540422331425254e-25
-0.4783613685312389	2.4830231112426154e-25
-0.4783003333749889	2.7862209981940145e-25
-0.4782392982187389	3.060516467281805e-25
-0.4781782630624889	3.303086296014373e-25
-0.4781172279062389	3.5114335388267267e-25
-0.4780561927499889	3.683412741109923e-25
-0.4779951575937389	3.817252113410808e-25
-0.4779341224374889	3.911572629970131e-25
-0.4778730872812389	3.965401216149031e-25
-0.4778120521249889	3.978182192566817e-25
-0.4777510169687389	3.9497819397482457e-25
-0.4776899818124889	3.880491507512129e-25
-0.4776289466562389	3.7710230613020024e-25
-0.4775679114999889	3.6225029529271564e-25
-0.4775068763437389	3.436460617480678e-25
-0.4774458411874889	3.2148122105519944e-25
-0.4773848060312389	2.959842103056471e-25
-0.4773237708749889	2.674178492473178e-25
-0.4772627357187389	2.360767151182201e-25
-0.4772017005624889	2.0228408803016773e-25
-0.4771406654062389	1.6638865238875977e-25
-0.4770796302499889	1.2876092163199583e-25
-0.4770185950937389	8.978936993928431e-26
-0.4769575599374889	4.987654092633254e-26
-0.4768965247812389	9.43481045006774e-27
-0.4768354896249889	-3.111782629443999e-26
-0.4767744544687389	-7.136201386554797e-26
-0.4767134193124889	-1.1088147736739062e-25
-0.4766523841562389	-1.492671630828993e-25
-0.4765913489999889	-1.861215954026524e-25
-0.4765303138437389	-2.210629230601785e-25
-0.4764692786874889	-2.5372880002213285e-25
-0.4764082435312389	-2.837803334080025e-25
-0.4763472083749889	-3.10905311564278e-25
-0.4762861732187389	-3.3482169540998828e-25
-0.4762251380624889	-3.5528039582730136e-25
-0.4761641029062389	-3.7206786476897997e-25
-0.4761030677499889	-3.8500846218111556e-25
-0.4760420325937389	-3.9396603228105984e-25
-0.4759809974374889	-3.988456170940355e-25
-0.4759199622812389	-3.99594237565598e-25
-0.4758589271249889	-3.9620156478359056e-25
-0.4757978919687389	-3.8870007177139676e-25
-0.4757368568124889	-3.7716461682749215e-25
-0.4756758216562389	-3.617118336206887e-25
-0.4756147864999889	-3.424988254128567e-25
-0.4755537513437389	-3.197216573458396e-25
-0.4754927161874889	-2.9361330238797195e-25
-0.4754316810312389	-2.6444127891735037e-25
-0.4753706458749889	-2.3250491817032154e-25
-0.4753096107187389	-1.9813226003536372e-25
-0.4752485755624889	-1.6167671616380644e-25
-0.4751875404062389	-1.2351341988771893e-25
-0.4751265052499889	-8.40353808781473e-26
-0.4750654700937389	-4.3649410825945046e-26
-0.4750044349374889	-2.7719681675373378e-27
-0.4749433997812389	3.8175194707861895e-26
-0.4748823646249889	7.876929930259677e-26
-0.4748213294687389	1.185909779364857e-25
-0.4747602943124889	1.5722860453087223e-25
-0.4746992591562389	1.9428244783956128e-25
-0.4746382239999889	2.293689978242855e-25
-0.4745771888437389	2.6212472693498493e-25
-0.4745161536874889	2.922099981651859e-25
-0.4744551185312389	3.1931256276844516e-25
-0.4743940833749889	3.43150713732803e-25
-0.4743330482187389	3.6347636334359125e-25
-0.4742720130624889	3.80077481414303e-25
-0.4742109779062389	3.927804093747831e-25
-0.4741499427499889	4.0145160302055274e-25
-0.4740889075937389	4.0599910133965056e-25
-0.4740278724374889	4.0637345018019075e-25
-0.4739668372812389	4.0256824655505647e-25
-0.4739058021249889	3.946202759090143e-25
-0.4738447669687389	3.8260906735585977e-25
-0.4737837318124889	3.666561963293543e-25
-0.4737226966562389	3.469239737505462e-25
-0.4736616614999889	3.236138340573923e-25
-0.4736006263437389	2.9696425401497193e-25
-0.4735395911874889	2.67248325288222e-25
-0.4734785560312389	2.347709417819802e-25
-0.4734175208749889	1.9986565343494917e-25
-0.4733564857187389	1.628912721945251e-25
-0.4732954505624889	1.2422810699142816e-25
-0.4732344154062389	8.42741305448458e-26
-0.4731733802499889	4.344080956414717e-26
-0.4731123450937389	2.1488612821028445e-27
-0.4730513099374889	-3.917602820659136e-26
-0.4729902747812389	-8.010771844329863e-26
-0.4729292396249889	-1.2022390060373802e-25
-0.4728682044687389	-1.5911053748047686e-25
-0.4728071693124889	-1.9636616289035364e-25
-0.4727461341562389	-2.31605954870947e-25
-0.4726850989999889	-2.6446585414615404e-25
-0.4726240638437389	-2.9460620309254434e-25
-0.4725630286874889	-3.217153826520814e-25
-0.4725019935312389	-3.455130027191257e-25
-0.4724409583749889	-3.657527735670292e-25
-0.4723799232187389	-3.8222521340663927e-25
-0.4723188880624889	-3.9475964233383806e-25
-0.4722578529062389	-4.0322611543378915e-25
-0.4721968177499889	-4.075367490058878e-25
-0.4721357825937389	-4.076465785654378e-25
-0.4720747474374889	-4.0355416676385966e-25
-0.4720137122812389	-3.953015191361693e-25
-0.4719526771249889	-3.829737468108701e-25
-0.4718916419687389	-3.666981689422352e-25
-0.4718306068124889	-3.466430112647529e-25
-0.4717695716562389	-3.2301569948184985e-25
