Time	Frequency
-0.5000257491562365	-0.4382014649674808
-0.49996471399998654	-0.4351591740021482
-0.49990367884373654	-0.42793977667343225
-0.49984264368748654	-0.41660950120076773
-0.49978160853123654	-0.40127438670737803
-0.49972057337498654	-0.3820793188502962
-0.49965953821873654	-0.3592066089706472
-0.49959850306248654	-0.33287427151300547
-0.49953746790623654	-0.3033339461578035
-0.49947643274998654	-0.2708684157619837
-0.49941539759373654	-0.23578896495741092
-0.49935436243748654	-0.19843230523037228
-0.49929332728123654	-0.15915735957948834
-0.49923229212498654	-0.11834180013827397
-0.49917125696873654	-0.07637833302114179
-0.49911022181248654	-0.03367102067303413
-0.49904918665623654	0.009368773114082532
-0.49898815149998654	0.05232630885835935
-0.49892711634373654	0.09478741449034767
-0.49886608118748654	0.1363426934697894
-0.49880504603123654	0.17659130610827642
-0.49874401087498654	0.21514493508957713
-0.49868297571873654	0.25163165456430026
-0.49862194056248654	0.28569937885093816
-0.49856090540623654	0.3170193932335106
-0.49849987024998654	0.34528955443296255
-0.49843883509373654	0.3702371825098312
-0.49837779993748654	0.39162176578069985
-0.49831676478123654	0.40923729827623
-0.49825572962498654	0.422914248179922
-0.49819469446873654	0.4325213178740295
-0.49813365931248654	0.43796662033030065
-0.49807262415623654	0.43919863933667397
-0.49801158899998654	0.43620677982261646
-0.49795055384373654	0.42902137857453987
-0.49788951868748654	0.4177135444056628
-0.49782848353123654	0.4023943828159291
-0.49776744837498654	0.3832139702494298
-0.49770641321873654	0.36035991556172103
-0.49764537806248654	0.33405549438188936
-0.49758434290623654	0.30455755872774803
-0.49752330774998654	0.2721539695982282
-0.49746227259373654	0.2371608570266192
-0.49740123743748654	0.1999195530273904
-0.49734020228123654	0.1607931917938161
-0.49727916712498654	0.12016330224375835
-0.49721813196873654	0.07842600844571752
-0.49715709681248654	0.03598817253502313
-0.49709606165623654	-0.006736491090360626
-0.49703502649998654	-0.04933156085276388
-0.49697399134373654	-0.09138185540816952
-0.49691295618748654	-0.132477534856342
-0.49685192103123654	-0.1722181651678225
-0.49679088587498654	-0.21021645768625438
-0.49672985071873654	-0.24610222579758032
-0.49666881556248654	-0.27952591319281506
-0.49660778040623654	-0.31016199187349314
-0.49654674524998654	-0.3377122496740788
-0.49648571009373654	-0.36190855128765587
-0.49642467493748654	-0.3825156428455778
-0.49636363978123654	-0.3993333178289783
-0.49630260462498654	-0.41219842448666455
-0.49624156946873654	-0.4209865346761655
-0.49618053431248654	-0.4256130573990051
-0.49611949915623654	-0.42603417831012225
-0.49605846399998654	-0.42224722892829125
-0.49599742884373654	-0.4142907762306978
-0.49593639368748654	-0.4022442205790036
-0.49587535853123654	-0.3862270527052054
-0.49581432337498654	-0.3663976918563591
-0.49575328821873654	-0.3429519480997078
-0.49569225306248654	-0.31612112060035935
-0.49563121790623654	-0.2861697329234461
-0.49557018274998654	-0.2533929926771688
-0.49550914759373654	-0.21811385062402358
-0.49544811243748654	-0.1806799252409497
-0.49538707728123654	-0.14146002152030107
-0.49532604212498654	-0.10084060857045948
-0.49526500696873654	-0.05922200254506612
-0.49520397181248654	-0.017014411700003496
-0.49514293665623654	0.02536596995080832
-0.49508190149998654	0.06750117441563439
-0.49502086634373654	0.10897544744638012
-0.49495983118748654	0.14937937128342474
-0.49489879603123654	0.18831389266374893
-0.49483776087498654	0.22539417982844415
-0.49477672571873654	0.2602535052956809
-0.49471569056248654	0.29254672984224683
-0.49465465540623654	0.3219538001307723
-0.49459362024998654	0.34818284933942933
-0.49453258509373654	0.370973046140275
-0.49447154993748654	0.3900972865827509
-0.49441051478123654	0.40536427207394016
-0.49434947962498654	0.4166205638399296
-0.49428844446873654	0.42375201362549947
-0.49422740931248654	0.42668492314575684
-0.49416637415623654	0.42538684473950683
-0.49410533899998654	0.4198668270780364
-0.49404430384373654	0.41017546345200034
-0.49398326868748654	0.39640432853169266
-0.49392223353123654	0.37868515676906767
-0.49386119837498654	0.3571885750808663
-0.49380016321873654	0.3321224229432195
-0.49373912806248654	0.30372976777905525
-0.49367809290623654	0.2722865394586029
-0.49361705774998654	0.23809882724413714
-0.49355602259373654	0.20149991779163662
-0.49349498743748654	0.162847044699619
-0.49343395228123654	0.12251786565780068
-0.49337291712498654	0.08090684419576494
-0.49331188196873654	0.038421303504808865
-0.49325084681248654	-0.004522509609169819
-0.49318981165623654	-0.04750346503970976
-0.49312877649998654	-0.09009978976908807
-0.49306774134373654	-0.13189307340424014
-0.49300670618748654	-0.17247246937199867
-0.49294567103123654	-0.21143869983690955
-0.49288463587498654	-0.24840792753720906
-0.49282360071873654	-0.2830156569578971
-0.49276256556248654	-0.31492017400510547
-0.49270153040623654	-0.3438060174454812
-0.49264049524998654	-0.3693870684197255
-0.49257946009373654	-0.3914093302008511
-0.49251842493748654	-0.40965351988993104
-0.49245738978123654	-0.4239371560869794
-0.49239635462498654	-0.4341164448438564
-0.49233531946873654	-0.44008768807433646
-0.49227428431248654	-0.4417883155757821
-0.49221324915623654	-0.4391975380465535
-0.49215221399998654	-0.4323365873254685
-0.49209117884373654	-0.42126852264322134
-0.49203014368748654	-0.40609763569417984
-0.49196910853123654	-0.3869684794278038
-0.49190807337498654	-0.36406443747339934
-0.49184703821873654	-0.3376059859063681
-0.49178600306248654	-0.30784853860779576
-0.49172496790623654	-0.2750799521518112
-0.49166393274998654	-0.23961775129416765
-0.49160289759373654	-0.20180600947780192
-0.49154186243748654	-0.162011985668009
-0.49148082728123654	-0.1206225516391852
-0.49141979212498654	-0.07804042724022776
-0.49135875696873654	-0.0346801799055093
-0.49129772181248654	0.00903579666420069
-0.49123668665623654	0.05268139379573969
-0.49117565149998654	0.0958310456648015
-0.49111461634373654	0.13806381104156804
-0.49105358118748654	0.1789675823167347
-0.49099254603123654	0.2181431159110183
-0.49093151087498654	0.255207899411229
-0.49087047571873654	0.2897999878567755
-0.49080944056248654	0.3215815480656836
-0.49074840540623654	0.35024214857112923
-0.49068737024998654	0.37550184692640226
-0.49062633509373654	0.39711398634541195
-0.49056529993748654	0.41486753429424
-0.49050426478123654	0.4285892782403729
-0.49044322962498654	0.4381454848092385
-0.49038219446873654	0.4434432089413218
-0.49032115931248654	0.44443129858366
-0.49026012415623654	0.4411008223475897
-0.49019908899998654	0.4334852442713767
-0.49013805384373654	0.4216600701816952
-0.49007701868748654	0.40574213399242776
-0.49001598353123654	0.38588846086321116
-0.48995494837498654	0.3622947342702031
-0.48989391321873654	0.3351933986208491
-0.48983287806248654	0.30485134511330403
-0.48977184290623654	0.271567359614133
-0.48971080774998654	0.23566913054310148
-0.48964977259373654	0.19751006192846657
-0.48958873743748654	0.15746580809444488
-0.48952770228123654	0.11593055647435405
-0.48946666712498654	0.07331320370076268
-0.48940563196873654	0.030033251319370697
-0.48934459681248654	-0.01348325415764184
-0.48928356165623654	-0.05680793987959738
-0.48922252649998654	-0.0995143532432516
-0.48916149134373654	-0.14118210143410612
-0.48910045618748654	-0.18140106560083566
-0.48903942103123654	-0.2197754334386564
-0.48897838587498654	-0.2559275440296954
-0.48891735071873654	-0.2895017202051529
-0.48885631556248654	-0.32016770782152665
-0.48879528040623654	-0.34762392965954814
-0.48873424524998654	-0.37160060242497606
-0.48867321009373654	-0.39186218358679525
-0.48861217493748654	-0.40820993660879273
-0.48855113978123654	-0.420483772099271
-0.48849010462498654	-0.42856381640630975
-0.48842906946873654	-0.43237177455077586
-0.48836803431248654	-0.4318714746357886
-0.48830699915623654	-0.4270694690112225
-0.48824596399998654	-0.4180148279946391
-0.48818492884373654	-0.4047987221459977
-0.48812389368748654	-0.3875535692206458
-0.48806285853123654	-0.3664516447483029
-0.48800182337498654	-0.34170351043671116
-0.48794078821873654	-0.31355581649751074
-0.48787975306248654	-0.28228900967273324
-0.48781871790623654	-0.2482144389091697
-0.48775768274998654	-0.21167136021127303
-0.48769664759373654	-0.17302361887664727
-0.48763561243748654	-0.13265592812667293
-0.48757457728123654	-0.0909702371288171
-0.48751354212498654	-0.048381604514690424
-0.48745250696873654	-0.00531419886694503
-0.48739147181248654	0.037802961056361106
-0.48733043665623654	0.08054022961795074
-0.48726940149998654	0.12247156417963834
-0.48720836634373654	0.16317885213201044
-0.48714733118748654	0.2022558938235263
-0.48708629603123654	0.2393125964268227
-0.48702526087498654	0.27397875808014455
-0.48696422571873654	0.3059077356783992
-0.48690319056248654	0.33477999510344075
-0.48684215540623654	0.3603061570135713
-0.48678112024998654	0.3822299786424424
-0.48672008509373654	0.40033089379969927
-0.48665904993748654	0.4144261827768645
-0.48659801478123654	0.4243728607758141
-0.48653697962498654	0.4300690632526034
-0.48647594446873654	0.4314551228949643
-0.48641490931248654	0.42851416361064354
-0.48635387415623654	0.42127229561906704
-0.48629283899998654	0.40979839381560257
-0.48623180384373654	0.3942034140140243
-0.48617076868748654	0.3746393557080387
-0.48610973353123654	0.3512977334966646
-0.48604869837498654	0.3244077518867956
-0.48598766321873654	0.2942340119217084
-0.48592662806248654	0.26107391303528577
-0.48586559290623654	0.22525477755846463
-0.48580455774998654	0.18713052681325162
-0.48574352259373654	0.14707827616776048
-0.48568248743748654	0.1054945461928586
-0.48562145228123654	0.0627913897289787
-0.48556041712498654	0.01939227134818773
-0.48549938196873654	-0.024272120760334845
-0.48543834681248654	-0.06776809177770826
-0.48537731165623654	-0.11066334303242077
-0.48531627649998654	-0.15253114355671457
-0.48525524134373654	-0.1929546744453119
-0.48519420618748654	-0.23153109888344395
-0.48513317103123654	-0.2678756096081501
-0.48507213587498654	-0.3016252379454761
-0.48501110071873654	-0.33244247564721796
-0.48495006556248654	-0.36001868092212397
-0.48488903040623654	-0.38407705908531936
-0.48482799524998654	-0.40437555602980924
-0.48476696009373654	-0.4207091989524967
-0.48470592493748654	-0.43291217552994443
-0.48464488978123654	-0.440859529284073
-0.48458385462498654	-0.4444683928953334
-0.48452281946873654	-0.4436988591535172
-0.48446178431248654	-0.4385544035012653
-0.48440074915623654	-0.42908187308735035
-0.48433971399998654	-0.41537104993575985
-0.48427867884373654	-0.3975537999931064
-0.48421764368748654	-0.37580276753301123
-0.48415660853123654	-0.35032971496175114
-0.48409557337498654	-0.3213834255096625
-0.48403453821873654	-0.2892472774868057
-0.48397350306248654	-0.25423643306831245
-0.48391246790623654	-0.21669473107921586
-0.48385143274998654	-0.17699132802838238
-0.48379039759373654	-0.1355169837385885
-0.48372936243748654	-0.09268027456555424
-0.48366832728123654	-0.04890347111402819
-0.48360729212498654	-0.004618412254973669
-0.48354625696873654	0.03973779573108951
-0.48348522181248654	0.08372714958379819
-0.48342418665623654	0.1269149876756822
-0.48336315149998654	0.16887447520192453
-0.48330211634373654	0.2091906891624839
-0.48324108118748654	0.24746482684789858
-0.48318004603123654	0.28331816547221367
-0.48311901087498654	0.31639581018897167
-0.48305797571873654	0.3463702605014935
-0.48299694056248654	0.3729446111791632
-0.48293590540623654	0.39585565208960455
-0.48287487024998654	0.4148763175700488
-0.48281383509373654	0.42981809875325655
-0.48275279993748654	0.4405328988154448
-0.48269176478123654	0.4469144587762398
-0.48263072962498654	0.4488995462699708
-0.48256969446873654	0.4464684812837401
-0.48250865931248654	0.43964544011352724
-0.48244762415623654	0.42849819722073385
-0.48238658899998654	0.41313744688657533
-0.48232555384373654	0.3937157818534166
-0.48226451868748654	0.37042610884525046
-0.48220348353123654	0.3434998293340944
-0.48214244837498654	0.3132044877158194
-0.48208141321873654	0.27984113524070775
-0.48202037806248654	0.24374140798099259
-0.48195934290623654	0.20526411610572118
-0.48189830774998654	0.16479180222101641
-0.48183727259373654	0.12272687454484188
-0.48177623743748654	0.07948760920056565
-0.48171520228123654	0.035504033880944225
-0.48165416712498654	-0.00878642109734452
-0.48159313196873654	-0.05294320790255691
-0.48153209681248654	-0.09652710143243408
-0.48147106165623654	-0.13910454443788298
-0.48141002649998654	-0.18025197906834659
-0.48134899134373654	-0.2195601115530701
-0.48128795618748654	-0.25663790200226677
-0.48122692103123654	-0.29111657035625127
-0.48116588587498654	-0.32265325488757
-0.48110485071873654	-0.3509343642186955
-0.48104381556248654	-0.37567884067816115
-0.48098278040623654	-0.3966408800755957
-0.48092174524998654	-0.41361241305452634
-0.48086071009373654	-0.42642525333933184
-0.48079967493748654	-0.434952683718508
-0.48073863978123654	-0.4391108415794139
-0.48067760462498654	-0.43885950307384475
-0.48061656946873654	-0.43420250125954296
-0.48055553431248654	-0.4251877574287777
-0.48049449915623654	-0.41190673055693133
-0.48043346399998654	-0.3944936012982466
-0.48037242884373654	-0.3731238841344378
-0.48031139368748654	-0.34801272106327347
-0.48025035853123654	-0.3194127272221311
-0.48018932337498654	-0.28761147897897527
-0.48012828821873654	-0.2529286661651871
-0.48006725306248654	-0.2157128648434116
-0.48000621790623654	-0.17633813122535452
-0.47994518274998654	-0.13520017294321904
-0.47988414759373654	-0.09271248920207549
-0.47982311243748654	-0.04930218208278191
-0.47976207728123654	-0.005405674906336024
-0.47970104212498654	0.038535570795748916
-0.47964000696873654	0.08207958388158686
-0.47957897181248654	0.12478822184037969
-0.47951793665623654	0.16623162289056398
-0.47945690149998654	0.20599248107130685
-0.47939586634373654	0.24367020359410985
-0.47933483118748654	0.2788850506334468
-0.47927379603123654	0.31128176969886195
-0.47921276087498654	0.3405333420855135
-0.47915172571873654	0.3663441931461691
-0.47909069056248654	0.388453091129743
-0.47902965540623654	0.40663600335674394
-0.47896862024998654	0.4207080913190758
-0.47890758509373654	0.43052580659319944
-0.47884654993748654	0.4359882391554693
-0.47878551478123654	0.4370381214489298
-0.47872447962498654	0.4336625846337743
-0.47866344446873654	0.4258930882753812
-0.47860240931248654	0.4138053315268946
-0.47854137415623654	0.39751840022273904
-0.47848033899998654	0.37719361158642034
-0.47841930384373654	0.35303298427382473
-0.47835826868748654	0.32527713221762045
-0.47829723353123654	0.29420297469921664
-0.47823619837498654	0.2601209103603563
-0.47817516321873654	0.22337173696427784
-0.47811412806248654	0.18432329436650022
-0.47805309290623654	0.14336669932692453
-0.47799205774998654	0.10091254344714581
-0.47793102259373654	0.05738669984748687
-0.47786998743748654	0.013226069432796262
-0.47780895228123654	-0.031125702488861956
-0.47774791712498654	-0.07522285554649935
-0.47768688196873654	-0.11862179381774011
-0.47762584681248654	-0.1608856480728606
-0.47756481165623654	-0.20158869659344758
-0.47750377649998654	-0.24032050329290128
-0.47744274134373654	-0.27669021035266356
-0.47738170618748654	-0.3103303739072682
-0.47732067103123654	-0.3409006801532333
-0.47725963587498654	-0.36809142012095547
-0.47719860071873654	-0.39162656686169695
-0.47713756556248654	-0.41126660868010073
-0.47707653040623654	-0.4268109689822163
-0.47701549524998654	-0.43810001199627496
-0.47695446009373654	-0.44501671540304794
-0.47689342493748654	-0.44748786274744273
-0.47683238978123654	-0.44548477828354466
-0.47677135462498654	-0.4390236851657104
-0.47671031946873654	-0.4281655447793364
-0.47664928431248654	-0.4130154736571881
-0.47658824915623654	-0.393721741046198
-0.47652721399998654	-0.37047426676061135
-0.47646617884373654	-0.34350279408845336
-0.47640514368748654	-0.3130745526130033
-0.47634410853123654	-0.27949162664978705
-0.47628307337498654	-0.2430879770377847
-0.47622203821873654	-0.20422601299402254
-0.47616100306248654	-0.16329309135159653
-0.47609996790623654	-0.12069753590783316
-0.47603893274998654	-0.07686460679928948
-0.47597789759373654	-0.03223224770270813
-0.47591686243748654	0.012753366229182958
-0.47585582728123654	0.05764222040342964
-0.47579479212498654	0.10198505917204424
-0.47573375696873654	0.1453378401553136
-0.47567272181248654	0.1872662424399093
-0.47561168665623654	0.22734997188627837
-0.47555065149998654	0.2651870764273647
-0.47548961634373654	0.30039794821134636
-0.47542858118748654	0.3326290957576939
-0.47536754603123654	0.3615568693749282
-0.47530651087498654	0.3868905295907913
-0.47524547571873654	0.4083753223323772
-0.47518444056248654	0.4257950607667352
-0.47512340540623654	0.4389741928795021
-0.47506237024998654	0.4477797531019228
-0.47500133509373654	0.45212259507002733
-0.47494029993748654	0.4519583482953527
-0.47487926478123654	0.44728793070756395
-0.47481822962498654	0.43815746788011506
-0.47475719446873654	0.42465794934342005
-0.47469615931248654	0.40692426270697074
-0.47463512415623654	0.3851338784763057
-0.47457408899998654	0.35950511101510835
-0.47451305384373654	0.3302948901763099
-0.47445201868748654	0.2977962316590898
-0.47439098353123654	0.26233527776629284
-0.47432994837498654	0.22426804759793725
-0.47426891321873654	0.18397686710119937
-0.47420787806248654	0.14186649091924983
-0.47414684290623654	0.09836009677791561
-0.47408580774998654	0.05389498010239203
-0.47402477259373654	0.008918162040536665
-0.47396373743748654	-0.03611805652204603
-0.47390270228123654	-0.08076076154990307
-0.47384166712498654	-0.12456084882755898
-0.47378063196873654	-0.1670776733822981
-0.47371959681248654	-0.207883458157688
-0.47365856165623654	-0.24656753032121825
-0.47359752649998654	-0.2827406379185782
-0.47353649134373654	-0.3160386947519425
-0.47347545618748654	-0.3461266221966626
-0.47341442103123654	-0.3727016459218185
-0.47335338587498654	-0.3954963434670608
-0.47329235071873654	-0.41428150290795795
-0.47323131556248654	-0.42886824589598527
-0.47317028040623654	-0.43911012133624383
-0.47310924524998654	-0.4449044963963582
-0.47304821009373654	-0.4461936413297426
-0.47298717493748654	-0.44296537046848644
-0.47292613978123654	-0.43525307463169055
-0.47286510462498654	-0.42313553913179613
-0.47280406946873654	-0.40673604353780396
-0.47274303431248654	-0.38622119635455704
-0.47268199915623654	-0.3617992793199057
-0.47262096399998654	-0.3337180737156417
-0.47255992884373654	-0.302262483021963
-0.47249889368748654	-0.26775159362549483
-0.47243785853123654	-0.23053544899225056
-0.47237682337498654	-0.19099160327370224
-0.47231578821873654	-0.14952118922135532
-0.47225475306248654	-0.10654501722662617
-0.47219371790623654	-0.062499174941959675
-0.47213268274998654	-0.01783070214946025
-0.47207164759373654	0.02700686021506412
-0.47201061243748654	0.07155828783609165
-0.47194957728123654	0.11537100393223094
-0.47188854212498654	0.15799987099939483
-0.47182750696873654	0.19901161292110348
-0.47176647181248654	0.2379891822081385
-0.47170543665623654	0.2745360921811984
-0.47164440149998654	0.3082803461711074
-0.47158336634373654	0.3388782660171746
-0.47152233118748654	0.3660179799859073
-0.47146129603123654	0.38942260579152604
-0.47140026087498654	0.4088530259780198
-0.47133922571873654	0.4241104286550556
-0.47127819056248654	0.43503822647455365
-0.47121715540623654	0.4415237522267086
-0.47115612024998654	0.44349939264589217
-0.47109508509373654	0.4409432618051136
-0.47103404993748654	0.4338795374814844
-0.47097301478123654	0.4223781225393264
-0.47091197962498654	0.4065540633851071
-0.47085094446873654	0.3865663418959091
-0.47078990931248654	0.3626163012499531
-0.47072887415623654	0.3349456553695975
-0.47066783899998654	0.30383399826407403
-0.47060680384373654	0.26959605980769613
-0.47054576868748654	0.2325784691434133
-0.47048473353123654	0.19315627457498527
-0.47042369837498654	0.15172918470448452
