Time	Frequency
-0.5000212194062499	0.2834942749431421
-0.4999601842499999	0.2983793153812233
-0.4998991490937499	0.311700783682476
-0.4998381139374999	0.32338436110589835
-0.4997770787812499	0.3333644602390105
-0.4997160436249999	0.34158463977054637
-0.4996550084687499	0.3479978716242772
-0.4995939733124999	0.3525668255825685
-0.4995329381562499	0.3552640693713154
-0.4994719029999999	0.3560722211654066
-0.4994108678437499	0.3549840656325901
-0.4993498326874999	0.35200256722630635
-0.4992887975312499	0.3471409115635048
-0.4992277623749999	0.34042238348794174
-0.4991667272187499	0.3318803023065859
-0.4991056920624999	0.3215578064790356
-0.4990446569062499	0.30950766292881826
-0.4989836217499999	0.29579195882602244
-0.4989225865937499	0.2804817985320074
-0.4988615514374999	0.26365690400495445
-0.4988005162812499	0.24540521733716528
-0.4987394811249999	0.22582240665703462
-0.4986784459687499	0.20501136283698337
-0.4986174108124999	0.1830816730057058
-0.4985563756562499	0.16014899458469062
-0.4984953404999999	0.13633446597246884
-0.4984343053437499	0.1117640515223874
-0.4983732701874999	0.08656784528450558
-0.4983122350312499	0.06087940863089152
-0.4982511998749999	0.0348350340156307
-0.4981901647187499	0.00857298447143653
-0.4981291295624999	-0.017767187752347945
-0.4980680944062499	-0.04404545809261817
-0.4980070592499999	-0.07012202362109349
-0.4979460240937499	-0.09585813042823303
-0.4978849889374999	-0.12111671547606316
-0.4978239537812499	-0.14576327385874277
-0.4977629186249999	-0.16966648264936235
-0.4977018834687499	-0.19269895294740977
-0.4976408483124999	-0.2147379260644857
-0.4975798131562499	-0.2356659100304579
-0.4975187779999999	-0.25537134319333055
-0.4974577428437499	-0.2737491761395902
-0.4973967076874999	-0.2907014752901466
-0.4973356725312499	-0.3061378811599522
-0.4972746373749999	-0.3199762103593296
-0.4972136022187499	-0.33214279112366774
-0.4971525670624999	-0.34257294372533637
-0.4970915319062499	-0.35121128549365566
-0.4970304967499999	-0.3580120639721992
-0.4969694615937499	-0.3629393873580443
-0.4969084264374999	-0.36596743592401804
-0.4968473912812499	-0.3670805921500555
-0.4967863561249999	-0.36627354112464267
-0.4967253209687499	-0.36355129780994655
-0.4966642858124999	-0.35892918007303876
-0.4966032506562499	-0.35243273822533816
-0.4965422154999999	-0.3440976095809234
-0.4964811803437499	-0.3339693411062586
-0.4964201451874999	-0.32210313378928906
-0.4963591100312499	-0.30856356099168064
-0.4962980748749999	-0.2934242063124238
-0.4962370397187499	-0.27676729082514756
-0.4961760045624999	-0.258683198149117
-0.4961149694062499	-0.23927003103114744
-0.4960539342499999	-0.21863303260422048
-0.4959928990937499	-0.1968840688973263
-0.4959318639374999	-0.17414098365600386
-0.4958708287812499	-0.15052698881262505
-0.4958097936249999	-0.1261699948682788
-0.4957487584687499	-0.10120189744638629
-0.4956877233124999	-0.07575789299733275
-0.4956266881562499	-0.049975734019565114
-0.4955656529999999	-0.02399497923086133
-0.4955046178437499	0.0020437611397162675
-0.4954435826874999	0.027999568796326018
-0.4953825475312499	0.053732019313772715
-0.4953215123749999	0.07910190112637452
-0.4952604772187499	0.10397201337722499
-0.4951994420624999	0.12820786302709644
-0.4951384069062499	0.15167844814288406
-0.4950773717499999	0.17425692167324397
-0.4950163365937499	0.19582133112604796
-0.4949553014374999	0.2162552255168464
-0.4948942662812499	0.2354483287092465
-0.4948332311249999	0.2532971444595875
-0.4947721959687499	0.26970547655698757
-0.4947111608124999	0.2845850273577463
-0.4946501256562499	0.29785577909099864
-0.4945890904999999	0.3094465477733126
-0.4945280553437499	0.31929526452731893
-0.4944670201874999	0.32734939474079433
-0.4944059850312499	0.3335661821726871
-0.4943449498749999	0.3379129064943693
-0.4942839147187499	0.34036705188996486
-0.4942228795624999	0.3409164344403326
-0.4941618444062499	0.3395592871907712
-0.4941008092499999	0.3363042415110207
-0.4940397740937499	0.33117032134508023
-0.4939787389374999	0.32418680601870775
-0.4939177037812499	0.3153931076198624
-0.4938566686249999	0.3048385266045198
-0.4937956334687499	0.2925820219209649
-0.4937345983124999	0.27869185264298457
-0.4936735631562499	0.26324525006015626
-0.4936125279999999	0.24632796401698184
-0.4935514928437499	0.22803382736626457
-0.4934904576874999	0.2084642218120988
-0.4934294225312499	0.18772754855118204
-0.4933683873749999	0.1659386172364306
-0.4933073522187499	0.14321805040806299
-0.4932463170624999	0.11969160345168126
-0.4931852819062499	0.09548947998615737
-0.4931242467499999	0.07074564681776188
-0.4930632115937499	0.04559706782687741
-0.4930021764374999	0.02018299648204788
-0.4929411412812499	-0.0053558197174505455
-0.4928801061249999	-0.03087787830404885
-0.4928190709687499	-0.05624172764584291
-0.4927580358124999	-0.0813066973581469
-0.4926970006562499	-0.10593372064586974
-0.4926359654999999	-0.1299860207435002
-0.4925749303437499	-0.15332996615047012
-0.4925138951874999	-0.17583568254681894
-0.4924528600312499	-0.1973778644075531
-0.4923918248749999	-0.2178364106526209
-0.4923307897187499	-0.2370970827645663
-0.4922697545624999	-0.2550521783942749
-0.4922087194062499	-0.2716010501500423
-0.4921476842499999	-0.286650749844913
-0.4920866490937499	-0.3001164462340651
-0.4920256139374999	-0.31192199558066014
-0.4919645787812499	-0.3220002488904782
-0.4919035436249999	-0.3302935445335931
-0.4918425084687499	-0.33675392876880106
-0.4917814733124999	-0.3413434894975053
-0.4917204381562499	-0.34403454056581484
-0.4916594029999999	-0.34480978546010554
-0.4915983678437499	-0.3436624254746141
-0.4915373326874999	-0.34059619069901464
-0.4914762975312499	-0.3356253466821731
-0.4914152623749999	-0.3287745971683253
-0.4913542272187499	-0.3200789875006003
-0.4912931920624999	-0.3095836867669034
-0.4912321569062499	-0.2973437809618323
-0.4911711217499999	-0.28342394490268324
-0.4911100865937499	-0.2678981326706639
-0.4910490514374999	-0.25084914197551755
-0.4909880162812499	-0.23236819693754374
-0.4909269811249999	-0.21255443822083914
-0.4908659459687499	-0.19151439382495833
-0.4908049108124999	-0.16936140473433947
-0.4907438756562499	-0.14621500134612997
-0.4906828404999999	-0.12220025386944239
-0.4906218053437499	-0.09744711141831237
-0.4905607701874999	-0.07208966642149696
-0.4904997350312499	-0.046265449202542205
-0.4904386998749999	-0.020114669361470557
-0.4903776647187499	0.006220561240366894
-0.4903166295624999	0.03259697772232611
-0.4902555944062499	0.05887097360822973
-0.4901945592499999	0.08489935366279816
-0.4901335240937499	0.11054014921517671
-0.4900724889374999	0.1356533701128616
-0.4900114537812499	0.1601017890512564
-0.4899504186249999	0.18375168377756418
-0.4898893834687499	0.206473559875842
-0.4898283483124999	0.22814289737034332
-0.4897673131562499	0.248640783707266
-0.4897062779999999	0.2678546254905686
-0.4896452428437499	0.2856787089718207
-0.4895842076874999	0.3020148286546782
-0.4895231725312499	0.316772806111269
-0.4894621373749999	0.3298709891923202
-0.4894011022187499	0.34123672490022244
-0.4893400670624999	0.35080672302787774
-0.4892790319062499	0.3585274470110335
-0.4892179967499999	0.3643553863304403
-0.4891569615937499	0.3682573236011169
-0.4890959264374999	0.37021049662839817
-0.4890348912812499	0.3702027514753185
-0.4889738561249999	0.3682326030986461
-0.4889128209687499	0.3643092525120671
-0.4888517858124999	0.3584525467737516
-0.4887907506562499	0.35069287183752523
-0.4887297154999999	0.3410709956378192
-0.4886686803437499	0.3296378476181611
-0.4886076451874999	0.31645425279647643
-0.4885466100312499	0.30159059693823964
-0.4884855748749999	0.28512645257540664
-0.4884245397187499	0.2671501464837609
-0.4883635045624999	0.24775827867860248
-0.4883024694062499	0.22705520972752122
-0.4882414342499999	0.2051524764960452
-0.4881803990937499	0.18216820063526998
-0.4881193639374999	0.1582264361605195
-0.4880583287812499	0.1334565019787827
-0.4879972936249999	0.10799227408018869
-0.4879362584687499	0.08197144772843923
-0.4878752233124999	0.05553479377523577
-0.4878141881562499	0.028825389064348467
-0.4877531529999999	0.0019878371142865703
-0.4876921178437499	-0.02483253763775848
-0.4876310826874999	-0.05149046235394508
-0.4875700475312499	-0.07784153567552521
-0.4875090123749999	-0.10374299189287846
-0.4874479772187499	-0.12905450830989046
-0.4873869420624999	-0.1536389641057843
-0.4873259069062499	-0.17736318891263358
-0.4872648717499999	-0.2000987008045778
-0.4872038365937499	-0.22172241393554026
-0.4871428014374999	-0.24211729759511386
-0.4870817662812499	-0.2611730440695873
-0.4870207311249999	-0.27878666912988453
-0.4869596959687499	-0.294863063685174
-0.4868986608124999	-0.30931553483442426
-0.4868376256562499	-0.3220662781983763
-0.4867765904999999	-0.33304681544244935
-0.4867155553437499	-0.34219834968344615
-0.4866545201874999	-0.34947212912966297
-0.4865934850312499	-0.3548296783752183
-0.4865324498749999	-0.3582430425861063
-0.4864714147187499	-0.3596949264094897
-0.4864103795624999	-0.35917880220107756
-0.4863493444062499	-0.35669894533770957
-0.4862883092499999	-0.35227041171921697
-0.4862272740937499	-0.34591896337562245
-0.4861662389374999	-0.3376809264592276
-0.4861052037812499	-0.32760299427765277
-0.4860441686249999	-0.31574197728298514
-0.4859831334687499	-0.30216448734777546
-0.4859220983124999	-0.2869465789380074
-0.4858610631562499	-0.27017333714675873
-0.4858000279999999	-0.25193839581498995
-0.4857389928437499	-0.2323434500767384
-0.4856779576874999	-0.21149766611591328
-0.4856169225312499	-0.1895171175883967
-0.4855558873749999	-0.1665241210992517
-0.4854948522187499	-0.1426465762264512
-0.4854338170624999	-0.11801725917701239
-0.4853727819062499	-0.09277308957326647
-0.4853117467499999	-0.0670543868944935
-0.4852507115937499	-0.04100409524106506
-0.4851896764374999	-0.014766964792745035
-0.4851286412812499	0.011511178089808834
-0.4850676061249999	0.03768430941203563
-0.4850065709687499	0.06360697759191204
-0.4849455358124999	0.08913507955362542
-0.4848845006562499	0.1141267346056454
-0.4848234654999999	0.13844297127928593
-0.4847624303437499	0.16194858251361297
-0.4847013951874999	0.18451281535800962
-0.4846403600312499	0.20601012972437907
-0.4845793248749999	0.22632086815537772
-0.4845182897187499	0.2453319383236346
-0.4844572545624999	0.26293743658857704
-0.4843962194062499	0.27903922299983175
-0.4843351842499999	0.2935474893217749
-0.4842741490937499	0.30638123582267046
-0.4842131139374999	0.3174687472231211
-0.4841520787812499	0.32674796964847935
-0.4840910436249999	0.3341668668724142
-0.4840300084687499	0.3396837265657174
-0.4839689733124999	0.3432673670670878
-0.4839079381562499	0.34489734748672274
-0.4838469029999999	0.34456405277371494
-0.4837858678437499	0.34226877923757726
-0.4837248326874999	0.33802371844442597
-0.4836637975312499	0.33185189126174325
-0.4836027623749999	0.3237870465324197
-0.4835417272187499	0.313873445189462
-0.4834806920624999	0.3021656616270539
-0.4834196569062499	0.2887282432153316
-0.4833586217499999	0.2736354014819736
-0.4832975865937499	0.2569705652456156
-0.4832365514374999	0.23882595777860294
-0.4831755162812499	0.21930206160289886
-0.4831144811249999	0.19850709449340867
-0.4830534459687499	0.17655637935762686
-0.4829924108124999	0.15357175434252437
-0.4829313756562499	0.1296808497068874
-0.4828703404999999	0.1050164324508687
-0.4828093053437499	0.07971563836421035
-0.4827482701874999	0.053919226224586746
-0.4826872350312499	0.0277708142493469
-0.4826261998749999	0.0014160456029783785
-0.4825651647187499	-0.024998152641806947
-0.4825041295624999	-0.0513244644811166
-0.4824430944062499	-0.07741592004530175
-0.4823820592499999	-0.10312678052001216
-0.4823210240937499	-0.1283132986141774
-0.4822599889374999	-0.15283453687678294
-0.4821989537812499	-0.17655315315202352
-0.4821379186249999	-0.1993361452604096
-0.4820768834687499	-0.22105562604356677
-0.4820158483124999	-0.24158950018931458
-0.4819548131562499	-0.2608221575341026
-0.4818937779999999	-0.2786451375395526
-0.4818327428437499	-0.2949576968919788
-0.4817717076874999	-0.30966740714499913
-0.4817106725312499	-0.32269065977679107
-0.4816496373749999	-0.3339531286499833
-0.4815886022187499	-0.34339021142308046
-0.4815275670624999	-0.35094735336220517
-0.4814665319062499	-0.35658040771099386
-0.4814054967499999	-0.36025584647999204
-0.4813444615937499	-0.36195096982330327
-0.4812834264374999	-0.36165404579700233
-0.4812223912812499	-0.35936436317300696
-0.4811613561249999	-0.3550922684364791
-0.4811003209687499	-0.34885908674707317
-0.4810392858124999	-0.34069704269772705
-0.4809782506562499	-0.3306490565318666
-0.4809172154999999	-0.31876854359103085
-0.4808561803437499	-0.30511910277866744
-0.4807951451874999	-0.28977417680969186
-0.4807341100312499	-0.27281666894200274
-0.4806730748749999	-0.2543384553955411
-0.4806120397187499	-0.23443990958488345
-0.4805510045624999	-0.2132293517564661
-0.4804899694062499	-0.190822421909831
-0.4804289342499999	-0.16734149303466922
-0.4803678990937499	-0.1429149435075404
-0.4803068639374999	-0.1176765010819831
-0.4802458287812499	-0.09176445920793239
-0.4801847936249999	-0.06532093981780195
-0.4801237584687499	-0.03849110805332829
-0.4800627233124999	-0.011422348632304886
-0.4800016881562499	0.01573651827734341
-0.4799406529999999	0.04283611023366466
-0.4798796178437499	0.06972723136667443
-0.4798185826874999	0.09626181194109597
-0.4797575475312499	0.12229360225624777
-0.4796965123749999	0.14767910207108007
-0.4796354772187499	0.17227826399771803
-0.4795744420624999	0.19595535176477047
-0.4795134069062499	0.21857962753779642
-0.4794523717499999	0.24002612311808105
-0.4793913365937499	0.2601763365512684
-0.4793303014374999	0.27891884157030894
-0.4792692662812499	0.29615000836294214
-0.4792082311249999	0.3117744479830498
-0.4791471959687499	0.3257057023027965
-0.4790861608124999	0.33786657554434696
-0.4790251256562499	0.34818969287872464
-0.4789640904999999	0.35661779118682685
-0.4789030553437499	0.36310410067369536
-0.4788420201874999	0.36761257037650896
-0.4787809850312499	0.3701180972216954
-0.4787199498749999	0.37060666781192164
-0.4786589147187499	0.36907542138239063
-0.4785978795624999	0.36553271100006557
-0.4785368444062499	0.35999800840831697
-0.4784758092499999	0.3525018671268189
-0.4784147740937499	0.34308568275277834
-0.4783537389374999	0.33180154407649937
-0.4782927037812499	0.3187118808555856
-0.4782316686249999	0.3038891734466754
-0.4781706334687499	0.2874155218966603
-0.4781095983124999	0.2693822112051534
-0.4780485631562499	0.2498891974427568
-0.4779875279999999	0.22904455726944659
-0.4779264928437499	0.20696389922591873
-0.4778654576874999	0.1837697113689279
-0.4778044225312499	0.1595906945535785
-0.4777433873749999	0.1345610433564167
-0.4776823522187499	0.10881968718413074
-0.4776213170624999	0.082509550342609
-0.4775602819062499	0.05577673185600635
-0.4774992467499999	0.02876969952985583
-0.4774382115937499	0.0016384777136217905
-0.4773771764374999	-0.025466210835251413
-0.4773161412812499	-0.052393764009182546
-0.4772551061249999	-0.0789945537472674
-0.4771940709687499	-0.10512074338887621
-0.4771330358124999	-0.1306271421594421
-0.4770720006562499	-0.15537197139711703
-0.4770109654999999	-0.17921769806586532
-0.4769499303437499	-0.20203177678362672
-0.4768888951874999	-0.2236874110785144
-0.4768278600312499	-0.24406423583586181
-0.4767668248749999	-0.26304901510790174
-0.4767057897187499	-0.2805362732141606
-0.4766447545624999	-0.2964288696355711
-0.4765837194062499	-0.31063856600763096
-0.4765226842499999	-0.3230865034589486
-0.4764616490937499	-0.33370366624751857
-0.4764006139374999	-0.34243124026204763
-0.4763395787812499	-0.34922098500747994
-0.4762785436249999	-0.3540354695516397
-0.4762175084687499	-0.35684831573685194
-0.4761564733124999	-0.35764432569959326
-0.4760954381562499	-0.3564195860878737
-0.4760344029999999	-0.3531814921140946
-0.4759733678437499	-0.3479487015931949
-0.4759123326874999	-0.34075105013940776
-0.4758512975312499	-0.33162936942274357
-0.4757902623749999	-0.32063528460926616
-0.4757292272187499	-0.3078309102628912
-0.4756681920624999	-0.29328852048159715
-0.4756071569062499	-0.2770901385691098
-0.4755461217499999	-0.2593270920770266
-0.4754850865937499	-0.2400994970881802
-0.4754240514374999	-0.21951570475524534
-0.4753630162812499	-0.19769169909853443
-0.4753019811249999	-0.17475044179242716
-0.4752409459687499	-0.1508212025916904
-0.4751799108124999	-0.1260388289990388
-0.4751188756562499	-0.10054298399821021
-0.4750578404999999	-0.0744773798520804
-0.4749968053437499	-0.04798897805716323
-0.4749357701874999	-0.021227135175138204
-0.4748747350312499	0.005657182328131014
-0.4748136998749999	0.03251228949776361
-0.4747526647187499	0.05918661112870753
-0.4746916295624999	0.0855295348745994
-0.4746305944062499	0.11139225735525929
-0.4745695592499999	0.13662860984114658
-0.4745085240937499	0.16109591643771817
-0.4744474889374999	0.18465572540589384
-0.4743864537812499	0.20717469017588883
-0.4743254186249999	0.22852519015293493
-0.4742643834687499	0.24858618595337884
-0.4742033483124999	0.2672437984433904
-0.4741423131562499	0.2843919966533873
-0.4740812779999999	0.29993321200881157
-0.4740202428437499	0.3137788240302415
-0.4739592076874999	0.32584976544209293
-0.4738981725312499	0.33607685306184676
-0.4738371373749999	0.3444012990052729
-0.4737761022187499	0.35077493358287154
-0.4737150670624999	0.3551605890697937
-0.4736540319062499	0.35753222035954996
-0.4735929967499999	0.35787512670079985
-0.4735319615937499	0.35618600009280466
-0.4734709264374999	0.3524729646630471
-0.4734098912812499	0.34675554662128305
-0.4733488561249999	0.3390645414761981
-0.4732878209687499	0.32944189173630933
-0.4732267858124999	0.3179404056439382
-0.4731657506562499	0.3046235187585909
-0.4731047154999999	0.28956489840611693
-0.4730436803437499	0.27284807350417944
-0.4729826451874999	0.2545659370650015
-0.4729216100312499	0.2348202626974107
-0.4728605748749999	0.21372109963958116
-0.4727995397187499	0.19138620932898745
-0.4727385045624999	0.1679403521277748
-0.4726774694062499	0.14351463561254513
-0.4726164342499999	0.11824575212288739
-0.4725553990937499	0.09227523258334266
-0.4724943639374999	0.06574864624253718
-0.4724333287812499	0.03881477705403198
-0.4723722936249999	0.011624800716968831
-0.4723112584687499	-0.015668563185002187
-0.4722502233124999	-0.0429119196824533
-0.4721891881562499	-0.06995205936702899
-0.4721281529999999	-0.09663679295461676
-0.4720671178437499	-0.12281586408750081
-0.4720060826874999	-0.14834173360977343
-0.4719450475312499	-0.17307045707467295
-0.4718840123749999	-0.1968624597418415
-0.4718229772187499	-0.21958336503180895
-0.4717619420624999	-0.2411047114638584
-0.4717009069062499	-0.2613047165748477
-0.4716398717499999	-0.28006893436591457
-0.4715788365937499	-0.2972909304823349
-0.4715178014374999	-0.31287285733394826
-0.4714567662812499	-0.32672604028110586
-0.4713957311249999	-0.338771467689799
-0.4713346959687499	-0.3489402225905768
-0.4712736608124999	-0.3571739248438939
-0.4712126256562499	-0.36342500464928795
-0.4711515904999999	-0.3676570364391506
-0.4710905553437499	-0.3698449032769759
-0.4710295201874999	-0.36997497808329877
-0.4709684850312499	-0.36804518053618573
-0.4709074498749999	-0.36406502319702133
-0.4708464147187499	-0.35805553727109
-0.4707853795624999	-0.35004918379366107
-0.4707243444062499	-0.34008966283918607
-0.4706633092499999	-0.3282316815316608
-0.4706022740937499	-0.31454065073775456
-0.4705412389374999	-0.29909232132183217
-0.4704802037812499	-0.2819723629757107
-0.4704191686249999	-0.2632758960441971
-0.4703581334687499	-0.2431069526742789
-0.4702970983124999	-0.22157788370155718
-0.4702360631562499	-0.19880877556397103
-0.4701750279999999	-0.17492671471209803
-0.4701139928437499	-0.15006513034576402
-0.4700529576874999	-0.12436301771200405
-0.4699919225312499	-0.09796416433436081
-0.4699308873749999	-0.07101634725450688
-0.4698698522187499	-0.04367048884540037
-0.4698088170624999	-0.01607983146029163
-0.4697477819062499	0.011600945807919887
