Time	Frequency
-0.5000096544687551	-0.15196267107534847
-0.4999486193125051	-0.11293610478679036
-0.4998875841562551	-0.07288397024285881
-0.4998265490000051	-0.03217174049129129
-0.4997655138437551	0.008828981643169625
-0.4997044786875051	0.04974379584062279
-0.4996434435312551	0.09019900989512157
-0.4995824083750051	0.12982505661201973
-0.4995213732187551	0.16825988842167958
-0.4994603380625051	0.20515238872773633
-0.4993993029062551	0.2401655186435868
-0.4993382677500051	0.2729795238748532
-0.4992772325937551	0.30329480635958705
-0.4992161974375051	0.33083475130170686
-0.4991551622812551	0.355348310383706
-0.4990941271250051	0.37661220609829554
-0.4990330919687551	0.3944331713916392
-0.4989720568125051	0.40864959233722437
-0.4989110216562551	0.41913309575657715
-0.4988499865000051	0.42578974173653383
-0.4987889513437551	0.4285608117045948
-0.4987279161875051	0.427423518475239
-0.4986668810312551	0.4223910398645459
-0.4986058458750051	0.41351256607020154
-0.4985448107187551	0.4008727534130976
-0.4984837755625051	0.38459096832186396
-0.4984227404062551	0.36482024324704115
-0.4983617052500051	0.3417457660169227
-0.4983006700937551	0.3155832835710289
-0.4982396349375051	0.28657702059962475
-0.4981785997812551	0.25499748489438506
-0.4981175646250051	0.2211389190168111
-0.4980565294687551	0.18531662349945055
-0.4979954943125051	0.14786399690834243
-0.4979344591562551	0.10912947046600865
-0.4978734240000051	0.0694733084352094
-0.4978123888437551	0.02926417903338189
-0.4977513536875051	-0.011124132202058396
-0.4976903185312551	-0.051316313998204216
-0.4976292833750051	-0.09093895178182951
-0.4975682482187551	-0.12962395073177155
-0.4975072130625051	-0.16701209040585172
-0.4974461779062551	-0.20275618655068783
-0.4973851427500051	-0.2365244531630762
-0.4973241075937551	-0.2680035754785516
-0.4972630724375051	-0.2969014968178464
-0.4972020372812551	-0.32295033282938623
-0.4971410021250051	-0.34590869789444756
-0.4970799669687551	-0.3655640594845476
-0.4970189318125051	-0.3817346924053738
-0.4969578966562551	-0.3942713255566217
-0.4968968615000051	-0.4030586591030376
-0.4968358263437551	-0.4080162943338481
-0.4967747911875051	-0.4090996354900599
-0.4967137560312551	-0.406300211787821
-0.4966527208750051	-0.3996458112059862
-0.4965916857187551	-0.38920025316589324
-0.4965306505625051	-0.37506273531861634
-0.4964696154062551	-0.35736700929559423
-0.4964085802500051	-0.3362800751161469
-0.4963475450937551	-0.3120006789464281
-0.4962865099375051	-0.28475745472314645
-0.4962254747812551	-0.2548067996334829
-0.4961644396250051	-0.22243051750029136
-0.4961034044687551	-0.1879331912418536
-0.4960423693125051	-0.1516393181597455
-0.4959813341562551	-0.11389036431531083
-0.4959202990000051	-0.07504150920989251
-0.4958592638437551	-0.03545839707854191
-0.4957982286875051	0.0044862782950372175
-0.4957371935312551	0.04441632541656536
-0.4956761583750051	0.08395540010420577
-0.4956151232187551	0.12273070091699735
-0.4955540880625051	0.160376318155654
-0.4954930529062551	0.19653672128815844
-0.4954320177500051	0.2308700646225725
-0.4953709825937551	0.2630513483574842
-0.4953099474375051	0.29277556544888095
-0.4952489122812551	0.3197604021176066
-0.4951878771250051	0.34374908829442286
-0.4951268419687551	0.3645126095802989
-0.4950658068125051	0.3818519957067543
-0.4950047716562551	0.39560018222903837
-0.4949437365000051	0.4056235014749295
-0.4948827013437551	0.4118231045027682
-0.4948216661875051	0.4141357518035167
-0.4947606310312551	0.41253455381206294
-0.4946995958750051	0.40702916474610645
-0.4946385607187551	0.39766576804504594
-0.4945775255625051	0.3845266557671867
-0.4945164904062551	0.36772947652339694
-0.4944554552500051	0.34742619537665476
-0.4943944200937551	0.3238016527673125
-0.4943333849375051	0.29707193830400935
-0.4942723497812551	0.2674823138772086
-0.4942113146250051	0.23530501347385074
-0.4941502794687551	0.2008366941843541
-0.4940892443125051	0.1643956950195625
-0.4940282091562551	0.1263190842430712
-0.4939671740000051	0.08695952202114213
-0.4939061388437551	0.04668201570670177
-0.4938451036875051	0.005860472871283113
-0.4937840685312551	-0.0351257344632494
-0.4937230333750051	-0.07589532542618826
-0.4936619982187551	-0.11606865175655764
-0.4936009630625051	-0.15527126987926865
-0.4935399279062551	-0.1931373513084804
-0.4934788927500051	-0.2293132210631834
-0.4934178575937551	-0.2634605981299074
-0.4933568224375051	-0.2952596961293858
-0.4932957872812551	-0.32441238035604963
-0.4932347521250051	-0.35064479033774176
-0.4931737169687551	-0.3737100464920192
-0.4931126818125051	-0.3933904808622843
-0.4930516466562551	-0.40949970439770284
-0.4929906115000051	-0.4218844337683787
-0.4929295763437551	-0.4304258202967702
-0.4928685411875051	-0.4350407082490571
-0.4928075060312551	-0.43568234141600704
-0.4927464708750051	-0.4323408652659269
-0.4926854357187551	-0.42504344280057177
-0.4926244005625051	-0.4138539989689415
-0.4925633654062551	-0.3988726884006362
-0.4925023302500051	-0.3802349386420919
-0.4924412950937551	-0.358110255613176
-0.4923802599375051	-0.332700618101544
-0.4923192247812551	-0.30423865529833544
-0.4922581896250051	-0.27298547002611706
-0.4921971544687551	-0.23922822365474644
-0.4921361193125051	-0.20327750028096198
-0.4920750841562551	-0.1654643691968393
-0.4920140490000051	-0.12613737134507752
-0.4919530138437551	-0.08565923087236922
-0.4918919786875051	-0.04440351269324955
-0.4918309435312551	-0.002751122733593385
-0.4917699083750051	0.03891323351340833
-0.4917088732187551	0.08020461857936464
-0.4916478380625051	0.12074150068953093
-0.4915868029062551	0.16014925866723276
-0.4915257677500051	0.19806369984642416
-0.4914647325937551	0.2341344965588371
-0.4914036974375051	0.26802839713786636
-0.4913426622812551	0.29943237041272935
-0.4912816271250051	0.32805658504720675
-0.4912205919687551	0.3536370096792958
-0.4911595568125051	0.37593799946249384
-0.4910985216562551	0.3947544451129732
-0.4910374865000051	0.40991368457991517
-0.4909764513437551	0.42127719718913215
-0.4909154161875051	0.4287418045245864
-0.4908543810312551	0.43224074080092645
-0.4907933458750051	0.4317442209741795
-0.4907323107187551	0.4272597523232565
-0.4906712755625051	0.4188320855707885
-0.4906102404062551	0.4065427607961698
-0.4905492052500051	0.39050941235926273
-0.4904881700937551	0.37088461615015156
-0.4904271349375051	0.347854515334521
-0.4903660997812551	0.3216370598591954
-0.4903050646250051	0.29247997063213355
-0.4902440294687551	0.26065845302931706
-0.4901829943125051	0.2264725640139594
-0.4901219591562551	0.19024448311817943
-0.4900609240000051	0.15231543438279865
-0.4899998888437551	0.11304252398632099
-0.4899388536875051	0.0727953863481933
-0.4898778185312551	0.03195270316554121
-0.4898167833750051	-0.00910131940321306
-0.4897557482187551	-0.04998057388525662
-0.4896947130625051	-0.09030064880106528
-0.4896336779062551	-0.12968250976275622
-0.4895726427500051	-0.16775593515704593
-0.4895116075937551	-0.20416313702906935
-0.4894505724375051	-0.23856201410852754
-0.4893895372812551	-0.2706294087676445
-0.4893285021250051	-0.300064198136961
-0.4892674669687551	-0.32659000927366694
-0.4892064318125051	-0.349957974995039
-0.4891453966562551	-0.3699489194087509
-0.4890843615000051	-0.3863755898991189
-0.4890233263437551	-0.3990842995494739
-0.4889622911875051	-0.4079564303569473
-0.4889012560312551	-0.412909597181401
-0.4888402208750051	-0.41389833264470327
-0.4887791857187551	-0.41091466849615005
-0.4887181505625051	-0.403988065252548
-0.4886571154062551	-0.3931852811745183
-0.4885960802500051	-0.3786096809351896
-0.4885350450937551	-0.3604002768239383
-0.4884740099375051	-0.3387304903536418
-0.4884129747812551	-0.3138064298389054
-0.4883519396250051	-0.28586508228873503
-0.4882909044687551	-0.25517198865906576
-0.4882298693125051	-0.2220187865554414
-0.4881688341562551	-0.18672052142855108
-0.4881077990000051	-0.14961258670267372
-0.4880467638437551	-0.11104766204695238
-0.4879857286875051	-0.07139234180219242
-0.4879246935312551	-0.03102369508096097
-0.4878636583750051	0.00967426081285449
-0.4878026232187551	0.05031424102758589
-0.4877415880625051	0.0905092749500898
-0.4876805529062551	0.1298763937234325
-0.4876195177500051	0.168040273861096
-0.4875584825937551	0.20463670343329507
-0.4874974474375051	0.23931612683620035
-0.4874364122812551	0.27174688475307646
-0.4873753771250051	0.3016183370038995
-0.4873143419687551	0.328643917707451
-0.4872533068125051	0.3525637132511126
-0.4871922716562551	0.3731470450470172
-0.4871312365000051	0.3901946120195631
-0.4870702013437551	0.4035403884142054
-0.4870091661875051	0.41305325997889625
-0.4869481310312551	0.41863822707592474
-0.4868870958750051	0.4202373821998728
-0.4868260607187551	0.4178304273706957
-0.4867650255625051	0.4114349486339503
-0.4867039904062551	0.4011062354255008
-0.4866429552500051	0.3869367986296704
-0.4865819200937551	0.3690555444754867
-0.4865208849375051	0.34762654553834677
-0.4864598497812551	0.32284756393650316
-0.4863988146250051	0.2949481777604847
-0.4863377794687551	0.264187635683594
-0.4862767443125051	0.23085248749734746
-0.4862157091562551	0.1952537985547443
-0.4861546740000051	0.15772434602938706
-0.4860936388437551	0.11861544714825972
-0.4860326036875051	0.07829359755016167
-0.4859715685312551	0.037137174368296534
-0.4859105333750051	-0.004467304892539003
-0.4858494982187551	-0.04612866926148185
-0.4857884630625051	-0.08745485593665621
-0.4857274279062551	-0.12805660864813417
-0.4856663927500051	-0.16755111792323718
-0.4856053575937551	-0.20556568419705223
-0.4855443224375051	-0.24174115558110787
-0.4854832872812551	-0.2757354536904307
-0.4854222521250051	-0.30722666742060734
-0.4853612169687551	-0.335916220929146
-0.4853001818125051	-0.36153164626906237
-0.4852391466562551	-0.38382918134235455
-0.4851781115000051	-0.4025961047756343
-0.4851170763437551	-0.4176527164398696
-0.4850560411875051	-0.4288541446351962
-0.4849950060312551	-0.43609162578779903
-0.4849339708750051	-0.43929364664242015
-0.4848729357187551	-0.43842658417295494
-0.4848119005625051	-0.4334950792043412
-0.4847508654062551	-0.424542005299882
-0.4846898302500051	-0.41164808028799016
-0.4846287950937551	-0.3949311619668039
-0.4845677599375051	-0.3745451015990007
-0.4845067247812551	-0.3506783805240439
-0.4844456896250051	-0.3235523069054516
-0.4843846544687551	-0.293418961395312
-0.4843236193125051	-0.26055883970089594
-0.4842625841562551	-0.2252782148726974
-0.4842015490000051	-0.18790628460610867
-0.4841405138437551	-0.14879203220775167
-0.4840794786875051	-0.10830100888717706
-0.4840184435312551	-0.06681183566273068
-0.4839574083750051	-0.024712634704428305
-0.4838963732187551	0.017602534915259503
-0.4838353380625051	0.059737529766801974
-0.4837743029062551	0.10129777245391211
-0.4837132677500051	0.14189396255884704
-0.4836522325937551	0.18114584877210915
-0.4835911974375051	0.2186857108027332
-0.4835301622812551	0.2541619200460087
-0.4834691271250051	0.28724222373752756
-0.4834080919687551	0.317616887696818
-0.4833470568125051	0.34500167344160515
-0.4832860216562551	0.3691404738642562
-0.4832249865000051	0.38980780726482
-0.4831639513437551	0.406810876807423
-0.4831029161875051	0.4199915051410688
-0.4830418810312551	0.42922754392107215
-0.4829808458750051	0.4344340896387685
-0.4829198107187551	0.43556433489978325
-0.4828587755625051	0.43260988948342255
-0.4827977404062551	0.42560106027872824
-0.4827367052500051	0.41460639503334695
-0.4826756700937551	0.39973215823873254
-0.4826146349375051	0.38112130727465215
-0.4825535997812551	0.3589520945159686
-0.4824925646250051	0.33343650488269416
-0.4824315294687551	0.30481810717821606
-0.4823704943125051	0.2733698908574363
-0.4823094591562551	0.23939159795973836
-0.4822484240000051	0.20320691303396615
-0.4821873888437551	0.1651604367503388
-0.4821263536875051	0.12561433310931525
-0.4820653185312551	0.08494501374216662
-0.4820042833750051	0.043539471997530825
-0.4819432482187551	0.001791658198146523
-0.4818822130625051	-0.03990123507440683
-0.4818211779062551	-0.08114263097963659
-0.4817601427500051	-0.12154020626900913
-0.4816991075937551	-0.16070973709836597
-0.4816380724375051	-0.19827870800195338
-0.4815770372812551	-0.23388979214913908
-0.4815160021250051	-0.2672043731035957
-0.4814549669687551	-0.2979056513915424
-0.4813939318125051	-0.3257017531715013
-0.4813328966562551	-0.3503284622511089
-0.4812718615000051	-0.37155173584186263
-0.4812108263437551	-0.38916998532451336
-0.4811497911875051	-0.40301594856795353
-0.4810887560312551	-0.4129583498477204
-0.4810277208750051	-0.4189030969416505
-0.4809666857187551	-0.4207942531961723
-0.4809056505625051	-0.41861453792613534
-0.4808446154062551	-0.4123855158654654
-0.4807835802500051	-0.4021674255095906
-0.4807225450937551	-0.3880585813535083
-0.4806615099375051	-0.37019449620976086
-0.4806004747812551	-0.3487465589553535
-0.4805394396250051	-0.3239204560923466
-0.4804784044687551	-0.29595419763894704
-0.4804173693125051	-0.2651158738554363
-0.4803563341562551	-0.23170110606336597
-0.4802952990000051	-0.19603024213273496
-0.4802342638437551	-0.15844533252864212
-0.4801732286875051	-0.11930682661151622
-0.4801121935312551	-0.07899021415963657
-0.4800511583750051	-0.03788237816730437
-0.4799901232187551	0.0036220399785462445
-0.4799290880625051	0.04512439916750965
-0.4798680529062551	0.086225917692075
-0.4798070177500051	0.12653139808976338
-0.4797459825937551	0.16565307616797117
-0.4796849474375051	0.20321426627729172
-0.4796239122812551	0.2388529978593513
-0.4795628771250051	0.2722254724069681
-0.4795018419687551	0.3030093318054956
-0.4794408068125051	0.33090680909122966
-0.4793797716562551	0.35564747888413584
-0.4793187365000051	0.37699100105121586
-0.4792577013437551	0.3947293052800328
-0.4791966661875051	0.40868861844818094
-0.4791356310312551	0.4187312767417955
-0.4790745958750051	0.4247568418056248
-0.4790135607187551	0.42670328649967976
-0.4789525255625051	0.4245475049585794
-0.4788914904062551	0.4183055561340882
-0.4788304552500051	0.4080326236145077
-0.4787694200937551	0.39382239301549193
-0.4787083849375051	0.3758063003501263
-0.4786473497812551	0.35415222426909504
-0.4785863146250051	0.32906293223583327
-0.4785252794687551	0.30077419899537766
-0.4784642443125051	0.2695525286646082
-0.4784032091562551	0.2356926626858639
-0.4783421740000051	0.19951480115734493
-0.4782811388437551	0.16136151139197794
-0.4782201036875051	0.12159452426106486
-0.4781590685312551	0.08059129768167048
-0.4780980333750051	0.03874135863997497
-0.4780369982187551	-0.003557312873830646
-0.4779759630625051	-0.04590215400427407
-0.4779149279062551	-0.08788981246221168
-0.4778538927500051	-0.12912000199357207
-0.4777928575937551	-0.16919936740173144
-0.4777318224375051	-0.20774514855113843
-0.4776707872812551	-0.24438897169099924
-0.4776097521250051	-0.27878025281843943
-0.4775487169687551	-0.3105896175152078
-0.4774876818125051	-0.3395120731179611
-0.4774266466562551	-0.3652698568395123
-0.4773656115000051	-0.3876152341486758
-0.4773045763437551	-0.40633273403043807
-0.4772435411875051	-0.42124134827552634
-0.4771825060312551	-0.43219621866217606
-0.4771214708750051	-0.43909003744302844
-0.4770604357187551	-0.44185416272136535
-0.4769994005625051	-0.44045919414462253
-0.4769383654062551	-0.4349153775404304
-0.4768773302500051	-0.4252724646406642
-0.4768162950937551	-0.4116192930735982
-0.4767552599375051	-0.3940829568468446
-0.4766942247812551	-0.37282760184437114
-0.4766331896250051	-0.3480529013450632
-0.4765721544687551	-0.31999216522912177
-0.4765111193125051	-0.28891010152488733
-0.4764500841562551	-0.255100362136249
-0.4763890490000051	-0.218882697761245
-0.4763280138437551	-0.18059995468691303
-0.4762669786875051	-0.14061482275991732
-0.4762059435312551	-0.09930629756181525
-0.4761449083750051	-0.057066231946393146
-0.4760838732187551	-0.014295403109051962
-0.4760228380625051	0.028600167632254973
-0.4759618029062551	0.07121312147973258
-0.4759007677500051	0.11313871518678063
-0.4758397325937551	0.1539786053067638
-0.4757786974375051	0.19334473690612192
-0.4757176622812551	0.23086295917985797
-0.4756566271250051	0.26617673349525084
-0.4755955919687551	0.29895042837213104
-0.4755345568125051	0.32887261635951864
-0.4754735216562551	0.3556590382397741
-0.4754124865000051	0.37905529543799554
-0.4753514513437551	0.3988393889499122
-0.4752904161875051	0.41482373047919796
-0.4752293810312551	0.4268570520375896
-0.4751683458750051	0.43482583310453765
-0.4751073107187551	0.43865536360298185
-0.4750462755625051	0.43831053825764404
-0.4749852404062551	0.4337961568278643
-0.4749242052500051	0.42515690341167894
-0.4748631700937551	0.4124769540493051
-0.4748021349375051	0.3958791383166596
-0.4747410997812551	0.37552383263571565
-0.4746800646250051	0.35160737414491855
-0.4746190294687551	0.3243602339788899
-0.4745579943125051	0.29404481889844786
-0.4744969591562551	0.2609529095996357
-0.4744359240000051	0.22540296326832454
-0.4743748888437551	0.1877369765928056
-0.4743138536875051	0.14831727613963008
-0.4742528185312551	0.10752300365937148
-0.4741917833750051	0.06574652958706899
-0.4741307482187551	0.023389647250095996
-0.4740697130625051	-0.019140294187223343
-0.4740086779062551	-0.06143418922065843
-0.4739476427500051	-0.10308528251654939
-0.4738866075937551	-0.14369290577024782
-0.4738255724375051	-0.1828664387264274
-0.4737645372812551	-0.2202290435597941
-0.4737035021250051	-0.2554212126093986
-0.4736424669687551	-0.28810439646185054
-0.4735814318125051	-0.317964076511204
-0.4735203966562551	-0.34471292507507995
-0.4734593615000051	-0.36809354893557394
-0.4733983263437551	-0.3878809209578823
-0.4733372911875051	-0.40388466781834276
-0.4732762560312551	-0.41595078632448457
-0.4732152208750051	-0.4239632299560865
-0.4731541857187551	-0.42784501234632605
-0.4730931505625051	-0.4275589398151453
-0.4730321154062551	-0.42310803749456
-0.4729710802500051	-0.41453546595916474
-0.4729100450937551	-0.401924196031347
-0.4728490099375051	-0.3853961672180818
-0.4727879747812551	-0.36511115091470964
-0.4727269396250051	-0.3412652458287349
-0.4726659044687551	-0.3140889550175608
-0.4726048693125051	-0.2838450509131366
-0.4725438341562551	-0.250825966175284
-0.4724827990000051	-0.21535108059612534
-0.4724217638437551	-0.177763589873614
-0.4723607286875051	-0.13842720874520045
-0.4722996935312551	-0.09772277637067732
-0.4722386583750051	-0.056044376929675656
-0.4721776232187551	-0.013795791384174567
-0.4721165880625051	0.02861353408979947
-0.4720555529062551	0.070772483653453
-0.4719945177500051	0.11227201841050662
-0.4719334825937551	0.15270940604513736
-0.4718724474375051	0.19169190337851386
-0.4718114122812551	0.22884060436122666
-0.4717503771250051	0.26379419213630706
-0.4716893419687551	0.29621225929619427
-0.4716283068125051	0.3257788174445344
-0.4715672716562551	0.35220519482886703
-0.4715062365000051	0.37523288161551094
-0.4714452013437551	0.3946361383571063
-0.4713841661875051	0.4102240143297332
-0.4713231310312551	0.42184240217167773
-0.4712620958750051	0.4293754237102217
-0.4712010607187551	0.43274659116319325
-0.4711400255625051	0.43191963886686274
-0.4710789904062551	0.4268987962396395
-0.4710179552500051	0.4177288707764545
-0.4709569200937551	0.40449476639230164
-0.4708958849375051	0.3873207337247955
-0.4708348497812551	0.3663691816770078
-0.4707738146250051	0.34183911764701
-0.4707127794687551	0.3139642996663121
-0.4706517443125051	0.28301094315083114
-0.4705907091562551	0.2492751992893816
-0.4705296740000051	0.21308032029171514
-0.4704686388437551	0.17477354988076846
-0.4704076036875051	0.13472277354904807
-0.4703465685312551	0.09331300626874602
-0.4702855333750051	0.050942660890890674
-0.4702244982187551	0.008019716258395579
-0.4701634630625051	-0.035042214807051705
-0.4701024279062551	-0.0778278735469729
-0.4700413927500051	-0.1199243573248452
-0.4699803575937551	-0.16092514451599232
-0.4699193224375051	-0.2004339647315548
-0.4698582872812551	-0.23806871119275166
-0.4697972521250051	-0.2734650525309695
-0.4697362169687551	-0.3062800359079066
-0.4696751818125051	-0.33619540040043183
-0.4696141466562551	-0.3629205953103666
