Time	Frequency
-0.5000432071562386	-0.289305694042381
-0.4999821719999886	-0.30682081949313167
-0.4999211368437386	-0.32237703806431606
-0.4998601016874886	-0.3358759114561572
-0.4997990665312386	-0.34723225302405936
-0.4997380313749886	-0.3563746167019701
-0.4996769962187386	-0.36324577551411763
-0.4996159610624886	-0.3678031264021247
-0.4995549259062386	-0.37001890334057025
-0.4994938907499886	-0.369880447932179
-0.4994328555937386	-0.3673901886207112
-0.4993718204374886	-0.3625657564244948
-0.4993107852812386	-0.35543973137411056
-0.4992497501249886	-0.3460595881730144
-0.4991887149687386	-0.33448724684664616
-0.4991276798124886	-0.32079880846639314
-0.4990666446562386	-0.3050839630042363
-0.4990056094999886	-0.2874454877794327
-0.4989445743437386	-0.26799853863770984
-0.4988835391874886	-0.2468699492529812
-0.4988225040312386	-0.224197382029564
-0.4987614688749886	-0.2001284590679845
-0.4987004337187386	-0.174819814373467
-0.4986393985624886	-0.14843606341354926
-0.4985783634062386	-0.12114878253664654
-0.4985173282499886	-0.09313534279864354
-0.4984562930937386	-0.06457783085901395
-0.4983952579374886	-0.03566180972988402
-0.4983342227812386	-0.006575181868987061
-0.4982731876249886	0.022493098527360474
-0.4982121524687386	0.05135416297789368
-0.4981511173124886	0.07982052403444699
-0.4980900821562386	0.10770724902481202
-0.4980290469999886	0.1348331663780746
-0.4979680118437386	0.161022049995944
-0.4979069766874886	0.1861037531749697
-0.4978459415312386	0.2099152962244294
-0.4977849063749886	0.2323019730403187
-0.4977238712187386	0.2531182958713435
-0.4976628360624886	0.27222898391365086
-0.4976018009062386	0.2895098346441305
-0.4975407657499886	0.3048485095890515
-0.4974797305937386	0.3181453116413747
-0.4974186954374886	0.32931378495357705
-0.4973576602812386	0.3382813237193834
-0.4972966251249886	0.34498962253240123
-0.4972355899687386	0.349395065323695
-0.4971745548124886	0.3514690279710568
-0.4971135196562386	0.35119804693424206
-0.4970524844999886	0.3485839321604316
-0.4969914493437386	0.34364375471721453
-0.4969304141874886	0.3364097362270933
-0.4968693790312386	0.3269290647059153
-0.4968083438749886	0.3152635682321343
-0.4967473087187386	0.30148934686967555
-0.4966862735624886	0.2856962669443753
-0.4966252384062386	0.26798739161920376
-0.4965642032499886	0.24847831630480702
-0.4965031680937386	0.22729642006887443
-0.4964421329374886	0.20458005796961562
-0.4963810977812386	0.18047764006652917
-0.4963200626249886	0.15514670976548264
-0.4962590274687386	0.12875288871776147
-0.4961979923124886	0.10146882265368469
-0.4961369571562386	0.07347307965255062
-0.4960759219999886	0.04494893142065798
-0.4960148868437386	0.016083274879441074
-0.4959538516874886	-0.012934732014730025
-0.4958928165312386	-0.04191473721398563
-0.4958317813749886	-0.07066656062098284
-0.4957707462187386	-0.09900136021287656
-0.4957097110624886	-0.1267328635545478
-0.4956486759062386	-0.15367864419274668
-0.4955876407499886	-0.17966120452504572
-0.4955266055937386	-0.2045092428966248
-0.4954655704374886	-0.22805867173040342
-0.4954045352812386	-0.2501537878944616
-0.4953435001249886	-0.2706481856960574
-0.4952824649687386	-0.28940582682937294
-0.4952214298124886	-0.30630181700599546
-0.4951603946562386	-0.32122333064550007
-0.4950993594999886	-0.33407027629699704
-0.4950383243437386	-0.3447559892054742
-0.4949772891874886	-0.35320781810535196
-0.4949162540312386	-0.35936755259110825
-0.4948552188749886	-0.36319189386821327
-0.4947941837187386	-0.36465265593139246
-0.4947331485624886	-0.36373703859787043
-0.4946721134062386	-0.3604476625399587
-0.4946110782499886	-0.3548026084721712
-0.4945500430937386	-0.34683527107682743
-0.4944890079374886	-0.33659418646353007
-0.4944279727812386	-0.32414270150359886
-0.4943669376249886	-0.30955859255769536
-0.4943059024687386	-0.2929335522739042
-0.4942448673124886	-0.2743726256532817
-0.4941838321562386	-0.25399350160872974
-0.4941227969999886	-0.23192580601851007
-0.4940617618437386	-0.2083102182690466
-0.4940007266874886	-0.1832975957896722
-0.4939396915312386	-0.15704800550563772
-0.4938786563749886	-0.12972963404466892
-0.4938176212187386	-0.10151781052507064
-0.4937565860624886	-0.07259372359031112
-0.4936955509062386	-0.043143417930927755
-0.4936345157499886	-0.013356412831048551
-0.4935734805937386	0.016575378460794366
-0.4935124454374886	0.0464589729323505
-0.4934514102812386	0.07610157703757636
-0.4933903751249886	0.10531176238827754
-0.4933293399687386	0.13390083992534643
-0.4932683048124886	0.16168392964115652
-0.4932072696562386	0.18848132434301818
-0.4931462344999886	0.2141195082330586
-0.4930851993437386	0.23843243084953825
-0.4930241641874886	0.2612624707239831
-0.4929631290312386	0.2824615446887574
-0.4929020938749886	0.30189204113503765
-0.4928410587187386	0.3194277238741968
-0.4927800235624886	0.33495456313281247
-0.4927189884062386	0.3483714791533462
-0.4926579532499886	0.359591022251706
-0.4925969180937386	0.36853990936063014
-0.4925358829374886	0.3751595715323563
-0.4924748477812386	0.37940646293766134
-0.4924138126249886	0.38125243687906984
-0.4923527774687386	0.3806848537287333
-0.4922917423124886	0.37770674644203645
-0.4922307071562386	0.3723367390751781
-0.4921696719999886	0.36460899990486484
-0.4921086368437386	0.3545729623821131
-0.4920476016874886	0.3422930703684645
-0.4919865665312386	0.3278483121106416
-0.4919255313749886	0.3113317541135827
-0.4918644962187386	0.2928499235589435
-0.4918034610624886	0.27252210495602447
-0.4917424259062386	0.2504796249901508
-0.4916813907499886	0.2268649109801284
-0.4916203555937386	0.20183067423928855
-0.4915593204374886	0.17553883082773672
-0.4914982852812386	0.14815950474460413
-0.4914372501249886	0.1198699024232114
-0.4913762149687386	0.0908531451419507
-0.4913151798124886	0.061297141004686695
-0.4912541446562386	0.03139326569609296
-0.4911931094999886	0.0013352044071441992
-0.4911320743437386	-0.028682349172390875
-0.4910710391874886	-0.0584649821248783
-0.4910100040312386	-0.0878197601381891
-0.4909489688749886	-0.11655658596138001
-0.4908879337187386	-0.14448934165928112
-0.4908268985624886	-0.17143716666223172
-0.4907658634062386	-0.1972256279487181
-0.4907048282499886	-0.22168782810681648
-0.4906437930937386	-0.24466554968267668
-0.4905827579374886	-0.2660102470333422
-0.4905217227812386	-0.28558403790293396
-0.4904606876249886	-0.3032606085177122
-0.4903996524687386	-0.31892602529678427
-0.4903386173124886	-0.3324795203829118
-0.4902775821562386	-0.34383409217901073
-0.4902165469999886	-0.35291714765595966
-0.4901555118437386	-0.35967093039832676
-0.4900944766874886	-0.3640529203305806
-0.4900334415312386	-0.36603612272519304
-0.4899724063749886	-0.36560923285134483
-0.4899113712187386	-0.3627767317884128
-0.4898503360624886	-0.3575588433490987
-0.4897893009062386	-0.34999142683053386
-0.4897282657499886	-0.34012572388188056
-0.4896672305937386	-0.32802805068190816
-0.4896061954374886	-0.3137793441174497
-0.4895451602812386	-0.297474667981739
-0.4894841251249886	-0.2792225416605666
-0.4894230899687386	-0.25914431001565763
-0.4893620548124886	-0.237373258785036
-0.4893010196562386	-0.21405383653575583
-0.4892399844999886	-0.1893406444128832
-0.4891789493437386	-0.16339745137846376
-0.4891179141874886	-0.1363961333188516
-0.4890568790312386	-0.10851551206197689
-0.4889958438749886	-0.07994023329637703
-0.4889348087187386	-0.05085951498710811
-0.4888737735624886	-0.02146593400817455
-0.4888127384062386	0.008045869156546539
-0.4887517032499886	0.03748040744547522
-0.4886906680937386	0.06664271102211321
-0.4886296329374886	0.09533955107475614
-0.4885685977812386	0.12338070949597961
-0.4885075626249886	0.15058026265340557
-0.4884465274687386	0.1767577915811529
-0.4883854923124886	0.20173954865623958
-0.4883244571562386	0.22535964743595094
-0.4882634219999886	0.2474610912392578
-0.4882023868437386	0.2678968859953071
-0.4881413516874886	0.286530942084905
-0.4880803165312386	0.3032390271701523
-0.4880192813749886	0.3179095549477542
-0.4879582462187386	0.33044432611332436
-0.4878972110624886	0.34075922051979896
-0.4878361759062386	0.348784695048626
-0.4877751407499886	0.3544663081552708
-0.4877141055937386	0.357765038638362
-0.4876530704374886	0.3586575885917218
-0.4875920352812386	0.3571365088833744
-0.4875310001249886	0.3532102955004212
-0.4874699649687386	0.3469033025181029
-0.4874089298124886	0.3382556268589498
-0.4873478946562386	0.32732282305363025
-0.4872868594999886	0.3141755702429219
-0.4872258243437386	0.29889919689963174
-0.4871647891874886	0.2815931447991344
-0.4871037540312386	0.26237029985170446
-0.4870427188749886	0.24135629614499546
-0.4869816837187386	0.2186886357588244
-0.4869206485624886	0.1945158634429253
-0.4868596134062386	0.1689965302279087
-0.4867985782499886	0.14229820113690653
-0.4867375430937386	0.11459633593371646
-0.4866765079374886	0.08607313222804452
-0.4866154727812386	0.05691636459469596
-0.4865544376249886	0.027318096648169515
-0.4864934024687386	-0.0025265060839528963
-0.4864323673124886	-0.032420556474529114
-0.4863713321562386	-0.06216663136357817
-0.4863102969999886	-0.091568169270922
-0.4862492618437386	-0.12043069925922041
-0.4861882266874886	-0.148563155136379
-0.4861271915312386	-0.17577912409866064
-0.4860661563749886	-0.20189808713331778
-0.4860051212187386	-0.22674658436087175
-0.4859440860624886	-0.25015940957076443
-0.4858830509062386	-0.27198066174075175
-0.4858220157499886	-0.29206478841676553
-0.4857609805937386	-0.3102775604565839
-0.4856999454374886	-0.3264969687729069
-0.4856389102812386	-0.3406140028884816
-0.4855778751249886	-0.35253342039875524
-0.4855168399687386	-0.3621743520011692
-0.4854558048124886	-0.3694708591853029
-0.4853947696562386	-0.3743723726905658
-0.4853337344999886	-0.3768440355757875
-0.4852726993437386	-0.37686695335689724
-0.4852116641874886	-0.3744383014240637
-0.4851506290312386	-0.3695714036694437
-0.4850895938749886	-0.3622955880108334
-0.4850285587187386	-0.35265608138742827
-0.4849675235624886	-0.3407136404201005
-0.4849064884062386	-0.326544248517108
-0.4848454532499886	-0.31023853003746316
-0.4847844180937386	-0.2919012653145581
-0.4847233829374886	-0.2716506126815344
-0.4846623477812386	-0.2496174101642062
-0.4846013126249886	-0.2259442922602168
-0.4845402774687386	-0.20078474886468808
-0.4844792423124886	-0.17430215360403653
-0.4844182071562386	-0.1466686459022413
-0.4843571719999886	-0.11806407102596987
-0.4842961368437386	-0.08867472149330347
-0.4842351016874886	-0.058692165240001815
-0.4841740665312386	-0.02831199424140773
-0.4841130313749886	0.0022675121715571866
-0.4840519962187386	0.03284663317987929
-0.4839909610624886	0.0632255767769553
-0.4839299259062386	0.09320574371447364
-0.4838688907499886	0.12259106074595458
-0.4838078555937386	0.15118930801824187
-0.4837468204374886	0.17881330004534962
-0.4836857852812386	0.20528222309538222
-0.4836247501249886	0.23042275228619502
-0.4835637149687386	0.2540702409086238
-0.4835026798124886	0.2760697889168381
-0.4834416446562386	0.296277284935338
-0.4833806094999886	0.3145603416071772
-0.4833195743437386	0.3307991970162244
-0.4832585391874886	0.34488748883185366
-0.4831975040312386	0.35673298358686484
-0.4831364688749886	0.3662581590953066
-0.4830754337187386	0.37340076768371766
-0.4830143985624886	0.37811420737129614
-0.4829533634062386	0.3803678725553427
-0.4828923282499886	0.38014733705731074
-0.4828312930937386	0.37745447311004693
-0.4827702579374886	0.37230743874057154
-0.4827092227812386	0.3647405598324867
-0.4826481876249886	0.35480412602756645
-0.4825871524687386	0.3425640391992542
-0.4825261173124886	0.3281014193783925
-0.4824650821562386	0.3115120327795646
-0.4824040469999886	0.29290570818803263
-0.4823430118437386	0.27240557894281514
-0.4822819766874886	0.25014730226736936
-0.4822209415312386	0.2262781482588776
-0.4821599063749886	0.20095604436260184
-0.4820988712187386	0.17434852158883654
-0.4820378360624886	0.14663162650441378
-0.4819768009062386	0.11798873820432869
-0.4819157657499886	0.08860939237530323
-0.4818547305937386	0.058687982329641675
-0.4817936954374886	0.028422510308467725
-0.4817326602812386	-0.0019867183259861857
-0.4816716251249886	-0.03233845697573646
-0.4816105899687386	-0.06243181661170446
-0.4815495548124886	-0.09206760136657903
-0.4814885196562386	-0.12104964931304722
-0.4814274844999886	-0.14918608223696103
-0.4813664493437386	-0.17629066793675022
-0.4813054141874886	-0.20218395441426157
-0.4812443790312386	-0.2266945239073121
-0.4811833438749886	-0.24966012221381612
-0.4811223087187386	-0.2709287292768744
-0.4810612735624886	-0.29035956622386094
-0.4810002384062386	-0.30782404813726766
-0.4809392032499886	-0.3232066398644907
-0.4808781680937386	-0.3364055950496544
-0.4808171329374886	-0.3473336979301263
-0.4807560977812386	-0.3559187729786766
-0.4806950626249886	-0.3621042480009873
-0.4806340274687386	-0.365849454050543
-0.4805729923124886	-0.3671299821673182
-0.4805119571562386	-0.3659377749536786
-0.4804509219999886	-0.36228125660742155
-0.4803898868437386	-0.3561852199962382
-0.4803288516874886	-0.34769072503133686
-0.4802678165312386	-0.3368547801484925
-0.4802067813749886	-0.3237500175196313
-0.4801457462187386	-0.30846417634432066
-0.4800847110624886	-0.2910995513357584
-0.4800236759062386	-0.2717723096667057
-0.4799626407499886	-0.2506117200934894
-0.4799016055937386	-0.2277593165237544
-0.4798405704374886	-0.2033679232783825
-0.4797795352812386	-0.17760070552217472
-0.4797185001249886	-0.15063000409649568
-0.4796574649687386	-0.12263628951915945
-0.4795964298124886	-0.09380687559590682
-0.4795353946562386	-0.06433474610492125
-0.4794743594999886	-0.03441720986894387
-0.4794133243437386	-0.00425465913518438
-0.4793522891874886	0.025950845433494272
-0.4792912540312386	0.055996834435160105
-0.4792302188749886	0.08568183562499802
-0.4791691837187386	0.11480670807878773
-0.4791081485624886	0.14317594285198432
-0.4790471134062386	0.17059900099531658
-0.4789860782499886	0.19689155352093732
-0.4789250430937386	0.22187674613001157
-0.4788640079374886	0.24538634944692087
-0.4788029727812386	0.26726191362087304
-0.4787419376249886	0.28735579418120083
-0.4786809024687386	0.30553218719604974
-0.4786198673124886	0.32166800021032826
-0.4785588321562386	0.3356537033513369
-0.4784977969999886	0.3473940558994952
-0.4784367618437386	0.3568087561067859
-0.4783757266874886	0.36383298010033405
-0.4783146915312386	0.36841782886164615
-0.4782536563749886	0.37053065123599627
-0.4781926212187386	0.37015529238167066
-0.4781315860624886	0.3672921836240481
-0.4780705509062386	0.36195837883175697
-0.4780095157499886	0.354187423180937
-0.4779484805937386	0.34402916238313913
-0.4778874454374886	0.3315494029916428
-0.4778264102812386	0.31682949565839397
-0.4777653751249886	0.2999657901420116
-0.4777043399687386	0.2810690181918214
-0.4776433048124886	0.2602635424332421
-0.4775822696562386	0.23768655996280688
-0.4775212344999886	0.21348716962175465
-0.4774601993437386	0.1878254079028231
-0.4773991641874886	0.1608711746990526
-0.4773381290312386	0.1328031077317415
-0.4772770938749886	0.10380739818665997
-0.4772160587187386	0.07407655682389157
-0.4771550235624886	0.043808133611719695
-0.4770939884062386	0.013203386280044627
-0.4770329532499886	-0.017534022664685425
-0.4769719180937386	-0.048199453313401086
-0.4769108829374886	-0.07858852565785472
-0.4768498477812386	-0.10849866638871279
-0.4767888126249886	-0.13773025640465875
-0.4767277774687386	-0.16608815941805433
-0.4766667423124886	-0.19338286775364769
-0.4766057071562386	-0.2194318654875002
-0.4765446719999886	-0.2440608307888587
-0.4764836368437386	-0.2671047651432303
-0.4764226016874886	-0.2884091749010267
-0.4763615665312386	-0.3078310093716751
-0.4763005313749886	-0.3252397442966989
-0.4762394962187386	-0.34051812102611634
-0.4761784610624886	-0.35356308417193505
-0.4761174259062386	-0.36428633413060746
-0.4760563907499886	-0.37261505257915084
-0.4759953555937386	-0.37849230222598884
-0.4759343204374886	-0.3818774752341425
-0.4758732852812386	-0.3827465444414304
-0.4758122501249886	-0.38109224217790566
-0.4757512149687386	-0.3769241236845756
-0.4756901798124886	-0.37026849989642546
-0.4756291446562386	-0.3611682881340784
-0.4755681094999886	-0.3496827165045586
-0.4755070743437386	-0.33588695808446795
-0.4754460391874886	-0.31987161688680177
-0.4753850040312386	-0.30174214417205575
-0.4753239688749886	-0.28161814791873446
-0.4752629337187386	-0.25963257716761073
-0.4752018985624886	-0.23593087186739095
-0.4751408634062386	-0.21066997431176074
-0.4750798282499886	-0.18401730146261627
-0.4750187930937386	-0.15614962753110337
-0.4749577579374886	-0.12725188415619082
-0.4748967227812386	-0.09751599381256816
-0.4748356876249886	-0.06713950155319925
-0.4747746524687386	-0.03632434105896474
-0.4747136173124886	-0.005275423208797648
-0.4746525821562386	0.025800697939841025
-0.4745915469999886	0.05669720280637662
-0.4745305118437386	0.08720840786724153
-0.4744694766874886	0.11713114431084426
-0.4744084415312386	0.14626608061274854
-0.4743474063749886	0.17441910999829388
-0.4742863712187386	0.20140261269747076
-0.4742253360624886	0.22703672277984133
-0.4741643009062386	0.2511505553192695
-0.4741032657499886	0.273583316476872
-0.4740422305937386	0.294185428147885
-0.4739811954374886	0.31281948775957275
-0.4739201602812386	0.3293612422130165
-0.4738591251249886	0.34370038116891133
-0.4737980899687386	0.35574130769675727
-0.4737370548124886	0.36540378936793966
-0.4736760196562386	0.37262346659711454
-0.4736149844999886	0.377352346274332
-0.4735539493437386	0.37955906997005245
-0.4734929141874886	0.379229183003262
-0.4734318790312386	0.3763652066114331
-0.4733708438749886	0.37098663152909683
-0.4733098087187386	0.3631298171625878
-0.4732487735624886	0.3528477167753236
-0.4731877384062386	0.34020957586147604
-0.4731267032499886	0.3253004172794226
-0.4730656680937386	0.3082205472638591
-0.4730046329374886	0.2890848142424264
-0.4729435977812386	0.26802190996520464
-0.4728825626249886	0.2451734649571346
-0.4728215274687386	0.22069312393007492
-0.4727604923124886	0.1947455367411906
-0.4726994571562386	0.1675051909458049
-0.4726384219999886	0.1391553569033111
-0.4725773868437386	0.10988672072379119
-0.4725163516874886	0.07989623772266437
-0.4724553165312386	0.04938574458582615
-0.4723942813749886	0.018560578764955774
-0.4723332462187386	-0.012371711080943058
-0.4722722110624886	-0.04320284656141252
-0.4722111759062386	-0.07372517007638278
-0.4721501407499886	-0.10373304874622453
-0.4720891055937386	-0.13302428294983099
-0.4720280704374886	-0.16140141772112856
-0.4719670352812386	-0.18867312400034614
-0.4719060001249886	-0.21465546275022293
-0.4718449649687386	-0.23917311223339519
-0.4717839298124886	-0.2620606008179166
-0.4717228946562386	-0.28316334593795967
-0.4716618594999886	-0.30233878579800644
-0.4716008243437386	-0.3194572818848771
-0.4715397891874886	-0.3344030159339563
-0.4714787540312386	-0.34707478616673904
-0.4714177188749886	-0.35738668506045423
-0.4713566837187386	-0.3652686797296066
-0.4712956485624886	-0.3706671079240085
-0.4712346134062386	-0.37354502347256385
-0.4711735782499886	-0.3738824774148535
-0.4711125430937386	-0.37167664068160017
-0.4710515079374886	-0.3669418406495507
-0.4709904727812386	-0.359709475663873
-0.4709294376249886	-0.35002779567139247
-0.4708684024687386	-0.3379616147298884
-0.4708073673124886	-0.32359183523835916
-0.4707463321562386	-0.30701497495357555
-0.4706852969999886	-0.2883424547202929
-0.4706242618437386	-0.2676999085996327
-0.4705632266874886	-0.2452263091942675
-0.4705021915312386	-0.221073069980291
-0.4704411563749886	-0.1954029796720458
-0.4703801212187386	-0.16838918018448842
-0.4703190860624886	-0.1402139336296482
-0.4702580509062386	-0.1110674380907194
-0.4701970157499886	-0.081146565067931
-0.4701359805937386	-0.050653450289313964
-0.4700749454374886	-0.019794265916712073
-0.4700139102812386	0.011222308594499783
-0.4699528751249886	0.04218638383021427
-0.4698918399687386	0.07288834558048937
-0.4698308048124886	0.10312024804132879
-0.4697697696562386	0.13267716977692265
