Time	Frequency
-0.5000122278125048	1.0842299968137786e-25
-0.49995119265625476	1.5413115551122842e-25
-0.49989015750000476	1.9888307201729547e-25
-0.49982912234375476	2.423812811155635e-25
-0.49976808718750476	2.8433633808679375e-25
-0.49970705203125476	3.2446881051276376e-25
-0.49964601687500476	3.6251099096283264e-25
-0.49958498171875476	3.9820878676306965e-25
-0.49952394656250476	4.313233530882991e-25
-0.49946291140625476	4.6163261426310415e-25
-0.49940187625000476	4.88932882616812e-25
-0.49934084109375476	5.130400503650693e-25
-0.49927980593750476	5.337909299692202e-25
-0.49921877078125476	5.510442640048352e-25
-0.49915773562500476	5.646817466203223e-25
-0.49909670046875476	5.7460874545069795e-25
-0.49903566531250476	5.80754965228507e-25
-0.49897463015625476	5.830749886152479e-25
-0.49891359500000476	5.815484414974866e-25
-0.49885255984375476	5.761803627948814e-25
-0.49879152468750476	5.670009419842256e-25
-0.49873048953125476	5.540655805498284e-25
-0.49866945437500476	5.374543390491713e-25
-0.49860841921875476	5.172715828103881e-25
-0.49854738406250476	4.936452168541487e-25
-0.49848634890625476	4.667258998447498e-25
-0.49842531375000476	4.366860896100768e-25
-0.49836427859375476	4.03718861125821e-25
-0.49830324343750476	3.6803673803439896e-25
-0.49824220828125476	3.2987021449020123e-25
-0.49818117312500476	2.8946635495904425e-25
-0.49812013796875476	2.470870773597462e-25
-0.49805910281250476	2.0300754261215956e-25
-0.49799806765625476	1.5751424665857268e-25
-0.49793703250000476	1.109032856008257e-25
-0.49787599734375476	6.347823885557499e-26
-0.49781496218750476	1.5548360457133507e-26
-0.49775392703125476	-3.257357948210903e-26
-0.49769289187500476	-8.05733006542371e-26
-0.49763185671875476	-1.2813706232813649e-25
-0.49757082156250476	-1.7495377017276303e-25
-0.49750978640625476	-2.20716964880291e-25
-0.49744875125000476	-2.6512689463855693e-25
-0.49738771609375476	-3.0789245858275446e-25
-0.49732668093750476	-3.4873313530395222e-25
-0.49726564578125476	-3.8738080784829147e-25
-0.49720461062500476	-4.235816018800776e-25
-0.49714357546875476	-4.570974649904616e-25
-0.49708254031250476	-4.877078399962109e-25
-0.49702150515625476	-5.152110514361561e-25
-0.49696047000000476	-5.394256705347464e-25
-0.49689943484375476	-5.601917371748619e-25
-0.49683839968750476	-5.773717850218997e-25
-0.49677736453125476	-5.908517931197658e-25
-0.49671632937500476	-6.0054192210408255e-25
-0.49665529421875476	-6.063771388911219e-25
-0.49659425906250476	-6.083176448848206e-25
-0.49653322390625476	-6.063491503955004e-25
-0.49647218875000476	-6.004829930788745e-25
-0.49641115359375476	-5.90756061213015e-25
-0.49635011843750476	-5.772305788416987e-25
-0.49628908328125476	-5.5999369178993355e-25
-0.49622804812500476	-5.391569271210977e-25
-0.49616701296875476	-5.148554450990492e-25
-0.49610597781250476	-4.872471954418732e-25
-0.49604494265625476	-4.565118410508554e-25
-0.49598390750000476	-4.228496335987391e-25
-0.49592287234375476	-3.8648007208942744e-25
-0.49586183718750476	-3.4764047550824567e-25
-0.49580080203125476	-3.0658443969284386e-25
-0.49573976687500476	-2.6358013167457287e-25
-0.49567873171875476	-2.189086226540407e-25
-0.49561769656250476	-1.728618920277828e-25
-0.49555666140625476	-1.2574107560518733e-25
-0.49549562625000476	-7.785436671176113e-26
-0.49543459109375476	-2.9515023044733723e-26
-0.49537355593750476	1.8960667759845555e-26
-0.49531252078125476	6.725553223775476e-26
-0.49525148562500476	1.150535111210981e-25
-0.49519045046875476	1.6204187418751373e-25
-0.49512941531250476	2.0791312519027817e-25
-0.49506838015625476	2.5236719441969473e-25
-0.49500734500000476	2.951132641324823e-25
-0.49494630984375476	3.3587180998334023e-25
-0.49488527468750476	3.743764297767451e-25
-0.49482423953125476	4.103754873750924e-25
-0.49476320437500476	4.436339952010135e-25
-0.49470216921875476	4.739349357593645e-25
-0.49464113406250476	5.010808856674551e-25
-0.49458009890625476	5.248952136663834e-25
-0.49451906375000476	5.452232931852762e-25
-0.49445802859375476	5.619335478100085e-25
-0.49439699343750476	5.749182669929483e-25
-0.49433595828125476	5.840944066160724e-25
-0.49427492312500476	5.894040611322777e-25
-0.49421388796875476	5.908149230276275e-25
-0.49415285281250476	5.8832044733932775e-25
-0.49409181765625476	5.819399442183949e-25
-0.49403078250000476	5.717184282548892e-25
-0.49396974734375476	5.577263444437661e-25
-0.49390871218750476	5.4005909463696815e-25
-0.49384767703125476	5.188364311075803e-25
-0.49378664187500476	4.942016444795341e-25
-0.49372560671875476	4.663206414142509e-25
-0.49366457156250476	4.353808321574591e-25
-0.49360353640625476	4.0158993246960763e-25
-0.49354250125000476	3.651745251872588e-25
-0.49348146609375476	3.263786248043477e-25
-0.49342043093750476	2.854620594743877e-25
-0.49335939578125476	2.426986748970749e-25
-0.49329836062500476	1.9837465933875123e-25
-0.49323732546875476	1.5278647103609221e-25
-0.49317629031250476	1.0623908817613567e-25
-0.49311525515625476	5.904375257252471e-26
-0.49305422000000476	1.1516103882895754e-26
-0.49299318484375476	-3.6026017965832427e-26
-0.49293214968750476	-8.326472077206076e-26
-0.49287111453125476	-1.2988399995136932e-25
-0.49281007937500476	-1.7557206748903566e-25
-0.49274904421875476	-2.2002322325044904e-25
-0.49268800906250476	-2.6294004998153124e-25
-0.49262697390625476	-3.040352555122315e-25
-0.49256593875000476	-3.430337065175228e-25
-0.49250490359375476	-3.796741638724379e-25
-0.49244386843750476	-4.137110907912613e-25
-0.49238283328125476	-4.44916282436533e-25
-0.49232179812500476	-4.730803394712093e-25
-0.49226076296875476	-4.9801416633816575e-25
-0.49219972781250476	-5.195501144126963e-25
-0.49213869265625476	-5.375432336483792e-25
-0.49207765750000476	-5.518721509419327e-25
-0.49201662234375476	-5.624399269178924e-25
-0.49195558718750476	-5.691747292091969e-25
-0.49189455203125476	-5.720302832985755e-25
-0.49183351687500476	-5.709862171451837e-25
-0.49177248171875476	-5.660482163370501e-25
-0.49171144656250476	-5.572479630385307e-25
-0.49165041140625476	-5.446429923657979e-25
-0.49158937625000476	-5.283162619516236e-25
-0.49152834109375476	-5.0837566545938145e-25
-0.49146730593750476	-4.84953291942156e-25
-0.49140627078125476	-4.582045672002767e-25
-0.49134523562500476	-4.283072570738681e-25
-0.49128420046875476	-3.9546022239644153e-25
-0.49122316531250476	-3.598822249704411e-25
-0.49116213015625476	-3.218103475343081e-25
-0.49110109500000476	-2.814985148901947e-25
-0.49104005984375476	-2.3921580262748425e-25
-0.49097902468750476	-1.9524459312948464e-25
-0.49091798953125476	-1.4987876872520356e-25
-0.49085695437500476	-1.0342173432939744e-25
-0.49079591921875476	-5.618438260994489e-26
-0.49073488406250476	-8.483064847621884e-27
-0.49067384890625476	3.9362566515683773e-26
-0.49061281375000476	8.703161726268819e-26
-0.49055177859375476	1.3420416773822922e-25
-0.49049074343750476	1.8056335143124065e-25
-0.49042970828125476	2.2579746958907716e-25
-0.49036867312500476	2.696021350355299e-25
-0.49030763796875476	3.1168220112494493e-25
-0.49024660281250476	3.517538584037486e-25
-0.49018556765625476	3.895464166425321e-25
-0.49012453250000476	4.248042143290489e-25
-0.49006349734375476	4.572882674741476e-25
-0.49000246218750476	4.867779129126261e-25
-0.48994142703125476	5.130722786776858e-25
-0.48988039187500476	5.359916225841472e-25
-0.48981935671875476	5.553785858974229e-25
-0.48975832156250476	5.710992117955508e-25
-0.48969728640625476	5.830438858198342e-25
-0.48963625125000476	5.911280659990253e-25
-0.48957521609375476	5.952928897779145e-25
-0.48951418093750476	5.955055396553691e-25
-0.48945314578125476	5.917595353433423e-25
-0.48939211062500476	5.840747499669129e-25
-0.48933107546875476	5.724973243702532e-25
-0.48927004031250476	5.570993680715988e-25
-0.48920900515625476	5.379784914128573e-25
-0.48914797000000476	5.1525719388083155e-25
-0.48908693484375476	4.890820262454974e-25
-0.48902589968750476	4.596226957432155e-25
-0.48896486453125476	4.270708656814266e-25
-0.48890382937500476	3.9163898346547126e-25
-0.48884279421875476	3.535588018230311e-25
-0.48878175906250476	3.130798950245371e-25
-0.48872072390625476	2.704680070107311e-25
-0.48865968875000476	2.2600325518110603e-25
-0.48859865359375476	1.7997832858181987e-25
-0.48853761843750476	1.3269646546233042e-25
-0.48847658328125476	8.446957359202221e-26
-0.48841554812500476	3.561597576576564e-26
-0.48835451296875476	-1.3541513745933637e-26
-0.48829347781250476	-6.267792737778056e-26
-0.48823244265625476	-1.114681124678072e-25
-0.48817140750000476	-1.5958907516160727e-25
-0.48811037234375476	-2.0672204182634981e-25
-0.48804933718750476	-2.5255453215686925e-25
-0.48798830203125476	-2.9678263517090636e-25
-0.48792726687500476	-3.3911279308357952e-25
-0.48786623171875476	-3.7926399513100916e-25
-0.48780519656250476	-4.169694498047006e-25
-0.48774416140625476	-4.519785733292029e-25
-0.48768312625000476	-4.840584758659172e-25
-0.48762209109375476	-5.12995684068935e-25
-0.48756105593750476	-5.385974610001861e-25
-0.48750002078125476	-5.606931736464008e-25
-0.48743898562500476	-5.791354058390556e-25
-0.48737795046875476	-5.93800953728066e-25
-0.48731691531250476	-6.04591692947547e-25
-0.48725588015625476	-6.114351845111587e-25
-0.48719484500000476	-6.142852532712355e-25
-0.48713380984375476	-6.131222113137601e-25
-0.48707277468750476	-6.079531078615603e-25
-0.48701173953125476	-5.988115828867155e-25
-0.48695070437500476	-5.85757768488774e-25
-0.48688966921875476	-5.688777910895324e-25
-0.48682863406250476	-5.482833084569269e-25
-0.48676759890625476	-5.24110683677264e-25
-0.48670656375000476	-4.965201620937861e-25
-0.48664552859375476	-4.65694769568528e-25
-0.48658449343750476	-4.318390972376464e-25
-0.48652345828125476	-3.951779771424191e-25
-0.48646242312500476	-3.559549471096043e-25
-0.48640138796875476	-3.1443067676005366e-25
-0.48634035281250476	-2.7088118751413487e-25
-0.48627931765625476	-2.2559604490866786e-25
-0.48621828250000476	-1.7887641873996516e-25
-0.48615724734375476	-1.3103307625579676e-25
-0.48609621218750476	-8.238431070219763e-26
-0.48603517703125476	-3.325380895621972e-26
-0.48597414187500476	1.603150391302165e-26
-0.48591310671875476	6.514365430983961e-26
-0.48585207156250476	1.137558029240759e-25
-0.48579103640625476	1.615444483741323e-25
-0.48573000125000476	2.0819157842028434e-25
-0.48566896609375476	2.533868008953164e-25
-0.48560793093750476	2.968294308345092e-25
-0.48554689578125476	3.382305034427907e-25
-0.48548586062500476	3.7731471251372757e-25
-0.48542482546875476	4.13822234608965e-25
-0.48536379031250476	4.475105430581114e-25
-0.48530275515625476	4.78155921137407e-25
-0.48524172000000476	5.055551142750589e-25
-0.48518068484375476	5.295265496233774e-25
-0.48511964968750476	5.499116740305525e-25
-0.48505861453125476	5.665759591163697e-25
-0.48499757937500476	5.794098152197873e-25
-0.48493654421875476	5.8832940390939195e-25
-0.48487550906250476	5.93277065928069e-25
-0.48481447390625476	5.942218874388105e-25
-0.48475343875000476	5.9115975652460435e-25
-0.48469240359375476	5.841135266205891e-25
-0.48463136843750476	5.731327748645781e-25
-0.48457033328125476	5.58293536560432e-25
-0.48450929812500476	5.396977848853727e-25
-0.48444826296875476	5.174727310974318e-25
-0.48438722781250476	4.917700229419816e-25
-0.48432619265625476	4.627646912303821e-25
-0.48426515750000476	4.306539912542859e-25
-0.48420412234375476	3.9565611014974585e-25
-0.48414308718750476	3.58008672994455e-25
-0.48408205203125476	3.1796714753081006e-25
-0.48402101687500476	2.758031821117435e-25
-0.48395998171875476	2.3180271860129723e-25
-0.48389894656250476	1.8626412223077996e-25
-0.48383791140625476	1.3949612995202306e-25
-0.48377687625000476	9.181585424032646e-26
-0.48371584109375476	4.3546554121386846e-26
-0.48365480593750476	-4.984480970877548e-27
-0.48359377078125476	-5.344811126444236e-26
-0.48353273562500476	-1.0151564614719926e-25
-0.48347170046875476	-1.4886097079394718e-25
-0.48341066531250476	-1.9516279706563923e-25
-0.48334963015625476	-2.401068138451575e-25
-0.48328859500000476	-2.833878157097108e-25
-0.48322755984375476	-3.247117554002447e-25
-0.48316652468750476	-3.6379769203683904e-25
-0.48310548953125476	-4.003798321658291e-25
-0.48304445437500476	-4.342091014931394e-25
-0.48298341921875476	-4.650550692981637e-25
-0.48292238406250476	-4.927073380257509e-25
-0.48286134890625476	-5.169770309449344e-25
-0.48280031375000476	-5.376981459551005e-25
-0.48273927859375476	-5.54728516773233e-25
-0.48267824343750476	-5.679510000157422e-25
-0.48261720828125476	-5.772740606127852e-25
-0.48255617312500476	-5.826325969928412e-25
-0.48249513796875476	-5.839882354604612e-25
-0.48243410281250476	-5.813297174606618e-25
-0.48237306765625476	-5.746729194183088e-25
-0.48231203250000476	-5.640607969908019e-25
-0.48225099734375476	-5.495630937729607e-25
-0.48218996218750476	-5.3127588765394805e-25
-0.48212892703125476	-5.0932097043687805e-25
-0.48206789187500476	-4.838450027564336e-25
-0.48200685671875476	-4.550185939845082e-25
-0.48194582156250476	-4.230351136101582e-25
-0.48188478640625476	-3.8810943591165825e-25
-0.48182375125000476	-3.504764416711434e-25
-0.48176271609375476	-3.103895674846519e-25
-0.48170168093750476	-2.6811891966877188e-25
-0.48164064578125476	-2.2394966367271475e-25
-0.48157961062500476	-1.7817994958271718e-25
-0.48151857546875476	-1.3111896333387814e-25
-0.48145754031250476	-8.308489584916676e-26
-0.48139650515625476	-3.4402681754913526e-26
-0.48133547000000476	1.4598060897511693e-26
-0.48127443484375476	6.358535626580066e-26
-0.48121339968750476	1.1222704831146374e-25
-0.48115236453125476	1.6019309655726662e-25
-0.48109132937500476	2.0715775236938374e-25
-0.48103029421875476	2.528018003073778e-25
-0.48096925906250476	2.9681470867657816e-25
-0.48090822390625476	3.3889673246095217e-25
-0.48084718875000476	3.7876094284137635e-25
-0.48078615359375476	4.161351997479562e-25
-0.48072511843750476	4.5076394066843325e-25
-0.48066408328125476	4.824099842123442e-25
-0.48060304812500476	5.108561172475556e-25
-0.48054201296875476	5.359065670647088e-25
-0.48048097781250476	5.573883485217638e-25
-0.48041994265625476	5.751524637431476e-25
-0.48035890750000476	5.890748936563426e-25
-0.48029787234375476	5.990574697577248e-25
-0.48023683718750476	6.050285718169065e-25
-0.48017580203125476	6.069435883384567e-25
-0.48011476687500476	6.047852937037366e-25
-0.48005373171875476	5.98563909395327e-25
-0.47999269656250476	5.883171412320267e-25
-0.47993166140625476	5.741098547941816e-25
-0.47987062625000476	5.560337322368579e-25
-0.47980959109375476	5.342066128683583e-25
-0.47974855593750476	5.087717545154173e-25
-0.47968752078125476	4.798968600560567e-25
-0.47962648562500476	4.477729619544585e-25
-0.47956545046875476	4.126131639889637e-25
-0.47950441531250476	3.7465120859476743e-25
-0.47944338015625476	3.3413987337342687e-25
-0.47938234500000476	2.913493615587966e-25
-0.47932130984375476	2.465653833193473e-25
-0.47926027468750476	2.00087323623152e-25
-0.47919923953125476	1.5222618974883356e-25
-0.47913820437500476	1.0330246239873646e-25
-0.47907716921875476	5.364409782149756e-26
-0.47901613406250476	3.584091017213222e-27
-0.47895509890625476	-4.6541557131655595e-26
-0.47889406375000476	-9.639624067471852e-26
-0.47883302859375476	-1.456450226834458e-25
-0.47877199343750476	-1.9395679305729453e-25
-0.47871095828125476	-2.410066340019274e-25
-0.47864992312500476	-2.8647793299703217e-25
-0.47858888796875476	-3.300645968838938e-25
-0.47852785281250476	-3.714730480549807e-25
-0.47846681765625476	-4.104242830937067e-25
-0.47840578250000476	-4.466557530923292e-25
-0.47834474734375476	-4.7992310033659e-25
-0.47828371218750476	-5.100019240211229e-25
-0.47822267703125476	-5.366891447301289e-25
-0.47816164187500476	-5.598045926490556e-25
-0.47810060671875476	-5.7919205215223105e-25
-0.47803957156250476	-5.94720452354419e-25
-0.47797853640625476	-6.062847172616651e-25
-0.47791750125000476	-6.138064773158365e-25
-0.47785646609375476	-6.172346649044839e-25
-0.47779543093750476	-6.165458104765236e-25
-0.47773439578125476	-6.117442648664245e-25
-0.47767336062500476	-6.028621450879654e-25
-0.47761232546875476	-5.899591642945718e-25
-0.47755129031250476	-5.731222006668191e-25
-0.47749025515625476	-5.524647697735719e-25
-0.47742922000000476	-5.281262056343768e-25
-0.47736818484375476	-5.002707982994159e-25
-0.47730714968750476	-4.690866254592557e-25
-0.47724611453125476	-4.347843444754907e-25
-0.47718507937500476	-3.975957201589248e-25
-0.47712404421875476	-3.5777212120630187e-25
-0.47706300906250476	-3.1558275871889623e-25
-0.47700197390625476	-2.713129534646049e-25
-0.47694093875000476	-2.252620885259272e-25
-0.47687990359375476	-1.7774171911140618e-25
-0.47681886843750476	-1.290733688332573e-25
-0.47675783328125476	-7.958636926818035e-26
-0.47669679812500476	-2.961568717155472e-26
-0.47663576296875476	2.0500472276180916e-26
-0.47657472781250476	7.042276125876404e-26
-0.47651369265625476	1.1981324138335006e-25
-0.47645265750000476	1.6833742751691997e-25
-0.47639162234375476	2.156667744717315e-25
-0.47633058718750476	2.614807530782943e-25
-0.47626955203125476	3.0546913133151205e-25
-0.47620851687500476	3.4733401423397815e-25
-0.47614748171875476	3.86791911531643e-25
-0.47608644656250476	4.235757073557893e-25
-0.47602541140625476	4.574363491460253e-25
-0.47596437625000476	4.881447394296921e-25
-0.47590334109375476	5.154930805358648e-25
-0.47584230593750476	5.392965171869212e-25
-0.47578127078125476	5.593942096249674e-25
-0.47572023562500476	5.756505799994336e-25
-0.47565920046875476	5.879561432644104e-25
-0.47559816531250476	5.962283233604855e-25
-0.47553713015625476	6.004120004544193e-25
-0.47547609500000476	6.004798855700255e-25
-0.47541505984375476	5.964327546858909e-25
-0.47535402468750476	5.882993903308936e-25
-0.47529298953125476	5.7613647620325945e-25
-0.47523195437500476	5.600281360510441e-25
-0.47517091921875476	5.400854464980073e-25
-0.47510988406250476	5.164456271507825e-25
-0.47504884890625476	4.89271163944495e-25
-0.47498781375000476	4.587486796467227e-25
-0.47492677859375476	4.250876814951137e-25
-0.47486574343750476	3.8851914309187407e-25
-0.47480470828125476	3.4929393385293413e-25
-0.47474367312500476	3.0768111710318964e-25
-0.47468263796875476	2.639661205402295e-25
-0.47462160281250476	2.184487942701574e-25
-0.47456056765625476	1.7144137840123235e-25
-0.47449953250000476	1.232663457766052e-25
-0.47443849734375476	7.425429505574482e-26
-0.47437746218750476	2.4741526661387246e-26
-0.47431642703125476	-2.4932033650401957e-26
-0.47425539187500476	-7.44253449594531e-26
-0.47419435671875476	-1.2339847769973911e-25
-0.47413332156250476	-1.715149348132793e-25
-0.47407228640625476	-2.184440478433329e-25
-0.47401125125000476	-2.6386304474680103e-25
-0.47395021609375476	-3.074595288672434e-25
-0.47388918093750476	-3.489333571524453e-25
-0.47382814578125476	-3.8799886933511614e-25
-0.47376711062500476	-4.24386778062531e-25
-0.47370607546875476	-4.5784601625439235e-25
-0.47364504031250476	-4.881454937483687e-25
-0.47358400515625476	-5.150756542627287e-25
-0.47352297000000476	-5.384499383805579e-25
-0.47346193484375476	-5.581060916275387e-25
-0.47340089968750476	-5.739072036651738e-25
-0.47333986453125476	-5.857427731442282e-25
-0.47327882937500476	-5.935293904005108e-25
-0.47321779421875476	-5.972113514418339e-25
-0.47315675906250476	-5.967610772785701e-25
-0.47309572390625476	-5.921792549747573e-25
-0.47303468875000476	-5.834949408435003e-25
-0.47297365359375476	-5.707652656241389e-25
-0.47291261843750476	-5.540751763787708e-25
-0.47285158328125476	-5.335367621714357e-25
-0.47279054812500476	-5.092886019877443e-25
-0.47272951296875476	-4.814947260662789e-25
-0.47266847781250476	-4.503436207693498e-25
-0.47260744265625476	-4.160468645689692e-25
-0.47254640750000476	-3.7883772929286242e-25
-0.47248537234375476	-3.3896958966171804e-25
-0.47242433718750476	-2.9671422555380404e-25
-0.47236330203125476	-2.5235991017310543e-25
-0.47230226687500476	-2.0620952371620438e-25
-0.47224123171875476	-1.5857843883855007e-25
