Time	Frequency
-0.5000121594687528	1.7479660464585187e-25
-0.49995112431250277	1.3716569959819807e-25
-0.49989008915625277	9.827200672143965e-26
-0.49982905400000277	5.846625036990213e-26
-0.49976801884375277	1.810749559704488e-26
-0.49970698368750277	-2.2440107014963074e-26
-0.49964594853125277	-6.281047942631738e-26
-0.49958491337500277	-1.0263900616052603e-25
-0.49952387821875277	-1.4156568192159702e-25
-0.49946284306250277	-1.7923844207315465e-25
-0.49940180790625277	-2.1531622731778347e-25
-0.49934077275000277	-2.494721126705491e-25
-0.49927973759375277	-2.8139620246669164e-25
-0.49921870243750277	-3.1079841525186093e-25
-0.49915766728125277	-3.374111379454203e-25
-0.49909663212500277	-3.609915417233412e-25
-0.49903559696875277	-3.8132389702821047e-25
-0.49897456181250277	-3.982213939045615e-25
-0.49891352665625277	-4.1152793726778784e-25
-0.49885249150000277	-4.211195057629426e-25
-0.49879145634375277	-4.269052838830895e-25
-0.49873042118750277	-4.288285605844317e-25
-0.49866938603125277	-4.2686715196753915e-25
-0.49860835087500277	-4.210337393160625e-25
-0.49854731571875277	-4.1137569986655426e-25
-0.49848628056250277	-3.9797473513382677e-25
-0.49842524540625277	-3.809461861288686e-25
-0.49836421025000277	-3.604379741925896e-25
-0.49830317509375277	-3.3662936134096516e-25
-0.49824213993750277	-3.0972931991092986e-25
-0.49818110478125277	-2.7997471253496515e-25
-0.49812006962500277	-2.476281889195933e-25
-0.49805903446875277	-2.1297584819286514e-25
-0.49799799931250277	-1.7632469377851969e-25
-0.49793696415625277	-1.379999480652236e-25
-0.49787592900000277	-9.834206120833431e-26
-0.49781489384375277	-5.770377642497662e-26
-0.49775385868750277	-1.6446948286074e-26
-0.49769282353125277	2.5060741082567628e-26
-0.49763178837500277	6.644892189210912e-26
-0.49757075321875277	1.073480700985389e-25
-0.49750971806250277	1.4739257370977663e-25
-0.49744868290625277	1.8622415367807373e-25
-0.49738764775000277	2.2349506926025287e-25
-0.49732661259375277	2.588711200064045e-25
-0.49726557743750277	2.920348217980304e-25
-0.49720454228125277	3.226880685972812e-25
-0.49714350712500277	3.5055496768391743e-25
-0.49708247196875277	3.753842190427249e-25
-0.49702143681250277	3.969514275647892e-25
-0.49696040165625277	4.150611368988252e-25
-0.49689936650000277	4.295485298748492e-25
-0.49683833134375277	4.402810213731796e-25
-0.49677729618750277	4.471593734029876e-25
-0.49671626103125277	4.501186650909006e-25
-0.49665522587500277	4.491288656743552e-25
-0.49659419071875277	4.441951356947252e-25
-0.49653315556250277	4.353577997632863e-25
-0.49647212040625277	4.226920075379238e-25
-0.49641108525000277	4.063070904285068e-25
-0.49635005009375277	3.8634558854479015e-25
-0.49628901493750277	3.6298201415184135e-25
-0.49622797978125277	3.36421302185788e-25
-0.49616694462500277	3.06896977496298e-25
-0.49610590946875277	2.746691338035499e-25
-0.49604487431250277	2.400220556324547e-25
-0.49598383915625277	2.0326172765943686e-25
-0.49592280400000277	1.6471313842544874e-25
-0.49586176884375277	1.2471727602194944e-25
-0.49580073368750277	8.362825510626743e-26
-0.49573969853125277	4.1809981601141386e-26
-0.49567866337500277	-3.6699223735396743e-28
-0.49561762821875277	-4.252878449118069e-26
-0.49555659306250277	-8.430159394904932e-26
-0.49549555790625277	-1.253149382182525e-25
-0.49543452275000277	-1.652051078346883e-25
-0.49537348759375277	-2.0361826716488249e-25
-0.49531245243750277	-2.4021377728478067e-25
-0.49525141728125277	-2.7466712250725737e-25
-0.49519038212500277	-3.06672895408004e-25
-0.49512934696875277	-3.35947550803116e-25
-0.49506831181250277	-3.6223184807032716e-25
-0.49500727665625277	-3.852933436355516e-25
-0.49494624150000277	-4.049283089623512e-25
-0.49488520634375277	-4.20963703037392e-25
-0.49482417118750277	-4.332586443349853e-25
-0.49476313603125277	-4.417057286291423e-25
-0.49470210087500277	-4.462319908616089e-25
-0.49464106571875277	-4.467995283792738e-25
-0.49458003056250277	-4.434059409625997e-25
-0.49451899540625277	-4.360842458955047e-25
-0.49445796025000277	-4.249026943839429e-25
-0.49439692509375277	-4.099640938321427e-25
-0.49433588993750277	-3.9140492665756065e-25
-0.49427485478125277	-3.693941370967164e-25
-0.49421381962500277	-3.44131586172265e-25
-0.49415278446875277	-3.15846311106097e-25
-0.49409174931250277	-2.8479443450937947e-25
-0.49403071415625277	-2.5125687905434413e-25
-0.49396967900000277	-2.1553686704294206e-25
-0.49390864384375277	-1.7795717391933902e-25
-0.49384760868750277	-1.3885722912566298e-25
-0.49378657353125277	-9.859008959077917e-26
-0.49372553837500277	-5.751924408617873e-26
-0.49366450321875277	-1.6015363384292024e-26
-0.49360346806250277	2.554706185440434e-26
-0.49354243290625277	6.679305851051827e-26
-0.49348139775000277	1.0735056359355428e-25
-0.49342036259375277	1.4685381036211273e-25
-0.49335932743750277	1.8494653587290647e-25
-0.49329829228125277	2.212852872508516e-25
-0.49323725712500277	2.5554248524545642e-25
-0.49317622196875277	2.8740933400649803e-25
-0.49311518681250277	3.165987017044659e-25
-0.49305415165625277	3.4284763454449723e-25
-0.49299311650000277	3.659197856199333e-25
-0.49293208134375277	3.8560751733684727e-25
-0.49287104618750277	4.0173381692969546e-25
-0.49281001103125277	4.141538834431804e-25
-0.49274897587500277	4.227564312259429e-25
-0.49268794071875277	4.274647486217946e-25
-0.49262690556250277	4.282373474277889e-25
-0.49256587040625277	4.250683977752628e-25
-0.49250483525000277	4.179877471753455e-25
-0.49244380009375277	4.0706070795749443e-25
-0.49238276493750277	3.9238744241067473e-25
-0.49232172978125277	3.741020923620231e-25
-0.49226069462500277	3.523715701807657e-25
-0.49219965946875277	3.2739405895655285e-25
-0.49213862431250277	2.993972559486974e-25
-0.49207758915625277	2.686362848845468e-25
-0.49201655400000277	2.3539143900786483e-25
-0.49195551884375277	1.999656505028064e-25
-0.49189448368750277	1.6268171596845449e-25
-0.49183344853125277	1.2387945615935226e-25
-0.49177241337500277	8.391259318295153e-26
-0.49171137821875277	4.3145574958221116e-26
-0.49165034306250277	1.9503245480386233e-27
-0.49158930790625277	-3.9297253507825996e-26
-0.49152827275000277	-8.022047938113307e-26
-0.49146723759375277	-1.204454850135881e-25
-0.49140620243750277	-1.5960450497685032e-25
-0.49134516728125277	-1.9733919950841968e-25
-0.49128413212500277	-2.3330401573219085e-25
-0.49122309696875277	-2.6716914811654026e-25
-0.49116206181250277	-2.986237070048395e-25
-0.49110102665625277	-3.2737843496351424e-25
-0.49103999150000277	-3.531683799874475e-25
-0.49097895634375277	-3.7575529927966185e-25
-0.49091792118750277	-3.949298535083752e-25
-0.49085688603125277	-4.1051350737637523e-25
-0.49079585087500277	-4.223601403039652e-25
-0.49073481571875277	-4.303574687364508e-25
-0.49067378056250277	-4.344279767034092e-25
-0.49061274540625277	-4.345297549997688e-25
-0.49055171025000277	-4.306568251619114e-25
-0.49049067509375277	-4.228392445897387e-25
-0.49042963993750277	-4.111428880325524e-25
-0.49036860478125277	-3.9566881663483815e-25
-0.49030756962500277	-3.76552461704923e-25
-0.49024653446875277	-3.539623539917264e-25
-0.49018549931250277	-3.2809867965882747e-25
-0.49012446415625277	-2.9919144943760083e-25
-0.49006342900000277	-2.6749846427835896e-25
-0.49000239384375277	-2.3330300754726175e-25
-0.48994135868750277	-1.9691124996234787e-25
-0.48988032353125277	-1.5864958518373136e-25
-0.48981928837500277	-1.1886159086839893e-25
-0.48975825321875277	-7.790499736116764e-26
-0.48969721806250277	-3.614846435584042e-26
-0.48963618290625277	6.031811170399583e-27
-0.48957514775000277	4.825540312329723e-26
-0.48951411259375277	9.014118550535466e-26
-0.48945307743750277	1.3131071208739207e-25
-0.48939204228125277	1.7139166801571888e-25
-0.48933100712500277	2.100212789340363e-25
-0.48926997196875277	2.4684950654361206e-25
-0.48920893681250277	2.815423328439556e-25
-0.48914790165625277	3.137847200787075e-25
-0.48908686650000277	3.4328350860120844e-25
-0.48902583134375277	3.697700758978372e-25
-0.48896479618750277	3.9300276004537986e-25
-0.48890376103125277	4.1276911915728992e-25
-0.48884272587500277	4.288878053569793e-25
-0.48878169071875277	4.412103093172749e-25
-0.48872065556250277	4.496222302031173e-25
-0.48865962040625277	4.54044393278813e-25
-0.48859858525000277	4.544336090857032e-25
-0.48853755009375277	4.50782998017517e-25
-0.48847651493750277	4.431221877406161e-25
-0.48841547978125277	4.315169721838159e-25
-0.48835444462500277	4.160687940591865e-25
-0.48829340946875277	3.969138367232173e-25
-0.48823237431250277	3.742217900803221e-25
-0.48817133915625277	3.481943791244205e-25
-0.48811030400000277	3.190634932828347e-25
-0.48804926884375277	2.870891855984591e-25
-0.48798823368750277	2.525572522307809e-25
-0.48792719853125277	2.1577671506862843e-25
-0.48786616337500277	1.7707702445092037e-25
-0.48780512821875277	1.3680506250764938e-25
-0.48774409306250277	9.532207499569155e-26
-0.48768305790625277	5.300029503836998e-26
-0.48762202275000277	1.021973142512797e-26
-0.48756098759375277	-3.263541622150905e-26
-0.48749995243750277	-7.518014221293518e-26
-0.48743891728125277	-1.1703212872545092e-25
-0.48737788212500277	-1.5781529538102622e-25
-0.48731684696875277	-1.9716304493989254e-25
-0.48725581181250277	-2.3472177954103944e-25
-0.48719477665625277	-2.701539441009627e-25
-0.48713374150000277	-3.0314120772445427e-25
-0.48707270634375277	-3.3338728349117517e-25
-0.48701167118750277	-3.6062065567551287e-25
-0.48695063603125277	-3.8459705322203575e-25
-0.48688960087500277	-4.0510163281240797e-25
-0.48682856571875277	-4.219510128877987e-25
-0.48676753056250277	-4.349948361827313e-25
-0.48670649540625277	-4.441172898770216e-25
-0.48664546025000277	-4.492379879609267e-25
-0.48658442509375277	-4.503128928885965e-25
-0.48652338993750277	-4.47334594565556e-25
-0.48646235478125277	-4.403324274988004e-25
-0.48640131962500277	-4.293722655213876e-25
-0.48634028446875277	-4.145558166906738e-25
-0.48627924931250277	-3.9601985505498066e-25
-0.48621821415625277	-3.7393483983663555e-25
-0.48615717900000277	-3.4850350708748997e-25
-0.48609614384375277	-3.1995892398962546e-25
-0.48603510868750277	-2.8856244933358028e-25
-0.48597407353125277	-2.5460135580224004e-25
-0.48591303837500277	-2.183861617074762e-25
-0.48585200321875277	-1.8024789899443009e-25
-0.48579096806250277	-1.405350580191555e-25
-0.48572993290625277	-9.961041283894027e-26
-0.48566889775000277	-5.78477372014787e-26
-0.48560786259375277	-1.56284179477298e-26
-0.48554682743750277	2.666206074882492e-26
-0.48548579228125277	6.86375426258619e-26
-0.48542475712500277	1.099148482720439e-25
-0.48536372196875277	1.501171420842351e-25
-0.48530268681250277	1.8887742008471382e-25
-0.48524165165625277	2.2584189577877384e-25
-0.48518061650000277	2.6067314750349115e-25
-0.48511958134375277	2.9305327051625507e-25
-0.48505854618750277	3.226867405814341e-25
-0.48499751103125277	3.4930314983879437e-25
-0.48493647587500277	3.7265963971809797e-25
-0.48487544071875277	3.925431800208159e-25
-0.48481440556250277	4.08772456851177e-25
-0.48475337040625277	4.211995983699563e-25
-0.48469233525000277	4.297115030954686e-25
-0.48463130009375277	4.342308847079938e-25
-0.48457026493750277	4.347170102856426e-25
-0.48450922978125277	4.311660548192053e-25
-0.48444819462500277	4.236111842029663e-25
-0.48438715946875277	4.121222285808052e-25
-0.48432612431250277	3.968050953774652e-25
-0.48426508915625277	3.7780078031791057e-25
-0.48420405400000277	3.55284115637401e-25
-0.48414301884375277	3.294621763610576e-25
-0.48408198368750277	3.0057240162190167e-25
-0.48402094853125277	2.688804341762853e-25
-0.48395991337500277	2.3467769904125827e-25
-0.48389887821875277	1.9827876180735828e-25
-0.48383784306250277	1.6001845778107403e-25
-0.48377680790625277	1.2024879797141584e-25
-0.48371577275000277	7.933583604385014e-26
-0.48365473759375277	3.765626047695882e-26
-0.48359370243750277	-4.4060425722199716e-27
-0.48353266728125277	-4.6463446000493204e-26
-0.48347163212500277	-8.812824414567326e-26
-0.48341059696875277	-1.2901602940125378e-25
-0.48334956181250277	-1.6874938437148237e-25
-0.48328852665625277	-2.069612498161448e-25
-0.48322749150000277	-2.432982586481604e-25
-0.48316645634375277	-2.7742413661784716e-25
-0.48310542118750277	-3.0902257348698465e-25
-0.48304438603125277	-3.3780031444159845e-25
-0.48298335087500277	-3.634897775615691e-25
-0.48292231571875277	-3.858514918647593e-25
-0.48286128056250277	-4.0467641756818678e-25
-0.48280024540625277	-4.197877475255914e-25
-0.48273921025000277	-4.310426436073225e-25
-0.48267817509375277	-4.383335363678577e-25
-0.48261713993750277	-4.415891058915495e-25
-0.48255610478125277	-4.407750167835947e-25
-0.48249506962500277	-4.35894199178018e-25
-0.48243403446875277	-4.26986886769544e-25
-0.48237299931250277	-4.141302622327686e-25
-0.48231196415625277	-3.9743775813648094e-25
-0.48225092900000277	-3.7705808299936258e-25
-0.48218989384375277	-3.531738391590396e-25
-0.48212885868750277	-3.259999036528677e-25
-0.48206782353125277	-2.9578147765414177e-25
-0.48200678837500277	-2.6279184494945403e-25
-0.48194575321875277	-2.27329931756125e-25
-0.48188471806250277	-1.8971751705145883e-25
-0.48182368290625277	-1.502963787201254e-25
-0.48176264775000277	-1.0942514195047384e-25
-0.48170161259375277	-6.747597011831569e-26
-0.48164057743750277	-2.4831263867213725e-26
-0.48157954228125277	1.8119944613340187e-26
-0.48151850712500277	6.09854681619465e-26
-0.48145747196875277	1.033735889998476e-25
-0.48139643681250277	1.4489665536881275e-25
-0.48133540165625277	1.8517456252051028e-25
-0.48127436650000277	2.2383836654121435e-25
-0.48121333134375277	2.6053356315809403e-25
-0.48115229618750277	2.949233295287696e-25
-0.48109126103125277	3.266917720115797e-25
-0.48103022587500277	3.555466334612152e-25
-0.48096919071875277	3.8122210127576785e-25
-0.48090815556250277	4.034812984475328e-25
-0.48084712040625277	4.22118303560078e-25
-0.48078608525000277	4.369602618130644e-25
-0.48072505009375277	4.478688241604702e-25
-0.48066401493750277	4.547415272695688e-25
-0.48060297978125277	4.5751274378508075e-25
-0.48054194462500277	4.561542425387678e-25
-0.48048090946875277	4.506755775011527e-25
-0.48041987431250277	4.411239148044013e-25
-0.48035883915625277	4.275837051216833e-25
-0.48029780400000277	4.101758803367144e-25
-0.48023676884375277	3.890567916220038e-25
-0.48017573368750277	3.644168007067715e-25
-0.48011469853125277	3.364785421442978e-25
-0.48005366337500277	3.0549488827213663e-25
-0.47999262821875277	2.717466930919088e-25
-0.47993159306250277	2.3554020948451714e-25
-0.47987055790625277	1.972042618201199e-25
-0.47980952275000277	1.5708732465146223e-25
-0.47974848759375277	1.1555425386688429e-25
-0.47968745243750277	7.298300862607436e-26
-0.47962641728125277	2.976118758284223e-26
-0.47956538212500277	-1.3717552874659358e-26
-0.47950434696875277	-5.705708304959383e-26
-0.47944331181250277	-9.986240144941955e-26
-0.47938227665625277	-1.4174332861717255e-25
-0.47932124150000277	-1.8231798983328403e-25
-0.47926020634375277	-2.2121642569342688e-25
-0.47919917118750277	-2.580839395555375e-25
-0.47913813603125277	-2.925842706083205e-25
-0.47907710087500277	-3.244029274254118e-25
-0.47901606571875277	-3.532497705842318e-25
-0.47895503056250277	-3.7886194393101324e-25
-0.47889399540625277	-4.0100617638456103e-25
-0.47883296025000277	-4.194809019248261e-25
-0.47877192509375277	-4.34118274423467e-25
-0.47871088993750277	-4.447855060789746e-25
-0.47864985478125277	-4.51386311097365e-25
-0.47858881962500277	-4.538616363553246e-25
-0.47852778446875277	-4.521903303629356e-25
-0.47846674931250277	-4.463892887150278e-25
-0.47840571415625277	-4.365133180119273e-25
-0.47834467900000277	-4.226546886915755e-25
-0.47828364384375277	-4.049422168101809e-25
-0.47822260868750277	-3.8354019062198124e-25
-0.47816157353125277	-3.5864678187544848e-25
-0.47810053837500277	-3.3049228638429404e-25
-0.47803950321875277	-2.9933701086325623e-25
-0.47797846806250277	-2.6546885196532926e-25
-0.47791743290625277	-2.2920069317153324e-25
-0.47785639775000277	-1.908675299629478e-25
-0.47779536259375277	-1.5082334803582787e-25
-0.47773432743750277	-1.0943794038798206e-25
-0.47767329228125277	-6.70934307409901e-26
-0.47761225712500277	-2.418082557606259e-26
-0.47755122196875277	1.890363481791686e-26
-0.47749018681250277	6.176212261287316e-26
-0.47742915165625277	1.0399883785535114e-25
-0.47736811650000277	1.4522374485459742e-25
-0.47730708134375277	1.85056064617824e-25
-0.47724604618750277	2.2312791840266497e-25
-0.47718501103125277	2.590875796742576e-25
-0.47712397587500277	2.926028586247364e-25
-0.47706294071875277	3.2336408854573457e-25
-0.47700190556250277	3.510870026484461e-25
-0.47694087040625277	3.75515436292979e-25
-0.47687983525000277	3.964235453198171e-25
-0.47681880009375277	4.136181528685087e-25
-0.47675776493750277	4.26940250338411e-25
-0.47669672978125277	4.362667082910406e-25
-0.47663569462500277	4.415113435718235e-25
-0.47657465946875277	4.426256654250845e-25
-0.47651362431250277	4.395995134257186e-25
-0.47645258915625277	4.324609305493549e-25
-0.47639155400000277	4.212761533909994e-25
-0.47633051884375277	4.0614884139126135e-25
-0.47626948368750277	3.8721922025660684e-25
-0.47620844853125277	3.646628040657452e-25
-0.47614741337500277	3.3868871260772496e-25
-0.47608637821875277	3.0953785852515264e-25
-0.47602534306250277	2.7748063914876497e-25
-0.47596430790625277	2.4281451695849193e-25
-0.47590327275000277	2.0586122048215494e-25
-0.47584223759375277	1.6696383903296122e-25
-0.47578120243750277	1.2648360631188997e-25
-0.47572016728125277	8.479658516394286e-26
-0.47565913212500277	4.229022916566482e-26
-0.47559809696875277	-6.402779117179042e-28
-0.47553706181250277	-4.359559165331044e-26
-0.47547602665625277	-8.617596491619456e-26
-0.47541499150000277	-1.2798492660050475e-25
-0.47535395634375277	-1.6863292027470135e-25
-0.47529292118750277	-2.07740989605696e-25
-0.47523188603125277	-2.44944231268968e-25
-0.47517085087500277	-2.798952014077261e-25
-0.47510981571875277	-3.122671664938448e-25
-0.47504878056250277	-3.4175710250440077e-25
-0.47498774540625277	-3.6808854834158424e-25
-0.47492671025000277	-3.91014155341761e-25
-0.47486567509375277	-4.103180300899918e-25
-0.47480463993750277	-4.2581772842305905e-25
-0.47474360478125277	-4.373659596308132e-25
-0.47468256962500277	-4.448520097127642e-25
-0.47462153446875277	-4.482027393340242e-25
-0.47456049931250277	-4.473833370048471e-25
-0.47449946415625277	-4.4239762942488495e-25
-0.47443842900000277	-4.33288075057802e-25
-0.47437739384375277	-4.201354240354132e-25
-0.47431635868750277	-4.030579458040957e-25
-0.47425532353125277	-3.8221041614440434e-25
-0.47419428837500277	-3.577826492147589e-25
-0.47413325321875277	-3.299977913547955e-25
-0.47407221806250277	-2.991103034426313e-25
-0.47401118290625277	-2.654035324304374e-25
-0.47395014775000277	-2.291872257177563e-25
-0.47388911259375277	-1.9079457409094153e-25
-0.47382807743750277	-1.5057918890046502e-25
-0.47376704228125277	-1.0891184672433038e-25
-0.47370600712500277	-6.617702562074431e-26
-0.47364497196875277	-2.2769405251027353e-26
-0.47358393681250277	2.090987620847894e-26
-0.47352290165625277	6.445679814133011e-26
-0.47346186650000277	1.0746834488678783e-25
-0.47340083134375277	1.4954613259935517e-25
-0.47333979618750277	1.903001574237977e-25
-0.47327876103125277	2.293524318134338e-25
-0.47321772587500277	2.6634042142963123e-25
-0.47315669071875277	3.0092050884378556e-25
-0.47309565556250277	3.3277109726435205e-25
-0.47303462040625277	3.6159572086154514e-25
-0.47297358525000277	3.8712566545866924e-25
-0.47291255009375277	4.0912260646747075e-25
-0.47285151493750277	4.273807706261801e-25
-0.47279047978125277	4.41728848645449e-25
-0.47272944462500277	4.520316883131476e-25
-0.47266840946875277	4.58191444202941e-25
-0.47260737431250277	4.601486410571164e-25
-0.47254633915625277	4.578826412141916e-25
-0.47248530400000277	4.514119130605291e-25
-0.47242426884375277	4.407938809071139e-25
-0.47236323368750277	4.261243845895983e-25
-0.47230219853125277	4.0753684791681956e-25
