Time	Frequency
-0.5000081063749917	-0.4257109542527353
-0.4999470712187417	-0.4115480506177906
-0.4998860360624917	-0.39293473957894437
-0.4998250009062417	-0.37007147682091757
-0.4997639657499917	-0.3432045195272922
-0.4997029305937417	-0.3126233228635763
-0.4996418954374917	-0.2786574464167362
-0.4995808602812417	-0.24167300121234886
-0.4995198251249917	-0.20206875407398228
-0.4994587899687417	-0.16027182431892148
-0.4993977548124917	-0.11673310274924527
-0.4993367196562417	-0.07192243413439989
-0.4992756844999917	-0.026323530172804113
-0.4992146493437417	0.019571212949649457
-0.4991536141874917	0.06526601332982518
-0.4990925790312417	0.11026704386188171
-0.4990315438749917	0.15408776866864318
-0.4989705087187417	0.1962541459298149
-0.4989094735624917	0.23630977477218154
-0.4988484384062417	0.27382084415919045
-0.4987874032499917	0.3083807369624901
-0.4987263680937417	0.3396144914063489
-0.4986653329374917	0.36718287840582564
-0.4986042977812417	0.39078598951437693
-0.4985432626249917	0.4101665645194236
-0.4984822274687417	0.42511277155175503
-0.4984211923124917	0.4354604629102174
-0.4983601571562417	0.4410950886695966
-0.4982991219999917	0.4419528051467405
-0.4982380868437417	0.4380213193289848
-0.4981770516874917	0.42934000519849264
-0.4981160165312417	0.4159994550315194
-0.4980549813749917	0.3981406651182855
-0.4979939462187417	0.3759533823322637
-0.4979329110624917	0.349674217458721
-0.4978718759062417	0.3195840664884501
-0.4978108407499917	0.2860050922942494
-0.4977498055937417	0.2492973327927833
-0.4976887704374917	0.20985476187631627
-0.4976277352812417	0.168101147546339
-0.4975667001249917	0.12448544040996964
-0.4975056649687417	0.07947694463623063
-0.4974446298124917	0.03356033709867978
-0.4973835946562417	-0.012769635351005384
-0.4973225594999917	-0.05901344142439602
-0.4972615243437417	-0.10467213401693491
-0.4972004891874917	-0.14925278363140018
-0.4971394540312417	-0.19227375521074083
-0.4970784188749917	-0.23326992164183263
-0.4970173837187417	-0.2717976929675906
-0.4969563485624917	-0.3074398282450899
-0.4968953134062417	-0.3398099207162035
-0.4968342782499917	-0.36855660978804217
-0.4967732430937417	-0.39336740192756253
-0.4967122079374917	-0.4139720117184274
-0.4966511727812417	-0.43014539632825793
-0.4965901376249917	-0.44171010516538417
-0.4965291024687417	-0.448538285645459
-0.4964680673124917	-0.4505531208274389
-0.4964070321562417	-0.4477295769084402
-0.4963459969999917	-0.4400948427820411
-0.4962849618437417	-0.42772796201315866
-0.4962239266874917	-0.4107590448267886
-0.4961628915312417	-0.38936793381613233
-0.4961018563749917	-0.3637822005718419
-0.4960408212187417	-0.3342748204105747
-0.4959797860624917	-0.301161181404311
-0.4959187509062417	-0.26479570304419514
-0.4958577157499917	-0.22556810542699532
-0.4957966805937417	-0.18389912236793823
-0.4957356454374917	-0.14023603274652416
-0.4956746102812417	-0.09504788516520869
-0.4956135751249917	-0.04882031697463079
-0.4955525399687417	-0.002050460938915452
-0.4954915048124917	0.04475847311562753
-0.4954304696562417	0.09110271817370494
-0.4953694344999917	0.13648318206353363
-0.4953083993437417	0.1804110583110695
-0.4952473641874917	0.22241300374941766
-0.4951863290312417	0.26203620852100834
-0.4951252938749917	0.29885347062428264
-0.4950642587187417	0.33246761350487214
-0.4950032235624917	0.3625159456117865
-0.4949421884062417	0.38867415956758955
-0.4948811532499917	0.4106597819761704
-0.4948201180937417	0.4282353596816826
-0.4947590829374917	0.4412109577290179
-0.4946980477812417	0.4494462679450296
-0.4946370126249917	0.452852161876891
-0.4945759774687417	0.4513916384051002
-0.4945149423124917	0.445080274901391
-0.4944539071562417	0.4339860765806956
-0.4943928719999917	0.4182287459539625
-0.4943318368437417	0.39797842426065394
-0.4942708016874917	0.3734538706975953
-0.4942097665312417	0.34492010754386027
-0.4941487313749917	0.31268554791171244
-0.4940876962187417	0.2770987295888441
-0.4940266610624917	0.2385445155379349
-0.4939656259062417	0.19743991725839224
-0.4939045907499917	0.15422966544453595
-0.4938435555937417	0.10938132246125705
-0.4937825204374917	0.06338027741320296
-0.4937214852812417	0.016724477637603197
-0.4936604501249917	-0.03008096421253997
-0.4935994149687417	-0.07652924704238531
-0.4935383798124917	-0.12211736941487449
-0.4934773446562417	-0.1663515596908808
-0.4934163094999917	-0.20875270195809342
-0.4933552743437417	-0.24886143642964847
-0.4932942391874917	-0.28624325113079685
-0.4932332040312417	-0.3204931338545779
-0.4931721688749917	-0.35123998627680464
-0.4931111337187417	-0.3781507192579876
-0.4930500985624917	-0.4009337934746419
-0.4929890634062417	-0.4193424727888839
-0.4929280282499917	-0.43317747097813836
-0.4928669930937417	-0.44228915631064436
-0.4928059579374917	-0.4465791939171208
-0.4927449227812417	-0.4460016187168506
-0.4926838876249917	-0.4405633594871573
-0.4926228524687417	-0.43032419314937265
-0.4925618173124917	-0.4153960984027351
-0.4925007821562417	-0.3959420622851298
-0.4924397469999917	-0.3721743398958106
-0.4923787118437417	-0.3443521448817286
-0.4923176766874917	-0.3127788681991745
-0.4922566415312417	-0.27779877987640134
-0.4921956063749917	-0.239793312740142
-0.4921345712187417	-0.19917691589168227
-0.4920735360624917	-0.15639257709918908
-0.4920125009062417	-0.11190700748572566
-0.4919514657499917	-0.06620553592245022
-0.4918904305937417	-0.019786913146434038
-0.4918293954374917	0.02684217730749725
-0.4917683602812417	0.07317262471002466
-0.4917073251249917	0.11869838844982808
-0.4916462899687417	0.16292205924084296
-0.4915852548124917	0.2053602429926545
-0.4915242196562417	0.245548870286245
-0.4914631844999917	0.28304820591341645
-0.4914021493437417	0.317447705473834
-0.4913411141874917	0.3483704719512098
-0.4912800790312417	0.37547734940367816
-0.4912190438749917	0.39847072999574407
-0.4911580087187417	0.417097694765253
-0.4910969735624917	0.43115288593250667
-0.4910359384062417	0.4404807457329367
-0.4909749032499917	0.44497717704229606
-0.4909138680937417	0.4445908180975886
-0.4908528329374917	0.4393235239899023
-0.4907917977812417	0.4292304193444094
-0.4907307626249917	0.41441935055483586
-0.4906697274687417	0.39504967328813073
-0.4906086923124917	0.3713306081616005
-0.4905476571562417	0.3435189477070373
-0.4904866219999917	0.31191628828456885
-0.4904255868437417	0.27686578800461054
-0.4903645516874917	0.23874841481829642
-0.4903035165312417	0.1979788317391938
-0.4902424813749917	0.1550009028288746
-0.4901814462187417	0.11028285061689738
-0.4901204110624917	0.06431215101919818
-0.4900593759062417	0.0175902915412808
-0.4899983407499917	-0.02937277535519146
-0.4899373055937417	-0.07606414376724896
-0.4898762704374917	-0.12197352398511091
-0.4898152352812417	-0.16659891245093797
-0.4897542001249917	-0.20945190021577012
-0.4896931649687417	-0.250063188660094
-0.4896321298124917	-0.28798764797408916
-0.4895710946562417	-0.32280909371504146
-0.4895100594999917	-0.35414504547014797
-0.4894490243437417	-0.3816507534270102
-0.4893879891874917	-0.4050230224976461
-0.4893269540312417	-0.4240036077115079
-0.4892659188749917	-0.43838198114452165
-0.4892048837187417	-0.44799769197129463
-0.4891438485624917	-0.45274216964999153
-0.4890828134062417	-0.4525598822088258
-0.4890217782499917	-0.4474490291152817
-0.4889607430937417	-0.4374615769251486
-0.4888997079374917	-0.42270269022475515
-0.4888386727812417	-0.40332968145837667
-0.4887776376249917	-0.37955026257134705
-0.4887166024687417	-0.3516203359228727
-0.4886555673124917	-0.3198412477853203
-0.4885945321562417	-0.28455648155002294
-0.4885334969999917	-0.2461479708002911
-0.4884724618437417	-0.20503193929789557
-0.4884114266874917	-0.1616543702582576
-0.4883503915312417	-0.11648618035071036
-0.4882893563749917	-0.07001806664594465
-0.4882283212187417	-0.022755164436673657
-0.4881672860624917	0.02478845141357299
-0.4881062509062417	0.07209534524098701
-0.4880452157499917	0.11865042925848207
-0.4879841805937417	0.1639465623252688
-0.4879231454374917	0.20749002000804614
-0.4878621102812417	0.24880603928623957
-0.4878010751249917	0.2874438935896495
-0.4877400399687417	0.3229818324548325
-0.4876790048124917	0.3550317825181976
-0.4876179696562417	0.3832435124430727
-0.4875569344999917	0.4073085590479197
-0.4874958993437417	0.4269635319298253
-0.4874348641874917	0.44199306100209207
-0.4873738290312417	0.45223219914589596
-0.4873127938749917	0.45756817020314317
-0.4872517587187417	0.4579416966180703
-0.4871907235624917	0.45334763389766874
-0.4871296884062417	0.4438350548663913
-0.4870686532499917	0.4295067574691746
-0.4870076180937417	0.4105181316719412
-0.4869465829374917	0.3870755153989623
-0.4868855477812417	0.3594339376033876
-0.4868245126249917	0.32789435731008304
-0.4867634774687417	0.29280040818468295
-0.4867024423124917	0.25453460848800263
-0.4866414071562417	0.2135142663489679
-0.4865803719999917	0.17018686651368675
-0.4865193368437417	0.12502520189869507
-0.4864583016874917	0.07852224310436366
-0.4863972665312417	0.031185701977324166
-0.4863362313749917	-0.016467486879550332
-0.4862751962187417	-0.06391682631218898
-0.4862141610624917	-0.11064394683385671
-0.4861531259062417	-0.1561383208015988
-0.4860920907499917	-0.19990278901899197
-0.4860310555937417	-0.24145907230539562
-0.4859700204374917	-0.2803529801393417
-0.4859089852812417	-0.31615939677313354
-0.4858479501249917	-0.3484869962048919
-0.4857869149687417	-0.3769824373960426
-0.4857258798124917	-0.4013343773210552
-0.4856648446562417	-0.421276806918707
-0.4856038094999917	-0.4365919894369762
-0.4855427743437417	-0.44711293693974125
-0.4854817391874917	-0.452725160323825
-0.4854207040312417	-0.4533680134631379
-0.4853596688749917	-0.44903535186755567
-0.4852986337187417	-0.4397756046543736
-0.4852375985624917	-0.4256912945355098
-0.4851765634062417	-0.4069379044624881
-0.4851155282499917	-0.38372219242165734
-0.4850544930937417	-0.3562999577421908
-0.4849934579374917	-0.32497323375542014
-0.4849324227812417	-0.2900869819070058
-0.4848713876249917	-0.25202533887562667
-0.4848103524687417	-0.21120739370755762
-0.4847493173124917	-0.16808261552768872
-0.4846882821562417	-0.12312588988097577
-0.4846272469999917	-0.07683235059529213
-0.4845662118437417	-0.029711936738115754
-0.4845051766874917	0.017716239713537467
-0.4844441415312417	0.06492954432075694
-0.4843831063749917	0.1114076208216553
-0.4843220712187417	0.156638059921219
-0.4842610360624917	0.20012207377731442
-0.4842000009062417	0.24137999867784835
-0.4841389657499917	0.27995651566718344
-0.4840779305937417	0.31542575188887767
-0.4840168954374917	0.3473959322261443
-0.4839558602812417	0.3755136822874956
-0.4838948251249917	0.39946801992816006
-0.4838337899687417	0.41899370182400075
-0.4837727548124917	0.43387419964140217
-0.4837117196562417	0.44394416557543553
-0.4836506844999917	0.4490911552313362
-0.4835896493437417	0.4492570006228042
-0.4835286141874917	0.4444384313490845
-0.4834675790312417	0.434687109628749
-0.4834065438749917	0.4201091696391703
-0.4833455087187417	0.40086397250614225
-0.4832844735624917	0.3771624666542511
-0.4832234384062417	0.34926483953195264
-0.4831624032499917	0.3174776791465571
-0.4831013680937417	0.28215066115295395
-0.4830403329374917	0.243672638206614
-0.4829792977812417	0.20246748045746624
-0.4829182626249917	0.15898932451909353
-0.4828572274687417	0.11371763428816342
-0.4827961923124917	0.06715194032308876
-0.4827351571562417	0.019806282414595915
-0.4826741219999917	-0.027796341401823466
-0.4826130868437417	-0.07512989358100171
-0.4825520516874917	-0.12167092546170752
-0.4824910165312417	-0.16690444581994998
-0.4824299813749917	-0.21032967606783862
-0.4823689462187417	-0.2514653496527039
-0.4823079110624917	-0.289855311744903
-0.4822468759062417	-0.3250733689276307
-0.4821858407499917	-0.35672805392633367
-0.4821248055937417	-0.38446706931807295
-0.4820637704374917	-0.4079810117118148
-0.4820027352812417	-0.42700698462724446
-0.4819417001249917	-0.441331420499768
-0.4818806649687417	-0.4507925166523771
-0.4818196298124917	-0.4552820446000182
-0.4817585946562417	-0.45474655027561384
-0.4816975594999917	-0.44918803856893696
-0.4816365243437417	-0.4386639089100682
-0.4815754891874917	-0.42328642937486594
-0.4815144540312417	-0.4032214878065344
-0.4814534188749917	-0.37868680046043207
-0.4813923837187417	-0.3499495677392492
-0.4813313485624917	-0.3173235304593027
-0.4812703134062417	-0.2811655401764936
-0.4812092782499917	-0.24187166510830285
-0.4811482430937417	-0.19987282701683953
-0.4810872079374917	-0.15563006545002706
-0.4810261727812417	-0.10962949050447283
-0.4809651376249917	-0.06237689677935469
-0.4809041024687417	-0.014392232635155185
-0.4808430673124917	0.03379616127312016
-0.4807820321562417	0.08165737750941146
-0.4807209969999917	0.12866378442364862
-0.4806599618437417	0.17429684123650319
-0.4805989266874917	0.21805288551179972
-0.4805378915312417	0.25944866158038843
-0.4804768563749917	0.2980266276248622
-0.4804158212187417	0.333360141272587
-0.4803547860624917	0.3650580647467226
-0.4802937509062417	0.3927691626923166
-0.4802327157499917	0.4161860393269017
-0.4801716805937417	0.43504846537524133
-0.4801106454374917	0.4491463678130975
-0.4800496102812417	0.45832213531648097
-0.4799885751249917	0.46247238061423246
-0.4799275399687417	0.46154915832239424
-0.4798665048124917	0.45556046282191875
-0.4798054696562417	0.4445702190738547
-0.4797444344999917	0.42869758863071145
-0.4796833993437417	0.4081156667883589
-0.4796223641874917	0.38304963422533467
-0.4795613290312417	0.35377424778301664
-0.4795002938749917	0.32061086887258006
-0.4794392587187417	0.2839239170822836
-0.4793782235624917	0.24411684735938677
-0.4793171884062417	0.20162775578809164
-0.4792561532499917	0.15692448025155306
-0.4791951180937417	0.11049950159626916
-0.4791340829374917	0.06286450186026532
-0.4790730477812417	0.014544639953261895
-0.4790120126249917	-0.03392709698382164
-0.4789509774687417	-0.08201598362602298
-0.4788899423124917	-0.12919132741089245
-0.4788289071562417	-0.17493236120140604
-0.4787678719999917	-0.21873411617135466
-0.4787068368437417	-0.26011283477572855
-0.4786458016874917	-0.2986115470983052
-0.4785847665312417	-0.3338049488301947
-0.4785237313749917	-0.3653042688816468
-0.4784626962187417	-0.3927615075847495
-0.4784016610624917	-0.41587328805012985
-0.4783406259062417	-0.43438437754256387
-0.4782795907499917	-0.4480903092411765
-0.4782185555937417	-0.45683989485363025
-0.4781575204374917	-0.4605367595625674
-0.4780964852812417	-0.4591404730597861
-0.4780354501249917	-0.4526671051955203
-0.4779744149687417	-0.4411889059765429
-0.4779133798124917	-0.4248336845736178
-0.4778523446562417	-0.4037833112584093
-0.4777913094999917	-0.37827174024929167
-0.4777302743437417	-0.34858249330944036
-0.4776692391874917	-0.31504541580749923
-0.4776082040312417	-0.2780331576813723
-0.4775471688749917	-0.2379569705595808
-0.4774861337187417	-0.19526217138251467
-0.4774250985624917	-0.15042325172847612
-0.4773640634062417	-0.1039385574573983
-0.4773030282499917	-0.056324830637678666
-0.4772419930937417	-0.008111395597577262
-0.4771809579374917	0.04016562100106084
-0.4771199227812417	0.08796931436935647
-0.4770588876249917	0.13476797724738834
-0.4769978524687417	0.1800409014978332
-0.4769368173124917	0.22328432842992724
-0.4768757821562417	0.26401694491234695
-0.4768147469999917	0.3017852177606861
-0.4767537118437417	0.33616860014462874
-0.4766926766874917	0.36678404574188384
-0.4766316415312417	0.3932903722311855
-0.4765706063749917	0.4153921036369152
-0.4765095712187417	0.4328426625754031
-0.4764485360624917	0.44544726204540586
-0.4763875009062417	0.453064996539874
-0.4763264657499917	0.4556104919211611
-0.4762654305937417	0.45305484626255504
-0.4762043954374917	0.44542597451047844
-0.4761433602812417	0.43280836396744155
-0.4760823251249917	0.415342086389751
-0.4760212899687417	0.39322133837700285
-0.4759602548124917	0.36669223598357586
-0.4758992196562417	0.336050144300106
-0.4758381844999917	0.30163639004320975
-0.4757771493437417	0.2638344718562206
-0.4757161141874917	0.22306583461763527
-0.4756550790312417	0.17978514159144676
-0.4755940438749917	0.13447530012567316
-0.4755330087187417	0.08764201086883346
-0.4754719735624917	0.039808189848625435
-0.4754109384062417	-0.008491839563661197
-0.4753499032499917	-0.056718350693738324
-0.4752888680937417	-0.10433216801922078
-0.4752278329374917	-0.15080072636402345
-0.4751667977812417	-0.19560398011534091
-0.4751057626249917	-0.2382402306127581
-0.4750447274687417	-0.27823169376020357
-0.4749836923124917	-0.3151298991082345
-0.4749226571562417	-0.3485206735463757
-0.4748616219999917	-0.37802873986479824
-0.4748005868437417	-0.4033220245718869
-0.4747395516874917	-0.42411526706527813
-0.4746785165312417	-0.44017332939760684
-0.4746174813749917	-0.45131379705347624
-0.4745564462187417	-0.4574090119698242
-0.4744954110624917	-0.45838763351550493
-0.4744343759062417	-0.4542353389791735
-0.4743733407499917	-0.4449951070953552
-0.4743123055937417	-0.430766747559752
-0.4742512704374917	-0.41170578307272176
-0.4741902352812417	-0.38802181522381973
-0.4741292001249917	-0.3599761548185042
-0.4740681649687417	-0.3278789663635973
-0.4740071298124917	-0.29208583487401385
-0.4739460946562417	-0.25299381904605195
-0.4738850594999917	-0.2110370427963502
-0.4738240243437417	-0.16668187054584707
-0.4737629891874917	-0.12042173677681016
-0.4737019540312417	-0.07277162276550872
-0.4736409188749917	-0.02426237081470529
-0.4735798837187417	0.024565283127834618
-0.4735188485624917	0.07316673466891689
-0.4734578134062417	0.12099951033752859
-0.4733967782499917	0.16752945168409195
-0.4733357430937417	0.21223659812200643
-0.4732747079374917	0.2546209807259679
-0.4732136727812417	0.29420832327375157
-0.4731526376249917	0.33055523613216564
-0.4730916024687417	0.36325422638272054
-0.4730305673124917	0.3919383368694825
-0.4729695321562417	0.41628513433273995
-0.4729084969999917	0.43602045184021976
-0.4728474618437417	0.4509214437832869
-0.4727864266874917	0.46081903476466113
-0.4727253915312417	0.46559998555667653
-0.4726643563749917	0.4652080300465815
-0.4726033212187417	0.45964464368596825
-0.4725422860624917	0.44896903709793745
-0.4724812509062417	0.43329747014845066
-0.4724202157499917	0.4128020806200794
-0.4723591805937417	0.38770890088005655
-0.4722981454374917	0.35829542656545554
-0.4722371102812417	0.3248875098670305
-0.4721760751249917	0.28785575160114224
-0.4721150399687417	0.2476113794340237
-0.4720540048124917	0.20460171006951522
-0.4719929696562417	0.15930510599180095
-0.4719319344999917	0.11222566270275575
-0.4718708993437417	0.06388767593662673
-0.4718098641874917	0.014829624381872089
-0.4717488290312417	-0.0344016922916212
-0.4716877938749917	-0.0832573205678098
-0.4716267587187417	-0.13119234607034455
-0.4715657235624917	-0.17767186041024216
-0.4715046884062417	-0.22217708859818075
-0.4714436532499917	-0.26421108952563416
-0.4713826180937417	-0.30330436895540147
-0.4713215829374917	-0.3390201953157361
-0.4712605477812417	-0.37095937560415426
-0.4711995126249917	-0.3987648769602429
-0.4711384774687417	-0.4221257447595573
-0.4710774423124917	-0.4407806293149879
-0.4710164071562417	-0.4545207884671765
-0.4709553719999917	-0.4631923360822707
-0.4708943368437417	-0.4666980967685593
-0.4708333016874917	-0.46499866473030704
-0.4707722665312417	-0.45811286472004115
-0.4707112313749917	-0.4461175972713537
-0.4706501962187417	-0.42914697668827284
-0.4705891610624917	-0.4073908607355204
-0.4705281259062417	-0.38109274264221243
-0.4704670907499917	-0.35054706037500283
-0.4704060555937417	-0.3160958892926932
-0.4703450204374917	-0.27812514894076557
-0.4702839852812417	-0.23706029259253372
-0.4702229501249917	-0.1933615479534917
-0.4701619149687417	-0.14751875961381467
-0.4701008798124917	-0.10004592241520827
-0.4700398446562417	-0.05147544036019963
-0.4699788094999917	-0.002352111125538077
-0.4699177743437417	0.04677294047721174
-0.4698567391874917	0.09534844288528702
-0.4697957040312417	0.14282919247924056
-0.4697346688749917	0.1886821568013109
-0.4696736337187417	0.2323924758857365
