Time	Frequency
-0.5000014795937489	0.06620313709957333
-0.49994044443749885	0.0374913636891833
-0.49987940928124885	0.008484254436111434
-0.49981837412499885	-0.020636325850678455
-0.49975733896874885	-0.04968763914790176
-0.49969630381249885	-0.07848723656030424
-0.49963526865624885	-0.10685413647764502
-0.49957423349999885	-0.13460991340287848
-0.49951319834374885	-0.16157991911355782
-0.49945216318749885	-0.18759428369739325
-0.49939112803124885	-0.21248907775598358
-0.49933009287499885	-0.2361073093347807
-0.49926905771874885	-0.2582999298255322
-0.49920802256249885	-0.2789268027437818
-0.49914698740624885	-0.29785755820792786
-0.49908595224999885	-0.31497243766272387
-0.49902491709374885	-0.33016309350936696
-0.49896388193749885	-0.3433332166454043
-0.49890284678124885	-0.354399201075785
-0.49884181162499885	-0.3632906672097803
-0.49878077646874885	-0.36995089783735047
-0.49871974131249885	-0.3743372418802255
-0.49865870615624885	-0.3764213313228855
-0.49859767099999885	-0.3761893469575633
-0.49853663584374885	-0.3736420265978817
-0.49847560068749885	-0.36879475075709983
-0.49841456553124885	-0.36167737491633845
-0.49835353037499885	-0.3523341177344416
-0.49829249521874885	-0.34082322403251886
-0.49823146006249885	-0.32721665748758244
-0.49817042490624885	-0.31159960073788634
-0.49810938974999885	-0.29406997650689076
-0.49804835459374885	-0.27473776161942165
-0.49798731943749885	-0.25372437337656706
-0.49792628428124885	-0.23116184512389942
-0.49786524912499885	-0.20719200765454515
-0.49780421396874885	-0.1819656396804666
-0.49774317881249885	-0.15564140495222936
-0.49768214365624885	-0.12838501961228888
-0.49762110849999885	-0.10036799047566128
-0.49756007334374885	-0.07176675171361549
-0.49749903818749885	-0.042761357991572144
-0.49743800303124885	-0.013534474362679716
-0.49737696787499885	0.01572986734793938
-0.49731593271874885	0.044847372249142654
-0.49725489756249885	0.07363469198144353
-0.49719386240624885	0.10191059228756066
-0.49713282724999885	0.12949704733688627
-0.49707179209374885	0.15622048556171864
-0.49701075693749885	0.18191272428605634
-0.49694972178124885	0.20641224051937046
-0.49688868662499885	0.22956500549973685
-0.49682765146874885	0.2512256259379591
-0.49676661631249885	0.2712581507371321
-0.49670558115624885	0.2895370119756757
-0.49664454599999885	0.3059477932939718
-0.49658351084374885	0.3203879698461798
-0.49652247568749885	0.3327675663780368
-0.49646144053124885	0.3430097132059307
-0.49640040537499885	0.35105118005474184
-0.49633937021874885	0.35684271661166156
-0.49627833506249885	0.3603494524972607
-0.49621729990624885	0.3615510326751695
-0.49615626474999885	0.36044183972329774
-0.49609522959374885	0.35703094643295097
-0.49603419443749885	0.35134214237945827
-0.49597315928124885	0.34341371210668964
-0.49591212412499885	0.3332982587099364
-0.49585108896874885	0.3210623178964958
-0.49579005381249885	0.3067859775094443
-0.49572901865624885	0.2905623485282541
-0.49566798349999885	0.27249696504179416
-0.49560694834374885	0.25270715024589935
-0.49554591318749885	0.2313212210848544
-0.49548487803124885	0.20847772380897064
-0.49542384287499885	0.18432449755613875
-0.49536280771874885	0.15901778259658755
-0.49530177256249885	0.13272117886868157
-0.49524073740624885	0.10560464648135746
-0.49517970224999885	0.07784337643743655
-0.49511866709374885	0.04961671279098583
-0.49505763193749885	0.021106979509575005
-0.49499659678124885	-0.007501686392158206
-0.49493556162499885	-0.0360244769201031
-0.49487452646874885	-0.06427715663788015
-0.49481349131249885	-0.0920771761697968
-0.49475245615624885	-0.11924488243662773
-0.49469142099999885	-0.14560467171157404
-0.49463038584374885	-0.17098608133315002
-0.49456935068749885	-0.19522493321333173
-0.49450831553124885	-0.218164336815761
-0.49444728037499885	-0.23965572248480835
-0.49438624521874885	-0.2595598186838385
-0.49432521006249885	-0.2777474971179054
-0.49426417490624885	-0.2941006545590204
-0.49420313974999885	-0.30851292838024214
-0.49414210459374885	-0.32089043652721366
-0.49408106943749885	-0.3311523393896445
-0.49402003428124885	-0.3392313745806594
-0.49395899912499885	-0.3450743320508245
-0.49389796396874885	-0.34864233225954283
-0.49383692881249885	-0.34991115860423355
-0.49377589365624885	-0.34887135824206966
-0.49371485849999885	-0.34552835385003366
-0.49365382334374885	-0.33990238918822047
-0.49359278818749885	-0.3320284218025062
-0.49353175303124885	-0.32195590426089443
-0.49347071787499885	-0.30974846939281003
-0.49340968271874885	-0.2954835400675789
-0.49334864756249885	-0.2792518269528055
-0.49328761240624885	-0.26115677121232117
-0.49322657724999885	-0.24131387740623303
-0.49316554209374885	-0.21984996792566028
-0.49310450693749885	-0.19690241822887303
-0.49304347178124885	-0.17261822385219364
-0.49298243662499885	-0.14715311232970518
-0.49292140146874885	-0.12067052663734341
-0.49286036631249885	-0.09334057003871751
-0.49279933115624885	-0.06533896548935499
-0.49273829599999885	-0.03684585288705265
-0.49267726084374885	-0.008044739183572099
-0.49261622568749885	0.02087878470030849
-0.49255519053124885	0.04973814965671194
-0.49249415537499885	0.07834705965317433
-0.49243312021874885	0.10652063120271478
-0.49237208506249885	0.13407666898343518
-0.49231104990624885	0.16083672712569586
-0.49225001474999885	0.18662734425875221
-0.49218897959374885	0.21128113569649629
-0.49212794443749885	0.2346378254875145
-0.49206690928124885	0.25654537659860277
-0.49200587412499885	0.27686085062896804
-0.49194483896874885	0.29545146363347324
-0.49188380381249885	0.31219530917022287
-0.49182276865624885	0.32698228525842477
-0.49176173349999885	0.33971468102175645
-0.49170069834374885	0.3503079181940772
-0.49163966318749885	0.35869103456153756
-0.49157862803124885	0.36480717196361645
-0.49151759287499885	0.36861397049608546
-0.49145655771874885	0.3700838084324262
-0.49139552256249885	0.36920404052078354
-0.49133448740624885	0.36597703510847074
-0.49127345224999885	0.3604202279736849
-0.49121241709374885	0.352565965629655
-0.49115138193749885	0.34246135819215306
-0.49109034678124885	0.33016794551931383
-0.49102931162499885	0.3157613463359095
-0.49096827646874885	0.29933076342825876
-0.49090724131249885	0.28097842761440234
-0.49084620615624885	0.2608189498597232
-0.49078517099999885	0.23897860148461508
-0.49072413584374885	0.2155945015919485
-0.49066310068749885	0.19081375110695112
-0.49060206553124885	0.16479250401445092
-0.49054103037499885	0.13769495259731573
-0.49047999521874885	0.10969230249173577
-0.49041896006249885	0.08096166739153646
-0.49035792490624885	0.05168493186341663
-0.49029688974999885	0.022047604210733186
-0.49023585459374885	-0.007762387381520884
-0.49017481943749885	-0.03755586891971827
-0.49011378428124885	-0.06714370150170715
-0.49005274912499885	-0.0963378817307645
-0.48999171396874885	-0.12495286423416149
-0.48993067881249885	-0.1528066849946855
-0.48986964365624885	-0.17972213736372453
-0.48980860849999885	-0.20552793793700835
-0.48974757334374885	-0.23005977433127797
-0.48968653818749885	-0.2531614731576936
-0.48962550303124885	-0.2746858307319514
-0.48956446787499885	-0.29449576371101277
-0.48950343271874885	-0.3124650137219906
-0.48944239756249885	-0.32847909536473646
-0.48938136240624885	-0.3424359535084926
-0.48932032724999885	-0.35424666333727756
-0.48925929209374885	-0.36383601564416507
-0.48919825693749885	-0.3711429432573714
-0.48913722178124885	-0.376121024313346
-0.48907618662499885	-0.37873866612694745
-0.48901515146874885	-0.3789794302133481
-0.48895411631249885	-0.37684203938508576
-0.48889308115624885	-0.37234048528018165
-0.48883204599999885	-0.36550386623511066
-0.48877101084374885	-0.35637626773440373
-0.48870997568749885	-0.34501643975526025
-0.48864894053124885	-0.3314974546094242
-0.48858790537499885	-0.3159062286776276
-0.48852687021874885	-0.2983429659531983
-0.48846583506249885	-0.2789205386944645
-0.48840479990624885	-0.25776373029292365
-0.48834376474999885	-0.2350084810259286
-0.48828272959374885	-0.2108009725010691
-0.48822169443749885	-0.18529673292013504
-0.48816065928124885	-0.15865960367464318
-0.48809962412499885	-0.13106070701549885
-0.48803858896874885	-0.10267735277444952
-0.48797755381249885	-0.07369186865126721
-0.48791651865624885	-0.04429045978839826
-0.48785548349999885	-0.014662009593810485
-0.48779444834374885	0.015003178755368052
-0.48773341318749885	0.04451454460023533
-0.48767237803124885	0.07368254708303094
-0.48761134287499885	0.10231986965635229
-0.48755030771874885	0.1302426250383551
-0.48748927256249885	0.15727154021135953
-0.48742823740624885	0.18323312607850878
-0.48736720224999885	0.20796079672832662
-0.48730616709374885	0.23129593080471741
-0.48724513193749885	0.2530889076642537
-0.48718409678124885	0.27320007974910504
-0.48712306162499885	0.2915006768426882
-0.48706202646874885	0.30787362450368433
-0.48700099131249885	0.32221432230753966
-0.48693995615624885	0.33443131229491124
-0.48687892099999885	0.3444468857159868
-0.48681788584374885	0.3521975628754153
-0.48675685068749885	0.35763454896448005
-0.48669581553124885	0.3607240029320312
-0.48663478037499885	0.3614473076805122
-0.48657374521874885	0.35980116491252995
-0.48651271006249885	0.3557976308720654
-0.48645167490624885	0.3494640465398409
-0.48639063974999885	0.34084285330756064
-0.48632960459374885	0.3299913378220813
-0.48626856943749885	0.31698125542263383
-0.48620753428124885	0.30189837049448653
-0.48614649912499885	0.28484191155023236
-0.48608546396874885	0.26592392486082794
-0.48602442881249885	0.24526855987868978
-0.48596339365624885	0.22301126455380785
-0.48590235849999885	0.19929791280518305
-0.48584132334374885	0.17428385928245943
-0.48578028818749885	0.1481329373776279
-0.48571925303124885	0.1210164174455415
-0.48565821787499885	0.09311183712738336
-0.48559718271874885	0.06460196810723481
-0.48553614756249885	0.035673481262477866
-0.48547511240624885	0.006515881562020633
-0.48541407724999885	-0.02267983330257729
-0.48535304209374885	-0.05172232359970038
-0.48529200693749885	-0.08042122812223884
-0.48523097178124885	-0.10858833846877242
-0.48516993662499885	-0.13603884149968398
-0.48510890146874885	-0.16259257026727822
-0.48504786631249885	-0.18807506862720846
-0.48498683115624885	-0.21231884771845003
-0.48492579599999885	-0.2351643757996319
-0.48486476084374885	-0.25646120350635676
-0.48480372568749885	-0.2760688717899488
-0.48474269053124885	-0.2938578909485694
-0.48468165537499885	-0.30971053466941956
-0.48462062021874885	-0.32352167194197173
-0.48455958506249885	-0.3351993811146761
-0.48449854990624885	-0.3446656420338264
-0.48443751474999885	-0.3518567612679063
-0.48437647959374885	-0.3567238740159588
-0.48431544443749885	-0.3592332128966299
-0.48425440928124885	-0.359366369042543
-0.48419337412499885	-0.35712040734092865
-0.48413233896874885	-0.35250789474569183
-0.48407130381249885	-0.3455568375550644
-0.48401026865624885	-0.3363104939697511
-0.48394923349999885	-0.32482712012577214
-0.48388819834374885	-0.31117957711540734
-0.48382716318749885	-0.29545490196442786
-0.48376612803124885	-0.2777537030546248
-0.48370509287499885	-0.25818956890522815
-0.48364405771874885	-0.23688828014011806
-0.48358302256249885	-0.21398705995749265
-0.48352198740624885	-0.18963363476653192
-0.48346095224999885	-0.16398532303494864
-0.48339991709374885	-0.1372079705904348
-0.48333888193749885	-0.10947496496061274
-0.48327784678124885	-0.08096597987229351
-0.48321681162499885	-0.05186596123041465
-0.48315577646874885	-0.022363785690485152
-0.48309474131249885	0.007348828379397359
-0.48303370615624885	0.03707869536185312
-0.48297267099999885	0.06663232181961874
-0.48291163584374885	0.09581719482275389
-0.48285060068749885	0.1244430792026974
-0.48278956553124885	0.15232314656816523
-0.48272853037499885	0.17927534396902928
-0.48266749521874885	0.20512341664351957
-0.48260646006249885	0.22969822078301086
-0.48254542490624885	0.2528386579107967
-0.48248438974999885	0.27439291539854727
-0.48242335459374885	0.2942192718190845
-0.48236231943749885	0.312187190671426
-0.48230128428124885	0.3281780329846102
-0.48224024912499885	0.3420859715142203
-0.48217921396874885	0.35381857362685004
-0.48211817881249885	0.3632974824692622
-0.48205714365624885	0.37045891041604123
-0.48199610849999885	0.3752540548660265
-0.48193507334374885	0.3776494686847458
-0.48187403818749885	0.3776272027036039
-0.48181300303124885	0.375185057967028
-0.48175196787499885	0.370336459891264
-0.48169093271874885	0.3631105427158189
-0.48162989756249885	0.3535518067869388
-0.48156886240624885	0.34171999821770843
-0.48150782724999885	0.3276895821247678
-0.48144679209374885	0.31154939890515265
-0.48138575693749885	0.29340198760023944
-0.48132472178124885	0.27336300732527247
-0.48126368662499885	0.251560444955505
-0.48120265146874885	0.22813380204357428
-0.48114161631249885	0.20323322655963605
-0.48108058115624885	0.17701847743352647
-0.48101954599999885	0.1496579546574516
-0.48095851084374885	0.12132757918819877
-0.48089747568749885	0.09220965055003226
-0.48083644053124885	0.06249167322769798
-0.48077540537499885	0.032365148913758565
-0.48071437021874885	0.00202430563829641
-0.48065333506249885	-0.028335139079199854
-0.48059229990624885	-0.05851725680979878
-0.48053126474999885	-0.08832719459895176
-0.48047022959374885	-0.11757242772063203
-0.48040919443749885	-0.14606401246469
-0.48034815928124885	-0.17361785384515885
-0.48028712412499885	-0.200055841897179
-0.48022608896874885	-0.22520708343494533
-0.48016505381249885	-0.24890895805403418
-0.48010401865624885	-0.2710082189753901
-0.48004298349999885	-0.2913619934679541
-0.47998194834374885	-0.3098386866728784
-0.47992091318749885	-0.32631888824355837
-0.47985987803124885	-0.3406961143119924
-0.47979884287499885	-0.3528775292881429
-0.47973780771874885	-0.3627845704958926
-0.47967677256249885	-0.3703534123004493
-0.47961573740624885	-0.37553546422085854
-0.47955470224999885	-0.37829761555468594
-0.47949366709374885	-0.3786225306448338
-0.47943263193749885	-0.376508698204821
-0.47937159678124885	-0.37197051298195727
-0.47931056162499885	-0.36503813129415286
-0.47924952646874885	-0.35575732482261724
-0.47918849131249885	-0.3441891546337114
-0.47912745615624885	-0.33040960118788626
-0.47906642099999885	-0.3145090593416444
-0.47900538584374885	-0.29659176143746274
-0.47894435068749885	-0.2767751065283302
-0.47888331553124885	-0.2551888642128172
-0.47882228037499885	-0.23197440729549465
-0.47876124521874885	-0.20728368117546472
-0.47870021006249885	-0.1812783400160765
-0.47863917490624885	-0.1541285685959624
-0.47857813974999885	-0.1260121052461527
-0.47851710459374885	-0.09711293468635941
-0.47845606943749885	-0.06762022949427382
-0.47839503428124885	-0.037727018255923415
-0.47833399912499885	-0.0076289539013310575
-0.47827296396874885	0.022476925825995454
-0.47821192881249885	0.052393596699154985
-0.47815089365624885	0.08192517354305744
-0.47808985849999885	0.11087836057795133
-0.47802882334374885	0.1390635930637755
-0.47796778818749885	0.16629634725932504
-0.47790675303124885	0.1923983326956612
-0.47784571787499885	0.2171986392426838
-0.47778468271874885	0.24053490979839898
-0.47772364756249885	0.2622543469596515
-0.47766261240624885	0.28221476286003916
-0.47760157724999885	0.30028549985258574
-0.47754054209374885	0.3163482816850514
-0.47747950693749885	0.33029801043577245
-0.47741847178124885	0.3420434416102
-0.47735743662499885	0.35150780619465427
-0.47729640146874885	0.3586293052985564
-0.47723536631249885	0.3633615280063847
-0.47717433115624885	0.3656737594395881
-0.47711329599999885	0.36555118766019834
-0.47705226084374885	0.3629950092757054
-0.47699122568749885	0.35802242339132095
-0.47693019053124885	0.3506665302188804
-0.47686915537499885	0.34097611349671686
-0.47680812021874885	0.32901533382404
-0.47674708506249885	0.3148633076603172
-0.47668604990624885	0.2986135911392019
-0.47662501474999885	0.28037358341193686
-0.47656397959374885	0.26026381193867987
-0.47650294443749885	0.23841715739704214
-0.47644190928124885	0.21497797257599288
-0.47638087412499885	0.19010116060053042
-0.47631983896874885	0.16395113031843433
-0.47625880381249885	0.13670074853608183
-0.47619776865624885	0.10853019248185697
-0.47613673349999885	0.07962575800028064
-0.47607569834374885	0.05017867337192261
-0.47601466318749885	0.02038378693255823
-0.47595362803124885	-0.009561637532640258
-0.47589259287499885	-0.039459318169758284
-0.47583155771874885	-0.06911114522734858
-0.47577052256249885	-0.09832057506832378
-0.47570948740624885	-0.1268938901746919
-0.47564845224999885	-0.15464145494788528
-0.47558741709374885	-0.18137902684004367
-0.47552638193749885	-0.20692888348457714
-0.47546534678124885	-0.2311211004684943
-0.47540431162499885	-0.2537945744046357
-0.47534327646874885	-0.2747981706448985
-0.47528224131249885	-0.29399166036443775
-0.47522120615624885	-0.31124669847945485
-0.47516017099999885	-0.3264476464142492
-0.47509913584374885	-0.3394923472688736
-0.47503810068749885	-0.3502928275578448
-0.47497706553124885	-0.3587758390195359
-0.47491603037499885	-0.36488340301714783
-0.47485499521874885	-0.3685731614473001
-0.47479396006249885	-0.3698186893742274
-0.47473292490624885	-0.36860966231051095
-0.47467188974999885	-0.36495194966205224
-0.47461085459374885	-0.35886756986364443
-0.47454981943749885	-0.35039457005933394
-0.47448878428124885	-0.33958677443239255
-0.47442774912499885	-0.32651344586306286
-0.47436671396874885	-0.31125883781168046
-0.47430567881249885	-0.2939216468402133
-0.47424464365624885	-0.27461436613070417
-0.47418360849999885	-0.2534625771007415
-0.47412257334374885	-0.2306040927946177
-0.47406153818749885	-0.2061880853786527
-0.47400050303124885	-0.18037410865081163
-0.47393946787499885	-0.15333103015057103
-0.47387843271874885	-0.12523596281848992
-0.47381739756249885	-0.09627305524191702
-0.47375636240624885	-0.06663232631538181
-0.47369532724999885	-0.03650839810192998
-0.47363429209374885	-0.006099205963299234
-0.47357325693749885	0.024395289613533027
-0.47351222178124885	0.05477441563855547
-0.47345118662499885	0.08483813284950366
-0.47339015146874885	0.11438832629748603
-0.47332911631249885	0.14323013168416657
-0.47326808115624885	0.17117321199574304
-0.47320704599999885	0.19803301789920885
-0.47314601084374885	0.22363202134540905
-0.47308497568749885	0.24780085820998124
-0.47302394053124885	0.27037948973733583
-0.47296290537499885	0.29121823287653764
-0.47290187021874885	0.31017876717648213
-0.47284083506249885	0.3271350512770017
-0.47277979990624885	0.34197416585152957
-0.47271876474999885	0.3545970573176268
-0.47265772959374885	0.36491921115225723
-0.47259669443749885	0.3728712050732238
-0.47253565928124885	0.37839919021801033
-0.47247462412499885	0.38146524367068363
-0.47241358896874885	0.38204763430020494
-0.47235255381249885	0.38014097867573654
-0.47229151865624885	0.3757562755911807
-0.47223048349999885	0.36892085707413363
-0.47216944834374885	0.3596782045409346
-0.47210841318749885	0.34808768248861527
-0.47204737803124885	0.33422415154741475
-0.47198634287499885	0.3181774747207717
-0.47192530771874885	0.30005195302520626
-0.47186427256249885	0.2799656266346065
-0.47180323740624885	0.25804950979187696
-0.47174220224999885	0.2344467448229994
-0.47168116709374885	0.20931163003318135
-0.47162013193749885	0.18280866286050673
-0.47155909678124885	0.15511140230443743
-0.47149806162499885	0.1264013672898803
-0.47143702646874885	0.09686681035788404
-0.47137599131249885	0.06670151952668517
-0.47131495615624885	0.03610350226460211
-0.47125392099999885	0.00527370630128146
-0.47119288584374885	-0.025585332164389428
-0.47113185068749885	-0.05627079099358326
-0.47107081553124885	-0.08658093647542868
-0.47100978037499885	-0.1163164392545662
-0.47094874521874885	-0.14528166755511537
-0.47088771006249885	-0.17328606139870478
-0.47082667490624885	-0.20014527962389642
-0.47076563974999885	-0.22568254188686385
-0.47070460459374885	-0.24972968919147212
-0.47064356943749885	-0.27212839289319224
-0.47058253428124885	-0.2927311469708941
-0.47052149912499885	-0.31140226223849266
-0.47046046396874885	-0.328018788978856
