Time	Frequency
-0.500041776125002	-0.25552484176611145
-0.499980740968752	-0.24031737303284803
-0.499919705812502	-0.2238555530644886
-0.499858670656252	-0.2062229271825896
-0.499797635500002	-0.18750906945696466
-0.499736600343752	-0.1678090751891934
-0.499675565187502	-0.14722314281687304
-0.499614530031252	-0.12585599416748294
-0.499553494875002	-0.10381642339864963
-0.499492459718752	-0.08121669068174299
-0.499431424562502	-0.058171966522862134
-0.499370389406252	-0.03479978205186899
-0.499309354250002	-0.011219371788918776
-0.499248319093752	0.012448854882103923
-0.499187283937502	0.0360840068757245
-0.499126248781252	0.05956524659793907
-0.499065213625002	0.08277245692091999
-0.499004178468752	0.10558683090078182
-0.498943143312502	0.12789148019817637
-0.498882108156252	0.14957202129856678
-0.498821073000002	0.17051718263057997
-0.498760037843752	0.19061931847078345
-0.498699002687502	0.20977503986611604
-0.498637967531252	0.22788565675187467
-0.498576932375002	0.2448577426756091
-0.498515897218752	0.2606035793038158
-0.498454862062502	0.27504163403935483
-0.498393826906252	0.28809693193984237
-0.498332791750002	0.2997015088096283
-0.498271756593752	0.3097946873753496
-0.498210721437502	0.3183234527185116
-0.498149686281252	0.3252426725632595
-0.498088651125002	0.3305153916439121
-0.498027615968752	0.3341129558253023
-0.497966580812502	0.33601523173248665
-0.497905545656252	0.33621065538852996
-0.497844510500002	0.33469634674324983
-0.497783475343752	0.3314780876295516
-0.497722440187502	0.3265703327140657
-0.497661405031252	0.319996115414594
-0.497600369875002	0.31178695825160613
-0.497539334718752	0.3019827018453191
-0.497478299562502	0.29063131759924515
-0.497417264406252	0.27778866620566284
-0.497356229250002	0.26351822408412023
-0.497295194093752	0.24789075846994443
-0.497234158937502	0.23098397227898
-0.497173123781252	0.21288213293379196
-0.497112088625002	0.19367562141843142
-0.497051053468752	0.17346049136801064
-0.496990018312502	0.15233800271717332
-0.496928983156252	0.13041405991555838
-0.496867948000002	0.1077987450765424
-0.496806912843752	0.0846057025235572
-0.496745877687502	0.06095159289582517
-0.496684842531252	0.036955515107791555
-0.496623807375002	0.01273835010543573
-0.496562772218752	-0.011577765771454238
-0.496501737062502	-0.03587016345507564
-0.496440701906252	-0.06001616402715226
-0.496379666750002	-0.083893794612686
-0.496318631593752	-0.10738231080888339
-0.496257596437502	-0.130362903269609
-0.496196561281252	-0.1527192391007782
-0.496135526125002	-0.17433808902729195
-0.496074490968752	-0.19510987627541088
-0.496013455812502	-0.2149292674910799
-0.495952420656252	-0.2336956721874919
-0.495891385500002	-0.2513137946338481
-0.495830350343752	-0.2676941075907142
-0.495769315187502	-0.28275328332811434
-0.495708280031252	-0.2964146595275148
-0.495647244875002	-0.30860862311993253
-0.495586209718752	-0.31927294364952463
-0.495525174562502	-0.3283531290238325
-0.495464139406252	-0.3358026698092653
-0.495403104250002	-0.3415833203646855
-0.495342069093752	-0.3456652537634096
-0.495281033937502	-0.3480272632210061
-0.495219998781252	-0.3486568286035792
-0.495158963625002	-0.34755022507802336
-0.495097928468752	-0.3447125147459252
-0.495036893312502	-0.3401575511764714
-0.494975858156252	-0.3339078879715144
-0.494914823000002	-0.3259946952793191
-0.494853787843752	-0.3164575738095206
-0.494792752687502	-0.30534439699953125
-0.494731717531252	-0.2927110218090104
-0.494670682375002	-0.27862106547566157
-0.494609647218752	-0.26314552699121213
-0.494548612062502	-0.2463624740468536
-0.494487576906252	-0.22835663415623866
-0.494426541750002	-0.20921894502966937
-0.494365506593752	-0.18904613415112295
-0.494304471437502	-0.16794020085313702
-0.494243436281252	-0.14600789707208356
-0.494182401125002	-0.12336020527938231
-0.494121365968752	-0.10011176608894422
-0.494060330812502	-0.07638027646797614
-0.493999295656252	-0.05228593094615598
-0.493938260500002	-0.027950774992104653
-0.493877225343752	-0.0034980979626752966
-0.493816190187502	0.02094819735177811
-0.493755155031252	0.04526422046857437
-0.493694119875002	0.06932673661285349
-0.493633084718752	0.09301377229763376
-0.493572049562502	0.11620527720572292
-0.493511014406252	0.13878370000731088
-0.493449979250002	0.16063460421639025
-0.493388944093752	0.1816472463810498
-0.493327908937502	0.20171516501923747
-0.493266873781252	0.2207366882092734
-0.493205838625002	0.23861548945886282
-0.493144803468752	0.2552610577903919
-0.493083768312502	0.27058917394987236
-0.493022733156252	0.2845223392684572
-0.492961698000002	0.2969901715009729
-0.492900662843752	0.30792977244821707
-0.492839627687502	0.3172860431651913
-0.492778592531252	0.32501197700207085
-0.492717557375002	0.33106889520811794
-0.492656522218752	0.3354266574084972
-0.492595487062502	0.33806380206728204
-0.492534451906252	0.33896767702935743
-0.492473416750002	0.3381344921419804
-0.492412381593752	0.3355693524107113
-0.492351346437502	0.3312862274778447
-0.492290311281252	0.32530788588642556
-0.492229276125002	0.3176657817264792
-0.492168240968752	0.30839989343084917
-0.492107205812502	0.29755852601817956
-0.492046170656252	0.28519806034847645
-0.491985135500002	0.27138267370921054
-0.491924100343752	0.25618400707051164
-0.491863065187502	0.23968080339436093
-0.491802030031252	0.22195850909180156
-0.491740994875002	0.2031088327824883
-0.491679959718752	0.18322927548424875
-0.491618924562502	0.16242263767166587
-0.491557889406252	0.1407964938678501
-0.491496854250002	0.11846264723143894
-0.491435819093752	0.09553653518312796
-0.491374783937502	0.07213665584291457
-0.491313748781252	0.04838397382430604
-0.491252713625002	0.024401261384381888
-0.491191678468752	0.00031251597262210793
-0.491130643312502	-0.02375772762648932
-0.491069608156252	-0.047684990176757654
-0.491008573000002	-0.07134550698653962
-0.490947537843752	-0.09461689343295378
-0.490886502687502	-0.11737870191297142
-0.490825467531252	-0.1395131176939083
-0.490764432375002	-0.16090552706046277
-0.490703397218752	-0.18144510323672508
-0.490642362062502	-0.2010254113356388
-0.490581326906252	-0.21954491631519785
-0.490520291750002	-0.23690752416701183
-0.490459256593752	-0.2530231043922131
-0.490398221437502	-0.2678079072768224
-0.490337186281252	-0.2811850404705618
-0.490276151125002	-0.29308484182608796
-0.490215115968752	-0.30344525634249414
-0.490154080812502	-0.31221214812965925
-0.490093045656252	-0.3193395878974352
-0.490032010500002	-0.3247900952608825
-0.489970975343752	-0.32853483719002313
-0.489909940187502	-0.33055376701185407
-0.489848905031252	-0.3308357523274974
-0.489787869875002	-0.3293786203346771
-0.489726834718752	-0.3261891825871569
-0.489665799562502	-0.3212832014077337
-0.489604764406252	-0.31468531336685035
-0.489543729250002	-0.30642890880815254
-0.489482694093752	-0.29655595946105373
-0.489421658937502	-0.28511681499157265
-0.489360623781252	-0.27216994306405956
-0.489299588625002	-0.25778162646764385
-0.489238553468752	-0.2420256410287758
-0.489177518312502	-0.2249828663823064
-0.489116483156252	-0.20674087534686672
-0.489055448000002	-0.18739350195467375
-0.488994412843752	-0.16704032568205388
-0.488933377687502	-0.14578619934154732
-0.488872342531252	-0.12374069922332301
-0.488811307375002	-0.10101754569946764
-0.488750272218752	-0.07773404807903357
-0.488689237062502	-0.05401047358208897
-0.488628201906252	-0.029969458994910145
-0.488567166750002	-0.005735345352652633
-0.488506131593752	0.01856642723824512
-0.488445096437502	0.04280999126044583
-0.488384061281252	0.06686968611841229
-0.488323026125002	0.09062073119535902
-0.488261990968752	0.11393981139327004
-0.488200955812502	0.13670580016573075
-0.488139920656252	0.15880029970404566
-0.488078885500002	0.18010831179196163
-0.488017850343752	0.20051881696998938
-0.487956815187502	0.21992532507678364
-0.487895780031252	0.23822647580900516
-0.487834744875002	0.25532651622535674
-0.487773709718752	0.2711358360040961
-0.487712674562502	0.28557139829205413
-0.487651639406252	0.2985572130815538
-0.487590604250002	0.31002469001677635
-0.487529569093752	0.3199130452500632
-0.487468533937502	0.32816956717339424
-0.487407498781252	0.3347499401149421
-0.487346463625002	0.3396184466991756
-0.487285428468752	0.3427481809195581
-0.487224393312502	0.34412116838688767
-0.487163358156252	0.3437284965259546
-0.487102323000002	0.34157032874074905
-0.487041287843752	0.33765594704785784
-0.486980252687502	0.33200367793659086
-0.486919217531252	0.3246408320972845
-0.486858182375002	0.3156035450722214
-0.486797147218752	0.30493661478954653
-0.486736112062502	0.29269326289172176
-0.486675076906252	0.27893487800927275
-0.486614041750002	0.2637306970722371
-0.486553006593752	0.24715745025525976
-0.486491971437502	0.229298984795013
-0.486430936281252	0.21024580807087817
-0.486369901125002	0.19009466527863209
-0.486308865968752	0.16894801285706926
-0.486247830812502	0.14691349797579065
-0.486186795656252	0.12410342579648971
-0.486125760500002	0.10063415356957649
-0.486064725343752	0.07662552758739487
-0.486003690187502	0.05220023204977623
-0.485942655031252	0.027483186446908506
-0.485881619875002	0.002600876606259088
-0.485820584718752	-0.022319263910992627
-0.485759549562502	-0.04714955071131071
-0.485698514406252	-0.07176267024544225
-0.485637479250002	-0.09603236076162487
-0.485576444093752	-0.11983404849011756
-0.485515408937502	-0.14304552008754035
-0.485454373781252	-0.1655475035743094
-0.485393338625002	-0.18722434527834228
-0.485332303468752	-0.20796455196474176
-0.485271268312502	-0.2276614222448652
-0.485210233156252	-0.246213562146161
-0.485149198000002	-0.2635254125146463
-0.485088162843752	-0.27950777873911775
-0.485027127687502	-0.2940782414959132
-0.484966092531252	-0.3071616593876985
-0.484905057375002	-0.318690462876363
-0.484844022218752	-0.32860511290002203
-0.484782987062502	-0.33685432274377125
-0.484721951906252	-0.3433953971974548
-0.484660916750002	-0.34819439036575417
-0.484599881593752	-0.3512263584394279
-0.484538846437502	-0.3524754215513255
-0.484477811281252	-0.35193490813644684
-0.484416776125002	-0.3496073508730164
-0.484355740968752	-0.3455045123821542
-0.484294705812502	-0.3396472962550834
-0.484233670656252	-0.33206567541395393
-0.484172635500002	-0.3227985100213973
-0.484111600343752	-0.31189337671931006
-0.484050565187502	-0.29940631076208435
-0.483989530031252	-0.2854015268782541
-0.483928494875002	-0.2699510806768799
-0.483867459718752	-0.2531345180806889
-0.483806424562502	-0.2350384492256405
-0.483745389406252	-0.21575610751182284
-0.483684354250002	-0.1953868773375679
-0.483623319093752	-0.1740357789272935
-0.483562283937502	-0.15181290873105657
-0.483501248781252	-0.12883291431490534
-0.483440213625002	-0.10521434650256259
-0.483379178468752	-0.0810791047297892
-0.483318143312502	-0.056551750511335486
-0.483257108156252	-0.03175891523441842
-0.483196073000002	-0.006828606171521093
-0.483135037843752	0.018110432667801716
-0.483074002687502	0.042929401953181595
-0.483012967531252	0.06750011447183252
-0.482951932375002	0.09169563758562428
-0.482890897218752	0.11539098870917695
-0.482829862062502	0.13846374844546092
-0.482768826906252	0.16079471899637518
-0.482707791750002	0.182268537214498
-0.482646756593752	0.20277427756735386
-0.482585721437502	0.2222060126970045
-0.482524686281252	0.24046339967528554
-0.482463651125002	0.2574521584288444
-0.482402615968752	0.27308460178371646
-0.482341580812502	0.2872800747319209
-0.482280545656252	0.2999653741133362
-0.482219510500002	0.3110751416962497
-0.482158475343752	0.3205521978669622
-0.482097440187502	0.3283478412713226
-0.482036405031252	0.3344221171247971
-0.481975369875002	0.3387440120753654
-0.481914334718752	0.341291627122893
-0.481853299562502	0.34205229324930486
-0.481792264406252	0.34102264195850884
-0.481731229250002	0.33820861955949066
-0.481670194093752	0.3336254731841395
-0.481609158937502	0.3272976546568337
-0.481548123781252	0.3192587197862974
-0.481487088625002	0.3095511331347683
-0.481426053468752	0.2982260741735414
-0.481365018312502	0.2853431478650193
-0.481303983156252	0.27097011003135224
-0.481242948000002	0.25518247257254495
-0.481181912843752	0.2380631714105989
-0.481120877687502	0.21970206977753698
-0.481059842531252	0.20019555806133094
-0.480998807375002	0.17964600648904613
-0.480937772218752	0.15816124996544687
-0.480876737062502	0.1358540319133332
-0.480815701906252	0.11284143134374688
-0.480754666750002	0.08924419947797224
-0.480693631593752	0.06518620745050331
-0.480632596437502	0.0407937412592498
-0.480571561281252	0.016194872132904454
-0.480510526125002	-0.008481219538046059
-0.480449490968752	-0.03310490985265016
-0.480388455812502	-0.05754681902838849
-0.480327420656252	-0.0816784815877436
-0.480266385500002	-0.1053730195060301
-0.480205350343752	-0.12850580114317509
-0.480144315187502	-0.15095509010568664
-0.480083280031252	-0.172602711043748
-0.480022244875002	-0.19333460966569424
-0.479961209718752	-0.21304151973398675
-0.479900174562502	-0.23161948389203713
-0.479839139406252	-0.24897042902478045
-0.479778104250002	-0.2650026695649409
-0.479717069093752	-0.2796313864128563
-0.479656033937502	-0.2927790844512921
-0.479594998781252	-0.3043760013364276
-0.479533963625002	-0.3143604541077402
-0.479472928468752	-0.322679203487427
-0.479411893312502	-0.32928770174442584
-0.479350858156252	-0.3341503503400853
-0.479289823000002	-0.3372406869339996
-0.479228787843752	-0.33854152041779006
-0.479167752687502	-0.3380450396619771
-0.479106717531252	-0.3357528467802444
-0.479045682375002	-0.3316759640968149
-0.478984647218752	-0.32583477284884194
-0.478923612062502	-0.31825891942596457
-0.478862576906252	-0.3089871595136279
-0.478801541750002	-0.29806716801990085
-0.478740506593752	-0.28555528221066956
-0.478679471437502	-0.27151622809409964
-0.478618436281252	-0.25602276871015034
-0.478557401125002	-0.23915535031712987
-0.478496365968752	-0.221001655356911
-0.478435330812502	-0.20165618292159357
-0.478374295656252	-0.18121972963959146
-0.478313260500002	-0.1597988804744772
-0.478252225343752	-0.13750544925393124
-0.478191190187502	-0.11445589474699479
-0.478130155031252	-0.09077073007250913
-0.478069119875002	-0.06657385822581952
-0.478008084718752	-0.041991966537743154
-0.477947049562502	-0.01715383874699155
-0.477886014406252	0.007810311385657655
-0.477824979250002	0.03276951501557979
-0.477763944093752	0.05759274448858442
-0.477702908937502	0.08214959376953995
-0.477641873781252	0.10631096542380433
-0.477580838625002	0.1299497225548145
-0.477519803468752	0.152941418952052
-0.477458768312502	0.17516486607296347
-0.477397733156252	0.19650285503116557
-0.477336698000002	0.21684270444773113
-0.477275662843752	0.23607689760399786
-0.477214627687502	0.25410363839871936
-0.477153592531252	0.2708273660580977
-0.477092557375002	0.28615929888197555
-0.477031522218752	0.30001786926706986
-0.476970487062502	0.31232918058793363
-0.476909451906252	0.32302736961841994
-0.476848416750002	0.3320550060316942
-0.476787381593752	0.3393633326905785
-0.476726346437502	0.344912595164457
-0.476665311281252	0.34867219671852223
-0.476604276125002	0.3506209149413014
-0.476543240968752	0.35074697202979016
-0.476482205812502	0.3490481481146391
-0.476421170656252	0.34553175500729666
-0.476360135500002	0.34021464752539826
-0.476299100343752	0.3331230978950016
-0.476238065187502	0.32429270692673196
-0.476177030031252	0.3137681821156311
-0.476115994875002	0.30160314867444116
-0.476054959718752	0.28785983450172303
-0.475993924562502	0.27260878857442417
-0.475932889406252	0.25592848186979394
-0.475871854250002	0.237904927041278
-0.475810819093752	0.21863121543446418
-0.475749783937502	0.1982070432669563
-0.475688748781252	0.17673818389977175
-0.475627713625002	0.1543359521411494
-0.475566678468752	0.13111660172632844
-0.475505643312502	0.10720073430127353
-0.475444608156252	0.08271268902688385
-0.475383573000002	0.05777982208869946
-0.475322537843752	0.03253194373509008
-0.475261502687502	0.007100534678054664
-0.475200467531252	-0.018381843538366104
-0.475139432375002	-0.04378235226781914
-0.475078397218752	-0.06896844882220118
-0.475017362062502	-0.09380869880041383
-0.474956326906252	-0.1181733835490068
-0.474895291750002	-0.14193522235028574
-0.474834256593752	-0.1649700328462551
-0.474773221437502	-0.1871573746384756
-0.474712186281252	-0.20838119950766065
-0.474651151125002	-0.22853044276569706
-0.474590115968752	-0.24749964492297546
-0.474529080812502	-0.2651894478941903
-0.474468045656252	-0.28150719052155027
-0.474407010500002	-0.2963673377109509
-0.474345975343752	-0.30969198238775186
-0.474284940187502	-0.32141120999880896
-0.474223905031252	-0.331463518023049
-0.474162869875002	-0.33979610468892996
-0.474101834718752	-0.346365175105639
-0.474040799562502	-0.35113615750631355
-0.473979764406252	-0.3540839114332286
-0.473918729250002	-0.35519283689147535
-0.473857694093752	-0.35445698787343244
-0.473796658937502	-0.35188008462758696
-0.473735623781252	-0.3474755199485022
-0.473674588625002	-0.341266273582012
-0.473613553468752	-0.3332848121370528
-0.473552518312502	-0.32357291022109813
-0.473491483156252	-0.3121814441041423
-0.473430448000002	-0.29917012020411815
-0.473369412843752	-0.28460717488866993
-0.473308377687502	-0.2685690072582334
-0.473247342531252	-0.2511397859962755
-0.473186307375002	-0.23241102043362394
-0.473125272218752	-0.21248105787269195
-0.473064237062502	-0.19145459693516229
-0.473003201906252	-0.16944211249023913
-0.472942166750002	-0.14655929447253818
-0.472881131593752	-0.12292643981767618
-0.472820096437502	-0.09866781183979186
-0.472759061281252	-0.07391098159640085
-0.472698026125002	-0.04878619359821053
-0.472636990968752	-0.023425620119974035
-0.472575955812502	0.0020372673842923334
-0.472514920656252	0.027468466731352583
-0.472453885500002	0.05273408972033047
-0.472392850343752	0.07770111950876205
-0.472331815187502	0.10223807143893648
-0.472270780031252	0.1262157212233241
-0.472209744875002	0.14950776861860204
-0.472148709718752	0.17199150202303512
-0.472087674562502	0.19354845863217462
-0.472026639406252	0.21406504669780965
-0.471965604250002	0.2334331511042008
-0.471904569093752	0.25155068789635593
-0.471843533937502	0.2683221716936779
-0.471782498781252	0.28365921201555383
-0.471721463625002	0.29748097093399467
-0.471660428468752	0.3097146090475647
-0.471599393312502	0.320295674975279
-0.471538358156252	0.32916842353404036
-0.471477323000002	0.33628615668589745
-0.471416287843752	0.3416114225761409
-0.471355252687502	0.34511627243214577
-0.471294217531252	0.3467823546946159
-0.471233182375002	0.34660107506292176
-0.471172147218752	0.3445735870026981
-0.471111112062502	0.34071084288387077
-0.471050076906252	0.33503349470260413
-0.470989041750002	0.3275718294401001
-0.470928006593752	0.318365573152434
-0.470866971437502	0.30746372422116464
-0.470805936281252	0.29492425834307034
-0.470744901125002	0.28081386049935336
-0.470683865968752	0.26520755080214997
-0.470622830812502	0.24818830601926725
-0.470561795656252	0.22984660797977302
-0.470500760500002	0.210279995381154
-0.470439725343752	0.18959250201294134
-0.470378690187502	0.16789417290917016
-0.470317655031252	0.14530041710925654
-0.470256619875002	0.1219314529125704
-0.470195584718752	0.09791164146779148
-0.470134549562502	0.07336882599256805
-0.470073514406252	0.048433697043877795
-0.470012479250002	0.02323903578340971
-0.469951444093752	-0.0020809149806791938
-0.469890408937502	-0.027391247713652256
-0.469829373781252	-0.052557008977821326
-0.469768338625002	-0.07744400957717962
-0.469707303468752	-0.10191945103940972
-0.469646268312502	-0.12585271471714563
-0.469585233156252	-0.14911597092254497
-0.469524198000002	-0.171584938484002
-0.469463162843752	-0.19313948181698026
-0.469402127687502	-0.21366429399517556
-0.469341092531252	-0.2330494912784107
-0.469280057375002	-0.2511911949630576
-0.469219022218752	-0.2679921064719609
-0.469157987062502	-0.2833620095536241
-0.469096951906252	-0.2972182604867792
-0.469035916750002	-0.30948622506844037
-0.468974881593752	-0.32009968650241294
