Time	Frequency
-0.5000131127187615	-7.13750126837616e-26
-0.4999520775625115	-1.1002424178228668e-25
-0.4998910424062615	-1.476852947229884e-25
-0.4998300072500115	-1.8399854325711807e-25
-0.4997689720937615	-2.186168085574549e-25
-0.4997079369375115	-2.5120873434283906e-25
-0.4996469017812615	-2.8146199366327304e-25
-0.4995858666250115	-3.0908613353388317e-25
-0.4995248314687615	-3.338155054378463e-25
-0.4994637963125115	-3.5541167491749126e-25
-0.4994027611562615	-3.7366575711586665e-25
-0.4993417260000115	-3.884004409973503e-25
-0.4992806908437615	-3.9947162790779883e-25
-0.4992196556875115	-4.067698925541144e-25
-0.4991586205312615	-4.102214888870152e-25
-0.4990975853750115	-4.097891245298091e-25
-0.4990365502187615	-4.0547229007095175e-25
-0.4989755150625115	-3.973073328137208e-25
-0.4989144799062615	-3.8536711597726696e-25
-0.4988534447500115	-3.6976034804485855e-25
-0.4987924095937615	-3.506306081842906e-25
-0.4987313744375115	-3.2815496000276225e-25
-0.4986703392812615	-3.025423446637376e-25
-0.4986093041250115	-2.7403158553391295e-25
-0.4985482689687615	-2.4288915766753764e-25
-0.4984872338125115	-2.094066971303705e-25
-0.4984261986562615	-1.7389820263855597e-25
-0.4983651635000115	-1.366971396641548e-25
-0.4983041283437615	-9.815322247588802e-26
-0.4982430931875115	-5.86291664576315e-26
-0.4981820580312615	-1.849722732780184e-26
-0.4981210228750115	2.1864349601022763e-26
-0.4980599877187615	6.2074803135574e-26
-0.4979989525625115	1.0175465147793655e-25
-0.4979379174062615	1.405290813389688e-25
-0.4978768822500115	1.7803165899841288e-25
-0.4978158470937615	2.1390778142173707e-25
-0.4977548119375115	2.478179305857172e-25
-0.4976937767812615	2.7944113155350764e-25
-0.4976327416250115	3.0847773083161285e-25
-0.4975717064687615	3.346524743487359e-25
-0.4975106713125115	3.577170466664206e-25
-0.4974496361562615	3.7745237306195364e-25
-0.4973886010000115	3.936708791232263e-25
-0.4973275658437615	4.062180887318568e-25
-0.4972665306875115	4.149742881063672e-25
-0.4972054955312615	4.198555465524642e-25
-0.4971444603750115	4.2081457624803825e-25
-0.4970834252187615	4.178412631732655e-25
-0.4970223900625115	4.1096262380516163e-25
-0.4969613549062615	4.002427511828477e-25
-0.4969003197500115	3.8578207272659176e-25
-0.4968392845937615	3.6771649105697227e-25
-0.4967782494375115	3.4621611134406596e-25
-0.4967172142812615	3.2148356047785254e-25
-0.4966561791250115	2.937522155893763e-25
-0.4965951439687615	2.6328384207852946e-25
-0.4965341088125115	2.303662445433286e-25
-0.4964730736562615	1.9531047482608723e-25
-0.4964120385000115	1.5844787946091979e-25
-0.4963510033437615	1.2012706331833343e-25
-0.4962899681875115	8.071039186324248e-26
-0.4962289330312615	4.057074452978537e-26
-0.4961678978750115	8.786908022487706e-29
-0.4961068627187615	-4.035522682167921e-26
-0.4960458275625115	-8.037584270012357e-26
-0.4959847924062615	-1.1959534203482713e-25
-0.4959237572500115	-1.576426189072794e-25
-0.4958627220937615	-1.9415774399744298e-25
-0.4958016869375115	-2.2879533901354784e-25
-0.4957406517812615	-2.612278552292194e-25
-0.4956796166250115	-2.911487297394813e-25
-0.4956185814687615	-3.1827530774665485e-25
-0.4955575463125115	-3.4235150721800035e-25
-0.4954965111562615	-3.631502780403148e-25
-0.4954354760000115	-3.8047581250042948e-25
-0.4953744408437615	-3.9416532821655187e-25
-0.4953134056875115	-4.040907460244933e-25
-0.4952523705312615	-4.1015980414945786e-25
-0.4951913353750115	-4.1231701156898327e-25
-0.4951303002187615	-4.1054419132951816e-25
-0.4950692650625115	-4.048605986974557e-25
-0.4950082299062615	-3.953228405982196e-25
-0.4949471947500115	-3.8202424641214292e-25
-0.4948861595937615	-3.650940642495018e-25
-0.4948251244375115	-3.446961896824935e-25
-0.4947640892812615	-3.210276186365703e-25
-0.4947030541250115	-2.9431660199772822e-25
-0.4946420189687615	-2.6482041859371097e-25
-0.4945809838125115	-2.3282299506867736e-25
-0.4945199486562615	-1.9863212280290839e-25
-0.4944589135000115	-1.6257657868585962e-25
-0.4943978783437615	-1.2500299794708604e-25
-0.4943368431875115	-8.627248742662328e-26
-0.4942758080312615	-4.6757274487881283e-26
-0.4942147728750115	-6.837072259189793e-27
-0.4941537377187615	3.310448123717572e-26
-0.4940927025625115	7.268357558841185e-26
-0.4940316674062615	1.1151982710782752e-25
-0.4939706322500115	1.4923990090877725e-25
-0.4939095970937615	1.8548125225794004e-25
-0.4938485619375115	2.1989532647677067e-25
-0.4937875267812615	2.5215117712544297e-25
-0.4937264916250115	2.819384724914232e-25
-0.4936654564687615	3.0897048608928313e-25
-0.4936044213125115	3.329869622441307e-25
-0.4935433861562615	3.537564535245283e-25
-0.4934823510000115	3.710787482641551e-25
-0.4934213158437615	3.8478657297149475e-25
-0.4933602806875115	3.947474133791953e-25
-0.4932992455312615	4.0086470057518835e-25
-0.4932382103750115	4.030787187581264e-25
-0.4931771752187615	4.0136731194609415e-25
-0.4931161400625115	3.95745980222764e-25
-0.4930551049062615	3.862678567879703e-25
-0.4929940697500115	3.730231371972934e-25
-0.4929330345937615	3.561382920323073e-25
-0.4928719994375115	3.3577482947243914e-25
-0.4928109642812615	3.121277816262659e-25
-0.4927499291250115	2.8542386444157204e-25
-0.4926888939687615	2.5591927415903594e-25
-0.4926278588125115	2.23897312934069e-25
-0.4925668236562615	1.896656223070583e-25
-0.4925057885000115	1.535532688740957e-25
-0.4924447533437615	1.1590761736341897e-25
-0.4923837181875115	7.709098386402756e-26
-0.4923226830312615	3.7477165685039634e-26
-0.4922616478750115	-2.5521193908683454e-27
-0.4922006127187615	-4.261091793354543e-26
-0.4921395775625115	-8.231271462369172e-26
-0.4920785424062615	-1.2127414860831433e-25
-0.4920175072500115	-1.5911873835296364e-25
-0.4919564720937615	-1.9548041953300927e-25
-0.4918954369375115	-2.3000713573937566e-25
-0.4918344017812615	-2.623642110991378e-25
-0.4917733666250115	-2.9223753019723074e-25
-0.4917123314687615	-3.1933663677892073e-25
-0.4916512963125115	-3.433974930494773e-25
-0.4915902611562615	-3.6418502935968587e-25
-0.4915292260000115	-3.8149546055093193e-25
-0.4914681908437615	-3.9515821931693836e-25
-0.4914071556875115	-4.0503764395554676e-25
-0.4913461205312615	-4.110342950276231e-25
-0.4912850853750115	-4.1308594193745937e-25
-0.4912240502187615	-4.1116818160810363e-25
-0.4911630150625115	-4.0529469463066284e-25
-0.4911019799062615	-3.955171685837067e-25
-0.4910409447500115	-3.8192478494215153e-25
-0.4909799095937615	-3.646434322834082e-25
-0.4909188744375115	-3.438344990945856e-25
-0.4908578392812615	-3.196933669138498e-25
-0.4907968041250115	-2.9244754219455644e-25
-0.4907357689687615	-2.6235451002371697e-25
-0.4906747338125115	-2.2969928401453235e-25
-0.4906136986562615	-1.9479167702955027e-25
-0.4905526635000115	-1.5796338074174435e-25
-0.4904916283437615	-1.1956473649734236e-25
-0.4904305931875115	-7.99614680443636e-26
-0.4903695580312615	-3.953109312677161e-26
-0.4903085228750115	1.340612631577131e-27
-0.4902474877187615	4.226332398098335e-26
-0.4901864525625115	8.284600841586031e-26
-0.4901254174062615	1.2270048540574257e-25
-0.4900643822500115	1.614453715080549e-25
-0.4900033470937615	1.9870956465208271e-25
-0.4899423119375115	2.341358854387064e-25
-0.4898812767812615	2.6738459768242045e-25
-0.4898202416250115	2.9813645225350314e-25
-0.4897592064687615	3.26096051471485e-25
-0.4896981713125115	3.5099444813759394e-25
-0.4896371361562615	3.7259187575463633e-25
-0.4895761010000115	3.906800837711469e-25
-0.4895150658437615	4.0508421744822354e-25
-0.4894540306875115	4.156647139614297e-25
-0.4893929955312615	4.223184566581287e-25
-0.4893319603750115	4.249799476575167e-25
-0.4892709252187615	4.236218812838997e-25
-0.4892098900625115	4.182554056646745e-25
-0.4891488549062615	4.089301275818028e-25
-0.4890878197500115	3.957335355311928e-25
-0.4890267845937615	3.7879029501966035e-25
-0.4889657494375115	3.5826098170034593e-25
-0.4889047142812615	3.3434060807117826e-25
-0.4888436791250115	3.072567564269926e-25
-0.4887826439687615	2.7726737326856183e-25
-0.4887216088125115	2.4465838530102498e-25
-0.4886605736562615	2.0974086281407856e-25
-0.4885995385000115	1.7284812915140856e-25
-0.4885385033437615	1.3433252718135146e-25
-0.4884774681875115	9.456203371928421e-26
-0.4884164330312615	5.3916753085695e-26
-0.4883553978750115	1.2785247148947968e-26
-0.4882943627187615	-2.843915742466949e-26
-0.4882333275625115	-6.936221996581957e-26
-0.4881722924062615	-1.0959249102405902e-25
-0.4881112572500115	-1.487451705134589e-25
-0.4880502220937615	-1.864457232330299e-25
-0.4879891869375115	-2.223335181517977e-25
-0.4879281517812615	-2.5606537416851683e-25
-0.4878671166250115	-2.873187072913976e-25
-0.4878060814687615	-3.157948315542144e-25
-0.4877450463125115	-3.4122169337036133e-25
-0.4876840111562615	-3.6335654797109984e-25
-0.4876229760000115	-3.819883789934054e-25
-0.4875619408437615	-3.969397890233438e-25
-0.4875009056875115	-4.0806886149345467e-25
-0.4874398705312615	-4.152704669852714e-25
-0.4873788353750115	-4.184772744084635e-25
-0.4873178002187615	-4.176604735041522e-25
-0.4872567650625115	-4.1282999768723564e-25
-0.4871957299062615	-4.0403447438494975e-25
-0.4871346947500115	-3.913607615977676e-25
-0.4870736595937615	-3.749331078472712e-25
-0.4870126244375115	-3.549119791423099e-25
-0.4869515892812615	-3.314925099853629e-25
-0.4868905541250115	-3.0490262476261514e-25
-0.4868295189687615	-2.7540086114536476e-25
-0.4867684838125115	-2.432738752012672e-25
-0.4867074486562615	-2.0883365679547e-25
-0.4866464135000115	-1.724145703491071e-25
-0.4865853783437615	-1.3437009316787565e-25
-0.4865243431875115	-9.506939648140245e-26
-0.4864633080312615	-5.489383490921259e-26
-0.4864022728750115	-1.4233199487822186e-26
-0.4863412377187615	2.651802330256034e-26
-0.4862802025625115	6.696441659313309e-26
-0.4862191674062615	1.067135811211269e-25
-0.4861581322500115	1.453797858597738e-25
-0.4860970970937615	1.8258778958936435e-25
-0.4860360619375115	2.1797649740774322e-25
-0.4859750267812615	2.5120235506704874e-25
-0.4859139916250115	2.819428140005949e-25
-0.4858529564687615	3.0989933973275235e-25
-0.4857919213125115	3.3480039728384913e-25
-0.4857308861562615	3.564040440873157e-25
-0.4856698510000115	3.7450030705096855e-25
-0.4856088158437615	3.8891322576465463e-25
-0.4855477806875115	3.995025408315727e-25
-0.4854867455312615	4.0616512606804216e-25
-0.4854257103750115	4.0883593297044244e-25
-0.4853646752187615	4.074887036482776e-25
-0.4853036400625115	4.0213618100331416e-25
-0.4852426049062615	3.928300417899997e-25
-0.4851815697500115	3.796604078391773e-25
-0.4851205345937615	3.6275495478965836e-25
-0.4850594994375115	3.42277750637753e-25
-0.4849984642812615	3.1842761342641953e-25
-0.4849374291250115	2.9143624713019013e-25
-0.4848763939687615	2.6156599927750567e-25
-0.4848153588125115	2.2910730403536936e-25
-0.4847543236562615	1.9437591513889208e-25
-0.4846932885000115	1.577098246464643e-25
-0.4846322533437615	1.1946601971134795e-25
-0.4845712181875115	8.001698129850803e-26
-0.4845101830312615	3.974716472699367e-26
-0.4844491478750115	-9.508463786669916e-28
-0.4843881127187615	-4.1680052404775694e-26
-0.4843270775625115	-8.204289517145749e-26
-0.4842660424062615	-1.2164522374177939e-25
-0.4842050072500115	-1.6009992436816094e-25
-0.4841439720937615	-1.9703093319128115e-25
-0.4840829369375115	-2.3207666975392007e-25
-0.4840219017812615	-2.6489367393729356e-25
-0.4839608666250115	-2.951599842374112e-25
-0.4838998314687615	-3.225781192806685e-25
-0.4838387963125115	-3.4687821891600815e-25
-0.4837777611562615	-3.678204299997968e-25
-0.4837167260000115	-3.851974434953552e-25
-0.4836556908437615	-3.9883647456159985e-25
-0.4835946556875115	-4.0860087795027745e-25
-0.4835336205312615	-4.1439166106238085e-25
-0.4834725853750115	-4.161483185894496e-25
-0.4834115502187615	-4.138495306539117e-25
-0.4833505150625115	-4.075133840212132e-25
-0.4832894799062615	-3.9719719178615667e-25
-0.4832284447500115	-3.829970075641822e-25
-0.4831674095937615	-3.65046677294518e-25
-0.4831063744375115	-3.4351660254170375e-25
-0.4830453392812615	-3.186120822713923e-25
-0.4829843041250115	-2.9057134771526874e-25
-0.4829232689687615	-2.5966330296685025e-25
-0.4828622338125115	-2.261848732161775e-25
-0.4828011986562615	-1.9045821059544969e-25
-0.4827401635000115	-1.528275251437727e-25
-0.4826791283437615	-1.1365579831893372e-25
-0.4826180931875115	-7.332124067164443e-26
-0.4825570580312615	-3.2213629206309884e-26
-0.4824960228750115	9.269391510061788e-27
-0.4824349877187615	5.0726328570373496e-26
-0.4823739525625115	9.175555341379333e-26
-0.4823129174062615	1.3195932949132874e-25
-0.4822518822500115	1.7094763763427582e-25
-0.4821908470937615	2.0834192402043507e-25
-0.4821298119375115	2.437788885418761e-25
-0.4820687767812615	2.769138870475794e-25
-0.4820077416250115	3.0742444055373443e-25
-0.4819467064687615	3.3501322667073023e-25
-0.4818856713125115	3.594111035184317e-25
-0.4818246361562615	3.8037969899395767e-25
-0.4817636010000115	3.9771369788778194e-25
-0.4817025658437615	4.112429676519498e-25
-0.4816415306875115	4.20834087851431e-25
-0.4815804955312615	4.263918095428425e-25
-0.4815194603750115	4.278598977958122e-25
-0.4814584252187615	4.252217490415408e-25
-0.4813973900625115	4.1850058233253115e-25
-0.4813363549062615	4.0775918662403324e-25
-0.4812753197500115	3.930994043919264e-25
-0.4812142845937615	3.746610887983122e-25
-0.4811532494375115	3.52620830654853e-25
-0.4810922142812615	3.2719021498560154e-25
-0.4810311791250115	2.98613804981875e-25
-0.4809701439687615	2.6716679122509897e-25
-0.4809091088125115	2.331522950414973e-25
-0.4808480736562615	1.9689848172852162e-25
-0.4807870385000115	1.5875536351106955e-25
-0.4807260033437615	1.1909139132618062e-25
-0.4806649681875115	7.82899009708356e-26
-0.4806039330312615	3.674540282945559e-26
-0.4805428978750115	-5.140284526343924e-27
-0.4804818627187615	-4.696190006229137e-26
-0.4804208275625115	-8.831470781485049e-26
-0.4803597924062615	-1.2879841535044846e-25
-0.4802987572500115	-1.6802108642893857e-25
-0.4802377220937615	-2.0560295948789755e-25
-0.4801766869375115	-2.4118009771676792e-25
-0.4801156517812615	-2.7440802895524776e-25
-0.4800546166250115	-3.049650067920044e-25
-0.4799935814687615	-3.325552261527564e-25
-0.4799325463125115	-3.5691169833143194e-25
-0.4798715111562615	-3.777987780556156e-25
-0.4798104760000115	-3.9501464022272295e-25
-0.4797494408437615	-4.0839307147340565e-25
-0.4796884056875115	-4.178052153319498e-25
-0.4796273705312615	-4.231608421346249e-25
-0.4795663353750115	-4.244091420384068e-25
-0.4795053002187615	-4.215393812508747e-25
-0.4794442650625115	-4.145808672963358e-25
-0.4793832299062615	-4.0360279811915682e-25
-0.4793221947500115	-3.8871353243520616e-25
-0.4792611595937615	-3.7005954902275007e-25
-0.4792001244375115	-3.478240838108733e-25
-0.4791390892812615	-3.2222526469184175e-25
-0.4790780541250115	-2.9351407453592004e-25
-0.4790170189687615	-2.619718714650455e-25
-0.4789559838125115	-2.279076583412212e-25
-0.4788949486562615	-1.9165506368414228e-25
-0.4788339135000115	-1.535691294167403e-25
-0.4787728783437615	-1.140227890353787e-25
-0.4787118431875115	-7.34032976345763e-26
-0.4786508080312615	-3.2108387065214405e-26
-0.4785897728750115	9.45758509460451e-27
-0.4785287377187615	5.088753446275541e-26
-0.4784677025625115	9.177578758454622e-26
-0.4784066674062615	1.317218216189778e-25
-0.4783456322500115	1.7033439446152924e-25
-0.4782845970937615	2.0723526404620046e-25
-0.4782235619375115	2.420628769756484e-25
-0.4781625267812615	2.744760220102542e-25
-0.4781014916250115	3.0415700505814726e-25
-0.4780404564687615	3.3081498986899503e-25
-0.4779794213125115	3.541886074695171e-25
-0.4779183861562615	3.740487191815657e-25
-0.4778573510000115	3.902006247284093e-25
-0.4777963158437615	4.0248585571148386e-25
-0.4777352806875115	4.1078398300920673e-25
-0.4776742455312615	4.15013551480249e-25
-0.4776132103750115	4.151330873972356e-25
-0.4775521752187615	4.1114143990997057e-25
-0.4774911400625115	4.0307777192851575e-25
-0.4774301049062615	3.910213150139965e-25
-0.4773690697500115	3.750904530236218e-25
-0.4773080345937615	3.554417188860688e-25
-0.4772469994375115	3.3226818061769554e-25
-0.4771859642812615	3.0579760994279826e-25
-0.4771249291250115	2.7629025644753135e-25
-0.4770638939687615	2.4403628894361583e-25
-0.4770028588125115	2.0935299433813045e-25
-0.4769418236562615	1.7258164935182327e-25
-0.4768807885000115	1.3408422081303347e-25
-0.4768197533437615	9.423974541003284e-26
-0.4767587181875115	5.344073061632242e-26
-0.4766976830312615	1.2089199965231268e-26
-0.4766366478750115	-2.9407173406636726e-26
-0.4765756127187615	-7.063909654147755e-26
-0.4765145775625115	-1.111997023093311e-25
-0.4764535424062615	-1.5068847346972295e-25
-0.4763925072500115	-1.887152402435925e-25
-0.4763314720937615	-2.2490400640527434e-25
-0.4762704369375115	-2.5889664962838504e-25
-0.4762094017812615	-2.90356406811132e-25
-0.4761483666250115	-3.189712794478117e-25
-0.4760873314687615	-3.444570289760083e-25
-0.4760262963125115	-3.665600421405408e-25
-0.4759652611562615	-3.850598111577645e-25
-0.4759042260000115	-3.9977113442667914e-25
-0.4758431908437615	-4.1054595694749486e-25
-0.4757821556875115	-4.172748261776485e-25
-0.4757211205312615	-4.198880459996041e-25
-0.4756600853750115	-4.18356315182699e-25
-0.4755990502187615	-4.1269110281771243e-25
-0.4755380150625115	-4.029445268053591e-25
-0.4754769799062615	-3.8920887576073843e-25
-0.4754159447500115	-3.716157396607101e-25
-0.4753549095937615	-3.503347238547621e-25
-0.4752938744375115	-3.255718297782657e-25
-0.4752328392812615	-2.975674224373789e-25
-0.4751718041250115	-2.665939330345518e-25
-0.4751107689687615	-2.329531713820318e-25
-0.4750497338125115	-1.969733622678635e-25
-0.4749886986562615	-1.5900602934483857e-25
-0.4749276635000115	-1.1942241042705473e-25
-0.4748666283437615	-7.860996566204033e-26
-0.4748055931875115	-3.69684885628875e-26
-0.4747445580312615	5.0938302195060605e-27
-0.4746835228750115	4.7164238608457417e-26
-0.4746224877187615	8.882976896607406e-26
-0.4745614525625115	1.2968101414971684e-25
-0.4745004174062615	1.6931629962990764e-25
-0.4744393822500115	2.0734567119076055e-25
-0.4743783470937615	2.433945639119867e-25
-0.4743173119375115	2.7710772036000546e-25
-0.4742562767812615	3.0815249329307623e-25
-0.4741952416250115	3.3622226367182365e-25
-0.4741342064687615	3.610394134589372e-25
-0.4740731713125115	3.82358067249398e-25
-0.4740121361562615	3.9996659238454858e-25
-0.4739511010000115	4.136895921716073e-25
-0.4738900658437615	4.233897767001253e-25
-0.4738290306875115	4.289692440932151e-25
-0.4737679955312615	4.303705016914461e-25
-0.4737069603750115	4.275770688773567e-25
-0.4736459252187615	4.206136329418228e-25
-0.4735848900625115	4.0954585842162003e-25
-0.4735238549062615	3.944797499106911e-25
-0.4734628197500115	3.755606337230592e-25
-0.4734017845937615	3.5297176805697197e-25
-0.4733407494375115	3.2693253217878828e-25
-0.4732797142812615	2.976963175033834e-25
-0.4732186791250115	2.65548044155849e-25
-0.4731576439687615	2.3080136044968086e-25
-0.4730966088125115	1.9379561849761644e-25
-0.4730355736562615	1.5489245500489673e-25
-0.4729745385000115	1.1447238969726102e-25
-0.4729135033437615	7.29309457195637e-26
-0.4728524681875115	3.067481861606364e-26
-0.4727914330312615	-1.1882023773110646e-26
-0.4727303978750115	-5.432262345655627e-26
-0.4726693627187615	-9.62309060250056e-26
-0.4726083275625115	-1.3719594250610718e-25
-0.4725472924062615	-1.768159548894369e-25
-0.4724862572500115	-2.1470216006734405e-25
-0.4724252220937615	-2.5048284975529734e-25
-0.4723641869375115	-2.8380679733247443e-25
-0.4723031517812615	-3.1434686961516846e-25
-0.4722421166250115	-3.4180330236045796e-25
-0.4721810814687615	-3.6590647459173793e-25
-0.4721200463125115	-3.864198217291074e-25
-0.4720590111562615	-4.0314197678174237e-25
-0.4719979760000115	-4.15908873750898e-25
-0.4719369408437615	-4.245953944074814e-25
-0.4718759056875115	-4.291165040966064e-25
-0.4718148705312615	-4.294282668571268e-25
-0.4717538353750115	-4.255281444310636e-25
-0.4716928002187615	-4.174551390765429e-25
