Time	Frequency
-0.5000131127187615	-0.07360397754355492
-0.4999520775625115	-0.11346018048740229
-0.4998910424062615	-0.15229734759511238
-0.4998300072500115	-0.18974461981462074
-0.4997689720937615	-0.22544397629743357
-0.4997079369375115	-0.25905371286220946
-0.4996469017812615	-0.29025174892430733
-0.4995858666250115	-0.3187385609646094
-0.4995248314687615	-0.3442402045489013
-0.4994637963125115	-0.36651079916791063
-0.4994027611562615	-0.38533493671532354
-0.4993417260000115	-0.4005297689226301
-0.4992806908437615	-0.41194669708974135
-0.4992196556875115	-0.4194728786893779
-0.4991586205312615	-0.42303226466247534
-0.4990975853750115	-0.42258639803153775
-0.4990365502187615	-0.4181347534766456
-0.4989755150625115	-0.40971481338825555
-0.4989144799062615	-0.39740171642546535
-0.4988534447500115	-0.38130756592052467
-0.4987924095937615	-0.3615804248641746
-0.4987313744375115	-0.33840288636957877
-0.4986703392812615	-0.31199041660795457
-0.4986093041250115	-0.2825892971428108
-0.4985482689687615	-0.25047432475766335
-0.4984872338125115	-0.21594624299885806
-0.4984261986562615	-0.17932885642463883
-0.4983651635000115	-0.14096604427501305
-0.4983041283437615	-0.10121844201908534
-0.4982430931875115	-0.06046009225195623
-0.4981820580312615	-0.01907487583764878
-0.4981210228750115	0.02254714971706833
-0.4980599877187615	0.06401333245648966
-0.4979989525625115	0.10493233977440376
-0.4979379174062615	0.14491765336587756
-0.4978768822500115	0.18359139617978576
-0.4978158470937615	0.22058789131031561
-0.4977548119375115	0.2555570179516362
-0.4976937767812615	0.2881677774649331
-0.4976327416250115	0.3181111585004807
-0.4975717064687615	0.3451033110984587
-0.4975106713125115	0.36888816519640893
-0.4974496361562615	0.3892398046037119
-0.4973886010000115	0.40596479716116424
-0.4973275658437615	0.4189038426273945
-0.4972665306875115	0.4279334886883196
-0.4972054955312615	0.43296718358435665
-0.4971444603750115	0.43395616274558496
-0.4970834252187615	0.43088999630222147
-0.4970223900625115	0.42379654442679626
-0.4969613549062615	0.412741901715089
-0.4969003197500115	0.3978296318276599
-0.4968392845937615	0.37919988147772415
-0.4967782494375115	0.35702806803681786
-0.4967172142812615	0.3315231462147047
-0.4966561791250115	0.3029257812591613
-0.4965951439687615	0.27150591322190715
-0.4965341088125115	0.2375603345289313
-0.4964730736562615	0.20140981083694723
-0.4964120385000115	0.16339603627586277
-0.4963510033437615	0.12387850227125682
-0.4962899681875115	0.08323089057167463
-0.4962289330312615	0.04183772523483283
-0.4961678978750115	9.061313707186287e-05
-0.4961068627187615	-0.041615477140554205
-0.4960458275625115	-0.08288589379809973
-0.4959847924062615	-0.12333017590409599
-0.4959237572500115	-0.16256562830143884
-0.4958627220937615	-0.20022108146464523
-0.4958016869375115	-0.23594037130945464
-0.4957406517812615	-0.2693857201151513
-0.4956796166250115	-0.30024099134704
-0.4956185814687615	-0.328214703202195
-0.4955575463125115	-0.35304277648149207
-0.4954965111562615	-0.3744910705409554
-0.4954354760000115	-0.392357662803188
-0.4953744408437615	-0.40647468736773745
-0.4953134056875115	-0.41671006529590593
-0.4952523705312615	-0.4229686535769289
-0.4951913353750115	-0.4251932282634101
-0.4951303002187615	-0.4233650447550935
-0.4950692650625115	-0.41750395963962694
-0.4950082299062615	-0.4076683476158164
-0.4949471947500115	-0.3939544526401375
-0.4948861595937615	-0.37649555910230303
-0.4948251244375115	-0.35546068085690896
-0.4947640892812615	-0.3310529658002286
-0.4947030541250115	-0.3035077928478717
-0.4946420189687615	-0.2730904753685869
-0.4945809838125115	-0.24009380673017794
-0.4945199486562615	-0.2048351903066069
-0.4944589135000115	-0.16765367033588324
-0.4943978783437615	-0.12890670709286453
-0.4943368431875115	-0.0889666843957168
-0.4942758080312615	-0.04821745386796113
-0.4942147728750115	-0.007050586670423561
-0.4941537377187615	0.03413829857190601
-0.4940927025625115	0.07495340545994181
-0.4940316674062615	0.11500247133368341
-0.4939706322500115	0.1539005024596104
-0.4939095970937615	0.19127363222241386
-0.4938485619375115	0.22676242095591748
-0.4937875267812615	0.2600255871190161
-0.4937264916250115	0.29074310767365297
-0.4936654564687615	0.31861930197472527
-0.4936044213125115	0.3433857868426001
-0.4935433861562615	0.3648038869915522
-0.4934823510000115	0.3826671383603106
-0.4934213158437615	0.39680304368617547
-0.4933602806875115	0.4070749504237861
-0.4932992455312615	0.41338327391784013
-0.4932382103750115	0.4156664335067572
-0.4931771752187615	0.4139015813011429
-0.4931161400625115	0.40810470143560634
-0.4930551049062615	0.3983305864026524
-0.4929940697500115	0.38467224846802855
-0.4929330345937615	0.3672601077535114
-0.4928719994375115	0.34626071616522
-0.4928109642812615	0.3218751964546627
-0.4927499291250115	0.294337344664769
-0.4926888939687615	0.2639113577691945
-0.4926278588125115	0.2308893851448814
-0.4925668236562615	0.1955886756465604
-0.4925057885000115	0.15834857226610252
-0.4924447533437615	0.11952728755850929
-0.4923837181875115	0.079498452354453
-0.4923226830312615	0.03864753725088031
-0.4922616478750115	-0.0026318193338377197
-0.4922006127187615	-0.04394161105914106
-0.4921395775625115	-0.08488325214812685
-0.4920785424062615	-0.12506140980078978
-0.4920175072500115	-0.1640878453693821
-0.4919564720937615	-0.20158506273423346
-0.4918954369375115	-0.23719001114336177
-0.4918344017812615	-0.2705575631563781
-0.4917733666250115	-0.30136379387173556
-0.4917123314687615	-0.32930917639834306
-0.4916512963125115	-0.3541214273251954
-0.4915902611562615	-0.37555813603082655
-0.4915292260000115	-0.3934091533653515
-0.4914681908437615	-0.40749858538901707
-0.4914071556875115	-0.4176865338306553
-0.4913461205312615	-0.4238704538644238
-0.4912850853750115	-0.42598617150006124
-0.4912240502187615	-0.4240085215787751
-0.4911630150625115	-0.4179516119218141
-0.4911019799062615	-0.4078687442552221
-0.4910409447500115	-0.39385188509543256
-0.4909799095937615	-0.37603085438469624
-0.4909188744375115	-0.35457208059895234
-0.4908578392812615	-0.3296770468316074
-0.4907968041250115	-0.3015803643177999
-0.4907357689687615	-0.27054755912680434
-0.4906747338125115	-0.23687254554033935
-0.4906136986562615	-0.20087481154334771
-0.4905526635000115	-0.1628964071829112
-0.4904916283437615	-0.12329861458859882
-0.4904305931875115	-0.08245857866762918
-0.4903695580312615	-0.04076560663696969
-0.4903085228750115	0.0013824785218131137
-0.4902474877187615	0.043583162121389275
-0.4901864525625115	0.0854332001317018
-0.4901254174062615	0.12653228956192902
-0.4900643822500115	0.16648713677488133
-0.4900033470937615	0.2049150505814153
-0.4899423119375115	0.24144769725403328
-0.4898812767812615	0.2757347310116507
-0.4898202416250115	0.3074469329176783
-0.4897592064687615	0.33627968033987743
-0.4896981713125115	0.36195562714779744
-0.4896371361562615	0.38422751919448106
-0.4895761010000115	0.402880602487779
-0.4895150658437615	0.4177345617634063
-0.4894540306875115	0.42864547580006135
-0.4893929955312615	0.43550700772298173
-0.4893319603750115	0.43825161422300785
-0.4892709252187615	0.4368511368975708
-0.4892098900625115	0.431317072018093
-0.4891488549062615	0.42170057553296825
-0.4890878197500115	0.4080918681097108
-0.4890267845937615	0.3906195084247973
-0.4889657494375115	0.36944908673626614
-0.4889047142812615	0.34478170557255877
-0.4888436791250115	0.31685205437874203
-0.4887826439687615	0.2859261350473048
-0.4887216088125115	0.2522988034667844
-0.4886605736562615	0.21629084431736953
-0.4885995385000115	0.17824599027217453
-0.4885385033437615	0.13852758748825977
-0.4884774681875115	0.09751510430107009
-0.4884164330312615	0.05560051528010188
-0.4883553978750115	0.01318451666284591
-0.4882943627187615	-0.02932728171576762
-0.4882333275625115	-0.07152832747442801
-0.4881722924062615	-0.11301494661748201
-0.4881112572500115	-0.1533903221662915
-0.4880502220937615	-0.19226822258847043
-0.4879891869375115	-0.22927675473391837
-0.4879281517812615	-0.26406202032479975
-0.4878671166250115	-0.2962913614182984
-0.4878060814687615	-0.32565676440679825
-0.4877450463125115	-0.3518776797628606
-0.4876840111562615	-0.3747037820597688
-0.4876229760000115	-0.3939174651204954
-0.4875619408437615	-0.409335791600716
-0.4875009056875115	-0.4208124130312432
-0.4874398705312615	-0.4282389169149733
-0.4873788353750115	-0.4315458694840602
-0.4873178002187615	-0.43070356076623395
-0.4872567650625115	-0.4257222343862541
-0.4871957299062615	-0.41665203635359477
-0.4871346947500115	-0.40358253715064024
-0.4870736595937615	-0.38664186544663426
-0.4870126244375115	-0.36599549843124995
-0.4869515892812615	-0.3418446644475501
-0.4868905541250115	-0.3144244057150965
-0.4868295189687615	-0.2840013337585229
-0.4867684838125115	-0.2508710566060883
-0.4867074486562615	-0.21535530723078558
-0.4866464135000115	-0.177798891894907
-0.4865853783437615	-0.1385663266201297
-0.4865243431875115	-0.09803831145642176
-0.4864633080312615	-0.0566081103178092
-0.4864022728750115	-0.014677686995534279
-0.4863412377187615	0.02734615264180897
-0.4862802025625115	0.06905564328200561
-0.4862191674062615	0.11004613145545608
-0.4861581322500115	0.14991984017040322
-0.4860970970937615	0.1882898098275358
-0.4860360619375115	0.22478366891937565
-0.4859750267812615	0.25904713436850146
-0.4859139916250115	0.2907475847634911
-0.4858529564687615	0.31957716271821124
-0.4857919213125115	0.3452558535076952
-0.4857308861562615	0.36753415895930314
-0.4856698510000115	0.3861955487470772
-0.4856088158437615	0.401058567406556
-0.4855477806875115	0.41197857539086846
-0.4854867455312615	0.4188492259965627
-0.4854257103750115	0.42160343932523087
-0.4853646752187615	0.420214137480704
-0.4853036400625115	0.4146944613118632
-0.4852426049062615	0.40509770138260276
-0.4851815697500115	0.3915167939315872
-0.4851205345937615	0.374083401770473
-0.4850594994375115	0.35296671656258954
-0.4849984642812615	0.32837176522448447
-0.4849374291250115	0.30053748759654375
-0.4848763939687615	0.26973442403828407
-0.4848153588125115	0.23626207866329077
-0.4847543236562615	0.20044606585612912
-0.4846932885000115	0.16263493280355762
-0.4846322533437615	0.12319681498358077
-0.4845712181875115	0.08251582554097947
-0.4845101830312615	0.04098842592081417
-0.4844491478750115	-0.0009805402881399334
-0.4843881127187615	-0.04298167560134804
-0.4843270775625115	-0.08460500652467767
-0.4842660424062615	-0.1254440732114678
-0.4842050072500115	-0.16509967276826198
-0.4841439720937615	-0.20318399726599123
-0.4840829369375115	-0.23932417447874776
-0.4840219017812615	-0.2731660183977383
-0.4839608666250115	-0.30437751300757343
-0.4838998314687615	-0.3326518869113878
-0.4838387963125115	-0.35771085251592455
-0.4837777611562615	-0.37930706632191197
-0.4837167260000115	-0.39722674525448354
-0.4836556908437615	-0.411291708587851
-0.4835946556875115	-0.4213610437896649
-0.4835336205312615	-0.427332666828547
-0.4834725853750115	-0.4291441828803475
-0.4834115502187615	-0.4267736062706539
-0.4833505150625115	-0.42023958859513855
-0.4832894799062615	-0.409601232774897
-0.4832284447500115	-0.39495759207644304
-0.4831674095937615	-0.3764466923036944
-0.4831063744375115	-0.35424425647872976
-0.4830453392812615	-0.32856199483303594
-0.4829843041250115	-0.2996455783033711
-0.4829232689687615	-0.26777230856880163
-0.4828622338125115	-0.2332483834736161
-0.4828011986562615	-0.19640601561452675
-0.4827401635000115	-0.15760016433985452
-0.4826791283437615	-0.11720514662781178
-0.4826180931875115	-0.07561098413772423
-0.4825570580312615	-0.03321962619051716
-0.4824960228750115	0.009558864634766169
-0.4824349877187615	0.05231045723947169
-0.4823739525625115	0.09462098063489129
-0.4823129174062615	0.13608027738749848
-0.4822518822500115	0.1762861484495378
-0.4821908470937615	0.2148482181701988
-0.4821298119375115	0.25139184097002204
-0.4820687767812615	0.2855616098319265
-0.4820077416250115	0.31702497510036387
-0.4819467064687615	0.34547532932736036
-0.4818856713125115	0.37063512562141093
-0.4818246361562615	0.39225854777530555
-0.4817636010000115	0.41013386880640507
-0.4817025658437615	0.4240856431103146
-0.4816415306875115	0.4339762836753548
-0.4815804955312615	0.43970756703610764
-0.4815194603750115	0.4412215021058258
-0.4814584252187615	0.4385009668041189
-0.4813973900625115	0.43156990528951944
-0.4813363549062615	0.4204930673488017
-0.4812753197500115	0.4053754758888018
-0.4812142845937615	0.38636135153541773
-0.4811532494375115	0.3636327998413813
-0.4810922142812615	0.3374080134034201
-0.4810311791250115	0.30793919285821175
-0.4809701439687615	0.27551012269298425
-0.4809091088125115	0.2404333903868776
-0.4808480736562615	0.20304740948653868
-0.4807870385000115	0.1637131227220994
-0.4807260033437615	0.12281048735697742
-0.4806649681875115	0.08073481035269554
-0.4806039330312615	0.03789292222855904
-0.4805428978750115	-0.005300810082106318
-0.4804818627187615	-0.04842846967891531
-0.4804208275625115	-0.09107268112961002
-0.4803597924062615	-0.13282065129856002
-0.4802987572500115	-0.17326820419848882
-0.4802377220937615	-0.21202371872193052
-0.4801766869375115	-0.2487118927032655
-0.4801156517812615	-0.2829774964872115
-0.4800546166250115	-0.31448873586815
-0.4799935814687615	-0.34294056809756257
-0.4799325463125115	-0.36805766669931794
-0.4798715111562615	-0.3895970274526511
-0.4798104760000115	-0.4073505224741514
-0.4797494408437615	-0.421146747740074
-0.4796884056875115	-0.43085282272559317
-0.4796273705312615	-0.43637569999165154
-0.4795663353750115	-0.4376629829584881
-0.4795053002187615	-0.4347036026288931
-0.4794442650625115	-0.4275277817696279
-0.4793832299062615	-0.4162068793024184
-0.4793221947500115	-0.40085263786925557
-0.4792611595937615	-0.3816161106230653
-0.4792001244375115	-0.3586862557538715
-0.4791390892812615	-0.33228801305334926
-0.4790780541250115	-0.30268020331679035
-0.4790170189687615	-0.270152971177592
-0.4789559838125115	-0.235024969324706
-0.4788949486562615	-0.19764024513757653
-0.4788339135000115	-0.15836492811642847
-0.4787728783437615	-0.11758359806950813
-0.4787118431875115	-0.07569560365132134
-0.4786508080312615	-0.033111097450567714
-0.4785897728750115	0.009752935302500675
-0.4785287377187615	0.052476697418452685
-0.4784677025625115	0.09464184669703486
-0.4784066674062615	0.1358353523998146
-0.4783456322500115	0.17565375435224917
-0.4782845970937615	0.21370699839553636
-0.4782235619375115	0.24962224020869742
-0.4781625267812615	0.2830476128921825
-0.4781014916250115	0.3136555011094098
-0.4780404564687615	0.34114598610683666
-0.4779794213125115	0.36524953663933174
-0.4779183861562615	0.3857298582743385
-0.4778573510000115	0.4023861704549464
-0.4777963158437615	0.41505505598498527
-0.4777352806875115	0.4236123248709636
-0.4776742455312615	0.42797397821512223
-0.4776132103750115	0.42809724711019786
-0.4775521752187615	0.4239809447661799
-0.4774911400625115	0.4156654571086799
-0.4774301049062615	0.4032324900152385
-0.4773690697500115	0.38680412434356665
-0.4773080345937615	0.3665417813773031
-0.4772469994375115	0.34264455843925096
-0.4771859642812615	0.31534734031961664
-0.4771249291250115	0.2849185039191493
-0.4770638939687615	0.25165727970939183
-0.4770028588125115	0.21589086312619024
-0.4769418236562615	0.17797118859512945
-0.4768807885000115	0.13827152677918814
-0.4768197533437615	0.09718275127464086
-0.4767587181875115	0.0551096271411196
-0.4766976830312615	0.012466732674396562
-0.4766366478750115	-0.030325527795448427
-0.4765756127187615	-0.07284507953186489
-0.4765145775625115	-0.11467234938213534
-0.4764535424062615	-0.15539431238324922
-0.4763925072500115	-0.19460861417369585
-0.4763314720937615	-0.2319275165701845
-0.4762704369375115	-0.26698171347135374
-0.4762094017812615	-0.2994239250260346
-0.4761483666250115	-0.32893240935084583
-0.4760873314687615	-0.3552140514188524
-0.4760262963125115	-0.3780073179057577
-0.4759652611562615	-0.39708481480705843
-0.4759042260000115	-0.4122555568749968
-0.4758431908437615	-0.423366865511421
-0.4757821556875115	-0.4303058700886128
-0.4757211205312615	-0.4330006979542661
-0.4756600853750115	-0.43142113283180855
-0.4755990502187615	-0.4255790019793846
-0.4755380150625115	-0.41552805088367917
-0.4754769799062615	-0.401363450233956
-0.4754159447500115	-0.3832208994204855
-0.4753549095937615	-0.3612753003853561
-0.4752938744375115	-0.3357390877671468
-0.4752328392812615	-0.3068601329125695
-0.4751718041250115	-0.27491937475743966
-0.4751107689687615	-0.24022804830975097
-0.4750497338125115	-0.20312462846457022
-0.4749886986562615	-0.1639716165801897
-0.4749276635000115	-0.12315184382825951
-0.4748666283437615	-0.0810648703198791
-0.4748055931875115	-0.038122974689449585
-0.4747445580312615	0.005252905057240061
-0.4746835228750115	0.04863712704019466
-0.4746224877187615	0.09160382708647315
-0.4745614525625115	0.13373081270881332
-0.4745004174062615	0.17460386551430865
-0.4744393822500115	0.2138208534364364
-0.4743783470937615	0.25099551429540284
-0.4743173119375115	0.2857614963501691
-0.4742562767812615	0.3177757641435039
-0.4741952416250115	0.3467221232532953
-0.4741342064687615	0.3723142859295961
-0.4740731713125115	0.3942986983430026
-0.4740121361562615	0.41245711877460695
-0.4739511010000115	0.42660867308160466
-0.4738900658437615	0.4366117839373432
-0.4738290306875115	0.44236549209464443
-0.4737679955312615	0.4438105094601736
-0.4737069603750115	0.440929840744518
-0.4736459252187615	0.4337489441960876
-0.4735848900625115	0.4223355349844972
-0.4735238549062615	0.4067989281131196
-0.4734628197500115	0.38728898828041974
-0.4734017845937615	0.3639946966410242
-0.4733407494375115	0.3371422834397679
-0.4732797142812615	0.30699305323281173
-0.4732186791250115	0.2738408238942331
-0.4731576439687615	0.23800903863692888
-0.4730966088125115	0.19984764717503897
-0.4730355736562615	0.15972957973905344
-0.4729745385000115	0.11804723927637756
-0.4729135033437615	0.0752085006941704
-0.4728524681875115	0.031632760201009164
-0.4727914330312615	-0.012253086592685198
-0.4727303978750115	-0.05601906054600482
-0.4726693627187615	-0.09923609369350322
-0.4726083275625115	-0.1414804241931028
-0.4725472924062615	-0.18233772693935524
-0.4724862572500115	-0.22140707754641611
-0.4724252220937615	-0.2583051596799171
-0.4723641869375115	-0.2926697782895221
-0.4723031517812615	-0.32416358417413266
-0.4722421166250115	-0.3524774517760123
-0.4721810814687615	-0.37733334014551784
-0.4721200463125115	-0.39848729704541813
-0.4720590111562615	-0.4157316670103998
-0.4719979760000115	-0.4288972604370812
-0.4719369408437615	-0.43785505178867967
-0.4718759056875115	-0.4425173508695177
-0.4718148705312615	-0.44283884964565
-0.4717538353750115	-0.43881693059203153
-0.4716928002187615	-0.43049181396535086
-0.4716317650625115	-0.41794613109238105
-0.4715707299062615	-0.4013041250609186
-0.4715096947500115	-0.3807304660489151
-0.4714486595937615	-0.35642859839884655
-0.4713876244375115	-0.32863881066844625
-0.4713265892812615	-0.297635784463472
-0.4712655541250115	-0.2637260149097581
-0.4712045189687615	-0.22724466892769707
-0.4711434838125115	-0.18855236563097244
-0.4710824486562615	-0.1480316415854768
-0.4710214135000115	-0.10608304879168452
-0.4709603783437615	-0.06312141433173099
-0.4708993431875115	-0.019571505304975596
-0.4708383080312615	0.024135960251435253
-0.4707772728750115	0.06756868260149035
-0.4707162377187615	0.11029705899615638
-0.4706552025625115	0.15189831817401114
-0.4705941674062615	0.19196091042181218
-0.4705331322500115	0.23008830833650376
-0.4704720970937615	0.2659032471357696
-0.4704110619375115	0.2990511644240583
-0.4703500267812615	0.3292039199526542
-0.4702889916250115	0.3560630460395217
-0.4702279564687615	0.37936249424751783
-0.4701669213125115	0.39887165200743774
-0.4701058861562615	0.4143972441241402
-0.4700448510000115	0.42578557672663964
-0.4699838158437615	0.43292389374242657
-0.4699227806875115	0.43574153573805585
-0.4698617455312615	0.4342107752229306
-0.4698007103750115	0.4283468900540727
-0.4697396752187615	0.4182082734046056
-0.4696786400625115	0.40389566666619325
