Time	Frequency
-0.5000591501874965	0.3798854741326575
-0.49999811503124647	0.37350182054526043
-0.49993707987499647	0.36474665747382545
-0.49987604471874647	0.3536762842120615
-0.49981500956249647	0.3403619903889778
-0.49975397440624647	0.3248896031010163
-0.49969293924999647	0.3073589399518704
-0.49963190409374647	0.28788315546124527
-0.49957086893749647	0.2665880222657318
-0.49950983378124647	0.24361111331860433
-0.49944879862499647	0.21910092287641367
-0.49938776346874647	0.19321587528080036
-0.49932672831249647	0.16612335867140082
-0.49926569315624647	0.13799855854230733
-0.49920465799999647	0.10902340933842446
-0.49914362284374647	0.07938534291634325
-0.49908258768749647	0.04927611138805134
-0.49902155253124647	0.01889054923456096
-0.49896051737499647	-0.01157476021417427
-0.49889948221874647	-0.041922629329625205
-0.49883844706249647	-0.07195673208616285
-0.49877741190624647	-0.10148269505898211
-0.49871637674999647	-0.13030949562889774
-0.49865534159374647	-0.15825064838256186
-0.49859430643749647	-0.18512542061371268
-0.49853327128124647	-0.21076004100481943
-0.49847223612499647	-0.23498878547105884
-0.49841120096874647	-0.25765512744755725
-0.49835016581249647	-0.2786126541696916
-0.49828913065624647	-0.29772617648214117
-0.49822809549999647	-0.31487242520074343
-0.49816706034374647	-0.32994104824207676
-0.49810602518749647	-0.3428351788239768
-0.49804499003124647	-0.35347215193368925
-0.49798395487499647	-0.3617840585743932
-0.49792291971874647	-0.36771810228795926
-0.49786188456249647	-0.3712370831197774
-0.49780084940624647	-0.37231949514060564
-0.49773981424999647	-0.3709598141058397
-0.49767877909374647	-0.3671684172457792
-0.49761774393749647	-0.3609716045389548
-0.49755670878124647	-0.3524113874216909
-0.49749567362499647	-0.3415452258866067
-0.49743463846874647	-0.3284456789022869
-0.49737360331249647	-0.3131998925039275
-0.49731256815624647	-0.29590908987002196
-0.49725153299999647	-0.27668785332011153
-0.49719049784374647	-0.255663436620672
-0.49712946268749647	-0.2329748799774511
-0.49706842753124647	-0.20877216109865585
-0.49700739237499647	-0.18321518070081166
-0.49694635721874647	-0.15647271220068912
-0.49688532206249647	-0.12872134306140032
-0.49682428690624647	-0.10014426797331646
-0.49676325174999647	-0.07093013704589317
-0.49670221659374647	-0.04127180099094596
-0.49664118143749647	-0.011365044171368027
-0.49658014628124647	0.018592687884996
-0.49651911112499647	0.0484035708596716
-0.49645807596874647	0.07787072828411293
-0.49639704081249647	0.10679947575773537
-0.49633600565624647	0.1349986597803129
-0.49627497049999647	0.16228184569976192
-0.49621393534374647	0.18846858968388905
-0.49615290018749647	0.21338561900354816
-0.49609186503124647	0.23686792018957623
-0.49603082987499647	0.25875992222469013
-0.49596979471874647	0.27891641032502723
-0.49590875956249647	0.29720358694102267
-0.49584772440624647	0.31349985434651484
-0.49578668924999647	0.32769671572635195
-0.49572565409374647	0.3396994212133001
-0.49566461893749647	0.34942761426679964
-0.49560358378124647	0.3568159148196031
-0.49554254862499647	0.36181425746413687
-0.49548151346874647	0.36438834671792497
-0.49542047831249647	0.36451977511237565
-0.49535944315624647	0.36220625029121906
-0.49529840799999647	0.3574615499234195
-0.49523737284374647	0.3503154759108298
-0.49517633768749647	0.3408136624504541
-0.49511530253124647	0.3290172657141178
-0.49505426737499647	0.3150026083112666
-0.49499323221874647	0.2988606445142597
-0.49493219706249647	0.28069640973356735
-0.49487116190624647	0.26062830831815187
-0.49481012674999647	0.2387873691128241
-0.49474909159374647	0.2153163714426119
-0.49468805643749647	0.1903689362610584
-0.49462702128124647	0.16410849962512905
-0.49456598612499647	0.1367072745693007
-0.49450495096874647	0.10834508738097692
-0.49444391581249647	0.07920824440538404
-0.49438288065624647	0.04948828775663149
-0.49432184549999647	0.019380721819955156
-0.49426081034374647	-0.010916198717267872
-0.49419977518749647	-0.04120287003023323
-0.49413874003124647	-0.07127954771802968
-0.49407770487499647	-0.10094774464665154
-0.49401666971874647	-0.13001147460862428
-0.49395563456249647	-0.15827855175175
-0.49389459940624647	-0.18556191122810853
-0.49383356424999647	-0.2116807450262446
-0.49377252909374647	-0.23646179111647125
-0.49371149393749647	-0.2597403947437267
-0.49365045878124647	-0.28136166456948314
-0.49358942362499647	-0.3011814415373696
-0.49352838846874647	-0.3190672782994939
-0.49346735331249647	-0.3348993400664753
-0.49340631815624647	-0.3485711389673324
-0.49334528299999647	-0.35999031238915996
-0.49328424784374647	-0.3690791823081257
-0.49322321268749647	-0.375775316169502
-0.49316217753124647	-0.38003191850249074
-0.49310114237499647	-0.38181817268466406
-0.49304010721874647	-0.3811194348361341
-0.49297907206249647	-0.3779373540908145
-0.49291803690624647	-0.3722898687501293
-0.49285700174999647	-0.36421109399352986
-0.49279596659374647	-0.35375112496517225
-0.49273493143749647	-0.3409756938858731
-0.49267389628124647	-0.32596578152536587
-0.49261286112499647	-0.30881705279490806
-0.49255182596874647	-0.2896392924612017
-0.49249079081249647	-0.2685556379899262
-0.49242975565624647	-0.2457018226052858
-0.49236872049999647	-0.22122527493322594
-0.49230768534374647	-0.19528414574464628
-0.49224665018749647	-0.1680463114527773
-0.49218561503124647	-0.13968823144654854
-0.49212457987499647	-0.11039385178861025
-0.49206354471874647	-0.0803533369886287
-0.49200250956249647	-0.04976188837704571
-0.49194147440624647	-0.01881842050997592
-0.49188043924999647	0.012275731657765989
-0.49181940409374647	0.043318113787423985
-0.49175836893749647	0.07410651817680498
-0.49169733378124647	0.1044402526384073
-0.49163629862499647	0.13412153774882768
-0.49157526346874647	0.16295674653978415
-0.49151422831249647	0.19075768663152695
-0.49145319315624647	0.21734287701069466
-0.49139215799999647	0.2425386981216051
-0.49133112284374647	0.26618055744644736
-0.49127008768749647	0.2881139838668565
-0.49120905253124647	0.30819561377774524
-0.49114801737499647	0.32629419484728617
-0.49108698221874647	0.3422913968138275
-0.49102594706249647	0.35608261889401077
-0.49096491190624647	0.3675777087511875
-0.49090387674999647	0.37670150022659593
-0.49084284159374647	0.38339438845463875
-0.49078180643749647	0.3876126630237115
-0.49072077128124647	0.3893288464096226
-0.49065973612499647	0.38853185759926806
-0.49059870096874647	0.38522710240891694
-0.49053766581249647	0.3794364427237521
-0.49047663065624647	0.3711980524571753
-0.49041559549999647	0.36056619004074175
-0.49035456034374647	0.347610817071787
-0.49029352518749647	0.3324171852715554
-0.49023249003124647	0.315085234570795
-0.49017145487499647	0.29572898773252365
-0.49011041971874647	0.27447575944593444
-0.49004938456249647	0.25146535458602837
-0.48998834940624647	0.22684914283073548
-0.48992731424999647	0.20078905316246035
-0.48986627909374647	0.17345654189733054
-0.48980524393749647	0.14503140547942187
-0.48974420878124647	0.1157006838667773
-0.48968317362499647	0.08565734810651204
-0.48962213846874647	0.055099084021790354
-0.48956110331249647	0.024226961780214166
-0.48950006815624647	-0.0067558801114675675
-0.48943903299999647	-0.03764556126683262
-0.48937799784374647	-0.06823884836736462
-0.48931696268749647	-0.09833441772019785
-0.48925592753124647	-0.127734285761453
-0.48919489237499647	-0.15624502556012268
-0.48913385721874647	-0.18367910094738843
-0.48907282206249647	-0.2098560814086851
-0.48901178690624647	-0.23460385612275045
-0.48895075174999647	-0.25775975297107057
-0.48888971659374647	-0.27917161721149514
-0.48882868143749647	-0.29869885273000113
-0.48876764628124647	-0.31621329409271914
-0.48870661112499647	-0.3316001360640643
-0.48864557596874647	-0.34475861175819905
-0.48858454081249647	-0.35560273428017947
-0.48852350565624647	-0.36406183371114653
-0.48846247049999647	-0.37008102779579993
-0.48840143534374647	-0.3736216117726072
-0.48834040018749647	-0.37466129595776015
-0.48827936503124647	-0.3731943751963755
-0.48821832987499647	-0.36923176060875756
-0.48815729471874647	-0.36280092074138337
-0.48809625956249647	-0.35394569690034594
-0.48803522440624647	-0.3427260260067791
-0.48797418924999647	-0.3292175394988274
-0.48791315409374647	-0.3135110798030966
-0.48785211893749647	-0.29571208107680863
-0.48779108378124647	-0.27593990913345157
-0.48773004862499647	-0.2543270380542607
-0.48766901346874647	-0.23101819973046883
-0.48760797831249647	-0.20616942185955317
-0.48754694315624647	-0.17994699000733522
-0.48748590799999647	-0.15252636381932225
-0.48742487284374647	-0.12409099605918883
-0.48736383768749647	-0.09483113908457064
-0.48730280253124647	-0.06494255426374278
-0.48724176737499647	-0.034625259094071166
-0.48718073221874647	-0.004082146543890593
-0.48711969706249647	0.026482308927280884
-0.48705866190624647	0.05686344345433527
-0.48699762674999647	0.08685776658649484
-0.48693659159374647	0.11626426251537272
-0.48687555643749647	0.1448858188505381
-0.48681452128124647	0.17253043539283508
-0.48675348612499647	0.19901257678181272
-0.48669245096874647	0.22415439384521507
-0.48663141581249647	0.24778686049417686
-0.48657038065624647	0.2697509905686049
-0.48650934549999647	0.28989880914904054
-0.48644831034374647	0.3080944154966861
-0.48638727518749647	0.3242148380247013
-0.48632624003124647	0.3381508945046289
-0.48626520487499647	0.34980791815293116
-0.48620416971874647	0.35910636387549305
-0.48614313456249647	0.36598241998523534
-0.48608209940624647	0.3703883375878462
-0.48602106424999647	0.37229286650480115
-0.48596002909374647	0.37168137939039714
-0.48589899393749647	0.3685560431005858
-0.48583795878124647	0.3629357840240327
-0.48577692362499647	0.35485616937432
-0.48571588846874647	0.34436921049918007
-0.48565485331249647	0.3315429797634132
-0.48559381815624647	0.3164612186521426
-0.48553278299999647	0.29922274213223554
-0.48547174784374647	0.27994083605175213
-0.48541071268749647	0.25874247049928656
-0.48534967753124647	0.23576749198993283
-0.48528864237499647	0.21116768844507436
-0.48522760721874647	0.18510580153307366
-0.48516657206249647	0.15775441234096788
-0.48510553690624647	0.12929485528308016
-0.48504450174999647	0.09991596424775398
-0.48498346659374647	0.06981286476303883
-0.48492243143749647	0.039185636156020644
-0.48486139628124647	0.00823801648093885
-0.48480036112499647	-0.022823947504459086
-0.48473932596874647	-0.05379333144656535
-0.48467829081249647	-0.08446359152162777
-0.48461725565624647	-0.11463009649217788
-0.48455622049999647	-0.1440913284800046
-0.48449518534374647	-0.17265036488227808
-0.48443415018749647	-0.20011609348994241
-0.48437311503124647	-0.22630453657258887
-0.48431207987499647	-0.251040100499765
-0.48425104471874647	-0.27415665192466215
-0.48419000956249647	-0.29549878681478137
-0.48412897440624647	-0.3149227024840723
-0.48406793924999647	-0.332297308035271
-0.48400690409374647	-0.3475049940509833
-0.48394586893749647	-0.3604425065054281
-0.48388483378124647	-0.371021595139316
-0.48382379862499647	-0.3791696147818127
-0.48376276346874647	-0.3848300658473297
-0.48370172831249647	-0.387962893957658
-0.48364069315624647	-0.3885448742414187
-0.48357965799999647	-0.38656967320844826
-0.48351862284374647	-0.3820479889597254
-0.48345758768749647	-0.3750074272117797
-0.48339655253124647	-0.3654923685762016
-0.48333551737499647	-0.353563665872109
-0.48327448221874647	-0.3392982488085525
-0.48321344706249647	-0.3227886379107533
-0.48315241190624647	-0.3041423114423006
-0.48309137674999647	-0.28348103634806016
-0.48303034159374647	-0.2609400228403723
-0.48296930643749647	-0.23666707059395334
-0.48290827128124647	-0.21082156898681562
-0.48284723612499647	-0.18357345938305275
-0.48278620096874647	-0.15510208730838984
-0.48272516581249647	-0.1255950364457936
-0.48266413065624647	-0.09524688029359804
-0.48260309549999647	-0.06425787549243293
-0.48254206034374647	-0.032832645208331436
-0.48248102518749647	-0.001178815433304033
-0.48241999003124647	0.03049436343280952
-0.48235895487499647	0.06197742156426004
-0.48229791971874647	0.09306204880086676
-0.48223688456249647	0.12354248058402723
-0.48217584940624647	0.15321690560957532
-0.48211481424999647	0.18188877087501815
-0.48205377909374647	0.20936810071987527
-0.48199274393749647	0.235472792902152
-0.48193170878124647	0.26002981553056337
-0.48187067362499647	0.282876356201228
-0.48180963846874647	0.3038609381263387
-0.48174860331249647	0.32284441445103557
-0.48168756815624647	0.3397009036591024
-0.48162653299999647	0.35431865912378424
-0.48156549784374647	0.3666007672214747
-0.48150446268749647	0.37646587927614433
-0.48144342753124647	0.38384867274796325
-0.48138239237499647	0.3887003678558421
-0.48132135721874647	0.3909890207212165
-0.48126032206249647	0.3906997404370475
-0.48119928690624647	0.38783483517261824
-0.48113825174999647	0.38241374039977094
-0.48107721659374647	0.3744729708981086
-0.48101618143749647	0.36406580649338166
-0.48095514628124647	0.35126201444564464
-0.48089411112499647	0.33614732918286994
-0.48083307596874647	0.3188229329616623
-0.48077204081249647	0.2994047503363085
-0.48071100565624647	0.27802270225987613
-0.48064997049999647	0.2548198386394657
-0.48058893534374647	0.2299513668629279
-0.48052790018749647	0.2035836531381624
-0.48046686503124647	0.1758930761193156
-0.48040582987499647	0.14706489980502108
-0.48034479471874647	0.11729196108743263
-0.48028375956249647	0.08677348278238765
-0.48022272440624647	0.055713642747363123
-0.48016168924999647	0.02432028193396339
-0.48010065409374647	-0.007196515209503602
-0.48003961893749647	-0.03862583797043067
-0.47997858378124647	-0.06975732616003791
-0.47991754862499647	-0.10038262071890806
-0.47985651346874647	-0.1302967267871745
-0.47979547831249647	-0.15929939965888512
-0.47973444315624647	-0.18719648967237837
-0.47967340799999647	-0.21380126673524769
-0.47961237284374647	-0.23893560301108113
-0.47955133768749647	-0.262431284685217
-0.47949030253124647	-0.2841310162539462
-0.47942926737499647	-0.3038895837962469
-0.47936823221874647	-0.3215747727511814
-0.47930719706249647	-0.3370682756185215
-0.47924616190624647	-0.3502665128670198
-0.47918512674999647	-0.3610812684881222
-0.47912409159374647	-0.36944039242509913
-0.47906305643749647	-0.3752881709473264
-0.47900202128124647	-0.37858580971008216
-0.47894098612499647	-0.37931162761344384
-0.47887995096874647	-0.37746125204103514
-0.47881891581249647	-0.37304763961441967
-0.47875788065624647	-0.36610098471911373
-0.47869684549999647	-0.35666855073924975
-0.47863581034374647	-0.3448143251893955
-0.47857477518749647	-0.3306186318765132
-0.47851374003124647	-0.31417755802018843
-0.47845270487499647	-0.2956023564558119
-0.47839166971874647	-0.27501866413834986
-0.47833063456249647	-0.2525656925858465
-0.47826959940624647	-0.22839528593829989
-0.47820856424999647	-0.2026708878080667
-0.47814752909374647	-0.17556649688919476
-0.47808649393749647	-0.14726542250001656
-0.47802545878124647	-0.11795914012952359
-0.47796442362499647	-0.087845936477121
-0.47790338846874647	-0.057129621690946555
-0.47784235331249647	-0.026018148871275862
-0.47778131815624647	0.0052778232585731924
-0.47772028299999647	0.036546250122120684
-0.47765924784374647	0.06757526745300796
-0.47759821268749647	0.09815447557892215
-0.47753717753124647	0.12807646930348737
-0.47747614237499647	0.15713816630824826
-0.47741510721874647	0.1851422224514186
-0.47735407206249647	0.21189833827753843
-0.47729303690624647	0.23722453137123253
-0.47723200174999647	0.2609484359357153
-0.47717096659374647	0.2829083566619751
-0.47710993143749647	0.3029544999124735
-0.47704889628124647	0.32094986142990745
-0.47698786112499647	0.3367712444858402
-0.47692682596874647	0.3503100621641575
-0.47686579081249647	0.36147307789536454
-0.47680475565624647	0.3701830592507509
-0.47674372049999647	0.376379285931305
-0.47668268534374647	0.380017988258975
-0.47662165018749647	0.38107263861130836
-0.47656061503124647	0.3795341483882781
-0.47649957987499647	0.37541093646572027
-0.47643854471874647	0.36872888269693355
-0.47637750956249647	0.3595311629493043
-0.47631647440624647	0.3478779744227685
-0.47625543924999647	0.3338461286620488
-0.47619440409374647	0.31752855612295133
-0.47613336893749647	0.29903367602344577
-0.47607233378124647	0.27848469257832503
-0.47601129862499647	0.2560187491266331
-0.47595026346874647	0.231786034161794
-0.47588922831249647	0.20594876117327884
-0.47582819315624647	0.17868009193608855
-0.47576715799999647	0.15016296348885846
-0.47570612284374647	0.12058888278371367
-0.47564508768749647	0.09015659449077203
-0.47558405253124647	0.059070805110572014
-0.47552301737499647	0.02754076552595762
-0.47546198221874647	-0.004221156464228926
-0.47540094706249647	-0.03600081993713
-0.47533991190624647	-0.06758388379461887
-0.47527887674999647	-0.09875712905052646
-0.47521784159374647	-0.12930998506043406
-0.47515680643749647	-0.1590359082575074
-0.47509577128124647	-0.18773378846629213
-0.47503473612499647	-0.21520932426728384
-0.47497370096874647	-0.24127630011066195
-0.47491266581249647	-0.2657579210897058
-0.47485163065624647	-0.28848790455411544
-0.47479059549999647	-0.3093117257125876
-0.47472956034374647	-0.3280875768462847
-0.47466852518749647	-0.3446873825625514
-0.47460749003124647	-0.35899765715873716
-0.47454645487499647	-0.3709202732068069
-0.47448541971874647	-0.3803731574515734
-0.47442438456249647	-0.38729081679279875
-0.47436334940624647	-0.39162483683988747
-0.47430231424999647	-0.3933441698127659
-0.47424127909374647	-0.3924354029822072
-0.47418024393749647	-0.38890282095576223
-0.47411920878124647	-0.38276840889962577
-0.47405817362499647	-0.3740717123950828
-0.47399713846874647	-0.362869568556618
-0.47393610331249647	-0.3492357532180967
-0.47387506815624647	-0.33326047339458376
-0.47381403299999647	-0.315049771243825
-0.47375299784374647	-0.2947248367122826
-0.47369196268749647	-0.2724211622161869
-0.47363092753124647	-0.24828767264965917
-0.47356989237499647	-0.22248569814444444
-0.47350885721874647	-0.19518790921352921
-0.47344782206249647	-0.1665771496594556
-0.47338678690624647	-0.13684519823921643
-0.47332575174999647	-0.10619150417783797
-0.47326471659374647	-0.07482180459134327
-0.47320368143749647	-0.04294678514767331
-0.47314264628124647	-0.010780605312038805
-0.47308161112499647	0.021460493554442774
-0.47302057596874647	0.0535597040405054
-0.47295954081249647	0.0853010567267031
-0.47289850565624647	0.11647094198659241
-0.47283747049999647	0.14685951016663754
-0.47277643534374647	0.1762621049166555
-0.47271540018749647	0.20448067333451875
-0.47265436503124647	0.231325054373671
-0.47259332987499647	0.2566143632853092
-0.47253229471874647	0.2801780719707826
-0.47247125956249647	0.3018573507633339
-0.47241022440624647	0.3215059777331948
-0.47234918924999647	0.33899144481163174
-0.47228815409374647	0.3541958277323753
-0.47222711893749647	0.36701656203644045
-0.47216608378124647	0.377367214772352
-0.47210504862499647	0.3851779722113124
-0.47204401346874647	0.3903962495354777
-0.47198297831249647	0.39298691650945144
-0.47192194315624647	0.3929326682616323
-0.47186090799999647	0.3902340578778533
-0.47179987284374647	0.384909550677453
-0.47173883768749647	0.3769953915904519
-0.47167780253124647	0.3665453553469698
-0.47161676737499647	0.3536304240634912
-0.47155573221874647	0.3383382604585806
-0.47149469706249647	0.3207726759161204
-0.47143366190624647	0.3010528906257373
-0.47137262674999647	0.279312759422533
-0.47131159159374647	0.2556998506636378
-0.47125055643749647	0.23037445483237706
-0.47118952128124647	0.20350852008935533
-0.47112848612499647	0.17528446234087086
-0.47106745096874647	0.14589394798654023
-0.47100641581249647	0.11553659579810252
-0.47094538065624647	0.08441861873613962
-0.47088434549999647	0.05275144012898735
-0.47082331034374647	0.0207502283113351
-0.47076227518749647	-0.011367515501274808
-0.47070124003124647	-0.043383482334165425
-0.47064020487499647	-0.07507999880048805
-0.47057916971874647	-0.10624153566807008
-0.47051813456249647	-0.1366561517846438
-0.47045709940624647	-0.1661169578296554
