Time	Frequency
-0.5000364780624977	0.2510074616530053
-0.49997544290624774	0.2349987517225383
-0.49991440774999774	0.21832298874930975
-0.49985337259374774	0.1998769226941682
-0.49979233743749774	0.18094473348286413
-0.49973130228124774	0.16043487349456703
-0.49967026712499774	0.13964245722984533
-0.49960923196874774	0.11748560750382239
-0.49954819681249774	0.09526824335768479
-0.49948716165624774	0.07191590861064247
-0.49942612649999774	0.048738988002062625
-0.49936509134374774	0.024668056904869014
-0.49930405618749774	0.0010175172948022999
-0.49924302103124774	-0.023279545047527092
-0.49918198587499774	-0.04690726693438781
-0.49912095071874774	-0.070932600647365
-0.49905991556249774	-0.0940407948315962
-0.49899888040624774	-0.11730143361600631
-0.49893784524999774	-0.13940342128406696
-0.49887681009374774	-0.16142146791474263
-0.49881577493749774	-0.18205065175797727
-0.49875473978124774	-0.2023732235832606
-0.49869370462499774	-0.22109277564835123
-0.49863266946874774	-0.23930137181239863
-0.49857163431249774	-0.2557132948434979
-0.49851059915624774	-0.27143251812028474
-0.49844956399999774	-0.28518594360611543
-0.49838852884374774	-0.2980912917899982
-0.49832749368749774	-0.3088897935205677
-0.49826645853124774	-0.3187144567560499
-0.49820542337499774	-0.3263222448610456
-0.49814438821874774	-0.3328627028438642
-0.49808335306249774	-0.33710958314329786
-0.49802231790624774	-0.3402298720235932
-0.49796128274999774	-0.3410148570318974
-0.49790024759374774	-0.3406494917461328
-0.49783921243749774	-0.33794296231939663
-0.49777817728124774	-0.3340983732283878
-0.49771714212499774	-0.3279427926613751
-0.49765610696874774	-0.3206972812822044
-0.49759507181249774	-0.3112064057417326
-0.49753403665624774	-0.30070861413345235
-0.49747300149999774	-0.2880652293543158
-0.49741196634374774	-0.27453115859967037
-0.49735093118749774	-0.258983380778215
-0.49728989603124774	-0.2426919984970753
-0.49722886087499774	-0.2245482245314205
-0.49716782571874774	-0.20583577889616952
-0.49710679056249774	-0.1854583794896183
-0.49704575540624774	-0.1647115033804482
-0.49698472024999774	-0.14250938539878738
-0.49692368509374774	-0.1201571615599184
-0.49686264993749774	-0.09657737552296504
-0.49680161478124774	-0.07308250898000597
-0.49674057962499774	-0.04860102251540429
-0.49667954446874774	-0.024450297307851542
-0.49661850931249774	0.0004377909614581676
-0.49655747415624774	0.02474353967564346
-0.49649643899999774	0.04953426654932953
-0.49643540384374774	0.07349052708631652
-0.49637436868749774	0.09768143529140412
-0.49631333353124774	0.12079042893093658
-0.49625229837499774	0.14389100526857498
-0.49619126321874774	0.1656720258370719
-0.49613022806249774	0.18721385139234026
-0.49606919290624774	0.20721320988816827
-0.49600815774999774	0.2267596843354117
-0.49594712259374774	0.24456013245243505
-0.49588608743749774	0.26171554588648765
-0.49582505228124774	0.2769449673223742
-0.49576401712499774	0.29136272805072333
-0.49570298196874774	0.3037018674941983
-0.49564194681249774	0.31509173121985157
-0.49558091165624774	0.32428086972998377
-0.49551987649999774	0.33241500037367677
-0.49545884134374774	0.33825938352648394
-0.49539780618749774	0.3429771277428679
-0.49533677103124774	0.345351055144427
-0.49527573587499774	0.346562334675021
-0.49521470071874774	0.3454118256902102
-0.49515366556249774	0.3430990537951681
-0.49509263040624774	0.3384430230347632
-0.49503159524999774	0.332661531411118
-0.49497056009374774	0.324591454666157
-0.49490952493749774	0.3154683996339635
-0.49484848978124774	0.30414646767083153
-0.49478745462499774	0.29187824819428
-0.49472641946874774	0.2775340565388363
-0.49466538431249774	0.262382281946551
-0.49460434915624774	0.24530810918702006
-0.49454331399999774	0.22759422216217803
-0.49448227884374774	0.20813901148704692
-0.49442124368749774	0.18823764237086424
-0.49436020853124774	0.16679978217909772
-0.49429917337499774	0.1451310128508436
-0.49423813821874774	0.12215009601514724
-0.49417710306249774	0.09917075541784025
-0.49411606790624774	0.07511846737850429
-0.49405503274999774	0.05131265345502071
-0.49399399759374774	0.026682991213766914
-0.49393296243749774	0.002552017522462989
-0.49387192728124774	-0.02214898093338347
-0.49381089212499774	-0.04609698230981636
-0.49374985696874774	-0.0703617683245781
-0.49368882181249774	-0.09362245629624984
-0.49362778665624774	-0.11695250067482274
-0.49356675149999774	-0.13903579750206743
-0.49350571634374774	-0.16095203095709662
-0.49344468118749774	-0.18139234429022516
-0.49338364603124774	-0.20144511305510002
-0.49332261087499774	-0.21981107743586115
-0.49326157571874774	-0.23758953049820639
-0.49320054056249774	-0.25349299253198104
-0.49313950540624774	-0.26863370712485046
-0.49307847024999774	-0.28173785767859505
-0.49301743509374774	-0.29393242168029515
-0.49295639993749774	-0.3039588645406732
-0.49289536478124774	-0.3129603556176088
-0.49283432962499774	-0.3196949504260999
-0.49277329446874774	-0.3253231343167189
-0.49271225931249774	-0.3286205107525747
-0.49265122415624774	-0.3307656572265203
-0.49259018899999774	-0.3305523030253998
-0.49252915384374774	-0.3291775163803125
-0.49246811868749774	-0.32545336499891725
-0.49240708353124774	-0.32059542136961866
-0.49234604837499774	-0.31343390885210987
-0.49228501321874774	-0.305202535391852
-0.49222397806249774	-0.2947491237099416
-0.49216294290624774	-0.2833247695790772
-0.49210190774999774	-0.26979395974232145
-0.49204087259374774	-0.25542407124132605
-0.49197983743749774	-0.23909498339399468
-0.49191880228124774	-0.22208889428897888
-0.49185776712499774	-0.20329946662799533
-0.49179673196874774	-0.18402197106772672
-0.49173569681249774	-0.16316195934082725
-0.49167466165624774	-0.1420257367410095
-0.49161362649999774	-0.11952857557270091
-0.49155259134374774	-0.09698558830239953
-0.49149155618749774	-0.07331939814822029
-0.49143052103124774	-0.04985145563586784
-0.49136948587499774	-0.025509234821097796
-0.49130845071874774	-0.0016179524910778288
-0.49124741556249774	0.02289269027732394
-0.49118638040624774	0.04669639450743788
-0.49112534524999774	0.07086389577736818
-0.49106431009374774	0.09407048041862778
-0.49100327493749774	0.11739001198647417
-0.49094223978124774	0.13950199278781233
-0.49088120462499774	0.16148605003531322
-0.49082016946874774	0.18202846367473094
-0.49075913431249774	0.20221708964299287
-0.49069809915624774	0.22074743763753082
-0.49063706399999774	0.23871792880780462
-0.49057602884374774	0.2548355086123536
-0.49051499368749774	0.2702112823032238
-0.49045395853124774	0.2835656339579784
-0.49039292337499774	0.29602419290089727
-0.49033188821874774	0.3063224986910668
-0.49027085306249774	0.31560225971322736
-0.49020981790624774	0.3226155520881536
-0.49014878274999774	0.3285213950181215
-0.49008774759374774	0.33208944211117364
-0.49002671243749774	0.3344968849296139
-0.48996567728124774	0.3345316249120785
-0.48990464212499774	0.3333895182394728
-0.48984360696874774	0.32987700591240976
-0.48978257181249774	0.32520869660985147
-0.48972153665624774	0.31820947784448234
-0.48966050149999774	0.3101124167291351
-0.48959946634374774	0.29976035450874156
-0.48953843118749774	0.2884041416610255
-0.48947739603124774	0.27490370502458156
-0.48941636087499774	0.26052662232943147
-0.48935532571874774	0.24414868194126416
-0.48929429056249774	0.22705278789653535
-0.48923325540624774	0.20812902259041494
-0.48917222024999774	0.18867389171765286
-0.48911118509374774	0.16758990724515493
-0.48905014993749774	0.14618517039194626
-0.48898911478124774	0.12337247510019156
-0.48892807962499774	0.10046927739116758
-0.48886704446874774	0.07639629841252976
-0.48880600931249774	0.05247790195914733
-0.48874497415624774	0.02764020102339899
-0.48868393899999774	0.003211864651129426
-0.48862290384374774	-0.021878216144010344
-0.48856186868749774	-0.04629977558402197
-0.48850083353124774	-0.0711238667184975
-0.48843979837499774	-0.09502132541070044
-0.48837876321874774	-0.11906587112424043
-0.48831772806249774	-0.14193214422418915
-0.48825669290624774	-0.16469918892965554
-0.48819565774999774	-0.18604808212727647
-0.48813462259374774	-0.20706575789995174
-0.48807358743749774	-0.226442191713552
-0.48801255228124774	-0.24527462586176554
-0.48795151712499774	-0.26226424140558335
-0.48789048196874774	-0.27852076150877775
-0.48782944681249774	-0.2927586483723434
-0.48776841165624774	-0.3061020354177063
-0.48770737649999774	-0.3172804510530906
-0.48764634134374774	-0.32743408518433514
-0.48758530618749774	-0.33530899547275
-0.48752427103124774	-0.34206272289789214
-0.48746323587499774	-0.34645898844455897
-0.48740220071874774	-0.3496736227022557
-0.48734116556249774	-0.35048876380450644
-0.48728013040624774	-0.3500990871269447
-0.48721909524999774	-0.3473055108555527
-0.48715806009374774	-0.34332172706698605
-0.48709702493749774	-0.33696739967212846
-0.48703598978124774	-0.3294750062521459
-0.48697495462499774	-0.31968252821768534
-0.48691391946874774	-0.30884060424611487
-0.48685288431249774	-0.2958047169341474
-0.48679184915624774	-0.2818426630890453
-0.48673081399999774	-0.26582623701845237
-0.48666977884374774	-0.24903903214594642
-0.48660874368749774	-0.2303676215565538
-0.48654770853124774	-0.21110969130173005
-0.48648667337499774	-0.19016475351926918
-0.48642563821874774	-0.16884259858135012
-0.48636460306249774	-0.14605353362299425
-0.48630356790624774	-0.1231172243360988
-0.48624253274999774	-0.09895241044598557
-0.48618149759374774	-0.07488617417858842
-0.48612046243749774	-0.049843159579550586
-0.48605942728124774	-0.025155234465122224
-0.48599839212499774	0.00024970664713126994
-0.48593735696874774	0.025037729797622834
-0.48587632181249774	0.050280426838595085
-0.48581528665624774	0.07464455848594582
-0.48575425149999774	0.09920397596561822
-0.48569321634374774	0.12262885176259547
-0.48563218118749774	0.14599802339419213
-0.48557114603124774	0.16798777056352018
-0.48551011087499774	0.18968451503147127
-0.48544907571874774	0.20977317187919373
-0.48538804056249774	0.22935023286628461
-0.48532700540624774	0.24711161157958478
-0.48526597024999774	0.2641661166914654
-0.48520493509374774	0.2792228053567726
-0.48514389993749774	0.2934047830511057
-0.48508286478124774	0.30543611465380366
-0.48502182962499774	0.3164559201019784
-0.48496079446874774	0.32520479300773325
-0.48489975931249774	0.332839238478341
-0.48483872415624774	0.3381175787262191
-0.48477768899999774	0.3422147057933374
-0.48471665384374774	0.3439074829647585
-0.48465561868749774	0.34438981093651416
-0.48459458353124774	0.3424575201621448
-0.48453354837499774	0.33932374278382865
-0.48447251321874774	0.3338032948574734
-0.48441147806249774	0.3271283607440776
-0.48435044290624774	0.31813235999265654
-0.48428940774999774	0.30806594670506837
-0.48422837259374774	0.29578037027805243
-0.48416733743749774	0.2825437850587247
-0.48410630228124774	0.26722411035068655
-0.48404526712499774	0.2511056556934663
-0.48398423196874774	0.23307151385586053
-0.48392319681249774	0.2144204622235825
-0.48386216165624774	0.19404892757601552
-0.48380112649999774	0.17326818445968103
-0.48374009134374774	0.15098585139766207
-0.48367905618749774	0.1285234577491131
-0.48361802103124774	0.10479745840018916
-0.48355698587499774	0.08113717160656506
-0.48349595071874774	0.056465321061461356
-0.48343491556249774	0.032116396036360934
-0.48337388040624774	0.0070166931416371075
-0.48331284524999774	-0.017496874664406473
-0.48325181009374774	-0.04249720627554439
-0.48319077493749774	-0.06664776069003567
-0.48312973978124774	-0.09102341011377646
-0.48306870462499774	-0.11429080886476092
-0.48300766946874774	-0.13752953340022314
-0.48294663431249774	-0.15941213793432238
-0.48288559915624774	-0.1810256112553511
-0.48282456399999774	-0.20105097763591037
-0.48276352884374774	-0.22058514262920637
-0.48270249368749774	-0.23832002864752563
-0.48264145853124774	-0.25536477073402775
-0.48258042337499774	-0.2704243680008982
-0.48251938821874774	-0.2846222297507292
-0.48245835306249774	-0.29667835356870936
-0.48239731790624774	-0.3077321800854188
-0.48233628274999774	-0.3165202860893435
-0.48227524759374774	-0.32419956795174465
-0.48221421243749774	-0.3295244205870486
-0.48215317728124774	-0.33367024973995224
-0.48209214212499774	-0.3354101307497848
-0.48203110696874774	-0.33593863581350597
-0.48197007181249774	-0.3340479930579396
-0.48190903665624774	-0.33095219763532663
-0.48184800149999774	-0.3254626823287947
-0.48178696634374774	-0.31881272140728173
-0.48172593118749774	-0.3098325973973012
-0.48166489603124774	-0.2997743025761447
-0.48160386087499774	-0.2874862164175639
-0.48154282571874774	-0.27423810043867425
-0.48148179056249774	-0.2588952801758003
-0.48142075540624774	-0.24274395895106204
-0.48135972024999774	-0.2246649066470328
-0.48129868509374774	-0.20595908525937268
-0.48123764993749774	-0.18552087527032535
-0.48117661478124774	-0.16466400698229386
-0.48111557962499774	-0.14229432727248378
-0.48105454446874774	-0.11973608915343437
-0.48099350931249774	-0.0959042241635169
-0.48093247415624774	-0.07213099891185515
-0.48087143899999774	-0.047337881933881776
-0.48081040384374774	-0.02286248940397616
-0.48074936868749774	0.0023699259997349673
-0.48068833353124774	0.027019132164777835
-0.48062729837499774	0.052158911530857915
-0.48056626321874774	0.0764492692514238
-0.48050522806249774	0.10096582487844659
-0.48044419290624774	0.12437165681994732
-0.48038315774999774	0.14774702956228725
-0.48032212259374774	0.16976085891074566
-0.48026108743749774	0.19150076142149328
-0.48020005228124774	0.2116441098266629
-0.48013901712499774	0.2312884579493333
-0.48007798196874774	0.24912208064225871
-0.48001694681249774	0.26625481225284664
-0.47995591165624774	0.281388084290306
-0.47989487649999774	0.2956460915044253
-0.47983384134374774	0.30774536580398093
-0.47977280618749774	0.31882627098987254
-0.47971177103124774	0.3276220651236361
-0.47965073587499774	0.33529072834176216
-0.47958970071874774	0.34058352831147215
-0.47952866556249774	0.3446771442634645
-0.47946763040624774	0.34634173755825787
-0.47940659524999774	0.3467733798199278
-0.47934556009374774	0.34476161587527593
-0.47928452493749774	0.3415221853619718
-0.47922348978124774	0.33586409107479603
-0.47916245462499774	0.32902260542853085
-0.47910141946874774	0.3198258447816551
-0.47904038431249774	0.30952806505063585
-0.47897934915624774	0.29697574054959175
-0.47891831399999774	0.28344116077234316
-0.47885727884374774	0.2677880096798761
-0.47879624368749774	0.25130527776050454
-0.47873520853124774	0.2328723392716998
-0.47867417337499774	0.21379318254670776
-0.47861313821874774	0.19296103857855382
-0.47855210306249774	0.17169287245629714
-0.47849106790624774	0.1488936068383533
-0.47843003274999774	0.12589091709062858
-0.47836899759374774	0.1015989871003237
-0.47830796243749774	0.0773536906789859
-0.47824692728124774	0.0520758837896525
-0.47818589212499774	0.027106923622930653
-0.47812485696874774	0.001371564316726836
-0.47806382181249774	-0.02378612986771113
-0.47800278665624774	-0.04944036820312076
-0.47794175149999774	-0.07424725968385892
-0.47788071634374774	-0.09928284027724733
-0.47781968118749774	-0.1232062734074036
-0.47775864603124774	-0.14709823595873445
-0.47769761087499774	-0.16962377194671432
-0.47763657571874774	-0.19187096744825025
-0.47757554056249774	-0.21251339591254992
-0.47751450540624774	-0.23264915049983176
-0.47745347024999774	-0.2509628468202286
-0.47739243509374774	-0.26856497479101593
-0.47733139993749774	-0.2841534415869717
-0.47727036478124774	-0.2988532815588531
-0.47720932962499774	-0.31137767142132117
-0.47714829446874774	-0.3228680015161845
-0.47708725931249774	-0.3320543865808739
-0.47702622415624774	-0.3400960473227302
-0.47696518899999774	-0.345741335184721
-0.47690415384374774	-0.3501683973680393
-0.47684311868749774	-0.35214473272367075
-0.47678208353124774	-0.3528681175846057
-0.47672104837499774	-0.3511256863481761
-0.47666001321874774	-0.3481351365852016
-0.47659897806249774	-0.34270331112799635
-0.47653794290624774	-0.33606768992998326
-0.47647690774999774	-0.327054476831217
-0.47641587259374774	-0.3169203769905635
-0.47635483743749774	-0.3045101893067816
-0.47629380228124774	-0.291098873173123
-0.47623276712499774	-0.27554866806132305
-0.47617173196874774	-0.259151423727838
-0.47611069681249774	-0.24078527348553716
-0.47604966165624774	-0.22175726011896393
-0.47598862649999774	-0.2009594991092542
-0.47592759134374774	-0.17971219454070145
-0.47586655618749774	-0.15691927786304413
-0.47580552103124774	-0.13391176771110916
-0.47574448587499774	-0.10960296674530588
-0.47568345071874774	-0.08533215270534304
-0.47562241556249774	-0.060019363407713855
-0.47556138040624774	-0.03500938991220672
-0.47550034524999774	-0.009226204912108205
-0.47543931009374774	0.015982721662120503
-0.47537827493749774	0.04169240352244242
-0.47531723978124774	0.0665555814351636
-0.47525620462499774	0.09164915748790282
-0.47519516946874774	0.11562901658239262
-0.47513413431249774	0.13957683207263655
-0.47507309915624774	0.16215445775196657
-0.47501206399999774	0.18445112178175438
-0.47495102884374774	0.20513736824170173
-0.47488999368749774	0.22531260970308736
-0.47482895853124774	0.24365861388687957
-0.47476792337499774	0.2612873804604108
-0.47470688821874774	0.2768941941361541
-0.47464585306249774	0.2916057983949405
-0.47458481790624774	0.3041329903332042
-0.47452378274999774	0.3156190927752658
-0.47446274759374774	0.324792088340797
-0.47440171243749774	0.3328133679713346
-0.47434067728124774	0.3384293921218466
-0.47427964212499774	0.3428207289625762
-0.47421860696874774	0.34475321693245503
-0.47415757181249774	0.3454272953639276
-0.47409653665624774	0.3436286725862495
-0.47403550149999774	0.3405779275967013
-0.47397446634374774	0.3350806948005811
-0.47391343118749774	0.32837753666928876
-0.47385239603124774	0.3192936416637027
-0.47379136087499774	0.30908897554487497
-0.47373032571874774	0.2966074811786794
-0.47366929056249774	0.2831275274150243
-0.47360825540624774	0.2675106173178639
-0.47354722024999774	0.25105212628189744
-0.47348618509374774	0.23262954133481367
-0.47342514993749774	0.2135534758658628
-0.47336411478124774	0.19271547481154122
-0.47330307962499774	0.17143932314622432
-0.47324204446874774	0.14862836885164998
-0.47318100931249774	0.1256171944605246
-0.47311997415624774	0.10131848343695894
-0.47305893899999774	0.07707500931259478
-0.47299790384374774	0.0518060637508952
-0.47293686868749774	0.0268598540615945
-0.47287583353124774	0.0011594597988222918
-0.47281479837499774	-0.023944420696766264
-0.47275376321874774	-0.049527833524871265
-0.47269272806249774	-0.07424052058363544
-0.47263169290624774	-0.0991606424465528
-0.47257065774999774	-0.12294131257656823
-0.47250962259374774	-0.1466657089905031
-0.47244858743749774	-0.1689932052868384
-0.47238755228124774	-0.1910148052100667
-0.47232651712499774	-0.21139887975654229
-0.47226548196874774	-0.2312469189583141
-0.47220444681249774	-0.2492388248243415
-0.47214341165624774	-0.266489012954967
-0.47208237649999774	-0.2816912125177945
-0.47202134134374774	-0.2959749171558064
-0.47196030618749774	-0.3080496986120238
-0.47189927103124774	-0.31906195065358806
-0.47183823587499774	-0.3277387566572524
-0.47177720071874774	-0.3352448963507687
-0.47171616556249774	-0.3403262341530137
-0.47165513040624774	-0.3441670261214108
-0.47159409524999774	-0.34553280076196746
-0.47153306009374774	-0.3456279543359005
-0.47147202493749774	-0.34323814000981945
-0.47141098978124774	-0.3395881278976946
-0.47134995462499774	-0.3334837134573524
-0.47128891946874774	-0.3261698471234214
-0.47122788431249774	-0.3164720485505082
-0.47116684915624774	-0.30565480969327474
-0.47110581399999774	-0.29256253597210424
-0.47104477884374774	-0.2784782124675711
-0.47098374368749774	-0.2622638694443171
-0.47092270853124774	-0.24521952935029598
-0.47086167337499774	-0.2262232239097557
-0.47080063821874774	-0.2065901845198387
-0.47073960306249774	-0.18521244520487573
-0.47067856790624774	-0.1634183319786056
-0.47061753274999774	-0.14011156162850183
-0.47055649759374774	-0.11663112789946871
-0.47049546243749774	-0.09188989110317677
