Time	Frequency
-0.5000122278125048	0.06792304290475865
-0.49995119265625476	0.09655753040881282
-0.49989015750000476	0.1245929689582409
-0.49982912234375476	0.1518430056805638
-0.49976808718750476	0.17812631404782023
-0.49970705203125476	0.20326783987235889
-0.49964601687500476	0.22709987424231864
-0.49958498171875476	0.2494632373928523
-0.49952394656250476	0.27020830177855526
-0.49946291140625476	0.28919594511288216
-0.49940187625000476	0.30629856452158466
-0.49934084109375476	0.3214008232129048
-0.49927980593750476	0.33440049016370227
-0.49921877078125476	0.34520907276513485
-0.49915773562500476	0.35375245672911737
-0.49909670046875476	0.359971358340884
-0.49903566531250476	0.36382174018696
-0.49897463015625476	0.36527514996625704
-0.49891359500000476	0.364318824042048
-0.49885255984375476	0.36095591911316166
-0.49879152468750476	0.355205347782399
-0.49873048953125476	0.3471018170529493
-0.49866945437500476	0.33669548193525134
-0.49860841921875476	0.3240517234894251
-0.49854738406250476	0.3092506695318225
-0.49848634890625476	0.2923867022041379
-0.49842531375000476	0.2735678600265868
-0.49836427859375476	0.25291509740825263
-0.49830324343750476	0.23056155263644257
-0.49824220828125476	0.20665162186680403
-0.49818117312500476	0.18134008194891385
-0.49812013796875476	0.15479101487726782
-0.49805910281250476	0.12717679890205286
-0.49799806765625476	0.09867691325034489
-0.49793703250000476	0.06947685129797893
-0.49787599734375476	0.03976679444376718
-0.49781496218750476	0.00974047902688646
-0.49775392703125476	-0.020406155919193123
-0.49769289187500476	-0.05047622527875859
-0.49763185671875476	-0.08027318196121372
-0.49757082156250476	-0.10960213674880855
-0.49750978640625476	-0.13827110409626017
-0.49744875125000476	-0.16609230045895898
-0.49738771609375476	-0.19288336179432072
-0.49732668093750476	-0.21846855170186566
-0.49726564578125476	-0.24267990471840528
-0.49720461062500476	-0.26535837786002264
-0.49714357546875476	-0.2863548400011406
-0.49708254031250476	-0.30553112013502826
-0.49702150515625476	-0.32276087596306985
-0.49696047000000476	-0.3379304489945251
-0.49689943484375476	-0.35093963006777235
-0.49683839968750476	-0.36170230155306116
-0.49677736453125476	-0.37014703349258093
-0.49671632937500476	-0.37621754481110764
-0.49665529421875476	-0.37987309466076546
-0.49659425906250476	-0.3810887506770561
-0.49653322390625476	-0.3798555608921507
-0.49647218875000476	-0.37618062793259155
-0.49641115359375476	-0.3700870609551254
-0.49635011843750476	-0.361613841046855
-0.49628908328125476	-0.3508155618791315
-0.49622804812500476	-0.3377620910772083
-0.49616701296875476	-0.32253810160188034
-0.49610597781250476	-0.3052425431733135
-0.49604494265625476	-0.28598796802662857
-0.49598390750000476	-0.26489982650907
-0.49592287234375476	-0.24211562671673958
-0.49586183718750476	-0.21778404031219642
-0.49580080203125476	-0.19206393581053097
-0.49573976687500476	-0.16512331004664008
-0.49567873171875476	-0.13713824384538398
-0.49561769656250476	-0.10829165161732913
-0.49555666140625476	-0.07877218393072215
-0.49549562625000476	-0.04877291262948255
-0.49543459109375476	-0.018490082201137764
-0.49537355593750476	0.011878164720947503
-0.49531252078125476	0.04213313056447407
-0.49525148562500476	0.0720768157603725
-0.49519045046875476	0.1015133062648217
-0.49512941531250476	0.1302499669282584
-0.49506838015625476	0.15809881505489579
-0.49500734500000476	0.18487766396743102
-0.49494630984375476	0.21041140188926727
-0.49488527468750476	0.23453313759059036
-0.49482423953125476	0.2570852302367002
-0.49476320437500476	0.2779204687068305
-0.49470216921875476	0.2969028994793407
-0.49464113406250476	0.313908844027233
-0.49458009890625476	0.3288276493284407
-0.49451906375000476	0.34156244749295095
-0.49445802859375476	0.35203081071072634
-0.49439699343750476	0.36016526226400086
-0.49433595828125476	0.36591377805081227
-0.49427492312500476	0.3692400823642275
-0.49421388796875476	0.370123935728662
-0.49415285281250476	0.36856123796435847
-0.49409181765625476	0.3645640861745097
-0.49403078250000476	0.35816068035304094
-0.49396974734375476	0.34939515171222796
-0.49390871218750476	0.33832726602226565
-0.49384767703125476	0.3250320437013923
-0.49378664187500476	0.30959925108355624
-0.49372560671875476	0.2921328226228398
-0.49366457156250476	0.27275016398223817
-0.49360353640625476	0.25158140148688846
-0.49354250125000476	0.2287684809949078
-0.49348146609375476	0.2044642686600599
-0.49342043093750476	0.1788315373153314
-0.49335939578125476	0.1520418412735918
-0.49329836062500476	0.124274467014196
-0.49323732546875476	0.09571513477720132
-0.49317629031250476	0.06655490223989642
-0.49311525515625476	0.036988751012488476
-0.49305422000000476	0.007214417793570635
-0.49299318484375476	-0.022568982330059308
-0.49293214968750476	-0.05216230152341998
-0.49287111453125476	-0.08136757447464535
-0.49281007937500476	-0.1099894773985282
-0.49274904421875476	-0.13783650034404146
-0.49268800906250476	-0.16472232228180353
-0.49262697390625476	-0.19046696517717165
-0.49256593875000476	-0.21489806806711248
-0.49250490359375476	-0.23785197419663698
-0.49244386843750476	-0.2591748637518752
-0.49238283328125476	-0.2787237747504789
-0.49232179812500476	-0.29636752616817014
-0.49226076296875476	-0.311987656556012
-0.49219972781250476	-0.32547914018365404
-0.49213869265625476	-0.3367511711496599
-0.49207765750000476	-0.34572771364496996
-0.49201662234375476	-0.3523480386971484
-0.49195558718750476	-0.356567145956048
-0.49189455203125476	-0.3583560461294404
-0.49183351687500476	-0.3577019768789993
-0.49177248171875476	-0.35460850001763
-0.49171144656250476	-0.3490954632622852
-0.49165041140625476	-0.3411989102584648
-0.49158937625000476	-0.33097081092829156
-0.49152834109375476	-0.3184787567048406
-0.49146730593750476	-0.3038054965477047
-0.49140627078125476	-0.2870483990349134
-0.49134523562500476	-0.268318827962164
-0.49128420046875476	-0.24774136236680658
-0.49122316531250476	-0.22545304851519463
-0.49116213015625476	-0.20160241006985927
-0.49110109500000476	-0.17634852163011847
-0.49104005984375476	-0.14985994920923246
-0.49097902468750476	-0.1223135950400636
-0.49091798953125476	-0.0938935656507545
-0.49085695437500476	-0.06478993312105685
-0.49079591921875476	-0.03519746033413411
-0.49073488406250476	-0.005314329794439371
-0.49067384890625476	0.024659207936904966
-0.49061281375000476	0.05452212437191283
-0.49055177859375476	0.0840740015501241
-0.49049074343750476	0.11311633419415353
-0.49042970828125476	0.1414538544382243
-0.49036867312500476	0.16889587485171242
-0.49030763796875476	0.19525749685835397
-0.49024660281250476	0.22036092421796866
-0.49018556765625476	0.24403657940438953
-0.49012453250000476	0.26612429983295377
-0.49006349734375476	0.28647437077711874
-0.49000246218750476	0.30494855483631456
-0.48994142703125476	0.3214210130717648
-0.48988039187500476	0.33577914357988764
-0.48981935671875476	0.3479243668700619
-0.48975832156250476	0.35777276389381135
-0.48969728640625476	0.36525566520275005
-0.48963625125000476	0.3703201083446532
-0.48957521609375476	0.37292921808203094
-0.48951418093750476	0.3730624354509693
-0.48945314578125476	0.37071570078807525
-0.48939211062500476	0.3659014638791995
-0.48933107546875476	0.3586486302752635
-0.48927004031250476	0.3490023739514882
-0.48920900515625476	0.33702384421623827
-0.48914797000000476	0.3227897825166456
-0.48908693484375476	0.3063919975488908
-0.48902589968750476	0.28793680468822297
-0.48896486453125476	0.2675442739852084
-0.48890382937500476	0.24534749596741573
-0.48884279421875476	0.22149165524061842
-0.48878175906250476	0.19613310095516504
-0.48872072390625476	0.16943831196832526
-0.48865968875000476	0.14158277158345606
-0.48859865359375476	0.11274983878065149
-0.48853761843750476	0.08312948122994764
-0.48847658328125476	0.052917097738469684
-0.48841554812500476	0.02231210589212589
-0.48835451296875476	-0.00848326297799945
-0.48829347781250476	-0.03926542858040725
-0.48823244265625476	-0.06983069466730685
-0.48817140750000476	-0.09997671740486729
-0.48811037234375476	-0.1295037967736917
-0.48804933718750476	-0.15821617529393417
-0.48798830203125476	-0.18592346385306657
-0.48792726687500476	-0.2124417592379671
-0.48786623171875476	-0.2375950184851719
-0.48780519656250476	-0.2612161064745365
-0.48774416140625476	-0.2831480416377482
-0.48768312625000476	-0.30324492701063904
-0.48762209109375476	-0.3213730293514122
-0.48756105593750476	-0.33741160601918246
-0.48750002078125476	-0.35125376167333894
-0.48743898562500476	-0.36280714547716597
-0.48737795046875476	-0.37199457472570585
-0.48731691531250476	-0.3787545780933745
-0.48725588015625476	-0.3830417752052381
-0.48719484500000476	-0.38482723902048965
-0.48713380984375476	-0.3840986357812348
-0.48707277468750476	-0.38086038156769403
-0.48701173953125476	-0.37513355059173886
-0.48695070437500476	-0.36695581341394656
-0.48688966921875476	-0.3563811250868441
-0.48682863406250476	-0.3434794351173125
-0.48676759890625476	-0.32833616999040477
-0.48670656375000476	-0.31105171755147143
-0.48664552859375476	-0.2917407368075131
-0.48658449343750476	-0.2705313966208579
-0.48652345828125476	-0.2475645460404235
-0.48646242312500476	-0.22299275260542564
-0.48640138796875476	-0.19697931629735563
-0.48634035281250476	-0.16969715443849076
-0.48627931765625476	-0.14132766924458826
-0.48621828250000476	-0.11205953257546233
-0.48615724734375476	-0.08208742874316484
-0.48609621218750476	-0.05161075682234291
-0.48603517703125476	-0.02083229480015864
-0.48597414187500476	0.010043150727354474
-0.48591310671875476	0.040810116300629785
-0.48585207156250476	0.07126384904848425
-0.48579103640625476	0.10120168718987026
-0.48573000125000476	0.1304244076903148
-0.48566896609375476	0.15873756121201404
-0.48560793093750476	0.18595277962440546
-0.48554689578125476	0.211889037054467
-0.48548586062500476	0.23637386423527842
-0.48542482546875476	0.25924449128773536
-0.48536379031250476	0.28034898412508946
-0.48530275515625476	0.2995471924040498
-0.48524172000000476	0.31671178457096555
-0.48518068484375476	0.3317290118791702
-0.48511964968750476	0.3444995465793384
-0.48505861453125476	0.3549391115626677
-0.48499757937500476	0.3629790529155872
-0.48493654421875476	0.36856684892784697
-0.48487550906250476	0.3716663781841906
-0.48481447390625476	0.37225827429663766
-0.48475343875000476	0.3703399612996107
-0.48469240359375476	0.3659257560341797
-0.48463136843750476	0.35904671676352895
-0.48457033328125476	0.34975047682395355
-0.48450929812500476	0.3381009186805418
-0.48444826296875476	0.3241777355327292
-0.48438722781250476	0.30807592914532606
-0.48432619265625476	0.2899051499185618
-0.48426515750000476	0.26978897107654726
-0.48420412234375476	0.24786407887816478
-0.48414308718750476	0.22427933674164643
-0.48408205203125476	0.1991947858619272
-0.48402101687500476	0.17278060399451695
-0.48395998171875476	0.1452159232567377
-0.48389894656250476	0.11668765855103007
-0.48383791140625476	0.08738922228331258
-0.48377687625000476	0.057519273818561575
-0.48371584109375476	0.027280323110720064
-0.48365480593750476	-0.0031225949829634544
-0.48359377078125476	-0.03348328643610408
-0.48353273562500476	-0.06359583860457543
-0.48347170046875476	-0.0932559524805168
-0.48341066531250476	-0.12226235279837572
-0.48334963015625476	-0.15041813514159047
-0.48328859500000476	-0.17753209947799997
-0.48322755984375476	-0.20342003595680944
-0.48316652468750476	-0.22790594539431241
-0.48310548953125476	-0.2508233179151879
-0.48304445437500476	-0.2720161175860013
-0.48298341921875476	-0.2913399879900313
-0.48292238406250476	-0.3086631227558816
-0.48286134890625476	-0.32386719752119114
-0.48280031375000476	-0.3368482180427251
-0.48273927859375476	-0.34751712234497817
-0.48267824343750476	-0.3558005243835485
-0.48261720828125476	-0.3616410807857644
-0.48255617312500476	-0.36499800779865815
-0.48249513796875476	-0.36584726570583675
-0.48243410281250476	-0.3641818014344731
-0.48237306765625476	-0.36001156098394294
-0.48231203250000476	-0.35336345450217815
-0.48225099734375476	-0.3442811737999318
-0.48218996218750476	-0.3328249081599826
-0.48212892703125476	-0.31907095569152366
-0.48206789187500476	-0.3031111939169521
-0.48200685671875476	-0.28505250336642846
-0.48194582156250476	-0.26501602295088245
-0.48188478640625476	-0.2431363635449971
-0.48182375125000476	-0.21956066936622537
-0.48176271609375476	-0.1944477091706188
-0.48170168093750476	-0.16796669468432343
-0.48164064578125476	-0.14029627162917943
-0.48157961062500476	-0.11162322012710432
-0.48151857546875476	-0.08214123385561387
-0.48145754031250476	-0.05204964778769392
-0.48139650515625476	-0.021552021579785932
-0.48133547000000476	0.009145151117211715
-0.48127443484375476	0.03983389958263606
-0.48121339968750476	0.07030614020950325
-0.48115236453125476	0.10035511471256871
-0.48109132937500476	0.12977675348947
-0.48103029421875476	0.15837107974451212
-0.48096925906250476	0.18594355673103205
-0.48090822390625476	0.21230640516194868
-0.48084718875000476	0.23727987462867506
-0.48078615359375476	0.260693479333023
-0.48072511843750476	0.28238711871019695
-0.48066408328125476	0.30221220729579024
-0.48060304812500476	0.32003266900874017
-0.48054201296875476	0.33572585940850985
-0.48048097781250476	0.34918340963185895
-0.48041994265625476	0.36031197796046877
-0.48035890750000476	0.3690338709823522
-0.48029787234375476	0.3752875897212413
-0.48023683718750476	0.3790282667228615
-0.48017580203125476	0.3802279545173208
-0.48011476687500476	0.3788758618847076
-0.48005373171875476	0.37497839220992335
-0.47999269656250476	0.368559166809076
-0.47993166140625476	0.3596588215952925
-0.47987062625000476	0.34833479208475854
-0.47980959109375476	0.33466090029324824
-0.47974855593750476	0.3187268920084733
-0.47968752078125476	0.30063782694850283
-0.47962648562500476	0.2805133799636837
-0.47956545046875476	0.25848705277525424
-0.47950441531250476	0.23470527646795777
-0.47944338015625476	0.2093264069619075
-0.47938234500000476	0.1825197166983745
-0.47932130984375476	0.15446419264588537
-0.47926027468750476	0.12534738853465396
-0.47919923953125476	0.0953641390472843
-0.47913820437500476	0.06471521361977374
-0.47907716921875476	0.033606064844402865
-0.47901613406250476	0.002245301906904716
-0.47895509890625476	-0.02915658293164292
-0.47889406375000476	-0.060388718357245345
-0.47883302859375476	-0.09124127863704147
-0.47877199343750476	-0.1215068354059107
-0.47871095828125476	-0.150981839552042
-0.47864992312500476	-0.179467944913966
-0.47858888796875476	-0.20677339532543745
-0.47852785281250476	-0.23271427515516663
-0.47846681765625476	-0.2571157989693367
-0.47840578250000476	-0.27981348948196716
-0.47834474734375476	-0.30065426552431945
-0.47828371218750476	-0.3194975482009949
-0.47822267703125476	-0.3362161156871698
-0.47816164187500476	-0.35069709818510925
-0.47810060671875476	-0.36284263232010167
-0.47803957156250476	-0.37257060697746375
-0.47797853640625476	-0.37981519589093277
-0.47791750125000476	-0.3845273033993062
-0.47785646609375476	-0.38667493751156484
-0.47779543093750476	-0.38624339541253694
-0.47773439578125476	-0.3832354027408492
-0.47767336062500476	-0.377671079630713
-0.47761232546875476	-0.3695878341882836
-0.47755129031250476	-0.3590400924154633
-0.47749025515625476	-0.3460989676634502
-0.47742922000000476	-0.3308517475982894
-0.47736818484375476	-0.31340135392626195
-0.47730714968750476	-0.29386561044013587
-0.47724611453125476	-0.2723764862705563
-0.47718507937500476	-0.24907917359292994
-0.47712404421875476	-0.22413114570004758
-0.47706300906250476	-0.19770105349841233
-0.47700197390625476	-0.16996764001133738
-0.47694093875000476	-0.14111845778779442
-0.47687990359375476	-0.11134868476843643
-0.47681886843750476	-0.0808597437341435
-0.47675783328125476	-0.04985794886991244
-0.47669679812500476	-0.01855314459403299
-0.47663576296875476	0.01284279592037735
-0.47657472781250476	0.04411728368065463
-0.47651369265625476	0.075058612646351
-0.47645265750000476	0.1054572401179649
-0.47639162234375476	0.13510734455441462
-0.47633058718750476	0.16380812615680634
-0.47626955203125476	0.1913652359230408
-0.47620851687500476	0.2175920535350198
-0.47614748171875476	0.24231098271938895
-0.47608644656250476	0.2653546851561948
-0.47602541140625476	0.28656713852733956
-0.47596437625000476	0.305804821647188
-0.47590334109375476	0.32293755687668174
-0.47584230593750476	0.33784953914688154
-0.47578127078125476	0.35044000823340027
-0.47572023562500476	0.36062402957264966
-0.47565920046875476	0.368333014788614
-0.47559816531250476	0.37351523300091954
-0.47553713015625476	0.37613615365046804
-0.47547609500000476	0.37617868119198117
-0.47541505984375476	0.37364330174765553
-0.47535402468750476	0.3685480465188947
-0.47529298953125476	0.3609284257689977
-0.47523195437500476	0.35083713994865706
-0.47517091921875476	0.338343774499187
-0.47510988406250476	0.32353429248429055
-0.47504884890625476	0.3065104853981683
-0.47498781375000476	0.28738926557755856
-0.47492677859375476	0.26630188164252944
-0.47486574343750476	0.24339303010524435
-0.47480470828125476	0.2188198714773296
-0.47474367312500476	0.19275096408879536
-0.47468263796875476	0.1653651179504938
-0.47462160281250476	0.13685017818459844
-0.47456056765625476	0.1074017517963779
-0.47449953250000476	0.0772218562251723
-0.47443849734375476	0.04651759943697901
-0.47437746218750476	0.015499661343894553
-0.47431642703125476	-0.015619007003274343
-0.47425539187500476	-0.04662475594420362
-0.47419435671875476	-0.0773046320412909
-0.47413332156250476	-0.10744783219764298
-0.47407228640625476	-0.13684720472183323
-0.47401125125000476	-0.16530054473669242
-0.47395021609375476	-0.19261214716525402
-0.47388918093750476	-0.21859398336530877
-0.47382814578125476	-0.2430670976296064
-0.47376711062500476	-0.26586279128288776
-0.47370607546875476	-0.28682377998404257
-0.47364504031250476	-0.3058052942002413
-0.47358400515625476	-0.3226760545871014
-0.47352297000000476	-0.33731918849474907
-0.47346193484375476	-0.34963304943072065
-0.47340089968750476	-0.35953186807647863
-0.47333986453125476	-0.36694641937916017
-0.47327882937500476	-0.3718244502354873
-0.47321779421875476	-0.37413106413215547
-0.47315675906250476	-0.373848983841071
-0.47309572390625476	-0.37097863978272205
-0.47303468875000476	-0.3655382346743111
-0.47297365359375476	-0.35756355883404356
-0.47291261843750476	-0.34710782848874017
-0.47285158328125476	-0.3342412633365099
-0.47279054812500476	-0.3190506780422602
-0.47272951296875476	-0.30163883154980703
-0.47266847781250476	-0.28212380366981876
-0.47260744265625476	-0.2606381405749177
-0.47254640750000476	-0.23732797853148388
-0.47248537234375476	-0.21235204753292142
-0.47242433718750476	-0.18588060773054946
-0.47236330203125476	-0.15809425174087996
-0.47230226687500476	-0.12918272292692556
-0.47224123171875476	-0.0993435907201752
-0.47218019656250476	-0.06878088759346372
-0.47211916140625476	-0.03770380341076522
-0.47205812625000476	-0.006325085099111251
-0.47199709109375476	0.025140188451315347
-0.47193605593750476	0.056476313609828174
-0.47187502078125476	0.08746823979478714
-0.47181398562500476	0.11790317747935133
-0.47175295046875476	0.14757201392017966
-0.47169191531250476	0.17627067747069503
-0.47163088015625476	0.20380170845730627
-0.47156984500000476	0.2299754005536533
-0.47150880984375476	0.2546113069174124
-0.47144777468750476	0.2775393225177671
-0.47138673953125476	0.2986009757021166
-0.47132570437500476	0.317650419573915
-0.47126466921875476	0.3345555310244404
-0.47120363406250476	0.34919876925784765
-0.47114259890625476	0.3614779792279457
-0.47108156375000476	0.3713071742172598
-0.47102052859375476	0.3786170261680856
-0.47095949343750476	0.3833554699473532
-0.47089845828125476	0.38548796407036057
-0.47083742312500476	0.38499782330911886
-0.47077638796875476	0.3818862808867282
-0.47071535281250476	0.3761725355921706
-0.47065431765625476	0.3678936021289347
-0.47059328250000476	0.3571040898715705
-0.47053224734375476	0.34387582409050654
-0.47047121218750476	0.3282973686737646
-0.47041017703125476	0.3104734417984828
