Time	Frequency
-0.5000024007812556	0.19223553726705503
-0.4999413656250056	0.16679778301315443
-0.4998803304687556	0.14033398887138426
-0.4998192953125056	0.11300533565110853
-0.4997582601562556	0.08497844937358498
-0.4996972250000056	0.05642429350077418
-0.4996361898437556	0.027517154617736798
-0.4995751546875056	-0.0015664186519480383
-0.4995141195312556	-0.030648741312772256
-0.4994530843750056	-0.05955204761754683
-0.4993920492187556	-0.08809962106063539
-0.4993310140625056	-0.11611685683597439
-0.4992699789062556	-0.1434323691213055
-0.4992089437500056	-0.16987900836035338
-0.4991479085937556	-0.19529495748566503
-0.4990868734375056	-0.2195246473030352
-0.4990258382812556	-0.24241982547381216
-0.4989648031250056	-0.2638403673057003
-0.4989037679687556	-0.28365520986143905
-0.4988427328125056	-0.3017431674699468
-0.4987816976562556	-0.31799363304587647
-0.4987206625000056	-0.3323073308764807
-0.4986596273437556	-0.3445968605032647
-0.4985985921875056	-0.354787332256895
-0.4985375570312556	-0.36281672625900796
-0.4984765218750056	-0.368636392845854
-0.4984154867187556	-0.3722112546602361
-0.4983544515625056	-0.3735201085905955
-0.4982934164062556	-0.37255571433146334
-0.4982323812500056	-0.3693248572140512
-0.4981713460937556	-0.3638483214258794
-0.4981103109375056	-0.3561607408100375
-0.4980492757812556	-0.3463104216232809
-0.4979882406250056	-0.3343590113259852
-0.4979272054687556	-0.32038116086737634
-0.4978661703125056	-0.30446402372482706
-0.4978051351562556	-0.2867067597062278
-0.4977441000000056	-0.26721989103839316
-0.4976830648437556	-0.24612465098360706
-0.4976220296875056	-0.2235522080304245
-0.4975609945312556	-0.19964288309448436
-0.4974999593750056	-0.17454524653266998
-0.4974389242187556	-0.14841524462666175
-0.4973778890625056	-0.12141520255934672
-0.4973168539062556	-0.09371281363712439
-0.4972558187500056	-0.06548014650399486
-0.4971947835937556	-0.0368925135947105
-0.4971337484375056	-0.008127444077730294
-0.4970727132812556	0.02063645725865301
-0.4970116781250056	0.049220602013211476
-0.4969506429687556	0.07744751806092688
-0.4968896078125056	0.10514198513582416
-0.4968285726562556	0.13213207812380814
-0.4967675375000056	0.15825027627385396
-0.4967065023437556	0.18333447782598078
-0.4966454671875056	0.2072290298005378
-0.4965844320312556	0.22978568294579943
-0.4965233968750056	0.25086450331582894
-0.4964623617187556	0.2703347993604993
-0.4964013265625056	0.28807586096279886
-0.4963402914062556	0.3039777745357844
-0.4962792562500056	0.31794207567899574
-0.4962182210937556	0.3298823851625158
-0.4961571859375056	0.3397249393489332
-0.4960961507812556	0.34740904925258353
-0.4960351156250056	0.3528875084952811
-0.4959740804687556	0.3561268432770387
-0.4959130453125056	0.3571075872528499
-0.4958520101562556	0.355824345715059
-0.4957909750000056	0.35228588699687485
-0.4957299398437556	0.34651505162667245
-0.4956689046875056	0.33854864344453417
-0.4956078695312556	0.3284371894694287
-0.4955468343750056	0.31624463138364955
-0.4954857992187556	0.30204794764502607
-0.4954247640625056	0.2859366454897168
-0.4953637289062556	0.2680122500170395
-0.4953026937500056	0.24838763444265377
-0.4952416585937556	0.2271863581183035
-0.4951806234375056	0.2045418546771246
-0.4951195882812556	0.18059666262132804
-0.4950585531250056	0.15550147775656
-0.4949975179687556	0.12941426622004873
-0.4949364828125056	0.10249924819047988
-0.4948754476562556	0.07492588501054513
-0.4948144125000056	0.04686784921645683
-0.4947533773437556	0.018501876214236632
-0.4946923421875056	-0.009993245571652366
-0.4946313070312556	-0.03843788539892343
-0.4945702718750056	-0.06665262407896144
-0.4945092367187556	-0.09445939805327853
-0.4944482015625056	-0.12168262155916285
-0.4943871664062556	-0.14815027494033015
-0.4943261312500056	-0.17369498432859357
-0.4942650960937556	-0.19815506443082842
-0.4942040609375056	-0.2213755403224348
-0.4941430257812556	-0.24320912238460163
-0.4940819906250056	-0.26351711716427556
-0.4940209554687556	-0.2821703111177619
-0.4939599203125056	-0.2990497962039289
-0.4938988851562556	-0.3140476746496844
-0.4938378500000056	-0.3270677958052362
-0.4937768148437556	-0.3380263330067176
-0.4937157796875056	-0.3468523155535947
-0.4936547445312556	-0.35348808742646676
-0.4935937093750056	-0.3578896833330857
-0.4935326742187556	-0.3600270948261792
-0.4934716390625056	-0.35988448732578016
-0.4934106039062556	-0.3574602842532096
-0.4933495687500056	-0.35276721321242677
-0.4932885335937556	-0.3458322161210148
-0.4932274984375056	-0.33669629674911905
-0.4931664632812556	-0.3254142788683184
-0.4931054281250056	-0.31205445987260605
-0.4930443929687556	-0.2966982159351317
-0.4929833578125056	-0.2794394677158385
-0.4929223226562556	-0.26038414587320535
-0.4928612875000056	-0.239649488830021
-0.4928002523437556	-0.21736336187505734
-0.4927392171875056	-0.19366343666901611
-0.4926781820312556	-0.16869633754040783
-0.4926171468750056	-0.1426167656178552
-0.4925561117187556	-0.11558648344888918
-0.4924950765625056	-0.08777335286816826
-0.4924340414062556	-0.059350270525250604
-0.4923730062500056	-0.03049409379036138
-0.4923119710937556	-0.0013845388119654606
-0.4922509359375056	0.027796945717597853
-0.4921899007812556	0.05686829707050008
-0.4921288656250056	0.08564799806584047
-0.4920678304687556	0.1139561890387358
-0.4920067953125056	0.14161581518806213
-0.4919457601562556	0.16845371219552605
-0.4918847250000056	0.19430172365773882
-0.4918236898437556	0.21899770675075753
-0.4917626546875056	0.24238660093062012
-0.4917016195312556	0.26432137428738517
-0.4916405843750056	0.28466394466980943
-0.4915795492187556	0.3032860789686686
-0.4915185140625056	0.320070144866918
-0.4914574789062556	0.3349099252907299
-0.4913964437500056	0.3477112169362465
-0.4913354085937556	0.35839249918458127
-0.4912743734375056	0.36688538771553936
-0.4912133382812556	0.3731350996248587
-0.4911523031250056	0.37710082387550664
-0.4910912679687556	0.37875593605588537
-0.4910302328125056	0.3780882266079987
-0.4909691976562556	0.3750999427842866
-0.4909081625000056	0.36980781281820707
-0.4908471273437556	0.36224293622023995
-0.4907860921875056	0.3524505975751203
-0.4907250570312556	0.34049000604147533
-0.4906640218750056	0.32643390410190576
-0.4906029867187556	0.31036816149409224
-0.4905419515625056	0.29239120666429796
-0.4904809164062556	0.2726134394144988
-0.4904198812500056	0.2511565534933238
-0.4903588460937556	0.22815274983231024
-0.4902978109375056	0.20374396646186346
-0.4902367757812556	0.17808093070801356
-0.4901757406250056	0.15132229449468304
-0.4901147054687556	0.12363357428307305
-0.4900536703125056	0.09518618447102008
-0.4899926351562556	0.06615631600292347
-0.4899316000000056	0.036723854917190143
-0.4898705648437556	0.007071288429168456
-0.4898095296875056	-0.022617507745549447
-0.4897484945312556	-0.05215832365668724
-0.4896874593750056	-0.0813678540236151
-0.4896264242187556	-0.11006481143540442
-0.4895653890625056	-0.13807103833665194
-0.4895043539062556	-0.16521266211085356
-0.4894433187500056	-0.19132118150938224
-0.4893822835937556	-0.21623447973556584
-0.4893212484375056	-0.23979792082261966
-0.4892602132812556	-0.26186522978273974
-0.4891991781250056	-0.28229949776580837
-0.4891381429687556	-0.300973973440372
-0.4890771078125056	-0.31777292230397336
-0.4890160726562556	-0.33259229183056244
-0.4889550375000056	-0.34534042972587775
-0.4888940023437556	-0.3559386243124391
-0.4888329671875056	-0.36432160274653486
-0.4887719320312556	-0.3704379871438537
-0.4887108968750056	-0.37425053583539164
-0.4886498617187556	-0.3757365049023794
-0.4885888265625056	-0.37488765291097764
-0.4885277914062556	-0.37171043844956875
-0.4884667562500056	-0.3662258550381215
-0.4884057210937556	-0.358469417904205
-0.4883446859375056	-0.34849084825226345
-0.4882836507812556	-0.3363538434408366
-0.4882226156250056	-0.32213562235171955
-0.4881615804687556	-0.3059264809945626
-0.4881005453125056	-0.28782922077073375
-0.4880395101562556	-0.26795847789562294
-0.4879784750000056	-0.24644006307535107
-0.4879174398437556	-0.22341010944814926
-0.4878564046875056	-0.19901428018672374
-0.4877953695312556	-0.173406789069505
-0.4877343343750056	-0.1467495044740121
-0.4876732992187556	-0.11921086576347432
-0.4876122640625056	-0.09096488839082137
-0.4875512289062556	-0.06218999379811273
-0.4874901937500056	-0.03306798935120265
-0.4874291585937556	-0.0037827955762398655
-0.4873681234375056	0.025480570334621856
-0.4873070882812556	0.05453728567207131
-0.4872460531250056	0.08320380892073516
-0.4871850179687556	0.1112990469371825
-0.4871239828125056	0.13864555921754093
-0.4870629476562556	0.16507054830291054
-0.4870019125000056	0.19040714294669822
-0.4869408773437556	0.2144952186954417
-0.4868798421875056	0.23718263735944506
-0.4868188070312556	0.2583260356016339
-0.4867577718750056	0.2777918397057103
-0.4866967367187556	0.2954570637094706
-0.4866357015625056	0.31121008988320825
-0.4865746664062556	0.3249514070793072
-0.4865136312500056	0.336594199622847
-0.4864525960937556	0.34606495536093423
-0.4863915609375056	0.35330386287664395
-0.4863305257812556	0.3582652883933833
-0.4862694906250056	0.36091794958044443
-0.4862084554687556	0.36124525799151214
-0.4861474203125056	0.3592452879954893
-0.4860863851562556	0.3549309203149506
-0.4860253500000056	0.3483296693870583
-0.4859643148437556	0.3394835778216781
-0.4859032796875056	0.3284489278900288
-0.4858422445312556	0.31529589046162454
-0.4857812093750056	0.3001081148416878
-0.4857201742187556	0.2829821484193443
-0.4856591390625056	0.2640269172457277
-0.4855981039062556	0.24336294310704384
-0.4855370687500056	0.22112167553633683
-0.4854760335937556	0.19744459676620074
-0.4854149984375056	0.1724823796399899
-0.4853539632812556	0.14639390141301215
-0.4852929281250056	0.11934526968251546
-0.4852318929687556	0.0915087588486874
-0.4851708578125056	0.06306172329075325
-0.4851098226562556	0.03418547919060227
-0.4850487875000056	0.0050641721578736434
-0.4849877523437556	-0.024116429253450606
-0.4849267171875056	-0.05317006254727463
-0.4848656820312556	-0.08191115321496605
-0.4848046468750056	-0.11015605796988752
-0.4847436117187556	-0.13772413426328153
-0.4846825765625056	-0.16443894502047773
-0.4846215414062556	-0.1901293730899827
-0.4845605062500056	-0.21463070152679345
-0.4844994710937556	-0.23778564484140313
-0.4844384359375056	-0.25944538713754006
-0.4843774007812556	-0.27947049106491484
-0.4843163656250056	-0.29773183125355174
-0.4842553304687556	-0.3141113669249402
-0.4841942953125056	-0.32850293806709224
-0.4841332601562556	-0.3408129372956975
-0.4840722250000056	-0.35096087880033194
-0.4840111898437556	-0.3588799937584104
-0.4839501546875056	-0.36451755165296784
-0.4838891195312556	-0.367835317014728
-0.4838280843750056	-0.36880971470756924
-0.4837670492187556	-0.36743204192563006
-0.4837060140625056	-0.3637085061218952
-0.4836449789062556	-0.35766020396364534
-0.4835839437500056	-0.3493230056473907
-0.4835229085937556	-0.33874731500421124
-0.4834618734375056	-0.3259977931147426
-0.4834008382812556	-0.31115291832047365
-0.4833398031250056	-0.29430453917318217
-0.4832787679687556	-0.2755572669347586
-0.4832177328125056	-0.2550278434791221
-0.4831566976562556	-0.2328443918191114
-0.4830956625000056	-0.2091456393401997
-0.4830346273437556	-0.1840800088317548
-0.4829735921875056	-0.1578047179852165
-0.4829125570312556	-0.13048475463644787
-0.4828515218750056	-0.10229189128059189
-0.4827904867187556	-0.07340352674668381
-0.4827294515625056	-0.04400162508174308
-0.4826684164062556	-0.014271550243278253
-0.4826073812500056	0.015599141078526262
-0.4825463460937556	0.04542180968116152
-0.4824853109375056	0.07500804068921653
-0.4824242757812556	0.10417070077755894
-0.4823632406250056	0.13272526174751365
-0.4823022054687556	0.16049088143257007
-0.4822411703125056	0.18729156897758373
-0.4821801351562556	0.21295734485127754
-0.4821191000000056	0.2373252561117083
-0.4820580648437556	0.26024049030664825
-0.4819970296875056	0.281557271449955
-0.4819359945312556	0.301139893091175
-0.4818749593750056	0.3188634878002559
-0.4818139242187556	0.3346148948456171
-0.4817528890625056	0.3482933544540226
-0.4816918539062556	0.35981114605673975
-0.4816308187500056	0.36909419063678595
-0.4815697835937556	0.37608247584261884
-0.4815087484375056	0.38073049642001733
-0.4814477132812556	0.3830075071128444
-0.4813866781250056	0.38289776857380675
-0.4813256429687556	0.38040061210522397
-0.4812646078125056	0.3755304924781378
-0.4812035726562556	0.36831687599789836
-0.4811425375000056	0.35880407655888685
-0.4810815023437556	0.3470509824804287
-0.4810204671875056	0.3331306814138336
-0.4809594320312556	0.31713001616665576
-0.4808983968750056	0.29914903036240736
-0.4808373617187556	0.27930035368612277
-0.4807763265625056	0.2577084776505486
-0.4807152914062556	0.23450898262277245
-0.4806542562500056	0.2098476901012843
-0.4805932210937556	0.18387970859829916
-0.4805321859375056	0.15676851036304632
-0.4804711507812556	0.1286848344173979
-0.4804101156250056	0.09980565802713633
-0.4803490804687556	0.07031304411088717
-0.4802880453125056	0.04039299425526131
-0.4802270101562556	0.010234291874096262
-0.4801659750000056	-0.01997274647907495
-0.4801049398437556	-0.050037403001050626
-0.4800439046875056	-0.07976986701318546
-0.4799828695312556	-0.10898233963546401
-0.4799218343750056	-0.137490318608721
-0.4798607992187556	-0.16511370196388409
-0.4797997640625056	-0.1916779757814287
-0.4797387289062556	-0.2170153193773033
-0.4796776937500056	-0.2409656547754155
-0.4796166585937556	-0.263377700622876
-0.4795556234375056	-0.2841099014060477
-0.4794945882812556	-0.3030313682744222
-0.4794335531250056	-0.32002268222701846
-0.4793725179687556	-0.33497668670365865
-0.4793114828125056	-0.3477991548733894
-0.4792504476562556	-0.35840939972933583
-0.4791894125000056	-0.3667407939439591
-0.4791283773437556	-0.37274120582382403
-0.4790673421875056	-0.3763733211016619
-0.4790063070312556	-0.3776149003757486
-0.4789452718750056	-0.37645891325103026
-0.4788842367187556	-0.3729136063478182
-0.4788232015625056	-0.36700243256063875
-0.4787621664062556	-0.3587639313549444
-0.4787011312500056	-0.34825146519242584
-0.4786400960937556	-0.3355329068718654
-0.4785790609375056	-0.3206901875624497
-0.4785180257812556	-0.3038188066723764
-0.4784569906250056	-0.2850271996875088
-0.4783959554687556	-0.26443606487559584
-0.4783349203125056	-0.24217760843453662
-0.4782738851562556	-0.2183946702161642
-0.4782128500000056	-0.1932398572511086
-0.4781518148437556	-0.1668745426878762
-0.4780907796875056	-0.1394678483258557
-0.4780297445312556	-0.11119556198715821
-0.4779687093750056	-0.08223903271168813
-0.4779076742187556	-0.05278399649215193
-0.4778466390625056	-0.0230193919671154
-0.4777856039062556	0.006863830645468437
-0.4777245687500056	0.03667395223618993
-0.4776635335937556	0.06621969490409321
-0.4776024984375056	0.09531143394990368
-0.4775414632812556	0.12376245393281256
-0.4774804281250056	0.15139009392675928
-0.4774193929687556	0.1780169568465033
-0.4773583578125056	0.20347201198209025
-0.4772973226562556	0.22759173565461008
-0.4772362875000056	0.25022110954537286
-0.4771752523437556	0.27121466021192864
-0.4771142171875056	0.2904373795942075
-0.4770531820312556	0.3077655733129057
-0.4769921468750056	0.32308769427218237
-0.4769311117187556	0.3363050336576959
-0.4768700765625056	0.3473323777504853
-0.4768090414062556	0.3560985348477131
-0.4767480062500056	0.3625468371756156
-0.4766869710937556	0.36663545893885213
-0.4766259359375056	0.3683377467401946
-0.4765649007812556	0.36764234598634066
-0.4765038656250056	0.3645533220726125
-0.4764428304687556	0.3590901090883753
-0.4763817953125056	0.3512874175412611
-0.4763207601562556	0.3411949994893817
-0.4762597250000056	0.3288773540392298
-0.4761986898437556	0.31441329896681136
-0.4761376546875056	0.29789549745191135
-0.4760766195312556	0.2794298546171201
-0.4760155843750056	0.2591348319987468
-0.4759545492187556	0.23714073741047675
-0.4758935140625056	0.2135888356197201
-0.4758324789062556	0.1886305061289773
-0.4757714437500056	0.16242622614355356
-0.4757104085937556	0.13514457629717155
-0.4756493734375056	0.10696114706392731
-0.4755883382812556	0.07805743612522972
-0.4755273031250056	0.04861965510732569
-0.4754662679687556	0.018837560284094453
-0.4754052328125056	-0.011096778599583575
-0.4753441976562556	-0.040990193771781626
-0.4752831625000056	-0.07064968763141788
-0.4752221273437556	-0.0998836301049252
-0.4751610921875056	-0.12850304101142865
-0.4751000570312556	-0.15632277194088856
-0.4750390218750056	-0.1831627011504115
-0.4749779867187556	-0.20884890124447303
-0.4749169515625056	-0.2332147740228529
-0.4748559164062556	-0.25610209018542723
-0.4747948812500056	-0.2773620384351284
-0.4747338460937556	-0.29685619718804823
-0.4746728109375056	-0.3144573771778318
-0.4746117757812556	-0.33005053211556784
-0.4745507406250056	-0.34353340355408746
-0.4744897054687556	-0.3548173006378928
-0.4744286703125056	-0.3638275450499113
-0.4743676351562556	-0.3705041054940417
-0.4743066000000056	-0.37480185982994524
-0.4742455648437556	-0.3766909946333372
-0.4741845296875056	-0.3761571489180186
-0.4741234945312556	-0.3732015286182173
-0.4740624593750056	-0.36784094035164994
-0.4740014242187556	-0.36010762646023636
-0.4739403890625056	-0.3500491602072553
-0.4738793539062556	-0.3377280381879092
-0.4738183187500056	-0.3232214134646271
-0.4737572835937556	-0.3066204793777772
-0.4736962484375056	-0.28803001646482385
-0.4736352132812556	-0.26756761419920155
-0.4735741781250056	-0.24536302028495685
-0.4735131429687556	-0.22155724420717615
-0.4734521078125056	-0.19630169098406106
-0.4733910726562556	-0.16975719445066778
-0.4733300375000056	-0.14209297476564756
-0.4732690023437556	-0.11348557057273667
-0.4732079671875056	-0.08411767652360534
-0.4731469320312556	-0.05417703973970666
-0.4730858968750056	-0.023855174546706406
-0.4730248617187556	0.0066538044698578845
-0.4729638265625056	0.03715448111954353
-0.4729027914062556	0.06745132858313667
-0.4728417562500056	0.09735003702603806
-0.4727807210937556	0.12665871683142355
-0.4727196859375056	0.15518915076474218
-0.4726586507812556	0.18275800881034152
-0.4725976156250056	0.2091880223660188
-0.4725365804687556	0.23430913765298542
-0.4724755453125056	0.25795960218725184
-0.4724145101562556	0.2799870291790064
-0.4723534750000056	0.30024936092805815
-0.4722924398437556	0.31861581265057765
-0.4722314046875056	0.33496769061020054
-0.4721703695312556	0.34919919128629284
-0.4721093343750056	0.361218085581104
-0.4720482992187556	0.3709462949937084
-0.4719872640625056	0.37832043909606394
-0.4719262289062556	0.3832922185701515
-0.4718651937500056	0.38582875769489083
-0.4718041585937556	0.3859128138677855
-0.4717431234375056	0.38354289470819714
-0.4716820882812556	0.3787332891500653
-0.4716210531250056	0.3715139629229873
-0.4715600179687556	0.361930400927365
-0.4714989828125056	0.3500432906769938
-0.4714379476562556	0.3359281758921652
-0.4713769125000056	0.31967493639489664
-0.4713158773437556	0.3013872567841366
-0.4712548421875056	0.2811819307434621
-0.4711938070312556	0.2591881444553657
-0.4711327718750056	0.23554663072182355
-0.4710717367187556	0.21040876385246987
-0.4710107015625056	0.18393562121860688
-0.4709496664062556	0.15629689724571152
-0.4708886312500056	0.12766987549334374
-0.4708275960937556	0.09823823248036813
-0.4707665609375056	0.06819089390630295
-0.4707055257812556	0.037720795556229356
-0.4706444906250056	0.007023664874823945
-0.4705834554687556	-0.02370326511060773
-0.4705224203125056	-0.05426251310068618
-0.4704613851562556	-0.08445762773840948
-0.4704003500000056	-0.11409445543953832
-0.4703393148437556	-0.14298239094427187
-0.4702782796875056	-0.17093561837916488
-0.4702172445312556	-0.19777429298470345
-0.4701562093750056	-0.22332573954164717
-0.4700951742187556	-0.24742552541347207
-0.4700341390625056	-0.2699185729070626
-0.4699731039062556	-0.2906601228123862
-0.4699120687500056	-0.30951669986607194
-0.4698510335937556	-0.32636697347549865
-0.4697899984375056	-0.3411025467645023
-0.4697289632812556	-0.3536286489495516
