Time	Frequency
-0.500042546593761	0.11581676293909593
-0.499981511437511	0.07908369295514327
-0.499920476281261	0.041591749755449166
-0.499859441125011	0.0036650006635046074
-0.499798405968761	-0.03436853168286798
-0.499737370812511	-0.07217958110818141
-0.499676335656261	-0.10944054218559376
-0.499615300500011	-0.14582831095150603
-0.499554265343761	-0.18102696290579864
-0.499493230187511	-0.2147306586599209
-0.499432195031261	-0.24664612673162348
-0.499371159875011	-0.2764952822171424
-0.499310124718761	-0.30401762840117963
-0.499249089562511	-0.3289724887828701
-0.499188054406261	-0.3511411267136593
-0.499127019250011	-0.3703286107824786
-0.499065984093761	-0.3863655738839647
-0.499004948937511	-0.3991095998508303
-0.498943913781261	-0.40844656858146167
-0.498882878625011	-0.41429158876581534
-0.498821843468761	-0.4165897784326136
-0.498760808312511	-0.41531677856116794
-0.498699773156261	-0.41047892636036415
-0.498638738000011	-0.4021133061156337
-0.498577702843761	-0.39028736929649155
-0.498516667687511	-0.3750984300082178
-0.498455632531261	-0.35667283607168887
-0.498394597375011	-0.3351648778402304
-0.498333562218761	-0.31075551093232145
-0.498272527062511	-0.28365079711065433
-0.498211491906261	-0.2540801398411771
-0.498150456750011	-0.22229435266712613
-0.498089421593761	-0.1885634869113342
-0.498028386437511	-0.153174513754053
-0.497967351281261	-0.11642889921104779
-0.497906316125011	-0.0786399530426018
-0.497845280968761	-0.040130238336366676
-0.497784245812511	-0.0012286851486663756
-0.497723210656261	0.03773219016855998
-0.497662175500011	0.07641908220271311
-0.497601140343761	0.11450091754692271
-0.497540105187511	0.15165154121771043
-0.497479070031261	0.1875526586427059
-0.497418034875011	0.2218965157124235
-0.497356999718761	0.2543885700850417
-0.497295964562511	0.28475006170013695
-0.497234929406261	0.31272034126247666
-0.497173894250011	0.3380592894761186
-0.497112859093761	0.3605491830026305
-0.497051823937511	0.3799967569249848
-0.496990788781261	0.3962348279054531
-0.496929753625011	0.4091236719110255
-0.496868718468761	0.4185523932384662
-0.496807683312511	0.42443973750273284
-0.496746648156261	0.42673492137234675
-0.496685613000011	0.42541802240155535
-0.496624577843761	0.4205001711758154
-0.496563542687511	0.4120235080647544
-0.496502507531261	0.4000607620860117
-0.496441472375011	0.384714708049175
-0.496380437218761	0.36611724278569363
-0.496319402062511	0.344428267428946
-0.496258366906261	0.3198343427727758
-0.496197331750011	0.292547053639075
-0.496136296593761	0.2628011944480814
-0.496075261437511	0.23085279014530907
-0.496014226281261	0.1969768416104536
-0.495953191125011	0.16146496580746666
-0.495892155968761	0.12462293731350141
-0.495831120812511	0.08676794319358025
-0.495770085656261	0.048225952035645364
-0.495709050500011	0.009328849983536279
-0.495648015343761	-0.02958845213761516
-0.495586980187511	-0.06819084793932698
-0.495525945031261	-0.10614599813445472
-0.495464909875011	-0.14312716365152411
-0.495403874718761	-0.17881605815881163
-0.495342839562511	-0.2129055814824515
-0.495281804406261	-0.2451025250155151
-0.495220769250011	-0.2751300370977385
-0.495159734093761	-0.3027301146723399
-0.495098698937511	-0.3276657761399464
-0.495037663781261	-0.34972312279344075
-0.494976628625011	-0.3687132830703661
-0.494915593468761	-0.38447388569757956
-0.494854558312511	-0.3968706690317612
-0.494793523156261	-0.40579850610310964
-0.494732488000011	-0.41118238387774697
-0.494671452843761	-0.41297807253067326
-0.494610417687511	-0.4111724515551003
-0.494549382531261	-0.40578373034139514
-0.494488347375011	-0.3968611887049857
-0.494427312218761	-0.38448485099852836
-0.494366277062511	-0.3687647280395189
-0.494305241906261	-0.34983991605349646
-0.494244206750011	-0.3278773749588261
-0.494183171593761	-0.30307047474500365
-0.494122136437511	-0.2756373512607089
-0.494061101281261	-0.24581898895043391
-0.494000066125011	-0.21387715622548334
-0.493939030968761	-0.18009209739956322
-0.493877995812511	-0.14476016034923492
-0.493816960656261	-0.10819115100593174
-0.493755925500011	-0.07070570768871016
-0.493694890343761	-0.03263247262953961
-0.493633855187511	0.005694765634167445
-0.493572820031261	0.043939921436386004
-0.493511784875011	0.08176763277000985
-0.493450749718761	0.11884608986734477
-0.493389714562511	0.15484998645374765
-0.493328679406261	0.189463332653869
-0.493267644250011	0.22238219813309865
-0.493206609093761	0.2533174092497419
-0.493145573937511	0.28199700627775287
-0.493084538781261	0.3081687124815359
-0.493023503625011	0.3316020512019012
-0.492962468468761	0.3520904232081184
-0.492901433312511	0.3694529026929826
-0.492840398156261	0.3835357888983125
-0.492779363000011	0.3942140710125472
-0.492718327843761	0.4013923656508227
-0.492657292687511	0.4050059308588103
-0.492596257531261	0.4050211308561351
-0.492535222375011	0.40143578338101293
-0.492474187218761	0.39427923983525004
-0.492413152062511	0.3836120416513619
-0.492352116906261	0.3695255403332987
-0.492291081750011	0.35214099484480194
-0.492230046593761	0.3316086251166939
-0.492169011437511	0.30810626670741126
-0.492107976281261	0.2818378411037656
-0.492046941125011	0.2530316221626539
-0.491985905968761	0.22193822235623867
-0.491924870812511	0.18882843128224522
-0.491863835656261	0.15399089205024438
-0.491802800500011	0.11772954898771147
-0.491741765343761	0.08036103745282032
-0.491680730187511	0.04221192647648794
-0.491619695031261	0.0036158330441912537
-0.491558659875011	-0.03508936921097652
-0.491497624718761	-0.07356468509222286
-0.491436589562511	-0.11147275344658548
-0.491375554406261	-0.14848091642255962
-0.491314519250011	-0.1842641361634491
-0.491253484093761	-0.21850770394887867
-0.491192448937511	-0.2509101827253026
-0.491131413781261	-0.2811858740371005
-0.491070378625011	-0.30906743527039726
-0.491009343468761	-0.33430817477429264
-0.490948308312511	-0.356684243901733
-0.490887273156261	-0.37599657320918156
-0.490826238000011	-0.3920726592216984
-0.490765202843761	-0.4047680981979908
-0.490704167687511	-0.4139677954389785
-0.490643132531261	-0.4195871117050852
-0.490582097375011	-0.4215724844037756
-0.490521062218761	-0.41990203246387603
-0.490460027062511	-0.41458571625288654
-0.490398991906261	-0.40566525503632617
-0.490337956750011	-0.39321385688977045
-0.490276921593761	-0.3773355170630852
-0.490215886437511	-0.35816420209467803
-0.490154851281261	-0.33586265881597577
-0.490093816125011	-0.3106210438933893
-0.490032780968761	-0.2826552663440079
-0.489971745812511	-0.25220510773966925
-0.489910710656261	-0.21953221583300028
-0.489849675500011	-0.18491774670864805
-0.489788640343761	-0.1486599701377557
-0.489727605187511	-0.11107171652639722
-0.489666570031261	-0.07247757732108662
-0.489605534875011	-0.03321114198186706
-0.489544499718761	0.0063879048144173745
-0.489483464562511	0.04597679499168138
-0.489422429406261	0.08521260318604247
-0.489361394250011	0.12375525473170618
-0.489300359093761	0.161270530121243
-0.489239323937511	0.19743293019174293
-0.489178288781261	0.23192855789866113
-0.489117253625011	0.2644578321688603
-0.489056218468761	0.2947381386594211
-0.488995183312511	0.32250629177927265
-0.488934148156261	0.34752082341521956
-0.488873113000011	0.36956414242701924
-0.488812077843761	0.38844439064075204
-0.488751042687511	0.40399719084051955
-0.488690007531261	0.4160870292944249
-0.488628972375011	0.42460850956805674
-0.488567937218761	0.4294872589465878
-0.488506902062511	0.43068057624662553
-0.488445866906261	0.4281778655563573
-0.488384831750011	0.42200068751507347
-0.488323796593761	0.41220263354263853
-0.488262761437511	0.3988688291764591
-0.488201726281261	0.38211523979401535
-0.488140691125011	0.3620876416991715
-0.488079655968761	0.33896037381217103
-0.488018620812511	0.3129348288672178
-0.487957585656261	0.28423768866192817
-0.487896550500011	0.25311896778126464
-0.487835515343761	0.21984982768102632
-0.487774480187511	0.18472020900695474
-0.487713445031261	0.14803630625056713
-0.487652409875011	0.11011793271612756
-0.487591374718761	0.07129563257117512
-0.487530339562511	0.031907907022696434
-0.487469304406261	-0.007701814362790281
-0.487408269250011	-0.04718819967113994
-0.487347234093761	-0.08620692955613844
-0.487286198937511	-0.124417839736267
-0.487225163781261	-0.1614878059420969
-0.487164128625011	-0.19709371770028952
-0.487103093468761	-0.23092528605044868
-0.487042058312511	-0.2626877631188719
-0.486981023156261	-0.2921045602262745
-0.486919988000011	-0.31891961603962876
-0.486858952843761	-0.3428997179911931
-0.486797917687511	-0.3638364972022073
-0.486736882531261	-0.38154828919901457
-0.486675847375011	-0.39588173431828927
-0.486614812218761	-0.40671310712240816
-0.486553777062511	-0.4139494411914885
-0.486492741906261	-0.41752933041513174
-0.486431706750011	-0.41742348346519026
-0.486370671593761	-0.41363498834284645
-0.486309636437511	-0.4061992964659774
-0.486248601281261	-0.3951839146170591
-0.486187566125011	-0.3806878218094124
-0.486126530968761	-0.36284061652877003
-0.486065495812511	-0.3418013641031958
-0.486004460656261	-0.31775723573027276
-0.485943425500011	-0.2909218469272315
-0.485882390343761	-0.2615334053216758
-0.485821355187511	-0.2298525985346958
-0.485760320031261	-0.196160327117308
-0.485699284875011	-0.16075525636594934
-0.485638249718761	-0.12395112611155913
-0.485577214562511	-0.08607409041008975
-0.485516179406261	-0.04745975410376572
-0.485455144250011	-0.008450303247455791
-0.485394109093761	0.030608561900118705
-0.485333073937511	0.06937066391234714
-0.485272038781261	0.10749233456074575
-0.485211003625011	0.14463557840738311
-0.485149968468761	0.18047085930629567
-0.485088933312511	0.21468022420908128
-0.485027898156261	0.24695994377717395
-0.484966863000011	0.2770232420855875
-0.484905827843761	0.30460291331052214
-0.484844792687511	0.3294535201701513
-0.484783757531261	0.3513537760047731
-0.484722722375011	0.37010830442709536
-0.484661687218761	0.3855495170309955
-0.484600652062511	0.397539046687609
-0.484539616906261	0.40596897705549045
-0.484478581750011	0.41076284974147287
-0.484417546593761	0.4118762904812014
-0.484356511437511	0.4092975060118581
-0.484295476281261	0.4030473055202452
-0.484234441125011	0.39317901996502524
-0.484173405968761	0.37977799863221995
-0.484112370812511	0.3629608850966832
-0.484051335656261	0.3428746237233659
-0.483990300500011	0.3196951454449723
-0.483929265343761	0.2936258662751308
-0.483868230187511	0.26489589949018055
-0.483807195031261	0.23375800922240716
-0.483746159875011	0.20048646433999293
-0.483685124718761	0.1653745774663838
-0.483624089562511	0.12873212278776394
-0.483563054406261	0.09088267606481219
-0.483502019250011	0.05216066145088924
-0.483440984093761	0.012908507573341381
-0.483379948937511	-0.026526406738996845
-0.483318913781261	-0.06579487086939242
-0.483257878625011	-0.10454883056126141
-0.483196843468761	-0.1424445241124239
-0.483135808312511	-0.17914552650262364
-0.483074773156261	-0.21432566180203472
-0.483013738000011	-0.2476719715332699
-0.482952702843761	-0.27888741962918956
-0.482891667687511	-0.307693572450111
-0.482830632531261	-0.3338330529968088
-0.482769597375011	-0.3570718087231102
-0.482708562218761	-0.37720124639669267
-0.482647527062511	-0.3940400148402526
-0.482586491906261	-0.4074357134275803
-0.482525456750011	-0.4172661906431551
-0.482464421593761	-0.42344067034651367
-0.482403386437511	-0.4259005784551323
-0.482342351281261	-0.4246200647116506
-0.482281316125011	-0.4196062821264055
-0.482220280968761	-0.41089931869980695
-0.482159245812511	-0.39857188495413054
-0.482098210656261	-0.38272868326092163
-0.482037175500011	-0.363505514316322
-0.481976140343761	-0.3410680977668928
-0.481915105187511	-0.3156106202750328
-0.481854070031261	-0.28735405980282835
-0.481793034875011	-0.25654422601376203
-0.481731999718761	-0.2234496330618039
-0.481670964562511	-0.1883591386860975
-0.481609929406261	-0.1515793710311098
-0.481548894250011	-0.1134321176779461
-0.481487859093761	-0.07425137630809775
-0.481426823937511	-0.03438051562453316
-0.481365788781261	0.0058307598900636205
-0.481304753625011	0.046029614668009526
-0.481243718468761	0.08586300331752057
-0.481182683312511	0.12498094049940822
-0.481121648156261	0.16303953660656173
-0.481060613000011	0.1997040210640077
-0.480999577843761	0.2346517611561496
-0.480938542687511	0.2675750343421434
-0.480877507531261	0.298183852349102
-0.480816472375011	0.32620844085806877
-0.480755437218761	0.35140170199247295
-0.480694402062511	0.3735413808853992
-0.480633366906261	0.3924320150525705
-0.480572331750011	0.4079067469794138
-0.480511296593761	0.4198287414812881
-0.480450261437511	0.4280924477442722
-0.480389226281261	0.43262454382471616
-0.480328191125011	0.43338458022789556
-0.480267155968761	0.4303653885872042
-0.480206120812511	0.4235931240246299
-0.480145085656261	0.4131270678600841
-0.480084050500011	0.3990591323929275
-0.480023015343761	0.3815130135778788
-0.479961980187511	0.3606431807712681
-0.479900945031261	0.33663345603632655
-0.479839909875011	0.30969543801124694
-0.479778874718761	0.2800666531736588
-0.479717839562511	0.24800840508307617
-0.479656804406261	0.21380356122167524
-0.479595769250011	0.1777539473066238
-0.479534734093761	0.14017778561811137
-0.479473698937511	0.10140684557618143
-0.479412663781261	0.06178345664233473
-0.479351628625011	0.021657588517287146
-0.479290593468761	-0.018616368713065098
-0.479229558312511	-0.058682621384736205
-0.479168523156261	-0.09818721288125395
-0.479107488000011	-0.13678114868468905
-0.479046452843761	-0.17412341653313596
-0.478985417687511	-0.20988414341649062
-0.478924382531261	-0.24374740014628793
-0.478863347375011	-0.2754140743854434
-0.478802312218761	-0.3046045265508825
-0.478741277062511	-0.33106103011561555
-0.478680241906261	-0.35455014526717865
-0.478619206750011	-0.37486472056731457
-0.478558171593761	-0.39182577169797933
-0.478497136437511	-0.40528410810354265
-0.478436101281261	-0.4151216088425201
-0.478375066125011	-0.4212523257982696
-0.478314030968761	-0.42362324477169244
-0.478252995812511	-0.4222147546534826
-0.478191960656261	-0.41704085816369546
-0.478130925500011	-0.4081490267488445
-0.478069890343761	-0.3956198159509462
-0.478008855187511	-0.37956614816823736
-0.477947820031261	-0.3601323094887157
-0.477886784875011	-0.33749269871167276
-0.477825749718761	-0.31185026685263617
-0.477764714562511	-0.28343473813050346
-0.477703679406261	-0.252500541974435
-0.477642644250011	-0.21932460189263603
-0.477581609093761	-0.18420385518605756
-0.477520573937511	-0.14745259108607403
-0.477459538781261	-0.10939970944667962
-0.477398503625011	-0.070385757941145
-0.477337468468761	-0.03075992686124493
-0.477276433312511	0.009123090825731114
-0.477215398156261	0.04890621120414139
-0.477154363000011	0.08823317749845566
-0.477093327843761	0.12675175773427913
-0.477032292687511	0.16411678340327895
-0.476971257531261	0.19999335915880692
-0.476910222375011	0.2340597848899127
-0.476849187218761	0.26601040272149096
-0.476788152062511	0.29555843112451197
-0.476727116906261	0.3224383932342454
-0.476666081750011	0.34640862418537943
-0.476605046593761	0.3672533750432546
-0.476544011437511	0.3847847142792911
-0.476482976281261	0.39884433760766513
-0.476421941125011	0.40930483812576635
-0.476360905968761	0.4160709935738363
-0.476299870812511	0.41908056972346364
-0.476238835656261	0.41830487096626656
-0.476177800500011	0.4137490898155645
-0.476116765343761	0.4054521899252287
-0.476055730187511	0.39348664781613807
-0.475994695031261	0.37795778095084714
-0.475933659875011	0.3590028299326023
-0.475872624718761	0.33678978183762787
-0.475811589562511	0.311515836296316
-0.475750554406261	0.2834057143569753
-0.475689519250011	0.25270961779547657
-0.475628484093761	0.21970103265673555
-0.475567448937511	0.184674325819881
-0.475506413781261	0.14794203928126665
-0.475445378625011	0.10983224714085986
-0.475384343468761	0.07068549332882741
-0.475323308312511	0.03085182999076114
-0.475262273156261	-0.009312278409326904
-0.475201238000011	-0.0494472479893714
-0.475140202843761	-0.08919343350363869
-0.475079167687511	-0.12819448826517596
-0.475018132531261	-0.16610043951153453
-0.474957097375011	-0.20257089048767363
-0.474896062218761	-0.23727804120770282
-0.474835027062511	-0.26990961246018075
-0.474773991906261	-0.3001717076783894
-0.474712956750011	-0.32779132370282427
-0.474651921593761	-0.3525189932092258
-0.474590886437511	-0.3741308441066408
-0.474529851281261	-0.39243071529290274
-0.474468816125011	-0.4072519564155615
-0.474407780968761	-0.4184588009459947
-0.474346745812511	-0.4259477910319221
-0.474285710656261	-0.42964854345996006
-0.474224675500011	-0.42952450710108175
-0.474163640343761	-0.4255733058374924
-0.474102605187511	-0.41782670433782876
-0.474041570031261	-0.40635046564525856
-0.473980534875011	-0.3912436670787254
-0.473919499718761	-0.3726379164557795
-0.473858464562511	-0.35069617794058705
-0.473797429406261	-0.32561130029141583
-0.473736394250011	-0.29760435911946115
-0.473675359093761	-0.26692268410596115
-0.473614323937511	-0.23383762724041585
-0.473553288781261	-0.19864223157081157
-0.473492253625011	-0.16164853323346356
-0.473431218468761	-0.12318484109621816
-0.473370183312511	-0.08359282509664273
-0.473309148156261	-0.043224381226047756
-0.473248113000011	-0.0024386315235792088
-0.473187077843761	0.03840144674325593
-0.473126042687511	0.07893211718268593
-0.473065007531261	0.1187922196771678
-0.473003972375011	0.1576264033556354
-0.472942937218761	0.19508823154272284
-0.472881902062511	0.23084342266491242
-0.472820866906261	0.2645726868442713
-0.472759831750011	0.29597469470641097
-0.472698796593761	0.3247687880143896
-0.472637761437511	0.35069741211399486
-0.472576726281261	0.3735285391344954
-0.472515691125011	0.3930576914654131
-0.472454655968761	0.4091097822386679
-0.472393620812511	0.4215407673246523
-0.472332585656261	0.4302388439735381
-0.472271550500011	0.43512556530378044
-0.472210515343761	0.4361565141333767
-0.472149480187511	0.4333216947087846
-0.472088445031261	0.4266457058000384
-0.472027409875011	0.41618746091012365
-0.471966374718761	0.40203974073242893
-0.471905339562511	0.3843283321299567
-0.471844304406261	0.36321094236393403
-0.471783269250011	0.33887579973754445
-0.471722234093761	0.3115399534596005
-0.471661198937511	0.28144739425712445
-0.471600163781261	0.24886682104217514
-0.471539128625011	0.2140892804560958
-0.471478093468761	0.17742557132365402
-0.471417058312511	0.13920342491472454
-0.471356023156261	0.09976462407112302
-0.471294988000011	0.05946191910211992
-0.471233952843761	0.018655877901395206
-0.471172917687511	-0.022288375959250453
-0.471111882531261	-0.06300437797009549
-0.471050847375011	-0.10312765554115466
-0.470989812218761	-0.14229901359680028
-0.470928777062511	-0.18016766229659137
-0.470867741906261	-0.21639454081661486
-0.470806706750011	-0.2506551722673623
-0.470745671593761	-0.2826427114383063
-0.470684636437511	-0.3120707102611666
-0.470623601281261	-0.3386755505421027
-0.470562566125011	-0.36221905732453613
-0.470501530968761	-0.38249042148714324
-0.470440495812511	-0.3993082292184157
-0.470379460656261	-0.412522119253044
-0.470318425500011	-0.4220140070208894
-0.470257390343761	-0.4276993495565642
-0.470196355187511	-0.4295277632501581
-0.470135320031261	-0.4274835473377215
-0.470074284875011	-0.42158588091044996
-0.470013249718761	-0.41188856013848496
-0.469952214562511	-0.3984796353480686
-0.469891179406261	-0.3814805600677672
-0.469830144250011	-0.3610451291639749
-0.469769109093761	-0.3373581333926166
-0.469708073937511	-0.3106336627699719
-0.469647038781261	-0.28111322182777587
-0.469586003625011	-0.24906355069455902
-0.469524968468761	-0.21477425306011094
-0.469463933312511	-0.17855516232110857
-0.469402898156261	-0.1407335814266842
-0.469341863000011	-0.10165135780311878
-0.469280827843761	-0.06166175373570425
-0.469219792687511	-0.021126323113508448
-0.469158757531261	0.019588371832722225
-0.469097722375011	0.06011406347152624
-0.469036687218761	0.10008407871600417
-0.468975652062511	0.13913668415965907
