Time	Frequency
-0.500013202968745	-1.7762673725362106e-25
-0.49995216781249496	-1.3167528627934307e-25
-0.49989113265624496	-8.472961142907772e-26
-0.49983009749999496	-3.7103184969291854e-26
-0.49976906234374496	1.0885755225221743e-26
-0.49970802718749496	5.891628675148469e-26
-0.49964699203124496	1.066670426327687e-25
-0.49958595687499496	1.5381822639532426e-25
-0.49952492171874496	2.0005384851951468e-25
-0.49946388656249496	2.450638448505264e-25
-0.49940285140624496	2.885460430059265e-25
-0.49934181624999496	3.302083693171218e-25
-0.49928078109374496	3.6977059733869354e-25
-0.49921974593749496	4.0696642756733865e-25
-0.49915871078124496	4.415451325164438e-25
-0.49909767562499496	4.732732987754966e-25
-0.49903664046874496	5.019364419067671e-25
-0.49897560531249496	5.273403080625898e-25
-0.49891457015624496	5.493124071758157e-25
-0.49885353499999496	5.677029311793256e-25
-0.49879249984374496	5.823859843089215e-25
-0.49873146468749496	5.932603001324109e-25
-0.49867042953124496	6.002499709605176e-25
-0.49860939437499496	6.0330502602546045e-25
-0.49854835921874496	6.024016649858379e-25
-0.49848732406249496	5.975425693666617e-25
-0.49842628890624496	5.887567644257727e-25
-0.49836525374999496	5.760995536543837e-25
-0.49830421859374496	5.596520848909883e-25
-0.49824318343749496	5.395208556709796e-25
-0.49818214828124496	5.158370209971439e-25
-0.49812111312499496	4.887554985576723e-25
-0.49806007796874496	4.584539716800267e-25
-0.49799904281249496	4.251317066393572e-25
-0.49793800765624496	3.8900821733236206e-25
-0.49787697249999496	3.5032182070689816e-25
-0.49781593734374496	3.0932805516691377e-25
-0.49775490218749496	2.662979471078422e-25
-0.49769386703124496	2.2151625067766586e-25
-0.49763283187499496	1.7527951443220706e-25
-0.49757179671874496	1.2789410392306176e-25
-0.49751076156249496	7.967417866742108e-26
-0.49744972640624496	3.0939570831493495e-26
-0.49738869124999496	-1.798636160648346e-26
-0.49732765609374496	-6.677886546924355e-26
-0.49726662093749496	-1.1511399564044005e-25
-0.49720558578124496	-1.6267078962141086e-25
-0.49714455062499496	-2.0913338328446923e-25
-0.49708351546874496	-2.541931632926747e-25
-0.49702248031249496	-2.9755083778850597e-25
-0.49696144515624496	-3.3891841826570655e-25
-0.49690040999999496	-3.780211928503463e-25
-0.49683937484374496	-4.145995127969175e-25
-0.49677833968749496	-4.484106228525763e-25
-0.49671730453124496	-4.7923024200939575e-25
-0.49665626937499496	-5.068540529234798e-25
-0.49659523421874496	-5.310991495506883e-25
-0.49653419906249496	-5.518052079987571e-25
-0.49647316390624496	-5.688356102767113e-25
-0.49641212874999496	-5.820783487591026e-25
-0.49635109359374496	-5.9144679268083475e-25
-0.49629005843749496	-5.968802877130056e-25
-0.49622902328124496	-5.98344554450322e-25
-0.49616798812499496	-5.958319446127179e-25
-0.49610695296874496	-5.893614914628647e-25
-0.49604591781249496	-5.789787951872356e-25
-0.49598488265624496	-5.647557281074834e-25
-0.49592384749999496	-5.467899502243477e-25
-0.49586281234374496	-5.252042819927952e-25
-0.49580177718749496	-5.00145859635738e-25
-0.49574074203124496	-4.717851865133195e-25
-0.49567970687499496	-4.403149614189319e-25
-0.49561867171874496	-4.0594880780292225e-25
-0.49555763656249496	-3.6891986305673655e-25
-0.49549660140624496	-3.294791734920053e-25
-0.49543556624999496	-2.8789403848266554e-25
-0.49537453109374496	-2.4444622830006177e-25
-0.49531349593749496	-1.9943004540910763e-25
-0.49525246078124496	-1.5315042053861839e-25
-0.49519142562499496	-1.0592079257409577e-25
-0.49513039046874496	-5.80610328104327e-26
-0.49506935531249496	-9.895310745755934e-27
-0.49500832015624496	3.8250146374201723e-26
-0.49494728499999496	8.604915270153841e-26
-0.49488624984374496	1.3317791207588854e-25
-0.49482521468749496	1.793170119818692e-25
-0.49476417953124496	2.241537379336133e-25
-0.49470314437499496	2.673841390568758e-25
-0.49464210921874496	3.0871499173216144e-25
-0.49458107406249496	3.478659408749574e-25
-0.49452003890624496	3.845712577802385e-25
-0.49445900374999496	4.185817105095026e-25
-0.49439796859374496	4.496662301727862e-25
-0.49433693343749496	4.776134810392601e-25
-0.49427589828124496	5.02233290884966e-25
-0.49421486312499496	5.233579691397846e-25
-0.49415382796874496	5.408433969231005e-25
-0.49409279281249496	5.545700613736323e-25
-0.49403175765624496	5.644438497818718e-25
-0.49397072249999496	5.703967000874961e-25
-0.49390968734374496	5.723870725569233e-25
-0.49384865218749496	5.704002406512857e-25
-0.49378761703124496	5.644484169239579e-25
-0.49372658187499496	5.545706550870971e-25
-0.49366554671874496	5.4083264028178195e-25
-0.49360451156249496	5.233262137816513e-25
-0.49354347640624496	5.021688016614726e-25
-0.49348244124999496	4.775026146907329e-25
-0.49342140609374496	4.494937081359018e-25
-0.49336037093749496	4.183308696352077e-25
-0.49329933578124496	3.8422435681228656e-25
-0.49323830062499496	3.474044775560984e-25
-0.49317726546874496	3.0812007135361055e-25
-0.49311623031249496	2.6663679896524186e-25
-0.49305519515624496	2.2323538719947994e-25
-0.49299415999999496	1.782097342494492e-25
-0.49293312484374496	1.3186491160440867e-25
-0.49287208968749496	8.451512216785031e-26
-0.49281105453124496	3.6481583066244637e-26
-0.49275001937499496	-1.1909633980854589e-26
-0.49268898421874496	-6.032985022359851e-26
-0.49262794906249496	-1.0844992011164306e-25
-0.49256691390624496	-1.55942551737907e-25
-0.49250587874999496	-2.0248444097760332e-25
-0.49244484359374496	-2.477585011143062e-25
-0.49238380843749496	-2.914560138717711e-25
-0.49232277328124496	-3.332786840088465e-25
-0.49226173812499496	-3.7294074051539577e-25
-0.49220070296874496	-4.101707586360617e-25
-0.49213966781249496	-4.447136374167723e-25
-0.49207863265624496	-4.763322300538631e-25
-0.49201759749999496	-5.048090041387113e-25
-0.49195656234374496	-5.299475437488199e-25
-0.49189552718749496	-5.515738422466304e-25
-0.49183449203124496	-5.6953753499658715e-25
-0.49177345687499496	-5.837128968033101e-25
-0.49171242171874496	-5.939997531509514e-25
-0.49165138656249496	-6.00324114285146e-25
-0.49159035140624496	-6.026387559261169e-25
-0.49152931624999496	-6.009234953517332e-25
-0.49146828109374496	-5.951853929597208e-25
-0.49140724593749496	-5.854586925154244e-25
-0.49134621078124496	-5.718046133995584e-25
-0.49128517562499496	-5.543109629318392e-25
-0.49122414046874496	-5.33091539434165e-25
-0.49116310531249496	-5.082853988133699e-25
-0.49110207015624496	-4.800559155041365e-25
-0.49104103499999496	-4.485896962553457e-25
-0.49097999984374496	-4.14095331784561e-25
-0.49091896468749496	-3.7680200019594347e-25
-0.49085792953124496	-3.3695792066112054e-25
-0.49079689437499496	-2.9482869975335036e-25
-0.49073585921874496	-2.506955284686889e-25
-0.49067482406249496	-2.0485331293942053e-25
-0.49061378890624496	-1.576086350200079e-25
-0.49055275374999496	-1.092777739714972e-25
-0.49049171859374496	-6.018443941337072e-26
-0.49043068343749496	-1.0657760645981944e-26
-0.49036964828124496	3.8970115491172153e-26
-0.49030861312499496	8.836617959805471e-26
-0.49024757796874496	1.37198758237153e-25
-0.49018654281249496	1.8513993587164602e-25
-0.49012550765624496	2.3186754049880036e-25
-0.49006447249999496	2.7706760666202847e-25
-0.49000343734374496	3.2043617101513568e-25
-0.48994240218749496	3.616816791275143e-25
-0.48988136703124496	4.0052673780522322e-25
-0.48982033187499496	4.367100099855379e-25
-0.48975929671874496	4.699881821463501e-25
-0.48969826156249496	5.001373363406679e-25
-0.48963722640624496	5.269547767600952e-25
-0.48957619124999496	5.502601240864526e-25
-0.48951515609374496	5.698968061866883e-25
-0.48945412093749496	5.857329314068951e-25
-0.48939308578124496	5.976622988423929e-25
-0.48933205062499496	6.056051382985966e-25
-0.48927101546874496	6.095085533110203e-25
-0.48920998031249496	6.093470586471883e-25
-0.48914894515624496	6.051225825798617e-25
-0.48908790999999496	5.968646305184663e-25
-0.48902687484374496	5.8462997295318005e-25
-0.48896583968749496	5.685023405254047e-25
-0.48890480453124496	5.485918515259708e-25
-0.48884376937499496	5.2503424861818145e-25
-0.48878273421874496	4.9799003876933205e-25
-0.48872169906249496	4.676433668394602e-25
-0.48866066390624496	4.342007940633693e-25
-0.48859962874999496	3.9788990987115013e-25
-0.48853859359374496	3.589577917820459e-25
-0.48847755843749496	3.17669316335229e-25
-0.48841652328124496	2.7430540357864186e-25
-0.48835548812499496	2.291610815332237e-25
-0.48829445296874496	1.82543496865699e-25
-0.48823341781249496	1.3476983815649093e-25
-0.48817238265624496	8.616519806684116e-26
-0.48811134749999496	3.7060313360261567e-26
-0.48805031234374496	-1.2210615232577981e-26
-0.48798927718749496	-6.131222944549925e-26
-0.48792824203124496	-1.0991030129593095e-25
-0.48786720687499496	-1.576739711999611e-25
-0.48780617171874496	-2.042780646995944e-25
-0.48774513656249496	-2.494052015138207e-25
-0.48768410140624496	-2.9274808334599174e-25
-0.48762306624999496	-3.340114898380884e-25
-0.48756203109374496	-3.729143416208285e-25
-0.48750099593749496	-4.0919162185022346e-25
-0.48743996078124496	-4.425961222092494e-25
-0.48737892562499496	-4.729002666178839e-25
-0.48731789046874496	-4.9989750387614645e-25
-0.48725685531249496	-5.234038609293052e-25
-0.48719582015624496	-5.432591277347036e-25
-0.48713478499999496	-5.593279633747545e-25
-0.48707374984374496	-5.715008914668542e-25
-0.48701271468749496	-5.796949564454756e-25
-0.48695167953124496	-5.8385439952314805e-25
-0.48689064437499496	-5.83950970323604e-25
-0.48682960921874496	-5.79984182899723e-25
-0.48676857406249496	-5.719813090707983e-25
-0.48670753890624496	-5.599972012136694e-25
-0.48664650374999496	-5.441139469997332e-25
-0.48658546859374496	-5.24440294261574e-25
-0.48652443343749496	-5.011109557220969e-25
-0.48646339828124496	-4.74285662482602e-25
-0.48640236312499496	-4.4414811829221965e-25
-0.48634132796874496	-4.109047368001718e-25
-0.48628029281249496	-3.747832403574949e-25
-0.48621925765624496	-3.360311448194582e-25
-0.48615822249999496	-2.9491402481333754e-25
-0.48609718734374496	-2.5171377207896564e-25
-0.48603615218749496	-2.067266348193417e-25
-0.48597511703124496	-1.6026118772439727e-25
-0.48591408187499496	-1.126363055047356e-25
-0.48585304671874496	-6.41788873449896e-26
-0.48579201156249496	-1.5221718850313595e-26
-0.48573097640624496	3.389885811438976e-26
-0.48566994124999496	8.284522854078391e-26
-0.48560890609374496	1.3128077984162615e-25
-0.48554787093749496	1.788722485004177e-25
-0.48548683578124496	2.2529198106402885e-25
-0.48542580062499496	2.702201635215235e-25
-0.48536476546874496	3.1334700314218486e-25
-0.48530373031249496	3.543749454340646e-25
-0.48524269515624496	3.930205234442887e-25
-0.48518165999999496	4.290165523745961e-25
-0.48512062484374496	4.621137329846412e-25
-0.48505958968749496	4.920824856560958e-25
-0.48499855453124496	5.187145972162524e-25
-0.48493751937499496	5.418244210960972e-25
-0.48487648421874496	5.612504798357249e-25
-0.48481544906249496	5.7685626221008735e-25
-0.48475441390624496	5.885314382939525e-25
-0.48469337874999496	5.96192450933287e-25
-0.48463234359374496	5.997831768883081e-25
-0.48457130843749496	5.992753513504994e-25
-0.48451027328124496	5.94668672134757e-25
-0.48444923812499496	5.8599097673258635e-25
-0.48438820296874496	5.732978885551895e-25
-0.48432716781249496	5.566726253964469e-25
-0.48426613265624496	5.362253003555613e-25
-0.48420509749999496	5.120922858618749e-25
-0.48414406234374496	4.844352551331166e-25
-0.48408302718749496	4.534400747129691e-25
-0.48402199203124496	4.193155864664421e-25
-0.48396095687499496	3.8229216667855833e-25
-0.48389992171874496	3.426201583111902e-25
-0.48383888656249496	3.005682029667117e-25
-0.48377785140624496	2.564213625223749e-25
-0.48371681624999496	2.1047921281737473e-25
-0.48365578109374496	1.6305381595918516e-25
-0.48359474593749496	1.144675197932958e-25
-0.48353371078124496	6.505087561881234e-26
-0.48347267562499496	1.514024176440479e-26
-0.48341164046874496	-3.4924390642733286e-26
-0.48335060531249496	-8.480179773475206e-26
-0.48328957015624496	-1.341518654879088e-25
-0.48322853499999496	-1.8263783568428057e-25
-0.48316749984374496	-2.29928708548757e-25
-0.48310646468749496	-2.7570145476030556e-25
-0.48304542953124496	-3.19643276988145e-25
-0.48298439437499496	-3.614536913062739e-25
-0.48292335921874496	-4.0084664876364568e-25
-0.48286232406249496	-4.375524987833602e-25
-0.48280128890624496	-4.713197965688257e-25
-0.48274025374999496	-5.019171138973112e-25
-0.48267921859374496	-5.291345417604232e-25
-0.48261818343749496	-5.527852289103812e-25
-0.48255714828124496	-5.727066084949736e-25
-0.48249611312499496	-5.887615538513557e-25
-0.48243507796874496	-6.008393522851536e-25
-0.48237404281249496	-6.08856405405491e-25
-0.48231300765624496	-6.127569233651716e-25
-0.48225197249999496	-6.125132036882167e-25
-0.48219093734374496	-6.081259396904638e-25
-0.48212990218749496	-5.996241572064076e-25
-0.48206886703124496	-5.870650678481235e-25
-0.48200783187499496	-5.705336854027145e-25
-0.48194679671874496	-5.50142233890193e-25
-0.48188576156249496	-5.260294358086061e-25
-0.48182472640624496	-4.983595210562824e-25
-0.48176369124999496	-4.673211644796703e-25
-0.48170265609374496	-4.331261602027757e-25
-0.48164162093749496	-3.9600800585133877e-25
-0.48158058578124496	-3.5622030140365263e-25
-0.48151955062499496	-3.1403504401892594e-25
-0.48145851546874496	-2.697407005246545e-25
-0.48139748031249496	-2.2364033352321294e-25
-0.48133644515624496	-1.7604943359205382e-25
-0.48127540999999496	-1.2729385106264821e-25
-0.48121437484374496	-7.770746852217814e-26
-0.48115333968749496	-2.762999062301965e-26
-0.48109230453124496	2.2595408357047588e-26
-0.48103126937499496	7.262450333304616e-26
-0.48097023421874496	1.2211424116876278e-25
-0.48090919906249496	1.7072527160418068e-25
-0.48084816390624496	2.1812409547684347e-25
-0.48078712874999496	2.6398555601067814e-25
-0.48072609359374496	3.079949045394186e-25
-0.48066505843749496	3.498500439221777e-25
-0.48060402328124496	3.8926365109595907e-25
-0.48054298812499496	4.25965046949019e-25
-0.48048195296874496	4.597021944698879e-25
-0.48042091781249496	4.902433346977105e-25
-0.48035988265624496	5.173786251413906e-25
-0.48029884749999496	5.409216414739801e-25
-0.48023781234374496	5.607105713314343e-25
-0.48017677718749496	5.766094309344244e-25
-0.48011574203124496	5.885089630755455e-25
-0.48005470687499496	5.963273913903413e-25
-0.47999367171874496	6.0001105935833105e-25
-0.47993263656249496	5.99534701910977e-25
-0.47987160140624496	5.949017711242495e-25
-0.47981056624999496	5.861442816907039e-25
-0.47974953109374496	5.73322721147122e-25
-0.47968849593749496	5.565255673633376e-25
-0.47962746078124496	5.358687281001417e-25
-0.47956642562499496	5.114947602637105e-25
-0.47950539046874496	4.835718518654017e-25
-0.47944435531249496	4.522927513455549e-25
-0.47938332015624496	4.178733664272876e-25
-0.47932228499999496	3.8055135355831216e-25
-0.47926124984374496	3.405844531115679e-25
-0.47920021468749496	2.98248734427143e-25
-0.47913917953124496	2.5383668298977897e-25
-0.47907814437499496	2.0765523777679886e-25
-0.47901710921874496	1.6002361187755242e-25
-0.47895607406249496	1.112711561826232e-25
-0.47889503890624496	6.173506346729162e-26
-0.47883400374999496	1.1758053673775862e-26
-0.47877296859374496	-3.8313990261773474e-26
-0.47871193343749496	-8.8134416273336e-26
-0.47865089828124496	-1.373581667549728e-25
-0.47858986312499496	-1.856441986472249e-25
-0.47852882796874496	-2.326578068441935e-25
-0.47846779281249496	-2.780729643114669e-25
-0.47840675765624496	-3.21574547259893e-25
-0.47834572249999496	-3.6286054448629474e-25
-0.47828468734374496	-4.0164414280549604e-25
-0.47822365218749496	-4.376556896196533e-25
-0.47816261703124496	-4.706446087945383e-25
-0.47810158187499496	-5.003810999680433e-25
-0.47804054671874496	-5.266577415568546e-25
-0.47797951156249496	-5.492909908039297e-25
-0.47791847640624496	-5.681223518667526e-25
-0.47785744124999496	-5.830196151765874e-25
-0.47779640609374496	-5.938776734564739e-25
-0.47773537093749496	-6.006193271788033e-25
-0.47767433578124496	-6.031958257399169e-25
-0.47761330062499496	-6.01587163793859e-25
-0.47755226546874496	-5.958023367843834e-25
-0.47749123031249496	-5.858791735967485e-25
-0.47743019515624496	-5.718842020334036e-25
-0.47736915999999496	-5.539121144758847e-25
-0.47730812484374496	-5.320851853852387e-25
-0.47724708968749496	-5.065524230794426e-25
-0.47718605453124496	-4.774885335411569e-25
-0.47712501937499496	-4.450927674091486e-25
-0.47706398421874496	-4.0958750018394156e-25
-0.47700294906249496	-3.712167703467024e-25
-0.47694191390624496	-3.30244551006249e-25
-0.47688087874999496	-2.869529469599532e-25
-0.47681984359374496	-2.416402778794569e-25
-0.47675880843749496	-1.9461898131122718e-25
-0.47669777328124496	-1.462135081642093e-25
-0.47663673812499496	-9.675802985251055e-26
-0.47657570296874496	-4.6594167069178554e-26
-0.47651466781249496	3.931374508726532e-27
-0.47645363265624496	5.446920452108279e-26
-0.47639259749999496	1.0466967510469427e-25
-0.47633156234374496	1.5418530935788607e-25
-0.47627052718749496	2.0267314781358363e-25
-0.47620949203124496	2.4979721995691736e-25
-0.47614845687499496	2.9523076212300096e-25
-0.47608742171874496	3.386586339528701e-25
-0.47602638656249496	3.79779328728713e-25
-0.47596535140624496	4.183072085362737e-25
-0.47590431624999496	4.539744734834281e-25
-0.47584328109374496	4.865328827864704e-25
-0.47578224593749496	5.157557547075231e-25
-0.47572121078124496	5.414392367392348e-25
-0.47566017562499496	5.634040053231229e-25
-0.47559914046874496	5.814963335329409e-25
-0.47553810531249496	5.955892494224126e-25
-0.47547707015624496	6.0558345631549e-25
-0.47541603499999496	6.114079235692036e-25
-0.47535499984374496	6.1302056352036125e-25
-0.47529396468749496	6.104083472084223e-25
-0.47523292953124496	6.035875949907854e-25
-0.47517189437499496	5.926037213862669e-25
-0.47511085921874496	5.775310524806774e-25
-0.47504982406249496	5.584722587623346e-25
-0.47498878890624496	5.355576763072857e-25
-0.47492775374999496	5.089444421791648e-25
-0.47486671859374496	4.7881536555712e-25
-0.47480568343749496	4.453777451172772e-25
-0.47474464828124496	4.088618556199834e-25
-0.47468361312499496	3.6951946689791657e-25
-0.47462257796874496	3.276220018019536e-25
-0.47456154281249496	2.8345876201743547e-25
-0.47450050765624496	2.3733484116988397e-25
-0.47443947249999496	1.8956908268672324e-25
-0.47437843734374496	1.4049187140637187e-25
-0.47431740218749496	9.044274734898175e-26
-0.47425636703124496	3.9768253735131785e-26
-0.47419533187499496	-1.1180710562996914e-26
-0.47413429671874496	-6.205112094797766e-26
-0.47407326156249496	-1.1249035742015488e-25
-0.47401222640624496	-1.6214872254947993e-25
-0.47395119124999496	-2.1068169337586906e-25
-0.47389015609374496	-2.577525349642891e-25
-0.47382912093749496	-3.0303441992531876e-25
-0.47376808578124496	-3.4621291831714117e-25
-0.47370705062499496	-3.869880083656565e-25
-0.47364601546874496	-4.250762658532202e-25
-0.47358498031249496	-4.602128630149066e-25
-0.47352394515624496	-4.921532744051541e-25
-0.47346290999999496	-5.206752173339296e-25
-0.47340187484374496	-5.455799329133554e-25
-0.47334083968749496	-5.666938606529588e-25
-0.47327980453124496	-5.838696093683812e-25
-0.47321876937499496	-5.9698716568334695e-25
-0.47315773421874496	-6.059546718051905e-25
-0.47309669906249496	-6.107090455093219e-25
-0.47303566390624496	-6.112165570397079e-25
-0.47297462874999496	-6.074728876003294e-25
-0.47291359359374496	-5.99503393943574e-25
-0.47285255843749496	-5.873627289370176e-25
-0.47279152328124496	-5.711346657438923e-25
-0.47273048812499496	-5.509313813014763e-25
-0.47266945296874496	-5.268927953545184e-25
-0.47260841781249496	-4.991855407589167e-25
-0.47254738265624496	-4.680018326870137e-25
-0.47248634749999496	-4.335582074341278e-25
-0.47242531234374496	-3.96093894447717e-25
-0.47236427718749496	-3.5586930734948934e-25
-0.47230324203124496	-3.131641203160126e-25
-0.47224220687499496	-2.6827542940497915e-25
-0.47218117171874496	-2.2151559196971065e-25
