Time	Frequency
-0.5000288489999889	0.1884445946379567
-0.4999678138437389	0.14936971640796737
-0.4999067786874889	0.10875389710836024
-0.4998457435312389	0.06700135035634501
-0.4997847083749889	0.0245278735960407
-0.4997236732187389	-0.01824322594046062
-0.4996626380624889	-0.0608854797849566
-0.4996016029062389	-0.10297331296046032
-0.4995405677499889	-0.14408644183792974
-0.4994795325937389	-0.18381403439883548
-0.4994184974374889	-0.22175869561107664
-0.4993574622812389	-0.2575406479180472
-0.4992964271249889	-0.2908012957851969
-0.4992353919687389	-0.32120699938159386
-0.4991743568124889	-0.34845229204630274
-0.4991133216562389	-0.37226298597079716
-0.4990522864999889	-0.3923989850144294
-0.4989912513437389	-0.4086565613752035
-0.4989302161874889	-0.42087054291315273
-0.4988691810312389	-0.4289159008285609
-0.4988081458749889	-0.43270906333991294
-0.4987471107187389	-0.43220874393129594
-0.4986860755624889	-0.4274164169758742
-0.4986250404062389	-0.41837628407891914
-0.4985640052499889	-0.40517489422556113
-0.4985029700937389	-0.38794030699803833
-0.4984419349374889	-0.36684080329650576
-0.4983808997812389	-0.3420832952779759
-0.4983198646249889	-0.31391121799447913
-0.4982588294687389	-0.28260219415389104
-0.4981977943124889	-0.2484652134576596
-0.4981367591562389	-0.2118376472005896
-0.4980757239999889	-0.1730818529273124
-0.4980146888437389	-0.13258155760861468
-0.4979536536874889	-0.09073813637873485
-0.4978926185312389	-0.047966505212003144
-0.4978315833749889	-0.0046910527450365405
-0.4977705482187389	0.03865855589044105
-0.4977095130624889	0.08165171408158303
-0.4976484779062389	0.12386118591577774
-0.4975874427499889	0.16486726940106622
-0.4975264075937389	0.20426210421560786
-0.4974653724374889	0.24165366660414303
-0.4974043372812389	0.2766697023140003
-0.4973433021249889	0.3089614924126453
-0.4972822669687389	0.3382072514374491
-0.4972212318124889	0.3641154938246429
-0.4971601966562389	0.38642779207749905
-0.4970991614999889	0.40492150415669875
-0.4970381263437389	0.4194119533296902
-0.4969770911874889	0.4297542572102449
-0.4969160560312389	0.43584490450487995
-0.4968550208749889	0.4376226483998264
-0.4967939857187389	0.43506928867668276
-0.4967329505624889	0.428209774423416
-0.4966719154062389	0.41711199722865355
-0.4966108802499889	0.4018861726834634
-0.4965498450937389	0.3826836724451427
-0.4964888099374889	0.35969562859884324
-0.4964277747812389	0.33315095483440665
-0.4963667396249889	0.30331412147072934
-0.4963057044687389	0.27048253015728274
-0.4962446693124889	0.23498350714980423
-0.4961836341562389	0.1971711028814083
-0.4961225989999889	0.15742251380741498
-0.4960615638437389	0.1161343569288145
-0.4960005286874889	0.0737186852687162
-0.4959394935312389	0.03059886314649971
-0.4958784583749889	-0.012794612675341674
-0.4958174232187389	-0.05602847262621312
-0.4957563880624889	-0.0986709974597636
-0.4956953529062389	-0.14029631171731935
-0.4956343177499889	-0.18048867085741396
-0.4955732825937389	-0.21884665307792334
-0.4955122474374889	-0.25498709303539513
-0.4954512122812389	-0.2885490223947015
-0.4953901771249889	-0.3191972870534259
-0.4953291419687389	-0.34662580637768386
-0.4952681068124889	-0.3705607874574295
-0.4952070716562389	-0.3907633808567796
-0.4951460364999889	-0.4070321313492093
-0.4950850013437389	-0.4192050171677451
-0.4950239661874889	-0.4271610296100414
-0.4949629310312389	-0.4308214807725023
-0.4949018958749889	-0.4301507362416754
-0.4948408607187389	-0.4251566305307997
-0.4947798255624889	-0.41589038619315216
-0.4947187904062389	-0.4024461085694217
-0.4946577552499889	-0.38495987826879985
-0.4945967200937389	-0.36360836030429283
-0.4945356849374889	-0.33860710086809465
-0.4944746497812389	-0.31020831750215644
-0.4944136146249889	-0.2786984126546764
-0.4943525794687389	-0.24439511740667352
-0.4942915443124889	-0.2076442598929249
-0.4942305091562389	-0.1688163829465054
-0.4941694739999889	-0.12830295014741253
-0.4941084388437389	-0.08651245081135876
-0.4940474036874889	-0.04386632490410688
-0.4939863685312389	-0.0007946942088247599
-0.4939253333749889	0.04226794757993977
-0.4938642982187389	0.08488708372174193
-0.4938032630624889	0.12663259056946602
-0.4937422279062389	0.16708300931522743
-0.4936811927499889	0.2058298064936505
-0.4936201575937389	0.24248156042371197
-0.4935591224374889	0.2766677378380385
-0.4934980872812389	0.3080426572549812
-0.4934370521249889	0.33628878983395094
-0.4933760169687389	0.36112002237738794
-0.4933149818124889	0.3822846732357838
-0.4932539466562389	0.39956778997897396
-0.4931929114999889	0.412793612808043
-0.4931318763437389	0.42182715150747196
-0.4930708411874889	0.4265756457792125
-0.4930098060312389	0.42698957778628394
-0.4929487708749889	0.42306303543840723
-0.4928877357187389	0.41483398092965446
-0.4928267005624889	0.4023837384637169
-0.4927656654062389	0.3858362796873761
-0.4927046302499889	0.3653569883658774
-0.4926435950937389	0.34115096863035044
-0.4925825599374889	0.31346107280709967
-0.4925215247812389	0.2825654017666287
-0.4924604896249889	0.24877457806021924
-0.4923994544687389	0.21242860524448545
-0.4923384193124889	0.1738934439873425
-0.4922773841562389	0.13355738625710015
-0.4922163489999889	0.0918271088852009
-0.4921553138437389	0.04912358229902471
-0.4920942786874889	0.00587789439052306
-0.4920332435312389	-0.03747317946723964
-0.4919722083749889	-0.08049149399684061
-0.4919111732187389	-0.12274200142606055
-0.4918501380624889	-0.16379712562823656
-0.4917891029062389	-0.20324105788650035
-0.4917280677499889	-0.2406740307233797
-0.4916670325937389	-0.27571620886904297
-0.4916059974374889	-0.30801172381572683
-0.4915449622812389	-0.33723214087585773
-0.4914839271249889	-0.36307979086618586
-0.4914228919687389	-0.38529090452670345
-0.4913618568124889	-0.4036381566593566
-0.4913008216562389	-0.41793306339246494
-0.4912397864999889	-0.4280279057839528
-0.4911787513437389	-0.4338171861406624
-0.4911177161874889	-0.4352387863714884
-0.4910566810312389	-0.4322746042115454
-0.4909956458749889	-0.4249507136824085
-0.4909346107187389	-0.41333721849283594
-0.4908735755624889	-0.39754748523781336
-0.4908125404062389	-0.3777370867264847
-0.4907515052499889	-0.35410224419991604
-0.4906904700937389	-0.3268778393378917
-0.4906294349374889	-0.2963351335209146
-0.4905683997812389	-0.2627790061301931
-0.4905073646249889	-0.22654489889558263
-0.4904463294687389	-0.1879954778178849
-0.4903852943124889	-0.14751700266533685
-0.4903242591562389	-0.10551537392784383
-0.4902632239999889	-0.062412137393080096
-0.4902021888437389	-0.018640186412610626
-0.4901411536874889	0.0253605816955314
-0.4900801185312389	0.06914769120793822
-0.4900190833749889	0.11228058103056403
-0.4899580482187389	0.15432498357323132
-0.4898970130624889	0.19485741223933392
-0.4898359779062389	0.23346932473373475
-0.4897749427499889	0.26977135955283293
-0.4897139075937389	0.30339720713986124
-0.4896528724374889	0.33400730120209104
-0.4895918372812389	0.36129238051824253
-0.4895308021249889	0.3849764417687812
-0.4894697669687389	0.40481972071985145
-0.4894087318124889	0.4206210245563672
-0.4893476966562389	0.43221978127284194
-0.4892866614999889	0.439497776895047
-0.4892256263437389	0.44238022329028936
-0.4891645911874889	0.4408366799736584
-0.4891035560312389	0.4348812806236712
-0.4890425208749889	0.42457264758409197
-0.4889814857187389	0.4100133508586728
-0.4889204505624889	0.391348814010821
-0.4888594154062389	0.36876596865119177
-0.4887983802499889	0.3424912791638755
-0.4887373450937389	0.31278854865834604
-0.4886763099374889	0.2799562637406612
-0.4886152747812389	0.2443245165044305
-0.4885542396249889	0.20625180513250418
-0.4884932044687389	0.1661213182241499
-0.4884321693124889	0.12433711064248891
-0.4883711341562389	0.08132008343726715
-0.4883100989999889	0.03750358054582501
-0.4882490638437389	-0.006670774586125294
-0.4881880286874889	-0.05075770137756652
-0.4881269935312389	-0.09431277324812093
-0.4880659583749889	-0.1368967179467798
-0.4880049232187389	-0.17808014049795665
-0.4879438880624889	-0.21744763135967363
-0.4878828529062389	-0.254602100332225
-0.4878218177499889	-0.2891687986522016
-0.4877607825937389	-0.3207990447532501
-0.4876997474374889	-0.3491738566650399
-0.4876387122812389	-0.3740070961013145
-0.4875776771249889	-0.3950484818593666
-0.4875166419687389	-0.412086015691549
-0.4874556068124889	-0.424948272362834
-0.4873945716562389	-0.4335060231281963
-0.4873335364999889	-0.43767364141721216
-0.4872725013437389	-0.43740999218192766
-0.4872114661874889	-0.4327187607952135
-0.4871504310312389	-0.42364857973090936
-0.4870893958749889	-0.4102924094918043
-0.4870283607187389	-0.39278670447616476
-0.4869673255624889	-0.3713100132044547
-0.4869062904062389	-0.34608114802596757
-0.4868452552499889	-0.3173570472793981
-0.4867842200937389	-0.28543012035259524
-0.4867231849374889	-0.2506253106870193
-0.4866621497812389	-0.21329684148357
-0.4866011146249889	-0.1738245602047828
-0.4865400794687389	-0.13261017635390046
-0.4864790443124889	-0.09007311365060926
-0.4864180091562389	-0.046646274377087904
-0.4863569739999889	-0.0027717391499342157
-0.4862959388437389	0.041103879645034945
-0.4862349036874889	0.08453387165496858
-0.4861738685312389	0.1270759476694344
-0.4861128333749889	0.1682968085978411
-0.4860517982187389	0.20777652511781572
-0.4859907630624889	0.24511277724874986
-0.4859297279062389	0.27992499546287813
-0.4858686927499889	0.3118582267574251
-0.4858076575937389	0.3405867364570208
-0.4857466224374889	0.36581734441325087
-0.4856855872812389	0.38729242709856204
-0.4856245521249889	0.4047925603637219
-0.4855635169687389	0.418138716164994
-0.4855024818124889	0.4271941759352486
-0.4854414466562389	0.43186588563972467
-0.4853804114999889	0.43210543223940595
-0.4853193763437389	0.4279095849968784
-0.4852583411874889	0.4193202943237096
-0.4851973060312389	0.40642435011443373
-0.4851362708749889	0.38935245468471574
-0.4850752357187389	0.36827796204845753
-0.4850142005624889	0.3434151106990174
-0.4849531654062389	0.3150168432239355
-0.4848921302499889	0.28337231363095294
-0.4848310950937389	0.2488038587749561
-0.4847700599374889	0.21166381827522535
-0.4847090247812389	0.17233094078312114
-0.4846479896249889	0.13120648403961208
-0.4845869544687389	0.08871021301919296
-0.4845259193124889	0.045276101208386044
-0.4844648841562389	0.0013478684105752783
-0.4844038489999889	-0.042625439841667105
-0.4843428138437389	-0.08619411648822148
-0.4842817786874889	-0.12891235071494508
-0.4842207435312389	-0.17034269037229538
-0.4841597083749889	-0.21006071496432008
-0.4840986732187389	-0.24765911677162986
-0.4840376380624889	-0.2827520171456051
-0.4839766029062389	-0.314978960040375
-0.4839155677499889	-0.3440083906028348
-0.4838545325937389	-0.3695413140408652
-0.4837934974374889	-0.3913141694998996
-0.4837324622812389	-0.40910160856897065
-0.4836714271249889	-0.4227188778212828
-0.4836103919687389	-0.4320235855935084
-0.4835493568124889	-0.43691733509556785
-0.4834883216562389	-0.43734664796017114
-0.4834272864999889	-0.43330357009158743
-0.4833662513437389	-0.42482582390910467
-0.4833052161874889	-0.411996363530332
-0.4832441810312389	-0.3949426507829853
-0.4831831458749889	-0.37383532218925875
-0.4831221107187389	-0.34888648518230436
-0.4830610755624889	-0.32034761641881315
-0.4830000404062389	-0.2885069750119793
-0.4829390052499889	-0.2536866996929078
-0.4828779700937389	-0.21623956488395082
-0.4828169349374889	-0.1765453816553029
-0.4827558997812389	-0.13500712395794479
-0.4826948646249889	-0.09204688192284537
-0.4826338294687389	-0.04810149883383172
-0.4825727943124889	-0.0036181846248841227
-0.4825117591562389	0.04095008400064954
-0.4824507239999889	0.08514915176189253
-0.4823896888437389	0.12852833909423586
-0.4823286536874889	0.1706450519240813
-0.4822676185312389	0.21106926681151839
-0.4822065833749889	0.24938798640326482
-0.4821455482187389	0.2852093773590673
-0.4820845130624889	0.31816690395103986
-0.4820234779062389	0.3479229489240758
-0.4819624427499889	0.3741724135674613
-0.4819014075937389	0.39664574105251593
-0.4818403724374889	0.4151117203313138
-0.4817793372812389	0.4293799719488065
-0.4817183021249889	0.43930269105402203
-0.4816572669687389	0.4447764474276744
-0.4815962318124889	0.4457430577511819
-0.4815351966562389	0.44219030389267616
-0.4814741614999889	0.4341521004551936
-0.4814131263437389	0.42170807121874515
-0.4813520911874889	0.4049829074109017
-0.4812910560312389	0.384144974959826
-0.4812300208749889	0.3594047285524176
-0.4811689857187389	0.33101251723111014
-0.4811079505624889	0.29925606656255754
-0.4810469154062389	0.2644576013795623
-0.4809858802499889	0.22697046857090958
-0.4809248450937389	0.18717566057211293
-0.4808638099374889	0.1454778570041563
-0.4808027747812389	0.10230130706614059
-0.4807417396249889	0.05808556216834483
-0.4806807044687389	0.013280897662343645
-0.4806196693124889	-0.03165620649832682
-0.4805586341562389	-0.07626776525780889
-0.4804975989999889	-0.12009899780503923
-0.4804365638437389	-0.16270289835919566
-0.4803755286874889	-0.20364491368032142
-0.4803144935312389	-0.24250732179476872
-0.4802534583749889	-0.27889352041091403
-0.4801924232187389	-0.312432153775373
-0.4801313880624889	-0.3427808369129559
-0.4800703529062389	-0.3696297399728519
-0.4800093177499889	-0.3927047390680287
-0.4799482825937389	-0.411770257647954
-0.4798872474374889	-0.42663166923489937
-0.4798262122812389	-0.43713732385304843
-0.4797651771249889	-0.44318014363683544
-0.4797041419687389	-0.44469866196261065
-0.4796431068124889	-0.4416777617599485
-0.4795820716562389	-0.43414878371138305
-0.4795210364999889	-0.4221892439235518
-0.4794600013437389	-0.40592207639956535
-0.4793989661874889	-0.3855143453347587
-0.4793379310312389	-0.36117559794382115
-0.4792768958749889	-0.33315568941816476
-0.4792158607187389	-0.3017422759206996
-0.4791548255624889	-0.26725783613165116
-0.4790937904062389	-0.23005640669463953
-0.4790327552499889	-0.19051996194161955
-0.4789717200937389	-0.1490544605647872
-0.4789106849374889	-0.10608577541218978
-0.4788496497812389	-0.06205520681039007
-0.4787886146249889	-0.017415087222222278
-0.4787275794687389	0.027375925212304236
-0.4786665443124889	0.07185763287602305
-0.4786055091562389	0.11557280015230911
-0.4785444739999889	0.15807212167078885
-0.4784834388437389	0.19891864694600697
-0.4784224036874889	0.23769231227020798
-0.4783613685312389	0.27399439790490376
-0.4783003333749889	0.3074514052541881
-0.4782392982187389	0.3377191146284829
-0.4781782630624889	0.3644859916150671
-0.4781172279062389	0.38747650551364526
-0.4780561927499889	0.4064539116313705
-0.4779951575937389	0.4212226981414553
-0.4779341224374889	0.43163069355146005
-0.4778730872812389	0.43757052189755186
-0.4778120521249889	0.4389808655719101
-0.4777510169687389	0.43584698005302824
-0.4776899818124889	0.4282009818441731
-0.4776289466562389	0.41612145633628495
-0.4775679114999889	0.3997326931843492
-0.4775068763437389	0.37920346111450814
-0.4774458411874889	0.35474520233792617
-0.4773848060312389	0.3266099905589176
-0.4773237708749889	0.295087839745775
-0.4772627357187389	0.2605038073359381
-0.4772017005624889	0.22321462355551788
-0.4771406654062389	0.1836050515319227
-0.4770796302499889	0.14208394209662778
-0.4770185950937389	0.09907996523827217
-0.4769575599374889	0.05503731616034243
-0.4768965247812389	0.01041103965931174
-0.4768354896249889	-0.03433761869170476
-0.4767744544687389	-0.07874591232695519
-0.4767134193124889	-0.12235449397359636
-0.4766523841562389	-0.16471198472012424
-0.4765913489999889	-0.20537978176098287
-0.4765303138437389	-0.24393652329985024
-0.4764692786874889	-0.2799823709993781
-0.4764082435312389	-0.31314336639607343
-0.4763472083749889	-0.3430749929865036
-0.4762861732187389	-0.36946602882582935
-0.4762251380624889	-0.39204161129776677
-0.4761641029062389	-0.41056609632650437
-0.4761030677499889	-0.42484567020728603
-0.4760420325937389	-0.4347300889833833
-0.4759809974374889	-0.4401145692840446
-0.4759199622812389	-0.44094065025943446
-0.4758589271249889	-0.4371969342545953
-0.4757978919687389	-0.428919254308897
-0.4757368568124889	-0.41619021438331777
-0.4756758216562389	-0.39913851634823894
-0.4756147864999889	-0.3779375190960935
-0.4755537513437389	-0.3528035748237106
-0.4754927161874889	-0.3239937624438799
-0.4754316810312389	-0.2918032807270166
-0.4753706458749889	-0.2565624330098292
-0.4753096107187389	-0.21863320179391174
-0.4752485755624889	-0.17840556658521547
-0.4751875404062389	-0.13629347613431375
-0.4751265052499889	-0.09273060521330855
-0.4750654700937389	-0.04816585872280684
-0.4750044349374889	-0.0030587864673346883
-0.4749433997812389	0.04212522002523498
-0.4748823646249889	0.0869196369461327
-0.4748213294687389	0.13086170422473523
-0.4747602943124889	0.1734972044231414
-0.4746992591562389	0.21438504570604372
-0.4746382239999889	0.2531020358705605
-0.4745771888437389	0.28924703280991804
-0.4745161536874889	0.322445256939211
-0.4744551185312389	0.3523521508240323
-0.4743940833749889	0.3786568589480582
-0.4743330482187389	0.4010856237143549
-0.4742720130624889	0.4194044759623984
-0.4742109779062389	0.4334217884972744
-0.4741499427499889	0.4429901991630162
-0.4740889075937389	0.4480082316504021
-0.4740278724374889	0.44842131473732794
-0.4739668372812389	0.4442223829132411
-0.4739058021249889	0.4354520278494157
-0.4738447669687389	0.4221980076160531
-0.4737837318124889	0.4045944771778101
-0.4737226966562389	0.38282054192796733
-0.4736616614999889	0.3570984789258698
-0.4736006263437389	0.32769144036436665
-0.4735395911874889	0.29490077497424044
-0.4734785560312389	0.2590629243355244
-0.4734175208749889	0.22054595113040829
-0.4733564857187389	0.1797457939349062
-0.4732954505624889	0.13708211262257705
-0.4732344154062389	0.0929940585451851
-0.4731733802499889	0.04793567328124327
-0.4731123450937389	0.002371206093513171
-0.4730513099374889	-0.043229610760240254
-0.4729902747812389	-0.0883965436448241
-0.4729292396249889	-0.13266358702241104
-0.4728682044687389	-0.1755738628444372
-0.4728071693124889	-0.21668436482297612
-0.4727461341562389	-0.255570453084896
-0.4726850989999889	-0.2918303987791603
-0.4726240638437389	-0.32508939957064703
-0.4725630286874889	-0.3550035928678416
-0.4725019935312389	-0.38126357632235025
-0.4724409583749889	-0.4035975763648603
-0.4723799232187389	-0.42177443591740815
-0.4723188880624889	-0.4356058146566538
-0.4722578529062389	-0.4449483221383426
-0.4721968177499889	-0.449704981248071
-0.4721357825937389	-0.44982617498124583
-0.4720747474374889	-0.44531031726540227
-0.4720137122812389	-0.43620375998999067
-0.4719526771249889	-0.42260042081652405
-0.4718916419687389	-0.4046407927386396
-0.4718306068124889	-0.38251050797467906
-0.4717695716562389	-0.35643845477164554
-0.4717085364999889	-0.32669439073235834
-0.4716475013437389	-0.293586208698025
-0.4715864661874889	-0.2574566903194344
-0.4715254310312389	-0.21868006461738138
-0.4714643958749889	-0.1776580353789549
-0.4714033607187389	-0.13481569589853873
-0.4713423255624889	-0.09059713154700896
-0.4712812904062389	-0.04546074391576601
-0.4712202552499889	0.00012538858437335305
-0.4711592200937389	0.045688470660471034
-0.4710981849374889	0.09075579447612005
-0.4710371497812389	0.13485974869023737
-0.4709761146249889	0.17754259281989837
-0.4709150794687389	0.21836124107285682
-0.4708540443124889	0.2568919161708056
-0.4707930091562389	0.2927344273888629
-0.4707319739999889	0.32551654016371334
-0.4706709388437389	0.35489764459752565
-0.4706099036874889	0.38057242957015686
-0.4705488685312389	0.402274068325813
-0.4704878333749889	0.4197769325819811
-0.4704267982187389	0.43289905361063613
-0.4703657630624889	0.4415039217502126
-0.4703047279062389	0.4455020433519015
-0.4702436927499889	0.44485177687084887
-0.4701826575937389	0.4395598710544891
-0.4701216224374889	0.4296813809705718
-0.4700605872812389	0.41531908938305007
-0.4699995521249889	0.39662252868097225
-0.4699385169687389	0.3737863584292199
-0.4698774818124889	0.3470484303146172
-0.4698164466562389	0.31668729807658974
-0.4697554114999889	0.28301932755244347
-0.4696943763437389	0.2463954306187901
