Time	Frequency
-0.5000572368437446	-0.05737170541827455
-0.4999962016874946	-0.08064175157885586
-0.4999351665312446	-0.10280574969549441
-0.4998741313749946	-0.12506124672413557
-0.4998130962187446	-0.14598308070009058
-0.4997520610624946	-0.16677441089699246
-0.4996910259062446	-0.18601825839700553
-0.4996299907499946	-0.20492561903561854
-0.4995689555937446	-0.22208987568861194
-0.4995079204374946	-0.23873190059355592
-0.4994468852812446	-0.2534573800894146
-0.4993858501249946	-0.2674989249537255
-0.4993248149687446	-0.27947624762304285
-0.4992637798124946	-0.2906352740088799
-0.4992027446562446	-0.2996111972489749
-0.4991417094999946	-0.30766457365095556
-0.4990806743437446	-0.3134472245750691
-0.4990196391874946	-0.31823532830160967
-0.4989586040312446	-0.320698169124676
-0.4988975688749946	-0.322128207764981
-0.4988365337187446	-0.3212126761247929
-0.4987754985624946	-0.3192606396294053
-0.4987144634062446	-0.31497741268362806
-0.4986534282499946	-0.3096886276284454
-0.4985923930937446	-0.30211746849863896
-0.4985313579374946	-0.2936057369994486
-0.4984703227812446	-0.2828939288042623
-0.4984092876249946	-0.2713392805836846
-0.4983482524687446	-0.2576986817818892
-0.4982872173124946	-0.24334374671012096
-0.4982261821562446	-0.22704653261639254
-0.4981651469999946	-0.21019165260330758
-0.4981041118437446	-0.19156481516581192
-0.4980430766874946	-0.17256196119320222
-0.4979820415312446	-0.15198066158246726
-0.4979210063749946	-0.13122629527509322
-0.4978599712187446	-0.10910627577972087
-0.4977989360624946	-0.0870332811512553
-0.4977379009062446	-0.06382237465957362
-0.4976768657499946	-0.040891253409334735
-0.4976158305937446	-0.017060274174462403
-0.4975547954374946	0.0062502461123636575
-0.4974937602812446	0.030217114626717473
-0.4974327251249946	0.053419865517338884
-0.4973716899687446	0.0770349559470027
-0.4973106548124946	0.09964427652811157
-0.4972496196562446	0.12242641916960906
-0.4971885844999946	0.14396810508943406
-0.4971275493437446	0.1654524860313126
-0.4970665141874946	0.18547350639362792
-0.4970054790312446	0.2052212012906512
-0.4969444438749946	0.2232989959431232
-0.4968834087187446	0.2409059928528596
-0.4968223735624946	0.2566571683156656
-0.4967613384062446	0.2717626803951733
-0.4967003032499946	0.2848509077443792
-0.4966392680937446	0.29714481524925385
-0.4965782329374946	0.30728778834670245
-0.4965171977812446	0.31651705361275567
-0.4964561626249946	0.3234923325262987
-0.4963951274687446	0.329466267393977
-0.4963340923124946	0.3331159165646812
-0.4962730571562446	0.3357101714491629
-0.4962120219999946	0.33594408373758583
-0.4961509868437446	0.3351032820281804
-0.4960899516874946	0.3319011211622321
-0.4960289165312446	0.32764009389020193
-0.4959678813749946	0.3210518070518293
-0.4959068462187446	0.313455387461267
-0.4958458110624946	0.3036002856984615
-0.4957847759062446	0.2928216725985919
-0.4957237407499946	0.2798860867935597
-0.4956627055937446	0.2661438114310651
-0.4956016704374946	0.25037736913240316
-0.4955406352812446	0.23395090992738313
-0.4954796001249946	0.2156615283195513
-0.4954185649687446	0.19688568041957555
-0.4953575298124946	0.17643334198022206
-0.4952964946562446	0.15569144495581702
-0.4952354594999946	0.13348089908310962
-0.4951744243437446	0.11119706058834244
-0.4951133891874946	0.087669620828414
-0.4950523540312446	0.0643001015311514
-0.4949913188749946	0.03992464007344311
-0.4949302837187446	0.015948556637631516
-0.4948692485624946	-0.008788022367599001
-0.4948082134062446	-0.032878466476907245
-0.4947471782499946	-0.05748117480932342
-0.4946861430937446	-0.08119074985867712
-0.4946251079374946	-0.1051666266072381
-0.4945640727812446	-0.1280071855911559
-0.4945030376249946	-0.150875405013791
-0.4944420024687446	-0.17237588867186524
-0.4943809673124946	-0.1936775827960649
-0.4943199321562446	-0.21339367984237959
-0.4942588969999946	-0.23270136561635718
-0.4941978618437446	-0.25022463337755574
-0.4941368266874946	-0.26715101152210746
-0.4940757915312446	-0.28211726000448656
-0.4940147563749946	-0.29632315668780423
-0.4939537212187446	-0.3084199861336338
-0.4938926860624946	-0.31962136174185324
-0.4938316509062446	-0.32859457685907434
-0.4937706157499946	-0.33656840673041327
-0.4937095805937446	-0.342227299278606
-0.4936485454374946	-0.3468161895090208
-0.4935875102812446	-0.3490375082036368
-0.4935264751249946	-0.35015299105419223
-0.4934654399687446	-0.348883526290913
-0.4934044048124946	-0.34650794146284086
-0.4933433696562446	-0.34176568604155594
-0.4932823344999946	-0.3359526069500472
-0.4932212993437446	-0.3278264560307899
-0.4931602641874946	-0.31869965905284764
-0.4930992290312446	-0.30734765161677813
-0.4930381938749946	-0.2950986446078836
-0.4929771587187446	-0.2807447882375543
-0.4929161235624946	-0.26562893902247964
-0.4928550884062446	-0.24855867215383404
-0.4927940532499946	-0.23089004050200373
-0.4927330180937446	-0.2114444340243213
-0.4926719829374946	-0.19158936684371955
-0.4926109477812446	-0.17015817064956926
-0.4925499126249946	-0.14852783108235873
-0.4924888774687446	-0.12554153189491085
-0.4924278423124946	-0.10258350736439333
-0.4923668071562446	-0.07850450154538201
-0.4923057719999946	-0.05469363998938012
-0.4922447368437446	-0.030006783702366934
-0.4921837016874946	-0.005835471340865146
-0.4921226665312446	0.018961860881024317
-0.4920616313749946	0.042993813515764576
-0.4920005962187446	0.0674019237877829
-0.4919395610624946	0.09079752429309575
-0.4918785259062446	0.11432468462376405
-0.4918174907499946	0.13659998014202474
-0.4917564555937446	0.15877251091526387
-0.4916954204374946	0.17946654450119712
-0.4916343852812446	0.19983858691034684
-0.4915733501249946	0.21852288393168376
-0.4915123149687446	0.23668556888282904
-0.4914512798124946	0.25297298879186375
-0.4913902446562446	0.2685628752679849
-0.4913292094999946	0.2821155751018036
-0.4912681743437446	0.2948221742182187
-0.4912071391874946	0.305358602274816
-0.4911461040312446	0.31493077912449924
-0.4910850688749946	0.3222315175311147
-0.4910240337187446	0.32848270190765
-0.4909629985624946	0.3323950096054541
-0.4909019634062446	0.3352070869867236
-0.4908409282499946	0.33564808918149236
-0.4907798930937446	0.3349738649634822
-0.4907188579374946	0.3319323030188221
-0.4906578227812446	0.32779652042185164
-0.4905967876249946	0.3213330236989075
-0.4905357524687446	0.3138318947162663
-0.4904747173124946	0.30407777322212437
-0.4904136821562446	0.29337703579779684
-0.4903526469999946	0.2805316068274725
-0.4902916118437446	0.26686314095365504
-0.4902305766874946	0.25118966156443795
-0.4901695415312446	0.2348467445363912
-0.4901085063749946	0.21666700182910392
-0.4900474712187446	0.19799828127826696
-0.4899864360624946	0.17768598782434308
-0.4899254009062446	0.1570883123808314
-0.4898643657499946	0.13506141488115272
-0.4898033305937446	0.11297165491765399
-0.4897422954374946	0.08968370644312007
-0.4896812602812446	0.066569765900563
-0.4896202251249946	0.042500567163842186
-0.4895591899687446	0.01885168795414529
-0.4894981548124946	-0.005502601307432642
-0.4894371196562446	-0.02918592875316549
-0.4893760844999946	-0.053323070218264365
-0.4893150493437446	-0.07653946962101596
-0.4892540141874946	-0.0999615458410542
-0.4891929790312446	-0.12221913552774002
-0.4891319438749946	-0.14444286098798412
-0.4890709087187446	-0.16526945586438993
-0.4890098735624946	-0.18583619926159217
-0.4889488384062446	-0.2047891192555148
-0.4888878032499946	-0.22327444069284236
-0.4888267680937446	-0.23994969698747445
-0.4887657329374946	-0.25597218628033025
-0.4887046977812446	-0.2700129098125
-0.4886436626249946	-0.28324210748434775
-0.4885826274687446	-0.2943459926360926
-0.4885215923124946	-0.3045093230336448
-0.4884605571562446	-0.31243494398392163
-0.4883995219999946	-0.3193234010359562
-0.4883384868437446	-0.3238952896262505
-0.4882774516874946	-0.3273678640651481
-0.4882164165312446	-0.3284802071104752
-0.4881553813749946	-0.3284668625690384
-0.4880943462187446	-0.326085787246242
-0.4880333110624946	-0.32258899956146647
-0.4879722759062446	-0.3167533410613876
-0.4879112407499946	-0.30984812618558255
-0.4878502055937446	-0.3006687081769272
-0.4877891704374946	-0.2905011428729985
-0.4877281352812446	-0.27815855929314387
-0.4876671001249946	-0.26494283163668486
-0.4876060649687446	-0.24968377468732925
-0.4875450298124946	-0.23369781446856075
-0.4874839946562446	-0.2158300317630198
-0.4874229594999946	-0.1974098209370163
-0.4873619243437446	-0.17729579244440258
-0.4873008891874946	-0.15682845294158326
-0.4872398540312446	-0.13487793607304807
-0.4871788188749946	-0.11279374590804657
-0.4871177837187446	-0.08945532695657525
-0.4870567485624946	-0.06621885075266586
-0.4869957134062446	-0.04197066496864576
-0.4869346782499946	-0.01807113169401397
-0.4868736430937446	0.006589028109193991
-0.4868126079374946	0.030647834628956712
-0.4867515727812446	0.055212821057519054
-0.4866905376249946	0.07892304149602436
-0.4866295024687446	0.1028869036082372
-0.4865684673124946	0.12574710034929376
-0.4865074321562446	0.14861556936670647
-0.4864463969999946	0.17014121346554617
-0.4863853618437446	0.19144199114678662
-0.4863243266874946	0.21117550098493504
-0.4862632915312446	0.23046811347429128
-0.4862022563749946	0.24798842393045248
-0.4861412212187446	0.26487341033691
-0.4860801860624946	0.2798047597981239
-0.4860191509062446	0.2939320230818057
-0.4859581157499946	0.30595182581761715
-0.4858970805937446	0.317027984967341
-0.4858360454374946	0.32587359609818856
-0.4857750102812446	0.3336681498393079
-0.4857139751249946	0.3391424212229977
-0.4856529399687446	0.3434926186682547
-0.4855919048124946	0.3454680725389411
-0.4855308696562446	0.3462823954919291
-0.4854698344999946	0.3447039727310593
-0.4854087993437446	0.3419641280503645
-0.4853477641874946	0.3368504264015126
-0.4852867290312446	0.33061183027091795
-0.4852256938749946	0.3220548174122808
-0.4851646587187446	0.31244553911709466
-0.4851036235624946	0.3006087462800469
-0.4850425884062446	0.2878269462850907
-0.4849815532499946	0.2729421559266778
-0.4849205180937446	0.25725206556414587
-0.4848594829374946	0.2396145947121842
-0.4847984477812446	0.22134110522951903
-0.4847374126249946	0.20130375434862863
-0.4846763774687446	0.1808257476886096
-0.4846153423124946	0.15879153725498665
-0.4845543071562446	0.1365340988995486
-0.4844932719999946	0.11294795651463625
-0.4844322368437446	0.08937357384368896
-0.4843712016874946	0.06471316797019012
-0.4843101665312446	0.04031218788357288
-0.4842491313749946	0.015078009610942744
-0.4841880962187446	-0.009641518778398821
-0.4841270610624946	-0.034936503419930674
-0.4840660259062446	-0.05945937137312238
-0.4840049907499946	-0.084300378949917
-0.4839439555937446	-0.10811491195741206
-0.4838829204374946	-0.13199603245924296
-0.4838218852812446	-0.15460472170546663
-0.4837608501249946	-0.17703944998459564
-0.4836998149687446	-0.19796931755160632
-0.4836387798124946	-0.2185006719498046
-0.4835777446562446	-0.23731313034662346
-0.4835167094999946	-0.25552320369406006
-0.4834556743437446	-0.2718232025710531
-0.4833946391874946	-0.2873418732439604
-0.4833336040312446	-0.3007861616880835
-0.4832725688749946	-0.3132988540973517
-0.4832115337187446	-0.32360317180722714
-0.4831504985624946	-0.3328574398566619
-0.4830894634062446	-0.33980248821832
-0.4830284282499946	-0.3456133332444766
-0.4829673930937446	-0.34904939599239343
-0.4829063579374946	-0.35130317830731783
-0.4828453227812446	-0.3511532974459776
-0.4827842876249946	-0.3498101644476648
-0.4827232524687446	-0.34607181222720146
-0.4826622173124946	-0.341166587539642
-0.4826011821562446	-0.3339117790030454
-0.4825401469999946	-0.3255533066650345
-0.4824791118437446	-0.314927161995313
-0.4824180766874946	-0.30329609420069914
-0.4823570415312446	-0.28951387490845654
-0.4822960063749946	-0.2748589726972081
-0.4822349712187446	-0.25820164521135786
-0.4821739360624946	-0.24083463956580134
-0.4821129009062446	-0.22164307893924887
-0.4820518657499946	-0.20193222216318196
-0.4819908305937446	-0.1806001444986018
-0.4819297954374946	-0.15896256671802528
-0.4818687602812446	-0.13592835631020384
-0.4818077251249946	-0.11282140437790475
-0.4817466899687446	-0.088558999477116
-0.4816856548124946	-0.06447072980701826
-0.4816246196562446	-0.039479738395448744
-0.4815635844999946	-0.014918728361457157
-0.4815025493437446	0.010285946412827911
-0.4814415141874946	0.034801189644559014
-0.4813804790312446	0.059700138175852964
-0.4813194438749946	0.08365200005320425
-0.4812584087187446	0.10773213015848462
-0.4811973735624946	0.13061472165866053
-0.4811363384062446	0.15337998695196264
-0.4810753032499946	0.17470972295834172
-0.4810142680937446	0.19569151524887204
-0.4809532329374946	0.21501723351803007
-0.4808921977812446	0.2337842127371311
-0.4808311626249946	0.2506966340833665
-0.4807701274687446	0.26686375936383006
-0.4807090923124946	0.281004104510176
-0.4806480571562446	0.29424073160264813
-0.4805870219999946	0.3053082427625908
-0.4805259868437446	0.3153450882511695
-0.4804649516874946	0.3231033792287443
-0.4804039165312446	0.3297382057708629
-0.4803428813749946	0.3340202547753064
-0.4802818462187446	0.337122146208992
-0.4802208110624946	0.33783384981834974
-0.4801597759062446	0.3373460151413779
-0.4800987407499946	0.33446820591266835
-0.4800377055937446	0.3304092202045527
-0.4799766704374946	0.3239981283535179
-0.4799156352812446	0.31646159685913733
-0.4798546001249946	0.30664772448820843
-0.4797935649687446	0.2958003749777736
-0.4797325298124946	0.28278581484614324
-0.4796714946562446	0.268864053159489
-0.4796104594999946	0.252918296383227
-0.4795494243437446	0.236223301531767
-0.4794883891874946	0.21767763267397353
-0.4794273540312446	0.198569071632062
-0.4793663188749946	0.17780967080733184
-0.4793052837187446	0.15669819504565585
-0.4792442485624946	0.1341580509915378
-0.4791832134062446	0.11149671763092672
-0.4791221782499946	0.08764656457107771
-0.4790611430937446	0.06392134126680965
-0.4790001079374946	0.03925981036241907
-0.4789390727812446	0.0149793774756339
-0.4788780376249946	-0.009977463796902055
-0.4788170024687446	-0.03429238644132093
-0.4787559673124946	-0.05902189354443454
-0.4786949321562446	-0.08284948942193958
-0.4786338969999946	-0.10683341259353876
-0.4785728618437446	-0.12966173794931654
-0.4785118266874946	-0.15239715757803063
-0.4784507915312446	-0.17373495053376634
-0.4783897563749946	-0.19474484435314662
-0.4783287212187446	-0.21413186916582044
-0.4782676860624946	-0.2329752196399531
-0.4782066509062446	-0.2499919899280772
-0.4781456157499946	-0.2662730819414634
-0.4780845805937446	-0.28054975724654535
-0.4780235454374946	-0.2939265756243846
-0.4779625102812446	-0.30515077817296293
-0.4779014751249946	-0.3153422653670907
-0.4778404399687446	-0.3232657528615347
-0.4777794048124946	-0.3300577927891547
-0.4777183696562446	-0.3345017397782819
-0.4776573344999946	-0.33775176081100433
-0.4775962993437446	-0.3386106183806059
-0.4775352641874946	-0.3382506696459708
-0.4774742290312446	-0.3354944682255984
-0.4774131938749946	-0.33153274382925996
-0.4773521587187446	-0.32520781975473073
-0.4772911235624946	-0.3177285761303278
-0.4772300884062446	-0.3079566858028327
-0.4771690532499946	-0.2971185587875577
-0.4771080180937446	-0.28409440108334477
-0.4770469829374946	-0.27012715517349856
-0.4769859477812446	-0.2541143644910762
-0.4769249126249946	-0.23731413261311393
-0.4768638774687446	-0.21863979405039874
-0.4768028423124946	-0.19936291879768422
-0.4767418071562446	-0.1784107730415496
-0.4766807719999946	-0.1570663675298993
-0.4766197368437446	-0.13426876590545353
-0.4765587016874946	-0.11131016379620087
-0.4764976665312446	-0.08713903066113127
-0.4764366313749946	-0.06305426429616172
-0.4763755962187446	-0.03801119066235919
-0.4763145610624946	-0.013312766142589161
-0.4762535259062446	0.01208154083191737
-0.4761924907499946	0.03686743572579977
-0.4761314555937446	0.06208409123846795
-0.4760704204374946	0.08642867005967073
-0.4760093852812446	0.11094176019267847
-0.4759483501249946	0.1343247858048195
-0.4758873149687446	0.1576224775690599
-0.4758262798124946	0.1795432327346213
-0.4757652446562446	0.20113858947346963
-0.4757042094999946	0.2211264810800591
-0.4756431743437446	0.24056774810735282
-0.4755821391874946	0.2581922639289301
-0.4755211040312446	0.27507246495000126
-0.4754600688749946	0.28995231953225936
-0.4753990337187446	0.30391788725632407
-0.4753379985624946	0.31572911719712415
-0.4752769634062446	0.3264874265147731
-0.4752159282499946	0.33497030788276166
-0.4751548930937446	0.34229593410485193
-0.4750938579374946	0.34726054348498026
-0.4750328227812446	0.3510000907473537
-0.4749717876249946	0.352330402302213
-0.4749107524687446	0.3524058414312139
-0.4748497173124946	0.3500622642356133
-0.4747886821562446	0.3464726752939901
-0.4747276469999946	0.340492986329061
-0.4746666118437446	0.3333146688063918
-0.4746055766874946	0.323813311734356
-0.4745445415312446	0.3131982722765394
-0.4744835063749946	0.30036403480203405
-0.4744224712187446	0.2865368649141873
-0.4743614360624946	0.27062898313140926
-0.4743004009062446	0.25388221596693095
-0.4742393657499946	0.23522498287749397
-0.4741783305937446	0.21591298193398722
-0.4741172954374946	0.1948889856039885
-0.4740562602812446	0.17342054630415665
-0.4739952251249946	0.15046264528940945
-0.4739341899687446	0.1272924178080727
-0.4738731548124946	0.102874669421378
-0.4738121196562446	0.07849361770504731
-0.4737510844999946	0.05312129465617304
-0.4736900493437446	0.028046354847145436
-0.4736290141874946	0.002245324085412829
-0.4735679790312446	-0.02299147426627012
-0.4735069438749946	-0.04868585804173441
-0.4734459087187446	-0.07354864056949452
-0.4733848735624946	-0.09860279488459464
-0.4733238384062446	-0.12256315620375008
-0.4732628032499946	-0.14645660921162856
-0.4732017680937446	-0.1690047598420315
-0.4731407329374946	-0.19124113401457266
-0.4730796977812446	-0.2118967228661343
-0.4730186626249946	-0.2320142540425389
-0.4729576274687446	-0.2503365594332072
-0.4728965923124946	-0.26791789760109913
-0.4728355571562446	-0.28351516825438666
-0.4727745219999946	-0.2981962496141913
-0.4727134868437446	-0.3107340466585046
-0.4726524516874946	-0.32221184863093116
-0.4725914165312446	-0.33142017528024575
-0.4725303813749946	-0.33945917292596717
-0.4724693462187446	-0.3451382500423793
-0.4724083110624946	-0.34957547509690595
-0.4723472759062446	-0.3516000231584532
-0.4722862407499946	-0.35234857362483835
-0.4722252055937446	-0.3506705405017322
-0.4721641704374946	-0.34772148473244957
-0.4721031352812446	-0.3423711252231899
-0.4720421001249946	-0.3357937603723569
-0.4719810649687446	-0.3268790613167416
-0.4719200298124946	-0.3168195096254556
-0.4718589946562446	-0.3045239713141747
-0.4717979594999946	-0.29120214493364005
-0.4717369243437446	-0.2757809411955565
-0.4716758891874946	-0.25948594826652377
-0.4716148540312446	-0.2412605885007816
-0.4715538188749946	-0.22234464188461497
-0.4714927837187446	-0.2016961943691076
-0.4714317485624946	-0.1805672048429157
-0.4713707134062446	-0.1579282646040747
-0.4713096782499946	-0.13504121602501326
-0.4712486430937446	-0.11088676317326875
-0.4711876079374946	-0.08673410486326763
-0.4711265727812446	-0.06157143944362401
-0.4710655376249946	-0.036672648834456985
-0.4710045024687446	-0.011030668125497413
-0.4709434673124946	0.014078754291038317
-0.4708824321562446	0.03966080443596703
-0.4708213969999946	0.06444071238239604
-0.4707603618437446	0.08942466351675636
-0.4706993266874946	0.11334173935957419
-0.4706382915312446	0.13720194957113935
-0.4705772563749946	0.15974104061064193
-0.4705162212187446	0.181975597217851
-0.4704551860624946	0.20265069669314204
-0.4703941509062446	0.22279208551552657
-0.4703331157499946	0.24115668510332755
-0.4702720805937446	0.25878178976608396
-0.4702110454374946	0.2744384296389236
-0.4701500102812446	0.28917756101453485
-0.4700889751249946	0.30178630476240886
-0.4700279399687446	0.31333112046641454
-0.4699669048124946	0.3226168646260549
-0.4699058696562446	0.3307269841778132
-0.4698448344999946	0.336485364316591
-0.4697837993437446	0.3409935455841151
-0.4697227641874946	0.34309534902231764
