Time	Frequency
-0.5000295640312515	0.04227543551048519
-0.49996852887500154	0.06608339740284917
-0.49990749371875154	0.08953413073590319
-0.49984645856250154	0.11250422590468517
-0.49978542340625154	0.13487279202660205
-0.49972438825000154	0.1565219792880796
-0.49966335309375154	0.1773377210934928
-0.49960231793750154	0.19721019637640488
-0.49954128278125154	0.21603452619258134
-0.49948024762500154	0.23371122502002864
-0.49941921246875154	0.25014679397722134
-0.49935817731250154	0.2652541651723784
-0.49929714215625154	0.2789531823432511
-0.49923610700000154	0.2911710168926089
-0.49917507184375154	0.3018425431519886
-0.49911403668750154	0.31091070532605725
-0.49905300153125154	0.3183267784871191
-0.49899196637500154	0.3240506871755613
-0.49893093121875154	0.3280511426479614
-0.49886989606250154	0.33030590018297623
-0.49880886090625154	0.33080178561222606
-0.49874782575000154	0.32953486213152877
-0.49868679059375154	0.32651036816815315
-0.49862575543750154	0.32174278056253947
-0.49856472028125154	0.3152556611848981
-0.49850368512500154	0.3070816186543468
-0.49844264996875154	0.29726207105951674
-0.49838161481250154	0.28584710113373607
-0.49832057965625154	0.27289514062208775
-0.49825954450000154	0.2584727226671801
-0.49819850934375154	0.2426540962758098
-0.49813747418750154	0.2255208825214983
-0.49807643903125154	0.20716160719295074
-0.49801540387500154	0.1876713035626168
-0.49795436871875154	0.16715095675627434
-0.49789333356250154	0.1457070294601992
-0.49783229840625154	0.12345088827370282
-0.49777126325000154	0.10049821059608577
-0.49771022809375154	0.07696843806461356
-0.49764919293750154	0.05298407805818264
-0.49758815778125154	0.028670142599819457
-0.49752712262500154	0.004153437549742796
-0.49746608746875154	-0.02043805729779302
-0.49740505231250154	-0.04497588333697797
-0.49734401715625154	-0.06933174076076383
-0.49728298200000154	-0.09337820336226368
-0.49722194684375154	-0.1169893445964145
-0.49716091168750154	-0.14004140940374415
-0.49709987653125154	-0.16241346691928035
-0.49703884137500154	-0.18398803833717214
-0.49697780621875154	-0.20465170507601466
-0.49691677106250154	-0.2242957294960281
-0.49685573590625154	-0.2428165787882327
-0.49679470075000154	-0.26011653303404186
-0.49673366559375154	-0.27610412136914436
-0.49667263043750154	-0.290694682200441
-0.49661159528125154	-0.30381073858057456
-0.49655056012500154	-0.31538247867498026
-0.49648952496875154	-0.3253480494629889
-0.49642848981250154	-0.3336539472949848
-0.49636745465625154	-0.3402552667407176
-0.49630641950000154	-0.3451159513036815
-0.49624538434375154	-0.3482089947224105
-0.49618434918750154	-0.3495165702003847
-0.49612331403125154	-0.3490301459946917
-0.49606227887500154	-0.3467505244077183
-0.49600124371875154	-0.3426878522700079
-0.49594020856250154	-0.3368615638877073
-0.49587917340625154	-0.3293002969477422
-0.49581813825000154	-0.32004173556927973
-0.49575710309375154	-0.30913243304023197
-0.49569606793750154	-0.2966275607050135
-0.49563503278125154	-0.28259063726337763
-0.49557399762500154	-0.2670931907043427
-0.49551296246875154	-0.2502143997383193
-0.49545192731250154	-0.23204067522346977
-0.49539089215625154	-0.21266522674261748
-0.49532985700000154	-0.19218756379673818
-0.49526882184375154	-0.17071298788695743
-0.49520778668750154	-0.14835205613960475
-0.49514675153125154	-0.1252199762610916
-0.49508571637500154	-0.10143604409766309
-0.49502468121875154	-0.07712300773165777
-0.49496364606250154	-0.05240640794077232
-0.49490261090625154	-0.02741397091946307
-0.49484157575000154	-0.0022748826797587365
-0.49478054059375154	0.02288082637373997
-0.49471950543750154	0.04792300267114852
-0.49465847028125154	0.07272203097089243
-0.49459743512500154	0.09714950448695771
-0.49453639996875154	0.12107892865256893
-0.49447536481250154	0.14438633584775237
-0.49441432965625154	0.1669509784789437
-0.49435329450000154	0.18865593416207688
-0.49429225934375154	0.2093887323278388
-0.49423122418750154	0.2290419290774708
-0.49417018903125154	0.24751369331178621
-0.49410915387500154	0.26470832215189793
-0.49404811871875154	0.28053675117674776
-0.49398708356250154	0.2949170284298225
-0.49392604840625154	0.30777473423516616
-0.49386501325000154	0.3190433809617006
-0.49380397809375154	0.32866477033301733
-0.49374294293750154	0.33658928418858824
-0.49368190778125154	0.34277616110773124
-0.49362087262500154	0.3471937152892611
-0.49355983746875154	0.3498194860757528
-0.49349880231250154	0.3506403897680368
-0.49343776715625154	0.3496527570713793
-0.49337673200000154	0.3468623907269889
-0.49331569684375154	0.3422845032585051
-0.49325466168750154	0.33594367699496447
-0.49319362653125154	0.3278736987144062
-0.49313259137500154	0.3181174300992881
-0.49307155621875154	0.30672653797862237
-0.49301052106250154	0.29376127691051457
-0.49294948590625154	0.27929012394401487
-0.49288845075000154	0.263389473885868
-0.49282741559375154	0.24614319249466432
-0.49276638043750154	0.22764222685942892
-0.49270534528125154	0.20798407658048754
-0.49264431012500154	0.18727234047319577
-0.49258327496875154	0.16561613777506515
-0.49252223981250154	0.14312953015500762
-0.49246120465625154	0.1199309715277818
-0.49240016950000154	0.0961426292621069
-0.49233913434375154	0.07188978962296835
-0.49227809918750154	0.04730016704554582
-0.49221706403125154	0.022503266861332027
-0.49215602887500154	-0.0023703525306016738
-0.49209499371875154	-0.02718966283653513
-0.49203395856250154	-0.051823988204031654
-0.49197292340625154	-0.07614357235489094
-0.49191188825000154	-0.10002034344350459
-0.49185085309375154	-0.12332852952739459
-0.49178981793750154	-0.14594537875058222
-0.49172878278125154	-0.16775175138258938
-0.49166774762500154	-0.18863278905013078
-0.49160671246875154	-0.20847850790060107
-0.49154567731250154	-0.22718434434049614
-0.49148464215625154	-0.24465180067271927
-0.49142360700000154	-0.26078883529650987
-0.49136257184375154	-0.27551048392611954
-0.49130153668750154	-0.2887391934509735
-0.49124050153125154	-0.30040532843832973
-0.49117946637500154	-0.31044746618712465
-0.49111843121875154	-0.3188127769068104
-0.49105739606250154	-0.32545727522400575
-0.49099636090625154	-0.33034606359306196
-0.49093532575000154	-0.33345353145510115
-0.49087429059375154	-0.33476346616147024
-0.49081325543750154	-0.3342691811150977
-0.49075222028125154	-0.3319735087749977
-0.49069118512500154	-0.32788883991652296
-0.49063014996875154	-0.3220370101625542
-0.49056911481250154	-0.31444923937474084
-0.49050807965625154	-0.30516592317106767
-0.49044704450000154	-0.2942364648906064
-0.49038600934375154	-0.28171898798451883
-0.49032497418750154	-0.2676800511871458
-0.49026393903125154	-0.252194288784008
-0.49020290387500154	-0.23534403044481222
-0.49014186871875154	-0.21721885688337025
-0.49008083356250154	-0.19791515377639965
-0.49001979840625154	-0.17753556841490672
-0.48995876325000154	-0.15618849820942363
-0.48989772809375154	-0.13398752916094384
-0.48983669293750154	-0.11105079153048349
-0.48977565778125154	-0.0875003919785597
-0.48971462262500154	-0.06346173712846957
-0.48965358746875154	-0.039062880013808504
-0.48959255231250154	-0.014433843659668133
-0.48953151715625154	0.010294060918254255
-0.48947048200000154	0.03498893758567342
-0.48940944684375154	0.05951898895597075
-0.48934841168750154	0.083753235863746
-0.48928737653125154	0.10756218094041085
-0.48922634137500154	0.13081852852974546
-0.48916530621875154	0.15339781514207715
-0.48910427106250154	0.17517913677447644
-0.48904323590625154	0.19604570688593106
-0.48898220075000154	0.21588555057305764
-0.48892116559375154	0.23459206039495328
-0.48886013043750154	0.2520645660644801
-0.48879909528125154	0.2682088970736343
-0.48873806012500154	0.28293783718186466
-0.48867702496875154	0.2961716547190815
-0.48861598981250154	0.3078384569083941
-0.48855495465625154	0.31787464921894787
-0.48849391950000154	0.32622520386625664
-0.48843288434375154	0.3328440244074971
-0.48837184918750154	0.33769413962727957
-0.48831081403125154	0.3407479457861778
-0.48824977887500154	0.341987332611809
-0.48818874371875154	0.34140379950851163
-0.48812770856250154	0.33899850005380067
-0.48806667340625154	0.3347822429679345
-0.48800563825000154	0.3287754484465185
-0.48794460309375154	0.32100803040972836
-0.48788356793750154	0.31151926545598624
-0.48782253278125154	0.30035756603087715
-0.48776149762500154	0.2875802634996629
-0.48770046246875154	0.2732532616825562
-0.48763942731250154	0.25745075987674754
-0.48757839215625154	0.24025479013028428
-0.48751735700000154	0.22175485604592085
-0.48745632184375154	0.20204741887189068
-0.48739528668750154	0.18123540258574036
-0.48733425153125154	0.15942767637303784
-0.48727321637500154	0.13673843781373782
-0.48721218121875154	0.11328665844881239
-0.48715114606250154	0.08919541289240351
-0.48709011090625154	0.06459128826627548
-0.48702907575000154	0.03960362480846647
-0.48696804059375154	0.014363950148032661
-0.48690700543750154	-0.010994833907106623
-0.48684597028125154	-0.03633905700449969
-0.48678493512500154	-0.061535050800267006
-0.48672389996875154	-0.08644982682663661
-0.48666286481250154	-0.1109517887606948
-0.48660182965625154	-0.13491144109774
-0.48654079450000154	-0.1582020458567619
-0.48647975934375154	-0.18070034649980524
-0.48641872418750154	-0.20228714368926481
-0.48635768903125154	-0.22284803814208823
-0.48629665387500154	-0.24227391663402176
-0.48623561871875154	-0.26046164805065347
-0.48617458356250154	-0.27731453997111044
-0.48611354840625154	-0.29274292699353005
-0.48605251325000154	-0.3066645938690289
-0.48599147809375154	-0.31900525067990715
-0.48593044293750154	-0.3296989197455591
-0.48586940778125154	-0.3386882911129641
-0.48580837262500154	-0.3459250230961897
-0.48574733746875154	-0.3513700186342362
-0.48568630231250154	-0.3549936296992378
-0.48562526715625154	-0.35677581433220895
-0.48556423200000154	-0.3567062605887611
-0.48550319684375154	-0.3547844341412213
-0.48544216168750154	-0.35101959814921735
-0.48538112653125154	-0.34543075759354613
-0.48532009137500154	-0.33804657592790893
-0.48525905621875154	-0.32890521745071555
-0.48519802106250154	-0.31805415844579304
-0.48513698590625154	-0.30554993454699975
-0.48507595075000154	-0.2914578476074851
-0.48501491559375154	-0.2758516235135942
-0.48495388043750154	-0.2588130359397587
-0.48489284528125154	-0.24043144463443566
-0.48483181012500154	-0.22080337469362105
-0.48477077496875154	-0.20003195906305335
-0.48470973981250154	-0.1782264261334135
-0.48464870465625154	-0.15550151354274502
-0.48458766950000154	-0.13197686308148845
-0.48452663434375154	-0.10777637643031018
-0.48446559918750154	-0.0830275749709465
-0.48440456403125154	-0.057860936566693874
-0.48434352887500154	-0.032409151257853215
-0.48428249371875154	-0.006806494970075806
-0.48422145856250154	0.01881196689246487
-0.48416042340625154	0.0443110159725295
-0.48409938825000154	0.06955606019366803
-0.48403835309375154	0.09441381527220143
-0.48397731793750154	0.11875302758756721
-0.48391628278125154	0.14244517011733018
-0.48385524762500154	0.16536511421532704
-0.48379421246875154	0.18739183306226556
-0.48373317731250154	0.20840898057225837
-0.48367214215625154	0.22830559108551615
-0.48361110700000154	0.24697659654668838
-0.48355007184375154	0.2643234678994813
-0.48348903668750154	0.280254639236755
-0.48342800153125154	0.2946861125785789
-0.48336696637500154	0.30754180353019134
-0.48330593121875154	0.31875403144846404
-0.48324489606250154	0.3282638181010042
-0.48318386090625154	0.3360212598471439
-0.48312282575000154	0.3419857527994808
-0.48306179059375154	0.3461262360572653
-0.48300075543750154	0.34842135927567874
-0.48293972028125154	0.3488595871444398
-0.48287868512500154	0.34743928296030513
-0.48281764996875154	0.3441686997782971
-0.48275661481250154	0.33906596487408514
-0.48269557965625154	0.33215895512082644
-0.48263454450000154	0.32348519039760476
-0.48257350934375154	0.3130915987132687
-0.48251247418750154	0.301034297305029
-0.48245143903125154	0.28737827723572407
-0.48239040387500154	0.27219708415927996
-0.48232936871875154	0.2555723969173678
-0.48226833356250154	0.23759362040339085
-0.48220729840625154	0.21835739943877086
-0.48214626325000154	0.19796710962098427
-0.48208522809375154	0.1765323063301053
-0.48202419293750154	0.15416814380714103
-0.48196315778125154	0.13099474954587975
-0.48190212262500154	0.10713661565731128
-0.48184108746875154	0.08272189400144019
-0.48178005231250154	0.057881749600168286
-0.48171901715625154	0.03274962374017602
-0.48165798200000154	0.007460584621219797
-0.48159694684375154	-0.01784949539957354
-0.48153591168750154	-0.043044552420631293
-0.48147487653125154	-0.0679891396852252
-0.48141384137500154	-0.09254913103683803
-0.48135280621875154	-0.1165924093157083
-0.48129177106250154	-0.13998961966361168
-0.48123073590625154	-0.16261483277405883
-0.48116970075000154	-0.184346226449426
-0.48110866559375154	-0.20506674710839978
-0.48104763043750154	-0.22466473185982325
-0.48098659528125154	-0.24303450312555847
-0.48092556012500154	-0.26007694907865603
-0.48086452496875154	-0.27570005760862565
-0.48080348981250154	-0.2898193952314843
-0.48074245465625154	-0.30235857737080435
-0.48068141950000154	-0.3132496864823221
-0.48062038434375154	-0.32243361626936173
-0.48055934918750154	-0.32986042123114523
-0.48049831403125154	-0.3354895707354431
-0.48043727887500154	-0.3392901675822922
-0.48037624371875154	-0.34124113549566787
-0.48031520856250154	-0.3413313212125072
-0.48025417340625154	-0.339559565442257
-0.48019313825000154	-0.33593471518669643
-0.48013210309375154	-0.3304755765594637
-0.48007106793750154	-0.32321082368813253
-0.48001003278125154	-0.31417884980230537
-0.47994899762500154	-0.3034275574759763
-0.47988796246875154	-0.29101412185255787
-0.47982692731250154	-0.27700467729104583
-0.47976589215625154	-0.2614739686052284
-0.47970485700000154	-0.24450496241480324
-0.47964382184375154	-0.2261883894537655
-0.47958278668750154	-0.20662228622252393
-0.47952175153125154	-0.18591144897726467
-0.47946071637500154	-0.16416689580785568
-0.47939968121875154	-0.1415052499002436
-0.47933864606250154	-0.11804814697042776
-0.47927761090625154	-0.09392156025115311
-0.47921657575000154	-0.06925513206060195
-0.47915554059375154	-0.044181491098206155
-0.47909450543750154	-0.018835529136726033
-0.47903347028125154	0.006646309389625729
-0.47897243512500154	0.03212677947726928
-0.47891139996875154	0.057468547380924107
-0.47885036481250154	0.08253493656200178
-0.47878932965625154	0.10719068830234768
-0.47872829450000154	0.1313026332238897
-0.47866725934375154	0.15474047524537135
-0.47860622418750154	0.1773774112998368
-0.47854518903125154	0.19909092200493747
-0.47848415387500154	0.21976331732673163
-0.47842311871875154	0.2392824565694525
-0.47836208356250154	0.25754231445420545
-0.47830104840625154	0.2744435643260235
-0.47824001325000154	0.2898941157419628
-0.47817897809375154	0.3038096086653343
-0.47811794293750154	0.3161138902225062
-0.47805690778125154	0.3267393934828582
-0.47799587262500154	0.33562754507160925
-0.47793483746875154	0.34272905626514993
-0.47787380231250154	0.3480042108222974
-0.47781276715625154	0.35142307185271304
-0.47775173200000154	0.3529656659546227
-0.47769069684375154	0.3526220733683245
-0.47762966168750154	0.3503925074615501
-0.47756862653125154	0.3462873121181966
-0.47750759137500154	0.34032690913342256
-0.47744655621875154	0.33254170194108595
-0.47738552106250154	0.32297191445787027
-0.47732448590625154	0.3116673799761153
-0.47726345075000154	0.29868727959500024
-0.47720241559375154	0.2840998382593658
-0.47714138043750154	0.26798194460995595
-0.47708034528125154	0.25041876326057855
-0.47701931012500154	0.2315032716324374
-0.47695827496875154	0.2113357723894895
-0.47689723981250154	0.1900233365808905
-0.47683620465625154	0.1676792707606313
-0.47677516950000154	0.14442246953128757
-0.47671413434375154	0.12037681356354464
-0.47665309918750154	0.09567048563749744
-0.47659206403125154	0.07043529666617777
-0.47653102887500154	0.04480597288172546
-0.47646999371875154	0.018919409439737692
-0.47640895856250154	-0.007085988458102599
-0.47634792340625154	-0.03307115429116669
-0.47628688825000154	-0.05889701871610939
-0.47622585309375154	-0.08442531719577102
-0.47616481793750154	-0.10951928653935408
-0.47610378278125154	-0.13404445184558328
-0.47604274762500154	-0.1578693001777291
-0.47598171246875154	-0.18086602664748466
-0.47592067731250154	-0.2029112067999435
-0.47585964215625154	-0.22388648350548226
-0.47579860700000154	-0.2436791535614614
-0.47573757184375154	-0.2621828628874949
-0.47567653668750154	-0.27929808824190633
-0.47561550153125154	-0.2949327641206009
-0.47555446637500154	-0.309002703619606
-0.47549343121875154	-0.3214321211279985
-0.47543239606250154	-0.3321539945848048
-0.47537136090625154	-0.34111047245613657
-0.47531032575000154	-0.34825315282400393
-0.47524929059375154	-0.35354337641198075
-0.47518825543750154	-0.3569524246045326
-0.47512722028125154	-0.3584616886305805
-0.47506618512500154	-0.3580627654230699
-0.47500514996875154	-0.35575751408350514
-0.47494411481250154	-0.3515580526397831
-0.47488307965625154	-0.34548668685999745
-0.47482204450000154	-0.33757581411147947
-0.47476100934375154	-0.32786773008453196
-0.47469997418750154	-0.3164144272809441
-0.47463893903125154	-0.3032773014872279
-0.47457790387500154	-0.28852684096701064
-0.47451686871875154	-0.27224223308868645
-0.47445583356250154	-0.2545109697390333
-0.47439479840625154	-0.23542832739452324
-0.47433376325000154	-0.21509693371457175
-0.47427272809375154	-0.1936261293254174
-0.47421169293750154	-0.17113146424558903
-0.47415065778125154	-0.14773399623802974
-0.47408962262500154	-0.1235597318049432
-0.47402858746875154	-0.09873884249115894
-0.47396755231250154	-0.07340507452305774
-0.47390651715625154	-0.04769491549150995
-0.47384548200000154	-0.021746979558740394
-0.47378444684375154	0.00429886394232882
-0.47372341168750154	0.030302140445936623
-0.47366237653125154	0.05612260189861995
-0.47360134137500154	0.08162094305251252
-0.47354030621875154	0.10665956358090425
-0.47347927106250154	0.13110333147459746
-0.47341823590625154	0.1548202849258116
-0.47335720075000154	0.17768237471558776
-0.47329616559375154	0.19956612689224876
-0.47323513043750154	0.2203533589007008
-0.47317409528125154	0.23993176093417623
-0.47311306012500154	0.2581955662995354
-0.47305202496875154	0.27504607216370297
-0.47299098981250154	0.29039222715165497
-0.47292995465625154	0.3041510804804925
-0.47286891950000154	0.31624827208330103
-0.47280788434375154	0.3266184106954545
-0.47274684918750154	0.33520545683982733
-0.47268581403125154	0.3419630019207511
-0.47262477887500154	0.346854553678657
-0.47256374371875154	0.34985371054005215
-0.47250270856250154	0.350944331526719
-0.47244167340625154	0.3501206106764895
-0.47238063825000154	0.34738712434578256
-0.47231960309375154	0.34275880524509383
-0.47225856793750154	0.3362608672090782
-0.47219753278125154	0.32792867593633673
-0.47213649762500154	0.317807552798507
-0.47207546246875154	0.30595254560608653
-0.47201442731250154	0.2924281263723724
-0.47195339215625154	0.277307846036726
-0.47189235700000154	0.2606739430277031
-0.47183132184375154	0.24261689653600416
-0.47177028668750154	0.22323494143398195
-0.47170925153125154	0.2026335479982226
-0.47164821637500154	0.18092482320470063
-0.47158718121875154	0.15822695747863377
-0.47152614606250154	0.13466351213939573
-0.47146511090625154	0.11036283255302072
-0.47140407575000154	0.0854572944581893
-0.47134304059375154	0.06008260560748654
-0.47128200543750154	0.034377073033323845
-0.47122097028125154	0.008480848639217782
-0.47115993512500154	-0.01746481004185606
-0.47109889996875154	-0.043318367320113904
-0.47103786481250154	-0.06893867971837603
-0.47097682965625154	-0.09418588824329004
-0.47091579450000154	-0.11892204646437812
-0.47085475934375154	-0.14301198292384462
-0.47079372418750154	-0.16632395919305692
-0.47073268903125154	-0.18873044471615408
-0.47067165387500154	-0.21010877024440977
-0.47061061871875154	-0.23034181145363122
-0.47054958356250154	-0.2493186549945528
-0.47048854840625154	-0.2669351475242545
