Time	Frequency
-0.5000355243437582	-0.26697856719442725
-0.4999744891875082	-0.2847220311722035
-0.4999134540312582	-0.3007660899974831
-0.4998524188750082	-0.31501587394172903
-0.4997913837187582	-0.3273871930062677
-0.4997303485625082	-0.3378071120188802
-0.4996693134062582	-0.3462143128946464
-0.4996082782500082	-0.3525595489176742
-0.4995472430937582	-0.3568058591226399
-0.4994862079375082	-0.3589288723647761
-0.4994251727812582	-0.358916889078878
-0.4993641376250082	-0.35677100854757887
-0.4993031024687582	-0.35250509023131205
-0.4992420673125082	-0.3461456917782569
-0.4991810321562582	-0.3377319134630152
-0.4991199970000082	-0.32731515066066036
-0.4990589618437582	-0.31495882531461744
-0.4989979266875082	-0.300737955627217
-0.4989368915312582	-0.2847387692818483
-0.4988758563750082	-0.2670581319784179
-0.4988148212187582	-0.2478030283258258
-0.4987537860625082	-0.22708985721334207
-0.4986927509062582	-0.205043795787478
-0.4986317157500082	-0.1817980082224949
-0.4985706805937582	-0.15749287780171373
-0.4985096454375082	-0.13227514262261775
-0.4984486102812582	-0.10629702712960774
-0.4983875751250082	-0.07971533800631611
-0.4983265399687582	-0.05269049157760232
-0.4982655048125082	-0.02538559929459381
-0.4982044696562582	0.002034570207683442
-0.4981434345000082	0.029404519879653878
-0.4980823993437582	0.05655907145912053
-0.4980213641875082	0.0833343233485622
-0.4979603290312582	0.10956866509580653
-0.4978992938750082	0.13510373571900877
-0.4978382587187582	0.15978535773307737
-0.4977772235625082	0.18346452567577642
-0.4977161884062582	0.20599821723230977
-0.4976551532500082	0.227250368975427
-0.4975941180937582	0.24709256944527472
-0.4975330829375082	0.26540496364105753
-0.4974720477812582	0.28207685849472075
-0.4974110126250082	0.29700749898274187
-0.4973499774687582	0.31010659692682524
-0.4972889423125082	0.3212949294926481
-0.4972279071562582	0.33050480853845526
-0.4971668720000082	0.33768046255251727
-0.4971058368437582	0.34277844379820244
-0.4970448016875082	0.3457678095388276
-0.4969837665312582	0.34663040878000834
-0.4969227313750082	0.3453608957980355
-0.4968616962187582	0.34196687300212625
-0.4968006610625082	0.336468744310493
-0.4967396259062582	0.32889970158358633
-0.4966785907500082	0.31930543283558543
-0.4966175555937582	0.30774393623322166
-0.4965565204375082	0.29428511065227686
-0.4964954852812582	0.2790103841012651
-0.4964344501250082	0.2620121992101294
-0.4963734149687582	0.24339347054969854
-0.4963123798125082	0.22326698154152272
-0.4962513446562582	0.20175467608278927
-0.4961903095000082	0.17898696693234575
-0.4961292743437582	0.15510190538707763
-0.4960682391875082	0.13024440913061364
-0.4960072040312582	0.10456532595131146
-0.4959461688750082	0.07822058166732186
-0.4958851337187582	0.05137020947960777
-0.4958240985625082	0.0241773848889922
-0.4957630634062582	-0.003192529677281249
-0.4957020282500082	-0.03057304086256866
-0.4956409930937582	-0.05779743785199023
-0.4955799579375082	-0.08469991093407751
-0.4955189227812582	-0.11111646486316644
-0.4954578876250082	-0.1368859509461645
-0.4953968524687582	-0.16185103701130144
-0.4953358173125082	-0.18585916784323914
-0.4952747821562582	-0.20876346675406202
-0.4952137470000082	-0.23042364868281115
-0.4951527118437582	-0.2507068826258943
-0.4950916766875082	-0.26948853894443114
-0.4950306415312582	-0.28665306080921477
-0.4949696063750082	-0.30209451681284494
-0.4949085712187582	-0.31571740191006187
-0.4948475360625082	-0.3274371025217146
-0.4947865009062582	-0.33718049034439695
-0.4947254657500082	-0.3448863272543216
-0.4946644305937582	-0.35050566920415777
-0.4946033954375082	-0.3540021559892291
-0.4945423602812582	-0.35535224634917373
-0.4944813251250082	-0.35454536930380925
-0.4944202899687582	-0.35158399102453963
-0.4943592548125082	-0.34648361319768844
-0.4942982196562582	-0.3392726884497701
-0.4942371845000082	-0.32999245410217365
-0.4941761493437582	-0.31869669362331665
-0.4941151141875082	-0.305451420982833
-0.4940540790312582	-0.29033448581212196
-0.4939930438750082	-0.2734351189674678
-0.4939320087187582	-0.2548533839812765
-0.4938709735625082	-0.2346996125893173
-0.4938099384062582	-0.21309368802696255
-0.4937489032500082	-0.19016440727212972
-0.4936878680937582	-0.16604862367672518
-0.4936268329375082	-0.1408904912105522
-0.4935657977812582	-0.11484055514252503
-0.4935047626250082	-0.0880548689754752
-0.4934437274687582	-0.060694057257965464
-0.4933826923125082	-0.03292232293329928
-0.4933216571562582	-0.004906489000621606
-0.4932606220000082	0.023185032506321177
-0.4931995868437582	0.05118324086294131
-0.4931385516875082	0.07891959026321324
-0.4930775165312582	0.1062269598355264
-0.4930164813750082	0.13294075205156677
-0.4929554462187582	0.15889978085826859
-0.4928944110625082	0.18394733338731267
-0.4928333759062582	0.20793208814557212
-0.4927723407500082	0.23070901807913888
-0.4927113055937582	0.25214031229569545
-0.4926502704375082	0.272096161005151
-0.4925892352812582	0.29045559700968804
-0.4925282001250082	0.30710718390068287
-0.4924671649687582	0.3219497492186182
-0.4924061298125082	0.33489293558423344
-0.4923450946562582	0.34585783258247416
-0.4922840595000082	0.3547773717231099
-0.4922230243437582	0.36159682804521753
-0.4921619891875082	0.3662740763011972
-0.4921009540312582	0.36877992458922787
-0.4920399188750082	0.36909823684583287
-0.4919788837187582	0.367226082802516
-0.4919178485625082	0.3631737379498714
-0.4918568134062582	0.3569646325231583
-0.4917957782500082	0.34863522816743764
-0.4917347430937582	0.33823478120838324
-0.4916737079375082	0.32582508500872104
-0.4916126727812582	0.3114800544304735
-0.4915516376250082	0.29528534583961674
-0.4914906024687582	0.27733777675882854
-0.4914295673125082	0.2577448132534032
-0.4913685321562582	0.23662385506544767
-0.4913074970000082	0.21410159967427675
-0.4912464618437582	0.19031321532129647
-0.4911854266875082	0.16540157750627624
-0.4911243915312582	0.13951637564195504
-0.4910633563750082	0.11281322375088819
-0.4910023212187582	0.08545270301634263
-0.4909412860625082	0.05759943419186837
-0.4908802509062582	0.029421017707061445
-0.4908192157500082	0.0010870757235278755
-0.4907581805937582	-0.027231797669309596
-0.4906971454375082	-0.05536508189775505
-0.4906361102812582	-0.08314333102632826
-0.4905750751250082	-0.11039923862402377
-0.4905140399687582	-0.13696862483075622
-0.4904530048125082	-0.16269144185418882
-0.4903919696562582	-0.1874127654517921
-0.4903309345000082	-0.21098368953915586
-0.4902698993437582	-0.23326227914856673
-0.4902088641875082	-0.2541144202821765
-0.4901478290312582	-0.27341461146930796
-0.4900867938750082	-0.2910467673960755
-0.4900257587187582	-0.3069049016185727
-0.4899647235625082	-0.3208937784708902
-0.4899036884062582	-0.33292949496091606
-0.4898426532500082	-0.3429400046634444
-0.4897816180937582	-0.35086553276514404
-0.4897205829375082	-0.35665898453052164
-0.4896595477812582	-0.3602861821452153
-0.4895985126250082	-0.3617261359792893
-0.4895374774687582	-0.3609711202822546
-0.4894764423125082	-0.35802676769160546
-0.4894154071562582	-0.352912011428479
-0.4893543720000082	-0.3456589880398752
-0.4892933368437582	-0.3363128443465128
-0.4892323016875082	-0.3249314576965763
-0.4891712665312582	-0.3115851034711169
-0.4891102313750082	-0.29635601408643
-0.4890491962187582	-0.27933789335982573
-0.4889881610625082	-0.2606353545369793
-0.4889271259062582	-0.2403632553442042
-0.4888660907500082	-0.21864605334896903
-0.4888050555937582	-0.19561699955592485
-0.4887440204375082	-0.17141735967362878
-0.4886829852812582	-0.14619555564421688
-0.4886219501250082	-0.12010623750490824
-0.4885609149687582	-0.09330936715252494
-0.4884998798125082	-0.06596924829671155
-0.4884388446562582	-0.038253495595841444
-0.4883778095000082	-0.010332041744819775
-0.4883167743437582	0.01762390127384355
-0.4882557391875082	0.045442902789398755
-0.4881947040312582	0.07295435004805872
-0.4881336688750082	0.0999894845994301
-0.4880726337187582	0.12638245444950713
-0.4880115985625082	0.15197128517437877
-0.4879505634062582	0.1765989172332552
-0.4878895282500082	0.20011414975375905
-0.4878284930937582	0.22237255274223616
-0.4877674579375082	0.24323738597373767
-0.4877064227812582	0.26258037116061694
-0.4876453876250082	0.2802825906594383
-0.4875843524687582	0.2962350816602692
-0.4875233173125082	0.3103396341365391
-0.4874622821562582	0.3225092941245485
-0.4874012470000082	0.3326689874632659
-0.4873402118437582	0.3407558922567046
-0.4872791766875082	0.3467199253095714
-0.4872181415312582	0.3505239696034115
-0.4871571063750082	0.35214416613366967
-0.4870960712187582	0.35157003366059564
-0.4870350360625082	0.34880454879115036
-0.4869740009062582	0.3438641459952482
-0.4869129657500082	0.3367785911643887
-0.4868519305937582	0.327590855235893
-0.4867908954375082	0.3163567951129126
-0.4867298602812582	0.303144890504176
-0.4866688251250082	0.2880357491343836
-0.4866077899687582	0.27112171302819427
-0.4865467548125082	0.2525061958786663
-0.4864857196562582	0.23230316413946492
-0.4864246845000082	0.21063632689976025
-0.4863636493437582	0.18763851491817837
-0.4863026141875082	0.16345073144202182
-0.4862415790312582	0.13822143016375835
-0.4861805438750082	0.11210548996182991
-0.4861195087187582	0.08526335293897372
-0.4860584735625082	0.05786001353427066
-0.4859974384062582	0.030063996490866593
-0.4859364032500082	0.0020463583034365847
-0.4858753680937582	-0.026020403911914358
-0.4858143329375082	-0.053963336611610284
-0.4857532977812582	-0.08161019109477048
-0.4856922626250082	-0.10879037969539003
-0.4856312274687582	-0.1353360820160064
-0.4855701923125082	-0.16108326710620668
-0.4855091571562582	-0.18587269059966705
-0.4854481220000082	-0.20955085006966984
-0.4853870868437582	-0.23197101922492175
-0.4853260516875082	-0.2529940220017625
-0.4852650165312582	-0.2724892025235459
-0.4852039813750082	-0.2903351628358413
-0.4851429462187582	-0.30642056577849575
-0.4850819110625082	-0.32064476320347907
-0.4850208759062582	-0.33291848152339903
-0.4849598407500082	-0.34316432486167586
-0.4848988055937582	-0.35131730315835236
-0.4848377704375082	-0.35732520180268607
-0.4847767352812582	-0.36114892514040015
-0.4847157001250082	-0.36276275930674484
-0.4846546649687582	-0.36215450247246517
-0.4845936298125082	-0.3593255960656131
-0.4845325946562582	-0.3542910715520589
-0.4844715595000082	-0.3470795264911555
-0.4844105243437582	-0.337732895137285
-0.4843494891875082	-0.32630626405163654
-0.4842884540312582	-0.31286748259700925
-0.4842274188750082	-0.2974968106983894
-0.4841663837187582	-0.2802863857914693
-0.4841053485625082	-0.2613397035609343
-0.4840443134062582	-0.24077097018305094
-0.4839832782500082	-0.21870441846786515
-0.4839222430937582	-0.1952735437952505
-0.4838612079375082	-0.17062030297923625
-0.4838001727812582	-0.1448942324121417
-0.4837391376250082	-0.11825156577493345
-0.4836781024687582	-0.09085424186291877
-0.4836170673125082	-0.06286895012916235
-0.4835560321562582	-0.03446608201571762
-0.4834949970000082	-0.005818713427705891
-0.4834339618437582	0.022898476156761383
-0.4833729266875082	0.05151024308028707
-0.4833118915312582	0.07984190815969508
-0.4832508563750082	0.10772036264189316
-0.4831898212187582	0.13497517716576335
-0.4831287860625082	0.16143964909134087
-0.4830677509062582	0.1869517718161205
-0.4830067157500082	0.21135533215827315
-0.4829456805937582	0.23450074907321164
-0.4828846454375082	0.256246117858111
-0.4828236102812582	0.2764579759775645
-0.4827625751250082	0.2950122142256197
-0.4827015399687582	0.31179477419760876
-0.4826405048125082	0.3267024283194978
-0.4825794696562582	0.339643330567121
-0.4825184345000082	0.3505376658311084
-0.4824573993437582	0.35931810195198105
-0.4823963641875082	0.3659302156011034
-0.4823353290312582	0.37033285741175903
-0.4822742938750082	0.372498367643713
-0.4822132587187582	0.3724128100352529
-0.4821522235625082	0.37007599736883695
-0.4820911884062582	0.3655015723679356
-0.4820301532500082	0.3587168615175535
-0.4819691180937582	0.34976277184739196
-0.4819080829375082	0.33869350410825544
-0.4818470477812582	0.3255762534881092
-0.4817860126250082	0.31049078983965234
-0.4817249774687582	0.29352897217972285
-0.4816639423125082	0.2747942093500191
-0.4816029071562582	0.2544007903149015
-0.4815418720000082	0.23247323457632615
-0.4814808368437582	0.2091455063153505
-0.4814198016875082	0.18456016594979832
-0.4813587665312582	0.15886759499847808
-0.4812977313750082	0.13222491432757
-0.4812366962187582	0.10479521778424941
-0.4811756610625082	0.07674638308377452
-0.4811146259062582	0.048250178340635844
-0.4810535907500082	0.019481146266892617
-0.4809925555937582	-0.009384496559904807
-0.4809315204375082	-0.038169829032560894
-0.4808704852812582	-0.06669848217902817
-0.4808094501250082	-0.09479555096004014
-0.4807484149687582	-0.12228882801938992
-0.4806873798125082	-0.14900973124299946
-0.4806263446562582	-0.17479443342993944
-0.4805653095000082	-0.19948484891769527
-0.4805042743437582	-0.22292959124852238
-0.4804432391875082	-0.24498491235478323
-0.4803822040312582	-0.26551562649943133
-0.4803211688750082	-0.28439589351009004
-0.4802601337187582	-0.30151004566343775
-0.4801990985625082	-0.31675326747142596
-0.4801380634062582	-0.3300322653304315
-0.4800770282500082	-0.3412658537132814
-0.4800159930937582	-0.35038543151471163
-0.4799549579375082	-0.3573354435963484
-0.4798939227812582	-0.36207370393820276
-0.4798328876250082	-0.3645716725315919
-0.4797718524687582	-0.3648146310200091
-0.4797108173125082	-0.36280178267737234
-0.4796497821562582	-0.3585462568355324
-0.4795887470000082	-0.35207504034654746
-0.4795277118437582	-0.34342880355905786
-0.4794666766875082	-0.3326616721681267
-0.4794056415312582	-0.3198408744560768
-0.4793446063750082	-0.30504635548128484
-0.4792835712187582	-0.28837026462850535
-0.4792225360625082	-0.2699164103444997
-0.4791615009062582	-0.2497995991541636
-0.4791004657500082	-0.2281449592185343
-0.4790394305937582	-0.2050871428296865
-0.4789783954375082	-0.1807695178287325
-0.4789173602812582	-0.15534326018173802
-0.4788563251250082	-0.12896645213355737
-0.4787952899687582	-0.10180308655649117
-0.4787342548125082	-0.07402204942100937
-0.4786732196562582	-0.04579608537505031
-0.4786121845000082	-0.01730074585979312
-0.4785511493437582	0.011286739448063698
-0.4784901141875082	0.0397885054369888
-0.4784290790312582	0.06802721174491606
-0.4783680438750082	0.09582708279959583
-0.4783070087187582	0.12301504650662196
-0.4782459735625082	0.14942178061862463
-0.4781849384062582	0.17488275891838861
-0.4781239032500082	0.19923931295599143
-0.4780628680937582	0.22233954929486982
-0.4780018329375082	0.24403938610237821
-0.4779407977812582	0.2642033259494095
-0.4778797626250082	0.28270546505165056
-0.4778187274687582	0.2994300965256395
-0.4777576923125082	0.31427258347373005
-0.4776966571562582	0.327139918833612
-0.4776356220000082	0.33795134812295446
-0.4775745868437582	0.346638884584612
-0.4775135516875082	0.35314768917822703
-0.4774525165312582	0.3574364858934144
-0.4773914813750082	0.3594777496306554
-0.4773304462187582	0.35925795954990397
-0.4772694110625082	0.35677761810118874
-0.4772083759062582	0.3520513187054113
-0.4771473407500082	0.3451076057650127
-0.4770863055937582	0.33598885574927434
-0.4770252704375082	0.3247509758642971
-0.4769642352812582	0.3114631025436859
-0.4769032001250082	0.2962071433897792
-0.4768421649687582	0.2790773183271852
-0.4767811298125082	0.2601795179279052
-0.4767200946562582	0.23963072851433356
-0.4766590595000082	0.21755825131817647
-0.4765980243437582	0.19409894296187963
-0.4765369891875082	0.16939835731306738
-0.4764759540312582	0.14360987399381173
-0.4764149188750082	0.11689371385762722
-0.4763538837187582	0.0894159581174643
-0.4762928485625082	0.06134755200452577
-0.4762318134062582	0.032863182314987804
-0.4761707782500082	0.004140258141611856
-0.4761097430937582	-0.024642239551778924
-0.4760487079375082	-0.05330483840257765
-0.4759876727812582	-0.08166870749426212
-0.4759266376250082	-0.1095567499671955
-0.4758656024687582	-0.13679474599061903
-0.4758045673125082	-0.16321237642059866
-0.4757435321562582	-0.1886443494950161
-0.4756824970000082	-0.21293136843209484
-0.4756214618437582	-0.2359211986143731
-0.4755604266875082	-0.2574695294612129
-0.4754993915312582	-0.2774409670082997
-0.4754383563750082	-0.2957098098918001
-0.4753773212187582	-0.3121608863575266
-0.4753162860625082	-0.32669024323909246
-0.4752552509062582	-0.33920582032500113
-0.4751942157500082	-0.34962802753277317
-0.4751331805937582	-0.35789023034556533
-0.4750721454375082	-0.3639392064336007
-0.4750111102812582	-0.3677354378835396
-0.4749500751250082	-0.3692534237804538
-0.4748890399687582	-0.36848178516425295
-0.4748280048125082	-0.36542340571877846
-0.4747669696562582	-0.36009536381383955
-0.4747059345000082	-0.35252889204191684
-0.4746448993437582	-0.34276913985963237
-0.4745838641875082	-0.330874946019068
-0.4745228290312582	-0.31691844548430864
-0.4744617938750082	-0.30098465813163866
-0.4744007587187582	-0.28317093319279596
-0.4743397235625082	-0.2635864034015922
-0.4742786884062582	-0.2423512484916976
-0.4742176532500082	-0.2195960116141775
-0.4741566180937582	-0.19546076102514362
-0.4740955829375082	-0.17009422233871757
-0.4740345477812582	-0.14365289223972283
-0.4739735126250082	-0.11630002613972522
-0.4739124774687582	-0.08820464862848176
-0.4738514423125082	-0.05954050964899767
-0.4737904071562582	-0.030484987613976156
-0.4737293720000082	-0.0012180185836684534
-0.4736683368437582	0.028079081242098514
-0.4736073016875082	0.0572246638539285
-0.4735462665312582	0.08603793888782223
-0.4734852313750082	0.11434008874660914
-0.4734241962187582	0.1419553644464342
-0.4733631610625082	0.168712210144675
-0.4733021259062582	0.1944442791473044
-0.4732410907500082	0.21899157394264185
-0.4731800555937582	0.2422013103215332
-0.4731190204375082	0.26392901934180296
-0.4730579852812582	0.2840393060084582
-0.4729969501250082	0.30240682711011535
-0.4729359149687582	0.31891699778129
-0.4728748798125082	0.33346672280207473
-0.4728138446562582	0.34596508482125926
-0.4727528095000082	0.3563338524493515
-0.4726917743437582	0.3645080447970569
-0.4726307391875082	0.3704362870059474
-0.4725697040312582	0.3740811703043208
-0.4725086688750082	0.37541947506758966
-0.4724476337187582	0.37444233476468997
-0.4723865985625082	0.3711552913890578
-0.4723255634062582	0.36557826703335433
-0.4722645282500082	0.35774545694247556
-0.4722034930937582	0.3477051052865511
-0.4721424579375082	0.33551923370519743
-0.4720814227812582	0.32126323808249163
-0.4720203876250082	0.3050254459582546
-0.4719593524687582	0.28690655288684996
-0.4718983173125082	0.26701901833082425
-0.4718372821562582	0.24548634163204355
-0.4717762470000082	0.22244233592430088
-0.4717152118437582	0.19803026390155762
-0.4716541766875082	0.17240195805797445
-0.4715931415312582	0.14571689190754988
-0.4715321063750082	0.11814114884312761
-0.4714710712187582	0.08984644208836831
-0.4714100360625082	0.06100898615071315
-0.4713490009062582	0.03180847279537545
-0.4712879657500082	0.002426836080397656
-0.4712269305937582	-0.02695274030282759
-0.4711658954375082	-0.056147110971275054
-0.4711048602812582	-0.08497417437503801
-0.4710438251250082	-0.11325414882808783
-0.4709827899687582	-0.14081058255062123
-0.4709217548125082	-0.16747152818525096
-0.4708607196562582	-0.19307059119136946
-0.4707996845000082	-0.21744798201007734
-0.4707386493437582	-0.24045151888528293
-0.4706776141875082	-0.26193756478001545
-0.4706165790312582	-0.28177197760619704
-0.4705555438750082	-0.2998308649517933
-0.4704945087187582	-0.3160015041871067
-0.4704334735625082	-0.330182862846016
-0.4703724384062582	-0.3422864533425327
-0.4703114032500082	-0.3522366768141489
-0.4702503680937582	-0.35997149230729353
-0.4701893329375082	-0.3654426569856475
-0.4701282977812582	-0.3686161490652431
-0.4700672626250082	-0.3694723080270476
-0.4700062274687582	-0.3680060109131267
-0.4699451923125082	-0.3642266905097102
-0.4698841571562582	-0.35815827723082555
-0.4698231220000082	-0.3498390832861122
-0.4697620868437582	-0.3393215197233683
