Time	Frequency
-0.5000081063749917	-3.4764008635420645e-25
-0.4999470712187417	-3.36074508833841e-25
-0.4998860360624917	-3.2087468136348484e-25
-0.4998250009062417	-3.02204298184149e-25
-0.4997639657499917	-2.802644555272322e-25
-0.4997029305937417	-2.5529152555494432e-25
-0.4996418954374917	-2.2755463012597286e-25
-0.4995808602812417	-1.973527393919553e-25
-0.4995198251249917	-1.6501149057597742e-25
-0.4994587899687417	-1.3087967384860244e-25
-0.4993977548124917	-9.532549142733408e-26
-0.4993367196562417	-5.873262354072053e-26
-0.4992756844999917	-2.1496074298777695e-26
-0.4992146493437417	1.598206034377569e-26
-0.4991536141874917	5.329691961956493e-26
-0.4990925790312417	9.004523906944433e-26
-0.4990315438749917	1.258297083290314e-25
-0.4989705087187417	1.6026321981348182e-25
-0.4989094735624917	1.9297307172268466e-25
-0.4988484384062417	2.23605009357056e-25
-0.4987874032499917	2.518269848512512e-25
-0.4987263680937417	2.7733280043706044e-25
-0.4986653329374917	2.998454380410587e-25
-0.4986042977812417	3.1911998924072847e-25
-0.4985432626249917	3.3494637261433697e-25
-0.4984822274687417	3.4715160400780257e-25
-0.4984211923124917	3.556016386650896e-25
-0.4983601571562417	3.6020293390073216e-25
-0.4982991219999917	3.609033542850395e-25
-0.4982380868437417	3.5769286121331658e-25
-0.4981770516874917	3.5060360789755484e-25
-0.4981160165312417	3.3970957295264727e-25
-0.4980549813749917	3.2512589544658836e-25
-0.4979939462187417	3.070075246913954e-25
-0.4979329110624917	2.8554767956715845e-25
-0.4978718759062417	2.6097574272311357e-25
-0.4978108407499917	2.335547957826044e-25
-0.4977498055937417	2.0357884953203412e-25
-0.4976887704374917	1.7136962723588375e-25
-0.4976277352812417	1.372731823446479e-25
-0.4975667001249917	1.0165613269202078e-25
-0.4975056649687417	6.490171704650139e-26
-0.4974446298124917	2.740572769037627e-26
-0.4973835946562417	-1.0427819842991465e-26
-0.4973225594999917	-4.819100299837861e-26
-0.4972615243437417	-8.547637627131276e-26
-0.4972004891874917	-1.218814081993818e-25
-0.4971394540312417	-1.5701279047996266e-25
-0.4970784188749917	-1.9049069537276329e-25
-0.4970173837187417	-2.2195288260783814e-25
-0.4969563485624917	-2.510586288000351e-25
-0.4968953134062417	-2.7749239008697345e-25
-0.4968342782499917	-3.009672416769998e-25
-0.4967732430937417	-3.2122799803230464e-25
-0.4967122079374917	-3.3805394121143795e-25
-0.4966511727812417	-3.512612988474913e-25
-0.4965901376249917	-3.6070516290275523e-25
-0.4965291024687417	-3.6628112759904133e-25
-0.4964680673124917	-3.6792646340648486e-25
-0.4964070321562417	-3.656207274557884e-25
-0.4963459969999917	-3.5938612248619875e-25
-0.4962849618437417	-3.4928719631228022e-25
-0.4962239266874917	-3.3543019832555474e-25
-0.4961628915312417	-3.1796198989758386e-25
-0.4961018563749917	-2.970684084061366e-25
-0.4960408212187417	-2.729723683938342e-25
-0.4959797860624917	-2.459314191097218e-25
-0.4959187509062417	-2.162349832742521e-25
-0.4958577157499917	-1.8420131045733055e-25
-0.4957966805937417	-1.5017397636072481e-25
-0.4957356454374917	-1.1451823366760055e-25
-0.4956746102812417	-7.761711244808637e-26
-0.4956135751249917	-3.98671893202528e-26
-0.4955525399687417	-1.6744281789046288e-27
-0.4954915048124917	3.655024448763178e-26
-0.4954304696562417	7.439544718459041e-26
-0.4953694344999917	1.1145361594406285e-25
-0.4953083993437417	1.473255862081498e-25
-0.4952473641874917	1.8162482091979305e-25
-0.4951863290312417	2.139815507403945e-25
-0.4951252938749917	2.440469179785345e-25
-0.4950642587187417	2.7149658404184484e-25
-0.4950032235624917	2.9603437115794937e-25
-0.4949421884062417	3.17395446478244e-25
-0.4948811532499917	3.35349139227556e-25
-0.4948201180937417	3.4970154263703486e-25
-0.4947590829374917	3.6029755380520323e-25
-0.4946980477812417	3.6702259558777414e-25
-0.4946370126249917	3.6980388474361375e-25
-0.4945759774687417	3.6861120576558027e-25
-0.4945149423124917	3.6345727930086485e-25
-0.4944539071562417	3.5439763913020705e-25
-0.4943928719999917	3.415300355953039e-25
-0.4943318368437417	3.2499340783922546e-25
-0.4942708016874917	3.049663969453534e-25
-0.4942097665312417	2.816654229213539e-25
-0.4941487313749917	2.553423391900935e-25
-0.4940876962187417	2.2628176541052085e-25
-0.4940266610624917	1.947979847652622e-25
-0.4939656259062417	1.6123153327345596e-25
-0.4939045907499917	1.2594558274318497e-25
-0.4938435555937417	8.932194956720113e-26
-0.4937825204374917	5.175700764326077e-26
-0.4937214852812417	1.3657386055216983e-26
-0.4936604501249917	-2.4564434840118892e-26
-0.4935994149687417	-6.249459588640003e-26
-0.4935383798124917	-9.972234076817634e-26
-0.4934773446562417	-1.3584445032101148e-25
-0.4934163094999917	-1.704696734026328e-25
-0.4933552743437417	-2.032228919326203e-25
-0.4932942391874917	-2.3374927881781435e-25
-0.4932332040312417	-2.617180967887241e-25
-0.4931721688749917	-2.8682630301269844e-25
-0.4931111337187417	-3.0880189336097874e-25
-0.4930500985624917	-3.2740679372581643e-25
-0.4929890634062417	-3.424395167566423e-25
-0.4929280282499917	-3.5373732320765358e-25
-0.4928669930937417	-3.611780222175833e-25
-0.4928059579374917	-3.64681312487847e-25
-0.4927449227812417	-3.642096584453747e-25
-0.4926838876249917	-3.59768718203314e-25
-0.4926228524687417	-3.514073062304627e-25
-0.4925618173124917	-3.392168655218496e-25
-0.4925007821562417	-3.2333049302355754e-25
-0.4924397469999917	-3.039215185038164e-25
-0.4923787118437417	-2.8120161857961364e-25
-0.4923176766874917	-2.5541854552791034e-25
-0.4922566415312417	-2.268534339099763e-25
-0.4921956063749917	-1.9581776582299209e-25
-0.4921345712187417	-1.6264998480457646e-25
-0.4920735360624917	-1.2771183937080944e-25
-0.4920125009062417	-9.138445078132195e-26
-0.4919514657499917	-5.40641437465648e-26
-0.4918904305937417	-1.6158203415234655e-26
-0.4918293954374917	2.1919607057077788e-26
-0.4917683602812417	5.975354244198105e-26
-0.4917073251249917	9.693036460204863e-26
-0.4916462899687417	1.3304388383172204e-25
-0.4915852548124917	1.6769935538305247e-25
-0.4915242196562417	2.0051781523998725e-25
-0.4914631844999917	2.3114017096146117e-25
-0.4914021493437417	2.592311676301193e-25
-0.4913411141874917	2.844830271397625e-25
-0.4912800790312417	3.06618791146376e-25
-0.4912190438749917	3.25395429930858e-25
-0.4911580087187417	3.4060640718267806e-25
-0.4910969735624917	3.5208402555800507e-25
-0.4910359384062417	3.597012549342458e-25
-0.4909749032499917	3.6337308849421403e-25
-0.4909138680937417	3.6305758367677932e-25
-0.4908528329374917	3.5875625536902285e-25
-0.4907917977812417	3.5051411892529347e-25
-0.4907307626249917	3.3841924285605245e-25
-0.4906697274687417	3.2260175869130846e-25
-0.4906086923124917	3.032325182091089e-25
-0.4905476571562417	2.8052122091808807e-25
-0.4904866219999917	2.5471415360892193e-25
-0.4904255868437417	2.2609154283896537e-25
-0.4903645516874917	1.949644910830476e-25
-0.4903035165312417	1.6167161656182963e-25
-0.4902424813749917	1.2657538338189087e-25
-0.4901814462187417	9.005814703345812e-26
-0.4901204110624917	5.251798552655082e-26
-0.4900593759062417	1.436441888403161e-26
-0.4899983407499917	-2.3986120298137715e-26
-0.4899373055937417	-6.211478761245629e-26
-0.4898762704374917	-9.960487506256834e-26
-0.4898152352812417	-1.360464412117916e-25
-0.4897542001249917	-1.7104064612543403e-25
-0.4896931649687417	-2.0420425556678033e-25
-0.4896321298124917	-2.35173771805788e-25
-0.4895710946562417	-2.6360933420660034e-25
-0.4895100594999917	-2.891986052021254e-25
-0.4894490243437417	-3.116600584342654e-25
-0.4893879891874917	-3.307461015741984e-25
-0.4893269540312417	-3.4624584903637583e-25
-0.4892659188749917	-3.5798738148216373e-25
-0.4892048837187417	-3.658396730635348e-25
-0.4891438485624917	-3.6971406392299277e-25
-0.4890828134062417	-3.6956520606261926e-25
-0.4890217782499917	-3.6539162914843753e-25
-0.4889607430937417	-3.5723576962179907e-25
-0.4888997079374917	-3.451835060007632e-25
-0.4888386727812417	-3.2936330129800546e-25
-0.4887776376249917	-3.0994477529401663e-25
-0.4887166024687417	-2.8713690057304375e-25
-0.4886555673124917	-2.6118575970144165e-25
-0.4885945321562417	-2.323718448644167e-25
-0.4885334969999917	-2.0100704708229063e-25
-0.4884724618437417	-1.674312590992796e-25
-0.4884114266874917	-1.3200867554550335e-25
-0.4883503915312417	-9.512385197434201e-26
-0.4882893563749917	-5.717749682499462e-26
-0.4882283212187417	-1.8582108942100372e-26
-0.4881672860624917	2.0242512681234483e-26
-0.4881062509062417	5.88738245867011e-26
-0.4880452157499917	9.689120061706073e-26
-0.4879841805937417	1.3388050393083252e-25
-0.4879231454374917	1.694385539123574e-25
-0.4878621102812417	2.031776540369833e-25
-0.4878010751249917	2.347297362007052e-25
-0.4877400399687417	2.637503944960244e-25
-0.4876790048124917	2.8992272409283755e-25
-0.4876179696562417	3.129607223621109e-25
-0.4875569344999917	3.3261249499387683e-25
-0.4874958993437417	3.4866295458787444e-25
-0.4874348641874917	3.609362276440432e-25
-0.4873738290312417	3.692976165933892e-25
-0.4873127938749917	3.736550272275163e-25
-0.4872517587187417	3.7396005286484965e-25
-0.4871907235624917	3.7020849245776395e-25
-0.4871296884062417	3.624404193958683e-25
-0.4870686532499917	3.5073977957272626e-25
-0.4870076180937417	3.3523346608477455e-25
-0.4869465829374917	3.1608997667231047e-25
-0.4868855477812417	2.9351757068692137e-25
-0.4868245126249917	2.6776201446454024e-25
-0.4867634774687417	2.3910392290596227e-25
-0.4867024423124917	2.0785566448536923e-25
-0.4866414071562417	1.7435801745271277e-25
-0.4865803719999917	1.3897640260401842e-25
-0.4865193368437417	1.0209690765605703e-25
-0.4864583016874917	6.412209763650999e-26
-0.4863972665312417	2.5466575431310324e-26
-0.4863362313749917	-1.3447524672918006e-26
-0.4862751962187417	-5.219515917240398e-26
-0.4862141610624917	-9.035302203912342e-26
-0.4861531259062417	-1.2750421097796212e-25
-0.4860920907499917	-1.63242740509218e-25
-0.4860310555937417	-1.97178042774587e-25
-0.4859700204374917	-2.2893922097066983e-25
-0.4859089852812417	-2.581791210631076e-25
-0.4858479501249917	-2.845781820828263e-25
-0.4857869149687417	-3.078478619851945e-25
-0.4857258798124917	-3.2773391474905574e-25
-0.4856648446562417	-3.4401911454996265e-25
-0.4856038094999917	-3.565256552438174e-25
-0.4855427743437417	-3.651171727085473e-25
-0.4854817391874917	-3.697001739266076e-25
-0.4854207040312417	-3.7022513462736294e-25
-0.4853596688749917	-3.6668703715492266e-25
-0.4852986337187417	-3.59125429240794e-25
-0.4852375985624917	-3.4762403202033534e-25
-0.4851765634062417	-3.323098145230119e-25
-0.4851155282499917	-3.133516175162761e-25
-0.4850544930937417	-2.909583294489564e-25
-0.4849934579374917	-2.653765939470549e-25
-0.4849324227812417	-2.3688811019063853e-25
-0.4848713876249917	-2.0580656827110327e-25
-0.4848103524687417	-1.724742007544233e-25
-0.4847493173124917	-1.3725804890140924e-25
-0.4846882821562417	-1.0054590929142568e-25
-0.4846272469999917	-6.274211346670571e-26
-0.4845662118437417	-2.4263083085378052e-26
-0.4845051766874917	1.4467269499082973e-26
-0.4844441415312417	5.302215545340817e-26
-0.4843831063749917	9.097664632788233e-26
-0.4843220712187417	1.2791230325034026e-25
-0.4842610360624917	1.6342181077169625e-25
-0.4842000009062417	1.971134704105545e-25
-0.4841389657499917	2.286154638721918e-25
-0.4840779305937417	2.5758001885920557e-25
-0.4840168954374917	2.8368720765052045e-25
-0.4839558602812417	3.0664846096516144e-25
-0.4838948251249917	3.262098274810308e-25
-0.4838337899687417	3.42154706682718e-25
-0.4837727548124917	3.5430627923343003e-25
-0.4837117196562417	3.625295203596445e-25
-0.4836506844999917	3.6673260677442214e-25
-0.4835896493437417	3.66868037882397e-25
-0.4835286141874917	3.6293314303957998e-25
-0.4834675790312417	3.5497011016231773e-25
-0.4834065438749917	3.43065609547013e-25
-0.4833455087187417	3.2734977718142697e-25
-0.4832844735624917	3.0799487578937904e-25
-0.4832234384062417	2.8521337720450664e-25
-0.4831624032499917	2.5925564444958766e-25
-0.4831013680937417	2.304072263780112e-25
-0.4830403329374917	1.9898566419790557e-25
-0.4829792977812417	1.6533709477526319e-25
-0.4829182626249917	1.2983237089173227e-25
-0.4828572274687417	9.286302785730868e-26
-0.4827961923124917	5.48369876310768e-26
-0.4827351571562417	1.617402056532064e-26
-0.4826741219999917	-2.2698787589863463e-26
-0.4826130868437417	-6.135186898849698e-26
-0.4825520516874917	-9.935776989471837e-26
-0.4824910165312417	-1.3629594300573636e-25
-0.4824299813749917	-1.7175744720833858e-25
-0.4823689462187417	-2.0534927512449587e-25
-0.4823079110624917	-2.366989258758929e-25
-0.4822468759062417	-2.654583653921294e-25
-0.4821858407499917	-2.913079173393663e-25
-0.4821248055937417	-3.1395989190058447e-25
-0.4820637704374917	-3.3316162698075685e-25
-0.4820027352812417	-3.486984385220591e-25
-0.4819417001249917	-3.6039592498312604e-25
-0.4818806649687417	-3.681219565795453e-25
-0.4818196298124917	-3.7178815278101906e-25
-0.4817585946562417	-3.7135086242868405e-25
-0.4816975594999917	-3.668117227368204e-25
-0.4816365243437417	-3.5821760668962053e-25
-0.4815754891874917	-3.456601935901351e-25
-0.4815144540312417	-3.2927494921287646e-25
-0.4814534188749917	-3.0923966296414917e-25
-0.4813923837187417	-2.8577253353049666e-25
-0.4813313485624917	-2.591297649944942e-25
-0.4812703134062417	-2.2960276612650693e-25
-0.4812092782499917	-1.975149704392307e-25
-0.4811482430937417	-1.6321827322005425e-25
-0.4810872079374917	-1.2708916426011848e-25
-0.4810261727812417	-8.952460622687219e-26
-0.4809651376249917	-5.0937636361615556e-26
-0.4809041024687417	-1.1752850017442757e-26
-0.4808430673124917	2.759830421571328e-26
-0.4807820321562417	6.66822816872527e-26
-0.4807209969999917	1.0506821278820642e-25
-0.4806599618437417	1.4233265161119433e-25
-0.4805989266874917	1.7806430206187026e-25
-0.4805378915312417	2.1186853242856196e-25
-0.4804768563749917	2.433717092040142e-25
-0.4804158212187417	2.722254316957312e-25
-0.4803547860624917	2.9811029264120596e-25
-0.4802937509062417	3.2073946951941487e-25
-0.4802327157499917	3.3986193966980633e-25
-0.4801716805937417	3.5526519710255136e-25
-0.4801106454374917	3.667776939550514e-25
-0.4800496102812417	3.7427072314628173e-25
-0.4799885751249917	3.776598575326262e-25
-0.4799275399687417	3.7690594440435734e-25
-0.4798665048124917	3.7201551205786246e-25
-0.4798054696562417	3.630407622952275e-25
-0.4797444344999917	3.50079003705744e-25
-0.4796833993437417	3.332715877463149e-25
-0.4796223641874917	3.1280239935048554e-25
-0.4795613290312417	2.8889580787288313e-25
-0.4795002938749917	2.618142404547776e-25
-0.4794392587187417	2.3185528600212865e-25
-0.4793782235624917	1.9934841010961781e-25
-0.4793171884062417	1.646513666922477e-25
-0.4792561532499917	1.2814619713390902e-25
-0.4791951180937417	9.023506652406879e-26
-0.4791340829374917	5.133581984911451e-26
-0.4790730477812417	1.1877307451988092e-26
-0.4790120126249917	-2.7705227707636474e-26
-0.4789509774687417	-6.697512325053549e-26
-0.4788899423124917	-1.0549900999418053e-25
-0.4788289071562417	-1.428516239638564e-25
-0.4787678719999917	-1.7862060225323895e-25
-0.4787068368437417	-2.1241090331349995e-25
-0.4786458016874917	-2.43849360657966e-25
-0.4785847665312417	-2.7258866627120302e-25
-0.4785237313749917	-2.9831134555251773e-25
-0.4784626962187417	-3.207332182772861e-25
-0.4784016610624917	-3.3960654365573994e-25
-0.4783406259062417	-3.5472289592568827e-25
-0.4782795907499917	-3.6591530530973624e-25
-0.4782185555937417	-3.730603098427199e-25
-0.4781575204374917	-3.7607920882527147e-25
-0.4780964852812417	-3.7493898643833642e-25
-0.4780354501249917	-3.696527654922804e-25
-0.4779744149687417	-3.602795461099403e-25
-0.4779133798124917	-3.469236986175124e-25
-0.4778523446562417	-3.29733740210327e-25
-0.4777913094999917	-3.089007203877364e-25
-0.4777302743437417	-2.8465616603259033e-25
-0.4776692391874917	-2.5726943237592974e-25
-0.4776082040312417	-2.270448293146413e-25
-0.4775471688749917	-1.94318189296127e-25
-0.4774861337187417	-1.594531628632404e-25
-0.4774250985624917	-1.2283722487799053e-25
-0.4773640634062417	-8.487732986210476e-26
-0.4773030282499917	-4.5995454876509916e-26
-0.4772419930937417	-6.623851789163557e-27
-0.4771809579374917	3.2799672674128476e-26
-0.4771199227812417	7.183667636076228e-26
-0.4770588876249917	1.10052961475479e-25
-0.4769978524687417	1.4702331222334435e-25
-0.4769368173124917	1.8233635390749194e-25
-0.4768757821562417	2.1559904111326842e-25
-0.4768147469999917	2.464410138256996e-25
-0.4767537118437417	2.745188490368823e-25
-0.4766926766874917	2.9951974705202586e-25
-0.4766316415312417	3.2116509476418032e-25
-0.4765706063749917	3.3921360335365935e-25
-0.4765095712187417	3.534639151102677e-25
-0.4764485360624917	3.6375696490012673e-25
-0.4763875009062417	3.6997768778974344e-25
-0.4763264657499917	3.7205636635162814e-25
-0.4762654305937417	3.699693989654869e-25
-0.4762043954374917	3.637395812730282e-25
-0.4761433602812417	3.5343590650274946e-25
-0.4760823251249917	3.391727587384328e-25
-0.4760212899687417	3.211087209857042e-25
-0.4759602548124917	2.9944477422835807e-25
-0.4758992196562417	2.7442211673622567e-25
-0.4758381844999917	2.4631947953103493e-25
-0.4757771493437417	2.1545003167774425e-25
-0.4757161141874917	1.821579295399375e-25
-0.4756550790312417	1.468144559675808e-25
-0.4755940438749917	1.0981395822961174e-25
-0.4755330087187417	7.156939684622429e-26
-0.4754719735624917	3.2507790599079206e-26
-0.4754109384062417	-6.934526372237953e-27
-0.4753499032499917	-4.63168075335282e-26
-0.4752888680937417	-8.519875642708944e-26
-0.4752278329374917	-1.2314547467421288e-25
-0.4751667977812417	-1.5973228750452217e-25
-0.4751057626249917	-1.9454950246381182e-25
-0.4750447274687417	-2.27206955985093e-25
-0.4749836923124917	-2.573384223365299e-25
-0.4749226571562417	-2.84605683357533e-25
-0.4748616219999917	-3.087022836930554e-25
-0.4748005868437417	-3.29357048603176e-25
-0.4747395516874917	-3.4633703125049913e-25
-0.4746785165312417	-3.594502154900052e-25
-0.4746174813749917	-3.6854763969115337e-25
-0.4745564462187417	-3.73525056923901e-25
-0.4744954110624917	-3.743242096712043e-25
-0.4744343759062417	-3.7093340185487204e-25
-0.4743733407499917	-3.633877303659583e-25
-0.4743123055937417	-3.5176870086196468e-25
-0.4742512704374917	-3.362033148316774e-25
-0.4741902352812417	-3.1686273515912663e-25
-0.4741292001249917	-2.939603510232083e-25
-0.4740681649687417	-2.6774944605418423e-25
-0.4740071298124917	-2.385203947515979e-25
-0.4739460946562417	-2.065974394636671e-25
-0.4738850594999917	-1.7233509039117607e-25
-0.4738240243437417	-1.361141856731214e-25
-0.4737629891874917	-9.833766914806769e-26
-0.4737019540312417	-5.942607999539047e-26
-0.4736409188749917	-1.9812909677148228e-26
-0.4735798837187417	2.006027108902191e-26
-0.4735188485624917	5.974873257185918e-26
-0.4734578134062417	9.880948517378777e-26
-0.4733967782499917	1.3680632943204526e-25
-0.4733357430937417	1.7331466000955656e-25
-0.4732747079374917	2.0792619697217686e-25
-0.4732136727812417	2.402536413199556e-25
-0.4731526376249917	2.6993491636956665e-25
-0.4730916024687417	2.96637259076139e-25
-0.4730305673124917	3.200610083289977e-25
-0.4729695321562417	3.39942861703977e-25
-0.4729084969999917	3.560589315724889e-25
-0.4728474618437417	3.6822723984386974e-25
-0.4727864266874917	3.763097177530968e-25
-0.4727253915312417	3.8021389294424025e-25
-0.4726643563749917	3.798938179120722e-25
-0.4726033212187417	3.7535069752603424e-25
-0.4725422860624917	3.6663288380977496e-25
-0.4724812509062417	3.538353158045341e-25
-0.4724202157499917	3.3709856305168847e-25
-0.4723591805937417	3.16607205982816e-25
-0.4722981454374917	2.92587850482195e-25
-0.4722371102812417	2.6530659090939223e-25
-0.4721760751249917	2.350660638268809e-25
-0.4721150399687417	2.0220208211420399e-25
-0.4720540048124917	1.6707992934228643e-25
-0.4719929696562417	1.300902413959895e-25
-0.4719319344999917	9.164466801571129e-26
-0.4718708993437417	5.217135466613458e-26
-0.4718098641874917	1.2110028762975018e-26
-0.4717488290312417	-2.809278727624734e-26
-0.4716877938749917	-6.798881218036642e-26
