Time	Frequency
-0.5000401414687445	3.024244504055171e-25
-0.49997910631249454	2.5123291201069576e-25
-0.49991807115624454	1.9885260277174251e-25
-0.49985703599999454	1.455481247852815e-25
-0.49979600084374454	9.158881177244896e-26
-0.49973496568749454	3.724730564255774e-26
-0.49967393053124454	-1.7201754629376136e-26
-0.49961289537499454	-7.148321670359092e-26
-0.49955186021874454	-1.2532272832034896e-25
-0.49949082506249454	-1.7844813343834396e-25
-0.49942978990624454	-2.305909530491051e-25
-0.49936875474999454	-2.814876083627444e-25
-0.49930771959374454	-3.3088086125527107e-25
-0.49924668443749454	-3.7852107347425346e-25
-0.49918564928124454	-4.241675229892082e-25
-0.49912461412499454	-4.675895581018037e-25
-0.49906357896874454	-5.085678592485637e-25
-0.49900254381249454	-5.468954557612331e-25
-0.49894150865624454	-5.8237890284743175e-25
-0.49888047349999454	-6.148391422240749e-25
-0.49881943834374454	-6.441125266831338e-25
-0.49875840318749454	-6.700515772514248e-25
-0.49869736803124454	-6.925257954138782e-25
-0.49863633287499454	-7.114222829393125e-25
-0.49857529771874454	-7.266463697394818e-25
-0.49851426256249454	-7.381220608630536e-25
-0.49845322740624454	-7.45792469231246e-25
-0.49839219224999454	-7.496200561969861e-25
-0.49833115709374454	-7.4958690498130435e-25
-0.49827012193749454	-7.456947417814228e-25
-0.49820908678124454	-7.3796499389773485e-25
-0.49814805162499454	-7.264386449691675e-25
-0.49808701646874454	-7.111760665265989e-25
-0.49802598131249454	-6.922566887209155e-25
-0.49796494615624454	-6.697786316244391e-25
-0.49790391099999454	-6.438581779783511e-25
-0.49784287584374454	-6.146292238174925e-25
-0.49778184068749454	-5.82242571297602e-25
-0.49772080553124454	-5.468651953082203e-25
-0.49765977037499454	-5.086793598362768e-25
-0.49759873521874454	-4.678817566865167e-25
-0.49753770006249454	-4.246824140329154e-25
-0.49747666490624454	-3.7930373653150566e-25
-0.49741562974999454	-3.3197929753180925e-25
-0.49735459459374454	-2.829526754222567e-25
-0.49729355943749454	-2.324762599757402e-25
-0.49723252428124454	-1.808098438047677e-25
-0.49717148912499454	-1.2821948833745208e-25
-0.49711045396874454	-7.497595888292942e-26
-0.49704941881249454	-2.1353528497294745e-26
-0.49698838365624454	3.2371565306975874e-26
-0.49692734849999454	8.592241599146736e-26
-0.49686631334374454	1.390229486279869e-25
-0.49680527818749454	1.913992837635774e-25
-0.49674424303124454	2.4278114266693776e-25
-0.49668320787499454	2.9290324700073174e-25
-0.49662217271874454	3.4150666649808665e-25
-0.49656113756249454	3.8834012802793244e-25
-0.49650010240624454	4.331613603996525e-25
-0.49643906724999454	4.757382227899782e-25
-0.49637803209374454	5.158500803834111e-25
-0.49631699693749454	5.532887081051457e-25
-0.49625596178124454	5.878595982811373e-25
-0.49619492662499454	6.193827418351492e-25
-0.49613389146874454	6.476937498414808e-25
-0.49607285631249454	6.726445391156479e-25
-0.49601182115624454	6.941042432329483e-25
-0.49595078599999454	7.119597624742492e-25
-0.49588975084374454	7.26116448387397e-25
-0.49582871568749454	7.364985384416897e-25
-0.49576768053124454	7.430496000764321e-25
-0.49570664537499454	7.457327824678504e-25
-0.49564561021874454	7.445310623361936e-25
-0.49558457506249454	7.394473040548887e-25
-0.49552353990624454	7.305042943585347e-25
-0.49546250474999454	7.177445941297428e-25
-0.49540146959374454	7.01230380437519e-25
-0.49534043443749454	6.810430935457229e-25
-0.49527939928124454	6.572830739281202e-25
-0.49521836412499454	6.300690250597643e-25
-0.49515732896874454	5.99537446907621e-25
-0.49509629381249454	5.658419196274108e-25
-0.49503525865624454	5.291523680257523e-25
-0.49497422349999454	4.896541451102313e-25
-0.49491318834374454	4.475471518680318e-25
-0.49485215318749454	4.0304479450298082e-25
-0.49479111803124454	3.5637288621201774e-25
-0.49473008287499454	3.077685509874461e-25
-0.49466904771874454	2.5747895809398666e-25
-0.49460801256249454	2.057600882643456e-25
-0.49454697740624454	1.5287544117045415e-25
-0.49448594224999454	9.909470981492033e-26
-0.49442490709374454	4.469229430088619e-26
-0.49436387193749454	-1.0053902908440192e-26
-0.49430283678124454	-6.486412349646171e-26
-0.49424180162499454	-1.1945799133830943e-25
-0.49418076646874454	-1.7355605421283214e-25
-0.49411973131249454	-2.2688120684520865e-25
-0.49405869615624454	-2.7916005105515395e-25
-0.49399766099999454	-3.3012435970244405e-25
-0.49393662584374454	-3.7951245504206913e-25
-0.49387559068749454	-4.270704530310469e-25
-0.49381455553124454	-4.725537328682099e-25
-0.49375352037499454	-5.157280288549524e-25
-0.49369248521874454	-5.563707511436027e-25
-0.49363145006249454	-5.9427208421586985e-25
-0.49357041490624454	-6.2923605608175675e-25
-0.49350937974999454	-6.610816074278203e-25
-0.49344834459374454	-6.896434546609022e-25
-0.49338730943749454	-7.147730015631247e-25
-0.49332627428124454	-7.363390815876778e-25
-0.49326523912499454	-7.542286546489484e-25
-0.49320420396874454	-7.683473757968851e-25
-0.49314316881249454	-7.786201336995323e-25
-0.49308213365624454	-7.8499137606332115e-25
-0.49302109849999454	-7.874254904026983e-25
-0.49296006334374454	-7.859069139310324e-25
-0.49289902818749454	-7.804403064538035e-25
-0.49283799303124454	-7.710504557836707e-25
-0.49277695787499454	-7.577822481124519e-25
-0.49271592271874454	-7.407003653855644e-25
-0.49265488756249454	-7.198890405513901e-25
-0.49259385240624454	-6.954515797806699e-25
-0.49253281724999454	-6.675098875699004e-25
-0.49247178209374454	-6.362038108969797e-25
-0.49241074693749454	-6.016904744146266e-25
-0.49234971178124454	-5.6414346985453495e-25
-0.49228867662499454	-5.237519372296187e-25
-0.49222764146874454	-4.807196889021381e-25
-0.49216660631249454	-4.352640889272154e-25
-0.49210557115624454	-3.8761499462480637e-25
-0.49204453599999454	-3.3801356506807e-25
-0.49198350084374454	-2.867110541710855e-25
-0.49192246568749454	-2.3396750204751923e-25
-0.49186143053124454	-1.8005040662401872e-25
-0.49180039537499454	-1.2523339962126948e-25
-0.49173936021874454	-6.979479043088955e-26
-0.49167832506249454	-1.4016161774277473e-26
-0.49161728990624454	4.1819041243418627e-26
-0.49155625474999454	9.742701388774627e-26
-0.49149521959374454	1.5252499306647322e-25
-0.49143418443749454	2.0683278324484817e-25
-0.49137314928124454	2.600740925704495e-25
-0.49131211412499454	3.1197805432681486e-25
-0.49125107896874454	3.6228054708312946e-25
-0.49119004381249454	4.1072557835494396e-25
-0.49112900865624454	4.57066596555904e-25
-0.49106797349999454	5.010677853917153e-25
-0.49100693834374454	5.425052398746192e-25
-0.49094590318749454	5.811681462009631e-25
-0.49088486803124454	6.168598343433413e-25
-0.49082383287499454	6.493988665067021e-25
-0.49076279771874454	6.786199038324745e-25
-0.49070176256249454	7.04374564494384e-25
-0.49064072740624454	7.2653226308057945e-25
-0.49057969224999454	7.449808013300834e-25
-0.49051865709374454	7.596270124687673e-25
-0.49045762193749454	7.703972133818435e-25
-0.49039658678124454	7.772376091250911e-25
-0.49033555162499454	7.801145691374991e-25
-0.49027451646874454	7.790148064628277e-25
-0.49021348131249454	7.739454646706315e-25
-0.49015244615624454	7.649340674681144e-25
-0.49009141099999454	7.52028413408303e-25
-0.49003037584374454	7.35296304511135e-25
-0.48996934068749454	7.148252376412854e-25
-0.48990830553124454	6.907219313941916e-25
-0.48984727037499454	6.631118100800865e-25
-0.48978623521874454	6.3213834565720235e-25
-0.48972520006249454	5.9796232735810985e-25
-0.48966416490624454	5.607610534042622e-25
-0.48960312974999454	5.207274235546083e-25
-0.48954209459374454	4.780689033089134e-25
-0.48948105943749454	4.330065600405886e-25
-0.48942002428124454	3.857738038816557e-25
-0.48935898912499454	3.366153118032998e-25
-0.48929795396874454	2.8578564894373166e-25
-0.48923691881249454	2.3354809309181835e-25
-0.48917588365624454	1.8017313818010858e-25
-0.48911484849999454	1.2593723392743997e-25
-0.48905381334374454	7.112125585316882e-26
-0.48899277818749454	1.6009135010399017e-26
-0.48893174303124454	-3.911367041354747e-26
-0.48887070787499454	-9.396157943009691e-26
-0.48880967271874454	-1.482504272998212e-25
-0.48874863756249454	-2.0169889576869806e-25
-0.48868760240624454	-2.5402997498158874e-25
-0.48862656724999454	-3.049723885010478e-25
-0.48856553209374454	-3.5426201159812787e-25
-0.48850449693749454	-4.0164322411488995e-25
-0.48844346178124454	-4.4687027366800735e-25
-0.48838242662499454	-4.897084647800787e-25
-0.48832139146874454	-5.299354622433041e-25
-0.48826035631249454	-5.673424152659303e-25
-0.48819932115624454	-6.017350087722797e-25
-0.48813828599999454	-6.329345467769779e-25
-0.48807725084374454	-6.607787986963023e-25
-0.48801621568749454	-6.851229203059425e-25
-0.48795518053124454	-7.058401472244201e-25
-0.48789414537499454	-7.228225201585541e-25
-0.48783311021874454	-7.359813899001755e-25
-0.48777207506249454	-7.452479360408776e-25
-0.48771103990624454	-7.50573486797342e-25
-0.48765000474999454	-7.519298347328948e-25
-0.48758896959374454	-7.4930932252855625e-25
-0.48752793443749454	-7.42724963994746e-25
-0.48746689928124454	-7.322103219152679e-25
-0.48740586412499454	-7.178193970895707e-25
-0.48734482896874454	-6.996263156499766e-25
-0.48728379381249454	-6.777249908731374e-25
-0.48722275865624454	-6.52228609968151e-25
-0.48716172349999454	-6.23269088250973e-25
-0.48710068834374454	-5.909963864033078e-25
-0.48703965318749454	-5.5557771938266415e-25
-0.48697861803124454	-5.171967281808561e-25
-0.48691758287499454	-4.7605254049599e-25
-0.48685654771874454	-4.323586914144146e-25
-0.48679551256249454	-3.8634211781868393e-25
-0.48673447740624454	-3.3824188585151397e-25
-0.48667344224999454	-2.8830803138620843e-25
-0.48661240709374454	-2.368002412506313e-25
-0.48655137193749454	-1.839865243507132e-25
-0.48649033678124454	-1.3014178577692758e-25
-0.48642930162499454	-7.554648312886223e-26
-0.48636826646874454	-2.048509546941797e-26
-0.48630723131249454	3.475530732397022e-26
-0.48624619615624454	8.988656635053787e-26
-0.48618516099999454	1.4462089292291432e-25
-0.48612412584374454	1.9867245106928328e-25
-0.48606309068749454	2.5175871653244495e-25
-0.48600205553124454	3.0360207108230426e-25
-0.48594102037499454	3.5393111644621495e-25
-0.48587998521874454	4.0248222954271153e-25
-0.48581895006249454	4.490007881269563e-25
-0.48575791490624454	4.932426320476425e-25
-0.48569687974999454	5.349752199760085e-25
-0.48563584459374454	5.739789338658603e-25
-0.48557480943749454	6.100481694824323e-25
-0.48551377428124454	6.429924393132748e-25
-0.48545273912499454	6.726373575832284e-25
-0.48539170396874454	6.988255640184857e-25
-0.48533066881249454	7.214175394084128e-25
-0.48526963365624454	7.40292359418095e-25
-0.48520859849999454	7.553483206305344e-25
-0.48514756334374454	7.665034677577398e-25
-0.48508652818749454	7.736960634973005e-25
-0.48502549303124454	7.768848906993578e-25
-0.48496445787499454	7.760495114516091e-25
-0.48490342271874454	7.711903320654801e-25
-0.48484238756249454	7.623286938766874e-25
-0.48478135240624454	7.4950668225843945e-25
-0.48472031724999454	7.327870175752412e-25
-0.48465928209374454	7.122526503783855e-25
-0.48459824693749454	6.880064191951444e-25
-0.48453721178124454	6.601704753714369e-25
-0.48447617662499454	6.288857058766375e-25
-0.48441514146874454	5.9431095468646635e-25
-0.48435410631249454	5.566222931773317e-25
-0.48429307115624454	5.160120132302659e-25
-0.48423203599999454	4.726877432248164e-25
-0.48417100084374454	4.268712940253656e-25
-0.48410996568749454	3.7879758430946907e-25
-0.48404893053124454	3.287133529375677e-25
-0.48398789537499454	2.7687598065458235e-25
-0.48392686021874454	2.2355204726503553e-25
-0.48386582506249454	1.690160862565628e-25
-0.48380478990624454	1.1354901373664567e-25
-0.48374375474999454	5.743682437615368e-26
-0.48368271959374454	9.689576024140869e-28
-0.48362168443749454	-5.556304783947541e-26
-0.48356064928124454	-1.1186721425901232e-25
-0.48349961412499454	-1.6765251941725917e-25
-0.48343857896874454	-2.2263050574778523e-25
-0.48337754381249454	-2.765166764381225e-25
-0.48331650865624454	-3.2903212636028235e-25
-0.48325547349999454	-3.7990481756769954e-25
-0.48319443834374454	-4.288711204094888e-25
-0.48313340318749454	-4.756771640642627e-25
-0.48307236803124454	-5.200801089641509e-25
-0.48301133287499454	-5.618495007523158e-25
-0.48295029771874454	-6.007683701449244e-25
-0.48288926256249454	-6.366345040250676e-25
-0.48282822740624454	-6.692613341240476e-25
-0.48276719224999454	-6.984790957998787e-25
-0.48270615709374454	-7.241355519467457e-25
-0.48264512193749454	-7.460969363019101e-25
-0.48258408678124454	-7.642485600173561e-25
-0.48252305162499454	-7.784954679601841e-25
-0.48246201646874454	-7.887629117429587e-25
-0.48240098131249454	-7.949967905472544e-25
-0.48233994615624454	-7.971638935773083e-25
-0.48227891099999454	-7.952521258251296e-25
-0.48221787584374454	-7.892705464602795e-25
-0.48215684068749454	-7.792493669362764e-25
-0.48209580553124454	-7.652397683163497e-25
-0.48203477037499454	-7.473136859258475e-25
-0.48197373521874454	-7.255633908226756e-25
-0.48191270006249454	-7.001010878662756e-25
-0.48185166490624454	-6.7105826854663e-25
-0.48179062974999454	-6.385851021639072e-25
-0.48172959459374454	-6.02849614268639e-25
-0.48166855943749454	-5.64036844733637e-25
-0.48160752428124454	-5.223478642169984e-25
-0.48154648912499454	-4.779987975400793e-25
-0.48148545396874454	-4.312196337216854e-25
-0.48142441881249454	-3.822530531650589e-25
-0.48136338365624454	-3.3135320410325745e-25
-0.48130234849999454	-2.7878434852976646e-25
-0.48124131334374454	-2.248194878239364e-25
-0.48118027818749454	-1.697389702870081e-25
-0.48111924303124454	-1.1382901265002039e-25
-0.48105820787499454	-5.738020685217679e-26
-0.48099717271874454	-6.86027645183071e-28
-0.48093613756249454	5.59587052590004e-26
-0.48087510240624454	1.1225939049517529e-25
-0.48081406724999454	1.6792316202397978e-25
-0.48075303209374454	2.2266034443332054e-25
-0.48069199693749454	2.7618616008260947e-25
-0.48063096178124454	3.2822196027567144e-25
-0.48056992662499454	3.7849692651808183e-25
-0.48050889146874454	4.267492939434272e-25
-0.48044785631249454	4.727278704589337e-25
-0.48038682115624454	5.161932260132506e-25
-0.48032578599999454	5.569190519073552e-25
-0.48026475084374454	5.946932845688195e-25
-0.48020371568749454	6.293192310908373e-25
-0.48014268053124454	6.606166356017132e-25
-0.48008164537499454	6.884225711627672e-25
-0.48002061021874454	7.125923712419874e-25
-0.47995957506249454	7.330002899798094e-25
-0.47989853990624454	7.495403005812388e-25
-0.47983750474999454	7.621265233349718e-25
-0.47977646959374454	7.7069379288645e-25
-0.47971543443749454	7.751979212810642e-25
-0.47965439928124454	7.756160095737361e-25
-0.47959336412499454	7.719465143489561e-25
-0.47953232896874454	7.642093177975037e-25
-0.47947129381249454	7.524455865652447e-25
-0.47941025865624454	7.367176006785998e-25
-0.47934922349999454	7.171084135047163e-25
-0.47928818834374454	6.937214377819897e-25
-0.47922715318749454	6.666799087161203e-25
-0.47916611803124454	6.361262357969042e-25
-0.47910508287499454	6.022213004731945e-25
-0.47904404771874454	5.651435620918458e-25
-0.47898301256249454	5.25088192612601e-25
-0.47892197740624454	4.822660315620521e-25
-0.47886094224999454	4.369024518743433e-25
-0.47879990709374454	3.892362883740419e-25
-0.47873887193749454	3.3951844224192604e-25
-0.47867783678124454	2.8801075466142917e-25
-0.47861680162499454	2.3498443162321842e-25
-0.47855576646874454	1.8071882549878856e-25
-0.47849473131249454	1.254997963620506e-25
-0.47843369615624454	6.961838879835364e-26
-0.47837266099999454	1.3369129878917813e-26
-0.47831162584374454	-4.295136241652658e-26
-0.47825059068749454	-9.904603047146523e-26
-0.47818955553124454	-1.5461889292099997e-25
-0.47812852037499454	-2.09376604663313e-25
-0.47806748521874454	-2.630300237949452e-25
-0.47800645006249454	-3.15295693889623e-25
-0.47794541490624454	-3.6589734713962874e-25
-0.47788437974999454	-4.145673702843991e-25
-0.47782334459374454	-4.610482246081873e-25
-0.47776230943749454	-5.050937402727863e-25
-0.47770127428124454	-5.464705169064623e-25
-0.47764023912499454	-5.849590464686917e-25
-0.47757920396874454	-6.203549748484531e-25
-0.47751816881249454	-6.524700929103234e-25
-0.47745713365624454	-6.811334013151937e-25
-0.47739609849999454	-7.06191975963138e-25
-0.47733506334374454	-7.275118212599639e-25
-0.47727402818749454	-7.449785267155147e-25
-0.47721299303124454	-7.584979401177386e-25
-0.47715195787499454	-7.679966247426282e-25
-0.47709092271874454	-7.734222975136039e-25
-0.47702988756249454	-7.747440693592053e-25
-0.47696885240624454	-7.719526658754398e-25
-0.47690781724999454	-7.650604488213276e-25
-0.47684678209374454	-7.541013954591139e-25
-0.47678574693749454	-7.3913089688132815e-25
-0.47672471178124454	-7.202255227450247e-25
-0.47666367662499454	-6.974825708676697e-25
-0.47660264146874454	-6.710196430744277e-25
-0.47654160631249454	-6.40973950997892e-25
-0.47648057115624454	-6.075016869131844e-25
-0.47641953599999454	-5.707771545157726e-25
-0.47635850084374454	-5.309918936148393e-25
-0.47629746568749454	-4.883536629900947e-25
-0.47623643053124454	-4.430853591416359e-25
-0.47617539537499454	-3.954238940951998e-25
-0.47611436021874454	-3.4561885919804577e-25
-0.47605332506249454	-2.9393134894748953e-25
-0.47599228990624454	-2.4063245097053946e-25
-0.47593125474999454	-1.8600196443117151e-25
-0.47587021959374454	-1.303268426158036e-25
-0.47580918443749454	-7.389967074587793e-26
-0.47574814928124454	-1.701722400486857e-26
-0.47568711412499454	4.002117181848012e-26
-0.47562607896874454	9.691519300926406e-26
-0.47556504381249454	1.5336511271621819e-25
-0.47550400865624454	2.0907333184758477e-25
-0.47544297349999454	2.637459924304778e-25
-0.47538193834374454	3.1709453748572716e-25
-0.47532090318749454	3.6883718914088337e-25
-0.47525986803124454	4.187004441357042e-25
-0.47519883287499454	4.664205788940948e-25
-0.47513779771874454	5.117449588395425e-25
-0.47507676256249454	5.544334463170468e-25
-0.47501572740624454	5.942596200968567e-25
-0.47495469224999454	6.310119969979961e-25
-0.47489365709374454	6.644951948809383e-25
-0.47483262193749454	6.94530896698342e-25
-0.47477158678124454	7.209588440976625e-25
-0.47471055162499454	7.436377003661929e-25
-0.47464951646874454	7.624457792719974e-25
-0.47458848131249454	7.772817146737056e-25
-0.47452744615624454	7.8806500280335485e-25
-0.47446641099999454	7.947364366674618e-25
-0.47440537584374454	7.972584336343119e-25
-0.47434434068749454	7.956152440149407e-25
-0.47428330553124454	7.898130462912288e-25
-0.47422227037499454	7.7987993135484285e-25
-0.47416123521874454	7.658657603846871e-25
-0.47410020006249454	7.478419193736678e-25
-0.47403916490624454	7.259009576078946e-25
-0.47397812974999454	7.0015609344261845e-25
-0.47391709459374454	6.707406713572603e-25
-0.47385605943749454	6.378074009942753e-25
-0.47379502428124454	6.015276534548802e-25
-0.47373398912499454	5.62090470617116e-25
-0.47367295396874454	5.197016535280732e-25
-0.47361191881249454	4.745826541871961e-25
-0.47355088365624454	4.26969416239235e-25
-0.47348984849999454	3.7711113125560175e-25
-0.47342881334374454	3.2526896703797223e-25
-0.47336777818749454	2.7171464805609074e-25
-0.47330674303124454	2.1672905339960925e-25
-0.47324570787499454	1.6060074928544506e-25
-0.47318467271874454	1.0362442898319747e-25
-0.47312363756249454	4.60994242441861e-26
-0.47306260240624454	-1.1671948118108452e-26
-0.47300156724999454	-6.938588958528476e-26
-0.47294053209374454	-1.2673885410978665e-25
-0.47287949693749454	-1.8342897043096476e-25
-0.47281846178124454	-2.391578413870261e-25
-0.47275742662499454	-2.936319267048313e-25
-0.47269639146874454	-3.4656427155225127e-25
-0.47263535631249454	-3.976758694923634e-25
-0.47257432115624454	-4.4669726293835805e-25
-0.47251328599999454	-4.9336989440138315e-25
-0.47245225084374454	-5.374475364979888e-25
-0.47239121568749454	-5.78697520490588e-25
-0.47233018053124454	-6.169020648942952e-25
-0.47226914537499454	-6.518593836407277e-25
-0.47220811021874454	-6.83384732071088e-25
