Time	Frequency
-0.5000205480937439	-0.330772081472284
-0.49995951293749386	-0.3348511612004705
-0.49989847778124386	-0.337055047618768
-0.49983744262499386	-0.3373711509821283
-0.49977640746874386	-0.3357971383847178
-0.49971537231249386	-0.33234098694557074
-0.49965433715624386	-0.32702091547097495
-0.49959330199999386	-0.31986531514305505
-0.49953226684374386	-0.3109125773125366
-0.49947123168749386	-0.3002109162232561
-0.49941019653124386	-0.28781808753769417
-0.49934916137499386	-0.2738010947518431
-0.49928812621874386	-0.258235824100188
-0.49922709106249386	-0.24120664508153306
-0.49916605590624386	-0.22280594049555555
-0.49910502074999386	-0.2031336286912622
-0.49904398559374386	-0.18229660761903058
-0.49898295043749386	-0.16040819280967553
-0.49892191528124386	-0.13758749620773672
-0.49886088012499386	-0.11395877141356739
-0.49879984496874386	-0.08965078280965062
-0.49873880981249386	-0.06479603971135543
-0.49867777465624386	-0.03953016031627065
-0.49861673949999386	-0.013991064948841421
-0.49855570434374386	0.011681739462966046
-0.49849466918749386	0.03734789776728959
-0.49843363403124386	0.06286702444289058
-0.49837259887499386	0.08809940471386289
-0.49831156371874386	0.11290679821380781
-0.49825052856249386	0.137153177673035
-0.49818949340624386	0.16070546034871674
-0.49812845824999386	0.18343424474413375
-0.49806742309374386	0.20521450897382804
-0.49800638793749386	0.2259263109353861
-0.49794535278124386	0.24545541701860082
-0.49788431762499386	0.2636939367441151
-0.49782328246874386	0.28054093228471894
-0.49776224731249386	0.2959029389292042
-0.49770121215624386	0.30969449611712185
-0.49764017699999386	0.32183863159844445
-0.49757914184374386	0.3322672494442846
-0.49751810668749386	0.3409215364829211
-0.49745707153124386	0.34775227702875483
-0.49739603637499386	0.3527201157120623
-0.49733500121874386	0.3557958065851877
-0.49727396606249386	0.3569603436830852
-0.49721293090624386	0.3562050975319584
-0.49715189574999386	0.3535318542466363
-0.49709086059374386	0.3489528186797243
-0.49702982543749386	0.3424905540516327
-0.49696879028124386	0.3341778586740513
-0.49690775512499386	0.3240576093959275
-0.49684671996874386	0.3121825136858866
-0.49678568481249386	0.2986148523976786
-0.49672464965624386	0.28342612474677736
-0.49666361449999386	0.2666966826546497
-0.49660257934374386	0.24851528509350246
-0.49654154418749386	0.2289786440131017
-0.49648050903124386	0.20819086124599379
-0.49641947387499386	0.18626291825069966
-0.49635843871874386	0.16331203294490934
-0.49629740356249386	0.13946104848370625
-0.49623636840624386	0.11483777635503832
-0.49617533324999386	0.08957426264909725
-0.49611429809374386	0.0638061490867525
-0.49605326293749386	0.03767183173443802
-0.49599222778124386	0.01131181854149025
-0.49593119262499386	-0.015132118870302295
-0.49587015746874386	-0.04151766046810947
-0.49580912231249386	-0.06770273827391564
-0.49574808715624386	-0.0935463082174157
-0.49568705199999386	-0.11890910368670171
-0.49562601684374386	-0.1436544224529338
-0.49556498168749386	-0.1676488150962829
-0.49550394653124386	-0.19076290085332775
-0.49544291137499386	-0.21287197286985088
-0.49538187621874386	-0.23385677054590207
-0.49532084106249386	-0.2536040662725112
-0.49525980590624386	-0.27200731196710953
-0.49519877074999386	-0.28896723299806826
-0.49513773559374386	-0.3043923351171692
-0.49507670043749386	-0.31819944686856705
-0.49501566528124386	-0.33031415199056596
-0.49495463012499386	-0.3406712032394557
-0.49489359496874386	-0.3492148845063886
-0.49483255981249386	-0.355899322363655
-0.49477152465624386	-0.36068872671792396
-0.49471048949999386	-0.36355760171562523
-0.49464945434374386	-0.3644908874827841
-0.49458841918749386	-0.36348404316428795
-0.49452738403124386	-0.3605430746731861
-0.49446634887499386	-0.3556845138739387
-0.49440531371874386	-0.3489353222113709
-0.49434427856249386	-0.3403327559131404
-0.49428324340624386	-0.32992416136634906
-0.49422220824999386	-0.3177667274077195
-0.49416117309374386	-0.3039271640318357
-0.49410013793749386	-0.2884813574928534
-0.49403910278124386	-0.2715139527593125
-0.49397806762499386	-0.2531178895173417
-0.49391703246874386	-0.23339389946412908
-0.49385599731249386	-0.21244997455477133
-0.49379496215624386	-0.19040075768857156
-0.49373392699999386	-0.16736691845009652
-0.49367289184374386	-0.14347453531289162
-0.49361185668749386	-0.1188543458298508
-0.49355082153124386	-0.0936410876954936
-0.49348978637499386	-0.06797273873167632
-0.49342875121874386	-0.04198975607535807
-0.49336771606249386	-0.01583435160778806
-0.49330668090624386	0.010350366181559597
-0.49324564574999386	0.03642107174859601
-0.49318461059374386	0.06223509555863926
-0.49312357543749386	0.08765115416083583
-0.49306254028124386	0.11253013910821164
-0.49300150512499386	0.13673588153053043
-0.49294046996874386	0.16013589405620582
-0.49287943481249386	0.18260210855925196
-0.49281839965624386	0.20401155047272912
-0.49275736449999386	0.22424705254937052
-0.49269632934374386	0.2431978659008704
-0.49263529418749386	0.2607602970023944
-0.49257425903124386	0.276838246532131
-0.49251322387499386	0.29134378164375746
-0.49245218871874386	0.30419756689570165
-0.49239115356249386	0.31532936206289736
-0.49233011840624386	0.3246783504448368
-0.49226908324999386	0.3321935314521424
-0.49220804809374386	0.33783396379870406
-0.49214701293749386	0.3415690174127907
-0.49208597778124386	0.34337852921423195
-0.49202494262499386	0.3432529303731853
-0.49196390746874386	0.3411933002990878
-0.49190287231249386	0.33721135414342607
-0.49184183715624386	0.3313294065047723
-0.49178080199999386	0.32358021933701125
-0.49171976684374386	0.3140068662866556
-0.49165873168749386	0.3026624588122312
-0.49159769653124386	0.28960989922231606
-0.49153666137499386	0.2749215019168271
-0.49147562621874386	0.2586786331147845
-0.49141459106249386	0.24097124011803314
-0.49135355590624386	0.22189738146484075
-0.49129252074999386	0.2015626757892481
-0.49123148559374386	0.18007974515946315
-0.49117045043749386	0.15756756560424043
-0.49110941528124386	0.1341508542778804
-0.49104838012499386	0.10995936434106096
-0.49098734496874386	0.08512716687935344
-0.49092630981249386	0.05979194694478717
-0.49086527465624386	0.034094208392605414
-0.49080423949999386	0.00817652720419324
-0.49074320434374386	-0.01781723096479135
-0.49068216918749386	-0.04374271827115689
-0.49062113403124386	-0.06945587809063034
-0.49056009887499386	-0.0948137606960652
-0.49049906371874386	-0.11967529051985368
-0.49043802856249386	-0.1439020478895032
-0.49037699340624386	-0.16735905743228993
-0.49031595824999386	-0.18991548322905477
-0.49025492309374386	-0.2114453976537243
-0.49019388793749386	-0.23182846194212656
-0.49013285278124386	-0.250950576675689
-0.49007181762499386	-0.2687045326898285
-0.49001078246874386	-0.2849906081340078
-0.48994974731249386	-0.29971710405432495
-0.48988871215624386	-0.3128008619037382
-0.48982767699999386	-0.3241677325494525
-0.48976664184374386	-0.333752984830127
-0.48970560668749386	-0.3415016676157585
-0.48964457153124386	-0.3473689181554731
-0.48958353637499386	-0.35132021998309426
-0.48952250121874386	-0.3533315915738556
-0.48946146606249386	-0.3533897287416102
-0.48940043090624386	-0.35149209189430664
-0.48933939574999386	-0.34764690773828066
-0.48927836059374386	-0.3418731582841779
-0.48921732543749386	-0.3342004499617605
-0.48915629028124386	-0.32466889133726795
-0.48909525512499386	-0.3133288492664104
-0.48903421996874386	-0.3002407008135107
-0.48897318481249386	-0.28547449137275077
-0.48891214965624386	-0.26910955943396225
-0.48885111449999386	-0.2512341175212988
-0.48879007934374386	-0.2319447465484019
-0.48872904418749386	-0.2113458981537594
-0.48866800903124386	-0.1895492930465181
-0.48860697387499386	-0.1666733535767453
-0.48854593871874386	-0.1428424970577837
-0.48848490356249386	-0.11818651283214879
-0.48842386840624386	-0.09283981624442879
-0.48836283324999386	-0.06694070702305255
-0.48830179809374386	-0.04063065090557953
-0.48824076293749386	-0.01405343560563715
-0.48817972778124386	0.012645545711577144
-0.48811869262499386	0.03932015552032665
-0.48805765746874386	0.06582427887169096
-0.48799662231249386	0.0920126443055842
-0.48793558715624386	0.1177416250674819
-0.48787455199999386	0.14287001352401416
-0.48781351684374386	0.16725984286012927
-0.48775248168749386	0.1907770910767929
-0.48769144653124386	0.21329247182648622
-0.48763041137499386	0.23468212011039608
-0.48756937621874386	0.2548282890231409
-0.48750834106249386	0.2736200049373257
-0.48744730590624386	0.2909536791232824
-0.48738627074999386	0.30673366871422486
-0.48732523559374386	0.3208728427176564
-0.48726420043749386	0.3332930353630161
-0.48720316528124386	0.34392548873248235
-0.48714213012499386	0.3527112530551094
-0.48708109496874386	0.35960149494630594
-0.48702005981249386	0.36455778869645544
-0.48695902465624386	0.3675523232656601
-0.48689798949999386	0.36856806982849777
-0.48683695434374386	0.36759887173166717
-0.48677591918749386	0.3646494943028373
-0.48671488403124386	0.3597355946829277
-0.48665384887499386	0.3528836489838543
-0.48659281371874386	0.34413080529296397
-0.48653177856249386	0.3335246911625719
-0.48647074340624386	0.3211231428551734
-0.48640970824999386	0.3069939115309854
-0.48634867309374386	0.2912142760439009
-0.48628763793749386	0.2738706238866809
-0.48622660278124386	0.2550579952034257
-0.48616556762499386	0.234879529995034
-0.48610453246874386	0.2134459441299926
-0.48604349731249386	0.1908748802256637
-0.48598246215624386	0.1672902907702868
-0.48592142699999386	0.1428217390450288
-0.48586039184374386	0.1176036987139393
-0.48579935668749386	0.09177481051472347
-0.48573832153124386	0.06547708738045428
-0.48567728637499386	0.03885520257699448
-0.48561625121874386	0.012055609902197723
-0.48555521606249386	-0.014774207403973588
-0.48549418090624386	-0.041486587482095424
-0.48543314574999386	-0.06793447613132401
-0.48537211059374386	-0.09397225816690075
-0.48531107543749386	-0.119456566281214
-0.48525004028124386	-0.14424706514913715
-0.48518900512499386	-0.1682072337602434
-0.48512796996874386	-0.19120510611905112
-0.48506693481249386	-0.21311404479323068
-0.48500589965624386	-0.23381340049168123
-0.48494486449999386	-0.25318919512043775
-0.48488382934374386	-0.2711347630921692
-0.48482279418749386	-0.2875513531918828
-0.48476175903124386	-0.30234864678309
-0.48470072387499386	-0.31544529305725455
-0.48463968871874386	-0.32676934196936097
-0.48457865356249386	-0.336258667363675
-0.48451761840624386	-0.3438612897029609
-0.48445658324999386	-0.34953568673934776
-0.48439554809374386	-0.3532510263001765
-0.48433451293749386	-0.3549873295162875
-0.48427347778124386	-0.35473559789944786
-0.48421244262499386	-0.3524978611768155
-0.48415140746874386	-0.34828717420411376
-0.48409037231249386	-0.34212754399215417
-0.48402933715624386	-0.3340538045556626
-0.48396830199999386	-0.32411142843848034
-0.48390726684374386	-0.31235627123227444
-0.48384623168749386	-0.2988542800353167
-0.48378519653124386	-0.28368111336244284
-0.48372416137499386	-0.266921740343722
-0.48366312621874386	-0.24866996232608055
-0.48360209106249386	-0.22902789939382098
-0.48354105590624386	-0.20810543340281815
-0.48348002074999386	-0.18601957563439675
-0.48341898559374386	-0.1628938654513051
-0.48335795043749386	-0.1388576252196657
-0.48329691528124386	-0.11404531560086827
-0.48323588012499386	-0.088595707904263
-0.48317484496874386	-0.06265119021215537
-0.48311380981249386	-0.03635694356346769
-0.48305277465624386	-0.00986011803136191
-0.48299173949999386	0.016690944677794885
-0.48293070434374386	0.0431475777647895
-0.48286966918749386	0.06936156907781779
-0.48280863403124386	0.09518603973240121
-0.48274759887499386	0.12047620722330804
-0.48268656371874386	0.14509025018237304
-0.48262552856249386	0.16889003527166455
-0.48256449340624386	0.19174194816155699
-0.48250345824999386	0.21351759291209324
-0.48244242309374386	0.2340945433216085
-0.48238138793749386	0.2533570090236642
-0.48232035278124386	0.27119646567474825
-0.48225931762499386	0.2875123331341521
-0.48219828246874386	0.30221243456536334
-0.48213724731249386	0.3152136146533124
-0.48207621215624386	0.32644213572152603
-0.48201517699999386	0.335834140123539
-0.48195414184374386	0.3433359772084573
-0.48189310668749386	0.348904528763691
-0.48183207153124386	0.3525074530637899
-0.48177103637499386	0.35412335206384643
-0.48171000121874386	0.35374192835662366
-0.48164896606249386	0.3513640124878113
-0.48158793090624386	0.34700159907056666
-0.48152689574999386	0.3406777530563827
-0.48146586059374386	0.33242651882435476
-0.48140482543749386	0.32229270623376866
-0.48134379028124386	0.3103316752336156
-0.48128275512499386	0.2966090040113058
-0.48122171996874386	0.2812001596067645
-0.48116068481249386	0.2641900552890543
-0.48109964965624386	0.24567259922940293
-0.48103861449999386	0.22575016903358777
-0.48097757934374386	0.20453304259761815
-0.48091654418749386	0.18213880696510099
-0.48085550903124386	0.15869167425263192
-0.48079447387499386	0.13432181805941837
-0.48073343871874386	0.10916464000072416
-0.48067240356249386	0.08336002136149435
-0.48061136840624386	0.057051545857385984
-0.48055033324999386	0.030385691406368893
-0.48048929809374386	0.0035110300619998476
-0.48042826293749386	-0.02342262091630074
-0.48036722778124386	-0.05026500390240425
-0.48030619262499386	-0.07686629415211504
-0.48024515746874386	-0.10307791123896655
-0.48018412231249386	-0.12875335095505017
-0.48012308715624386	-0.15374902910987048
-0.48006205199999386	-0.17792504603490364
-0.48000101684374386	-0.2011460063436547
-0.47993998168749386	-0.22328173549486593
-0.47987894653124386	-0.2442080768108485
-0.47981791137499386	-0.2638074915233811
-0.47975687621874386	-0.2819698255616283
-0.47969584106249386	-0.29859284030646865
-0.47963480590624386	-0.313582845724855
-0.47957377074999386	-0.3268551918567379
-0.47951273559374386	-0.33833477121099187
-0.47945170043749386	-0.3479564412156335
-0.47939066528124386	-0.3556653630808262
-0.47932963012499386	-0.3614173723782672
-0.47926859496874386	-0.3651791599629578
-0.47920755981249386	-0.36692854422298427
-0.47914652465624386	-0.36665451406213817
-0.47908548949999386	-0.36435738618924024
-0.47902445434374386	-0.360048725527356
-0.47896341918749386	-0.35375136230814413
-0.47890238403124386	-0.3454992064271945
-0.47884134887499386	-0.3353371172686252
-0.47878031371874386	-0.3233206219812539
-0.47871927856249386	-0.30951562360335405
-0.47865824340624386	-0.29399805284834485
-0.47859720824999386	-0.27685342029154514
-0.47853617309374386	-0.2581763776388197
-0.47847513793749386	-0.2380701510125513
-0.47841410278124386	-0.21664602403195934
-0.47835306762499386	-0.19402266354611852
-0.47829203246874386	-0.17032550357083004
-0.47823099731249386	-0.14568601913413243
-0.47816996215624386	-0.12024101221221033
-0.47810892699999386	-0.09413184141181499
-0.47804789184374386	-0.06750363129155552
-0.47798685668749386	-0.040504479520552236
-0.47792582153124386	-0.013284602100914452
-0.47786478637499386	0.014004480843283191
-0.47780375121874386	0.041210802043998976
-0.47774271606249386	0.06818280640660225
-0.47768168090624386	0.09477017049063952
-0.47762064574999386	0.12082468151039476
-0.47755961059374386	0.14620103896838316
-0.47749857543749386	0.17075768251001036
-0.47743754028124386	0.19435758065862488
-0.47737650512499386	0.21686901128016928
-0.47731546996874386	0.2381662836793273
-0.47725443481249386	0.25813045710631205
-0.47719339965624386	0.2766500113207192
-0.47713236449999386	0.29362146893792934
-0.47707132934374386	0.30894998105917126
-0.47701029418749386	0.32254986264141217
-0.47694925903124386	0.33434507164552507
-0.47688822387499386	0.3442696585995325
-0.47682718871874386	0.3522681133846534
-0.47676615356249386	0.3582956982337538
-0.47670511840624386	0.3623187104229435
-0.47664408324999386	0.3643146460714219
-0.47658304809374386	0.3642723756968106
-0.47652201293749386	0.3621921634847612
-0.47646097778124386	0.35808571710204595
-0.47639994262499386	0.3519760875307993
-0.47633890746874386	0.34389757515511776
-0.47627787231249386	0.333895521216538
-0.47621683715624386	0.3220260756640093
-0.47615580199999386	0.30835587027435835
-0.47609476684374386	0.29296166384644456
-0.47603373168749386	0.2759299052130546
-0.47597269653124386	0.25735626181571547
-0.47591166137499386	0.2373450773382861
-0.47585062621874386	0.21600879284004257
-0.47578959106249386	0.19346733463323565
-0.47572855590624386	0.16984740229850082
-0.47566752074999386	0.14528181901898568
-0.47560648559374386	0.11990872966829191
-0.47554545043749386	0.0938708737885889
-0.47548441528124386	0.06731475336527656
-0.47542338012499386	0.0403898326259169
-0.47536234496874386	0.013247679864550917
-0.47530130981249386	-0.01395885948400166
-0.47524027465624386	-0.041076550890993234
-0.47517923949999386	-0.0679526031264806
-0.47511820434374386	-0.09443554573529286
-0.47505716918749386	-0.12037608793968972
-0.47499613403124386	-0.14562792264888424
-0.47493509887499386	-0.17004860285796636
-0.47487406371874386	-0.1935003007190016
-0.47481302856249386	-0.21585061964374136
-0.47475199340624386	-0.2369733032642447
-0.47469095824999386	-0.25674899198335815
-0.47462992309374386	-0.27506585831097186
-0.47456888793749386	-0.2918202808302619
-0.47450785278124386	-0.3069173844839058
-0.47444681762499386	-0.3202716177163009
-0.47438578246874386	-0.3318072270873136
-0.47432474731249386	-0.3414586713071767
-0.47426371215624386	-0.3491710270628964
-0.47420267699999386	-0.35490026902509964
-0.47414164184374386	-0.35861355810725
-0.47408060668749386	-0.3602893923285135
-0.47401957153124386	-0.35991778055581486
-0.47395853637499386	-0.3575002524684582
-0.47389750121874386	-0.35304990370283923
-0.47383646606249386	-0.3465912893202533
-0.47377543090624386	-0.3381603196909672
-0.47371439574999386	-0.3278040421307499
-0.47365336059374386	-0.31558039269065974
-0.47359232543749386	-0.30155787805701745
-0.47353129028124386	-0.2858151758868588
-0.47347025512499386	-0.2684407236613131
-0.47340921996874386	-0.2495321967241693
-0.47334818481249386	-0.22919598329705945
-0.47328714965624386	-0.20754657530260917
-0.47322611449999386	-0.18470593629462156
-0.47316507934374386	-0.16080280017916465
-0.47310404418749386	-0.13597197668151279
-0.47304300903124386	-0.11035356856405688
-0.47298197387499386	-0.08409217609600454
-0.47292093871874386	-0.057336130058989986
-0.47285990356249386	-0.03023660058339182
-0.47279886840624386	-0.002946767662346633
-0.47273783324999386	0.024379021644379988
-0.47267679809374386	0.05158616409614387
-0.47261576293749386	0.07852063691478452
-0.47255472778124386	0.10502991313395044
-0.47249369262499386	0.13096375071693703
-0.47243265746874386	0.15617513293232219
-0.47237162231249386	0.18052102446443175
-0.47231058715624386	0.20386322624673187
-0.47224955199999386	0.22606914091375405
-0.47218851684374386	0.24701253294246997
-0.47212748168749386	0.2665742432511367
-0.47206644653124386	0.2846428495005044
-0.47200541137499386	0.3011153464922572
-0.47194437621874386	0.3158976639208612
-0.47188334106249386	0.3289052878697749
-0.47182230590624386	0.3400636486200813
-0.47176127074999386	0.349308635588667
-0.47170023559374386	0.3565869063686201
-0.47163920043749386	0.36185622361774333
-0.47157816528124386	0.365085685373224
-0.47151713012499386	0.36625591747241
-0.47145609496874386	0.36535917960376085
-0.47139505981249386	0.3623994227553723
-0.47133402465624386	0.35739227041428695
-0.47127298949999386	0.35036493269921787
-0.47121195434374386	0.34135607304829907
-0.47115091918749386	0.33041556958182705
-0.47108988403124386	0.31760427442001543
-0.47102884887499386	0.30299363801017626
-0.47096781371874386	0.2866653386874715
-0.47090677856249386	0.26871081885290615
-0.47084574340624386	0.24923076261350588
-0.47078470824999386	0.22833453740939025
-0.47072367309374386	0.20613959182357608
-0.47066263793749386	0.1827707725727723
-0.47060160278124386	0.15835963748223716
-0.47054056762499386	0.1330437091407516
-0.47047953246874386	0.10696570974534635
-0.47041849731249386	0.08027272346619944
