Time	Frequency
-0.5000193120937411	0.22892908878359458
-0.49995827693749106	0.25744537229117487
-0.49989724178124106	0.28389686919381985
-0.49983620662499106	0.3080679619628653
-0.49977517146874106	0.32976130243968177
-0.49971413631249106	0.34879940502472334
-0.49965310115624106	0.3650260426788785
-0.49959206599999106	0.37830760146847947
-0.49953103084374106	0.3885340717959397
-0.49946999568749106	0.39562004478033147
-0.49940896053124106	0.3995053411914482
-0.49934792537499106	0.40015555025069827
-0.49928689021874106	0.39756232664497454
-0.49922585506249106	0.3917434419621737
-0.49916481990624106	0.38274270743456335
-0.49910378474999106	0.37062958509342775
-0.49904274959374106	0.3554986939287718
-0.49898171443749106	0.33746903152078844
-0.49892067928124106	0.3166830405102785
-0.49885964412499106	0.2933054961089891
-0.49879860896874106	0.2675221622154141
-0.49873757381249106	0.23953833178906206
-0.49867653865624106	0.20957718788505866
-0.49861550349999106	0.1778780077569116
-0.49855446834374106	0.14469423616341442
-0.49849343318749106	0.11029149782587011
-0.49843239803124106	0.07494542383365402
-0.49837136287499106	0.03893943380580283
-0.49831032771874106	0.0025625238610643203
-0.49824929256249106	-0.03389315875901819
-0.49818825740624106	-0.07013455968497322
-0.49812722224999106	-0.10587015544206353
-0.49806618709374106	-0.14081228051729083
-0.49800515193749106	-0.1746793858806045
-0.49794411678124106	-0.20719846335751113
-0.49788308162499106	-0.23810703446177597
-0.49782204646874106	-0.2671554715962011
-0.49776101131249106	-0.29410891559796093
-0.49769997615624106	-0.3187491306323123
-0.49763894099999106	-0.34087645469784306
-0.49757790584374106	-0.3603111662707353
-0.49751687068749106	-0.3768951742095535
-0.49745583553124106	-0.3904931740892741
-0.49739480037499106	-0.4009937593174031
-0.49733376521874106	-0.40831042238081594
-0.49727273006249106	-0.41238213133958823
-0.49721169490624106	-0.41317396912124543
-0.49715065974999106	-0.41067732908627597
-0.49708962459374106	-0.404910065714572
-0.49702858943749106	-0.39591633123108316
-0.49696755428124106	-0.3837662399181548
-0.49690651912499106	-0.3685553433545472
-0.49684548396874106	-0.3504038223028939
-0.49678444881249106	-0.3294555973727581
-0.49672341365624106	-0.3058771302329734
-0.49666237849999106	-0.27985611035897506
-0.49660134334374106	-0.2515999782745922
-0.49654030818749106	-0.2213342135454087
-0.49647927303124106	-0.1893005733695877
-0.49641823787499106	-0.15575513371391367
-0.49635720271874106	-0.1209662256059245
-0.49629616756249106	-0.08521229263683382
-0.49623513240624106	-0.048779631500643045
-0.49617409724999106	-0.011960117656629795
-0.49611306209374106	0.024951189738339923
-0.49605202693749106	0.06165837432319504
-0.49599099178124106	0.09786709198635059
-0.49592995662499106	0.13328692220615046
-0.49586892146874106	0.16763372808485485
-0.49580788631249106	0.20063192963977952
-0.49574685115624106	0.23201675283092782
-0.49568581599999106	0.26153636391153556
-0.49562478084374106	0.2889538831252907
-0.49556374568749106	0.31404937951763046
-0.49550271053124106	0.3366215188216115
-0.49544167537499106	0.3564893469607066
-0.49538064021874106	0.3734936566626155
-0.49531960506249106	0.38749829140599074
-0.49525856990624106	0.39839132274562483
-0.49519753474999106	0.4060858679174816
-0.49513649959374106	0.410520877058
-0.49507546443749106	0.4116615845302632
-0.49501442928124106	0.409499833462089
-0.49495339412499106	0.4040541236634118
-0.49489235896874106	0.3953694905357463
-0.49483132381249106	0.3835171378969269
-0.49477028865624106	0.3685938682234305
-0.49470925349999106	0.35072132396092914
-0.49464821834374106	0.33004498271756544
-0.49458718318749106	0.30673302134481734
-0.49452614803124106	0.2809749230767035
-0.49446511287499106	0.25297998917893744
-0.49440407771874106	0.22297561499899932
-0.49434304256249106	0.19120548265578477
-0.49428200740624106	0.1579275625170875
-0.49422097224999106	0.1234120447679864
-0.49415993709374106	0.0879391883685497
-0.49409890193749106	0.0517969408351019
-0.49403786678124106	0.015278757155392945
-0.49397683162499106	-0.021318904829126212
-0.49391579646874106	-0.057698911592298924
-0.49385476131249106	-0.09356589699155024
-0.49379372615624106	-0.12862866883693747
-0.49373269099999106	-0.16260251103826368
-0.49367165584374106	-0.19521160187789757
-0.49361062068749106	-0.22619112993139032
-0.49354958553124106	-0.25528957288033144
-0.49348855037499106	-0.2822706299559355
-0.49342751521874106	-0.30691523108285873
-0.49336648006249106	-0.32902329048684814
-0.49330544490624106	-0.34841530892288053
-0.49324440974999106	-0.36493390268590803
-0.49318337459374106	-0.37844502065499097
-0.49312233943749106	-0.38883910591192605
-0.49306130428124106	-0.39603194077262405
-0.49300026912499106	-0.39996537844894275
-0.49293923396874106	-0.40060779969117666
-0.49287819881249106	-0.3979544015776554
-0.49281716365624106	-0.3920272231367055
-0.49275612849999106	-0.38287499704004063
-0.49269509334374106	-0.37057275138761403
-0.49263405818749106	-0.35522120583403843
-0.49257302303124106	-0.336945981515356
-0.49251198787499106	-0.3158965570092072
-0.49245095271874106	-0.2922450998757895
-0.49238991756249106	-0.26618503271737703
-0.49232888240624106	-0.23792950698149612
-0.49226784724999106	-0.20770964454804103
-0.49220681209374106	-0.17577267215819647
-0.49214577693749106	-0.14237993682290637
-0.49208474178124106	-0.10780473880406737
-0.49202370662499106	-0.07233015703354063
-0.49196267146874106	-0.036246712060989575
-0.49190163631249106	0.00014997384262690949
-0.49184060115624106	0.036561601322223934
-0.49177956599999106	0.07268962185176915
-0.49171853084374106	0.10823764041533586
-0.49165749568749106	0.1429138922972253
-0.49159646053124106	0.17643356067732285
-0.49153542537499106	0.20852115132317947
-0.49147439021874106	0.23891271666618027
-0.49141335506249106	0.2673580082826809
-0.49135231990624106	0.2936225765280533
-0.49129128474999106	0.31748960691440775
-0.49123024959374106	0.3387617771139327
-0.49116921443749106	0.3572628360200956
-0.49110817928124106	0.3728390592090674
-0.49104714412499106	0.38536053387315156
-0.49098610896874106	0.3947221898539501
-0.49092507381249106	0.40084473525099706
-0.49086403865624106	0.40367526524356395
-0.49080300349999106	0.40318772849853535
-0.49074196834374106	0.3993831655348514
-0.49068093318749106	0.3922897028720536
-0.49061989803124106	0.3819623510684901
-0.49055886287499106	0.36848256284160574
-0.49049782771874106	0.3519576000405515
-0.49043679256249106	0.33251965758759294
-0.49037575740624106	0.3103248221452479
-0.49031472224999106	0.28555179526251223
-0.49025368709374106	0.2584004512595871
-0.49019265193749106	0.2290902525653537
-0.49013161678124106	0.1978584224034635
-0.49007058162499106	0.16495805113164977
-0.49000954646874106	0.1306560533769331
-0.48994851131249106	0.0952309636159483
-0.48988747615624106	0.058970710564008856
-0.48982644099999106	0.02217024376380746
-0.48976540584374106	-0.014870859179332634
-0.48970437068749106	-0.051850796006767015
-0.48964333553124106	-0.08846809185444877
-0.48958230037499106	-0.12442394032424187
-0.48952126521874106	-0.15942473186674846
-0.48946023006249106	-0.19318444599581663
-0.48939919490624106	-0.22542689060187326
-0.48933815974999106	-0.25588814194846876
-0.48927712459374106	-0.2843185100082697
-0.48921608943749106	-0.31048471916304765
-0.48915505428124106	-0.33417178842132406
-0.48909401912499106	-0.3551847346367918
-0.48903298396874106	-0.3733503006067991
-0.48897194881249106	-0.38851824131980084
-0.48891091365624106	-0.4005626771602767
-0.48884987849999106	-0.40938307602982643
-0.48878884334374106	-0.4149050980158633
-0.48872780818749106	-0.4170812440980844
-0.48866677303124106	-0.41589121650759814
-0.48860573787499106	-0.41134214601637775
-0.48854470271874106	-0.4034685208954249
-0.48848366756249106	-0.3923319268044421
-0.48842263240624106	-0.37802057366164094
-0.48836159724999106	-0.36064857539939976
-0.48830056209374106	-0.340355037681334
-0.48823952693749106	-0.31730295050843826
-0.48817849178124106	-0.291677844631012
-0.48811745662499106	-0.26368632949945225
-0.48805642146874106	-0.23355437386593275
-0.48799538631249106	-0.20152549471035733
-0.48793435115624106	-0.16785881133872618
-0.48787331599999106	-0.13282684509722725
-0.48781228084374106	-0.09671342484994944
-0.48775124568749106	-0.059811278737741815
-0.48769021053124106	-0.022419682645132277
-0.48762917537499106	0.015157952874533741
-0.48756814021874106	0.05261663550602808
-0.48750710506249106	0.0896521515025138
-0.48744606990624106	0.1259637146443263
-0.48738503474999106	0.16125628145651957
-0.48732399959374106	0.19524302533569876
-0.48726296443749106	0.22764770863885556
-0.48720192928124106	0.25820687212817933
-0.48714089412499106	0.2866720902865562
-0.48707985896874106	0.3128118808505698
-0.48701882381249106	0.3364137418146938
-0.48695778865624106	0.35728578964927576
-0.48689675349999106	0.3752583749488506
-0.48683571834374106	0.3901855192170037
-0.48677468318749106	0.40194601505737887
-0.48671364803124106	0.4104445411940897
-0.48665261287499106	0.4156123789535288
-0.48659157771874106	0.4174079949984205
-0.48653054256249106	0.41581742197040705
-0.48646950740624106	0.4108543433424349
-0.48640847224999106	0.4025600164024301
-0.48634743709374106	0.3910029395120677
-0.48628640193749106	0.3762782882377127
-0.48622536678124106	0.358507165241195
-0.48616433162499106	0.33783559975757965
-0.48610329646874106	0.31443336577161335
-0.48604226131249106	0.2884926091655159
-0.48598122615624106	0.2602262526322934
-0.48592019099999106	0.22986630107147416
-0.48585915584374106	0.19766190220617333
-0.48579812068749106	0.1638773283369839
-0.48573708553124106	0.12878983346660527
-0.48567605037499106	0.09268734356758354
-0.48561501521874106	0.055866137330414886
-0.48555398006249106	0.018628384857067123
-0.48549294490624106	-0.018720301572469282
-0.48543190974999106	-0.055873385929241924
-0.48537087459374106	-0.09252592610481679
-0.48530983943749106	-0.12837707922633892
-0.48524880428124106	-0.1631325712118706
-0.48518776912499106	-0.19650709620581683
-0.48512673396874106	-0.22822670192682978
-0.48506569881249106	-0.2580310014985868
-0.48500466365624106	-0.2856753507331642
-0.48494362849999106	-0.31093284541813193
-0.48488259334374106	-0.33359618587067774
-0.48482155818749106	-0.35347942232415025
-0.48476052303124106	-0.37041943003737066
-0.48469948787499106	-0.384277330425756
-0.48463845271874106	-0.39493958052224165
-0.48457741756249106	-0.4023189449239654
-0.48451638240624106	-0.40635523188343226
-0.48445534724999106	-0.40701575532528184
-0.48439431209374106	-0.4042956782762427
-0.48433327693749106	-0.3982179905865634
-0.48427224178124106	-0.38883339232338804
-0.48421120662499106	-0.37621984992237
-0.48415017146874106	-0.3604819685395091
-0.48408913631249106	-0.34175016266839237
-0.48402810115624106	-0.32017956019187516
-0.48396706599999106	-0.29594875680708427
-0.48390603084374106	-0.26925834737022525
-0.48384499568749106	-0.24032928527941766
-0.48378396053124106	-0.2094010582943285
-0.48372292537499106	-0.17672973349281812
-0.48366189021874106	-0.1425858575972465
-0.48360085506249106	-0.10725220881609371
-0.48353981990624106	-0.07102150463256264
-0.48347878474999106	-0.0341939658713455
-0.48341774959374106	0.002925146121913649
-0.48335671443749106	0.04002804080030755
-0.48329567928124106	0.07680696186207572
-0.48323464412499106	0.11295667154166125
-0.48317360896874106	0.14817704216726132
-0.48311257381249106	0.1821754673606439
-0.48305153865624106	0.21466933968142118
-0.48299050349999106	0.2453883393816346
-0.48292946834374106	0.274076698680803
-0.48286843318749106	0.3004953268946541
-0.48280739803124106	0.3244237653330145
-0.48274636287499106	0.34566205536387334
-0.48268532771874106	0.36403234724330563
-0.48262429256249106	0.3793804652617431
-0.48256325740624106	0.3915770813428326
-0.48250222224999106	0.40051891225613906
-0.48244118709374106	0.4061295086991167
-0.48238015193749106	0.40835992907101815
-0.48231911678124106	0.40718917772986435
-0.48225808162499106	0.40262434922707796
-0.48219704646874106	0.3947006520666141
-0.48213601131249106	0.3834810615564279
-0.48207497615624106	0.3690558858510417
-0.48201394099999106	0.3515419792185679
-0.48195290584374106	0.3310818441622831
-0.48189187068749106	0.30784242643371756
-0.48183083553124106	0.28201377668550565
-0.48176980037499106	0.2538075011705156
-0.48170876521874106	0.22345499681814937
-0.48164773006249106	0.19120558792979364
-0.48158669490624106	0.1573244460915119
-0.48152565974999106	0.12209044690488621
-0.48146462459374106	0.0857938251229795
-0.48140358943749106	0.048733830666238084
-0.48134255428124106	0.011216247717004723
-0.48128151912499106	-0.026449158700500332
-0.48122048396874106	-0.063951145022817
-0.48115944881249106	-0.10097960254509908
-0.48109841365624106	-0.137228115536198
-0.48103737849999106	-0.17239645757915728
-0.48097634334374106	-0.2061931439542529
-0.48091530818749106	-0.23833777683606305
-0.48085427303124106	-0.2685634196701151
-0.48079323787499106	-0.29661880000354424
-0.48073220271874106	-0.32227035179595803
-0.48067116756249106	-0.3453042608026075
-0.48061013240624106	-0.36552811635090426
-0.48054909724999106	-0.38277262191901257
-0.48048806209374106	-0.3968929522927513
-0.48042702693749106	-0.40776997382581215
-0.48036599178124106	-0.4153112772467098
-0.48030495662499106	-0.4194519009683676
-0.48024392146874106	-0.4201549629266726
-0.48018288631249106	-0.4174118951644186
-0.48012185115624106	-0.4112426143127619
-0.48006081599999106	-0.4016953211431484
-0.47999978084374106	-0.3888461339527946
-0.47993874568749106	-0.37279850026251743
-0.47987771053124106	-0.35368231325924093
-0.47981667537499106	-0.3316528994760112
-0.47975564021874106	-0.30688972021543426
-0.47969460506249106	-0.27959490862247804
-0.47963356990624106	-0.2499916311777075
-0.47957253474999106	-0.2183222189855635
-0.47951149959374106	-0.18484621039450969
-0.47945046443749106	-0.14983819911014218
-0.47938942928124106	-0.11358554644964755
-0.47932839412499106	-0.07638608551503745
-0.47926735896874106	-0.038545566002937376
-0.47920632381249106	-0.0003752132790070016
-0.47914528865624106	0.03781089123249945
-0.47908425349999106	0.07569840121799598
-0.47902321834374106	0.11297526210434455
-0.47896218318749106	0.1493343823728943
-0.47890114803124106	0.18447607820482634
-0.47884011287499106	0.21811062733150702
-0.47877907771874106	0.24996064255613398
-0.47871804256249106	0.2797633780129007
-0.47865700740624106	0.30727291513392224
-0.47859597224999106	0.33226219910303034
-0.47853493709374106	0.3545249359807472
-0.47847390193749106	0.373877301726175
-0.47841286678124106	0.3901594899791422
-0.47835183162499106	0.4032370212559317
-0.47829079646874106	0.41300189897865774
-0.47822976131249106	0.419373480777971
-0.47816872615624106	0.422299196654518
-0.47810769099999106	0.42175496282540015
-0.47804665584374106	0.41774540801331783
-0.47798562068749106	0.41030386015786713
-0.47792458553124106	0.39949204393962284
-0.47786355037499106	0.38539962793197763
-0.47780251521874106	0.36814345079593963
-0.47774148006249106	0.3478665904581173
-0.47768044490624106	0.32473717200530317
-0.47761940974999106	0.29894698520766394
-0.47755837459374106	0.27070991671521427
-0.47749733943749106	0.24026015862655956
-0.47743630428124106	0.2078502935142453
-0.47737526912499106	0.173749181810092
-0.47731423396874106	0.13823978109093238
-0.47725319881249106	0.10161673752918587
-0.47719216365624106	0.06418398272765359
-0.47713112849999106	0.02625223480538413
-0.47707009334374106	-0.011863654463411597
-0.47700905818749106	-0.0498472220020824
-0.47694802303124106	-0.08738310408450249
-0.47688698787499106	-0.12415961497202875
-0.47682595271874106	-0.1598713287089058
-0.47676491756249106	-0.1942216568275084
-0.47670388240624106	-0.22692529725176525
-0.47664284724999106	-0.2577106078878824
-0.47658181209374106	-0.28632186528956277
-0.47652077693749106	-0.31252143883074485
-0.47645974178124106	-0.33609170844519376
-0.47639870662499106	-0.35683694154399803
-0.47633767146874106	-0.37458489158256236
-0.47627663631249106	-0.38918825417773856
-0.47621560115624106	-0.4005259174667445
-0.47615456599999106	-0.4085039384384076
-0.47609353084374106	-0.4130563849975862
-0.47603249568749106	-0.41414585600926446
-0.47597146053124106	-0.411763819844513
-0.47591042537499106	-0.40593070128431924
-0.47584939021874106	-0.39669570411774807
-0.47578835506249106	-0.3841364278647625
-0.47572731990624106	-0.3683582269852989
-0.47566628474999106	-0.34949333567040397
-0.47560524959374106	-0.3276997859065007
-0.47554421443749106	-0.30316009351867695
-0.47548317928124106	-0.27607974361931736
-0.47542214412499106	-0.2466854926911574
-0.47536110896874106	-0.21522348342766495
-0.47530007381249106	-0.18195717924399502
-0.47523903865624106	-0.1471652166914537
-0.47517800349999106	-0.11113903421576693
-0.47511696834374106	-0.074180480265751
-0.47505593318749106	-0.0365992988996904
-0.47499489803124106	0.0012895060923961959
-0.47493386287499106	0.03916819564323283
-0.47487282771874106	0.07671907161998287
-0.47481179256249106	0.1136270347248715
-0.47475075740624106	0.14958224893154057
-0.47468972224999106	0.18428277518871367
-0.47462868709374106	0.21743699905202118
-0.47456765193749106	0.2487661852458021
-0.47450661678124106	0.27800673443799034
-0.47444558162499106	0.3049124171306082
-0.47438454646874106	0.3292564543102261
-0.47432351131249106	0.3508334076546573
-0.47426247615624106	0.3694609017290323
-0.47420144099999106	0.38498118114017865
-0.47414040584374106	0.39726242671038386
-0.47407937068749106	0.406199877036451
-0.47401833553124106	0.4117167218707713
-0.47395730037499106	0.4137647394202666
-0.47389626521874106	0.41232476107970956
-0.47383523006249106	0.4074067833801073
-0.47377419490624106	0.3990499660517793
-0.47371315974999106	0.3873222719182873
-0.47365212459374106	0.37231993694855725
-0.47359108943749106	0.35416668837034937
-0.47353005428124106	0.33301269082637364
-0.47346901912499106	0.30903336373512164
-0.47340798396874106	0.2824278632825651
-0.47334694881249106	0.2534174722379552
-0.47328591365624106	0.22224375994351808
-0.47322487849999106	0.18916654663871776
-0.47316384334374106	0.15446176609045079
-0.47310280818749106	0.11841916576642036
-0.47304177303124106	0.08133986033622424
-0.47298073787499106	0.0435338630843842
-0.47291970271874106	0.005317461704167516
-0.47285866756249106	-0.032989422770082655
-0.47279763240624106	-0.07106586211247604
-0.47273659724999106	-0.10859270417950674
-0.47267556209374106	-0.1452551317395318
-0.47261452693749106	-0.1807453839900032
-0.47255349178124106	-0.21476531814569996
-0.47249245662499106	-0.2470288555779448
-0.47243142146874106	-0.2772644975454959
-0.47237038631249106	-0.30521748032424695
-0.47230935115624106	-0.3306520089296705
-0.47224831599999106	-0.35335320959665845
-0.47218728084374106	-0.3731289317574924
-0.47212624568749106	-0.38981140300539796
-0.47206521053124106	-0.40325861096377413
-0.47200417537499106	-0.41335554418430953
-0.47194314021874106	-0.4200151448606161
-0.47188210506249106	-0.42317907275574557
-0.47182106990624106	-0.42281819695996453
-0.47176003474999106	-0.41893287609057844
-0.47169899959374106	-0.4115529555359222
-0.47163796443749106	-0.4007375462624091
-0.47157692928124106	-0.38657454884905473
-0.47151589412499106	-0.36917992431557195
-0.47145485896874106	-0.34869675558753593
-0.47139382381249106	-0.3252940505348097
-0.47133278865624106	-0.2991653468500796
-0.47127175349999106	-0.2705271200587029
-0.47121071834374106	-0.2396169602938796
-0.47114968318749106	-0.20669159705046783
-0.47108864803124106	-0.17202479523075132
-0.47102761287499106	-0.13590501817926173
-0.47096657771874106	-0.09863306017414548
-0.47090554256249106	-0.06051952271349448
-0.47084450740624106	-0.021882182656846553
-0.47078347224999106	0.016956586014015097
-0.47072243709374106	0.055672595922087904
-0.47066140193749106	0.09394252598441835
-0.47060036678124106	0.1314466157887249
-0.47053933162499106	0.16787137897328291
-0.47047829646874106	0.202912195878951
-0.47041726131249106	0.2362759425288557
