Time	Frequency
-0.500047557093751	0.3644493436211054
-0.49998652193750104	0.36968870527524345
-0.49992548678125104	0.37241768072827275
-0.49986445162500104	0.3726142128658169
-0.49980341646875104	0.37027336243327663
-0.49974238131250104	0.3654073207131505
-0.49968134615625104	0.3580453688765499
-0.49962031100000104	0.34823366289373386
-0.49955927584375104	0.33603496440995695
-0.49949824068750104	0.32152820085857736
-0.49943720553125104	0.30480796353156964
-0.49937617037500104	0.2859838730889164
-0.49931513521875104	0.2651798473383719
-0.49925410006250104	0.24253328214948738
-0.49919306490625104	0.21819413420163014
-0.49913202975000104	0.19232389575081643
-0.49907099459375104	0.16509455523737068
-0.49900995943750104	0.13668740034652954
-0.49894892428125104	0.10729182632682649
-0.49888788912500104	0.07710406331441527
-0.49882685396875104	0.04632582639792722
-0.49876581881250104	0.015163026798355033
-0.49870478365625104	-0.01617570922526981
-0.49864374850000104	-0.04748035737216204
-0.49858271334375104	-0.07854098359049444
-0.49852167818750104	-0.1091490997570237
-0.49846064303125104	-0.1390991077533294
-0.49839960787500104	-0.1681897026114113
-0.49833857271875104	-0.1962251726880998
-0.49827753756250104	-0.22301679453098583
-0.49821650240625104	-0.2483840612673508
-0.49815546725000104	-0.2721559415665607
-0.49809443209375104	-0.29417199596402555
-0.49803339693750104	-0.3142835158848133
-0.49797236178125104	-0.3323544869858241
-0.49791132662500104	-0.34826256395681704
-0.49785029146875104	-0.3618998486455035
-0.49778925631250104	-0.373173677689801
-0.49772822115625104	-0.3820072229862805
-0.49766718600000104	-0.3883400240680824
-0.49760615084375104	-0.39212843318854146
-0.49754511568750104	-0.3933458590718551
-0.49748408053125104	-0.39198304022671837
-0.49742304537500104	-0.38804801769671726
-0.49736201021875104	-0.3815661857644385
-0.49730097506250104	-0.3725800487786131
-0.49723993990625104	-0.3611489992332891
-0.49717890475000104	-0.34734888995262664
-0.49711786959375104	-0.3312715469131211
-0.49705683443750104	-0.3130241579758496
-0.49699579928125104	-0.2927285245047181
-0.49693476412500104	-0.2705203038411641
-0.49687372896875104	-0.24654802724721084
-0.49681269381250104	-0.22097217361477406
-0.49675165865625104	-0.19396402361759807
-0.49669062350000104	-0.16570455187788555
-0.49662958834375104	-0.1363831934560625
-0.49656855318750104	-0.10619655234466337
-0.49650751803125104	-0.07534709464272735
-0.49644648287500104	-0.04404179187545394
-0.49638544771875104	-0.012490662859141442
-0.49632441256250104	0.01909457022394752
-0.49626337740625104	0.050501957392725144
-0.49620234225000104	0.08152074975240549
-0.49614130709375104	0.11194281674870658
-0.49608027193750104	0.1415640728881595
-0.49601923678125104	0.17018581946825773
-0.49595820162500104	0.1976161765125422
-0.49589716646875104	0.22367126478126953
-0.49583613131250104	0.24817657052618594
-0.49577509615625104	0.2709680445481246
-0.49571406100000104	0.2918932748286656
-0.49565302584375104	0.310812480547027
-0.49559199068750104	0.3275994965076129
-0.49553095553125104	0.34214260803167684
-0.49546992037500104	0.3543453159791082
-0.49540888521875104	0.3641270276356075
-0.49534785006250104	0.37142353327646443
-0.49528681490625104	0.3761875566303216
-0.49522577975000104	0.37838894820270036
-0.49516474459375104	0.3780150268854591
-0.49510370943750104	0.37507055499476455
-0.49504267428125104	0.36957779604175883
-0.49498163912500104	0.3615763182260656
-0.49492060396875104	0.35112274114224623
-0.49485956881250104	0.33829038105039616
-0.49479853365625104	0.3231686952646636
-0.49473749850000104	0.30586276798135426
-0.49467646334375104	0.2864924968635462
-0.49461542818750104	0.26519187332281074
-0.49455439303125104	0.2421080087734864
-0.49449335787500104	0.21740017684947194
-0.49443232271875104	0.1912387040269295
-0.49437128756250104	0.16380384355955543
-0.49431025240625104	0.13528451770483713
-0.49424921725000104	0.10587704855957716
-0.49418818209375104	0.07578385013372849
-0.49412714693750104	0.045211966678614504
-0.49406611178125104	0.014371799113720496
-0.49400507662500104	-0.01652448620583543
-0.49394404146875104	-0.047264274018998596
-0.49388300631250104	-0.07763601357007491
-0.49382197115625104	-0.10743067320166218
-0.49376093600000104	-0.1364430902243379
-0.49369990084375104	-0.16447349520998605
-0.49363886568750104	-0.19132874256541535
-0.49357783053125104	-0.21682374605999255
-0.49351679537500104	-0.24078265790110168
-0.49345576021875104	-0.2630401401777777
-0.49339472506250104	-0.28344246084514363
-0.49333368990625104	-0.3018485367802157
-0.49327265475000104	-0.3181309597004214
-0.49321161959375104	-0.33217680061907284
-0.49315058443750104	-0.343888449648547
-0.49308954928125104	-0.35318424728655623
-0.49302851412500104	-0.35999907255894564
-0.49296747896875104	-0.3642847939250364
-0.49290644381250104	-0.3660105908895437
-0.49284540865625104	-0.36516319950831416
-0.49278437350000104	-0.36174698833365104
-0.49272333834375104	-0.3557839492390732
-0.49266230318750104	-0.3473135629352089
-0.49260126803125104	-0.33639251532158804
-0.49254023287500104	-0.3230943522001446
-0.49247919771875104	-0.30750895439288406
-0.49241816256250104	-0.28974196373487315
-0.49235712740625104	-0.26991403067982567
-0.49229609225000104	-0.2481600428304004
-0.49223505709375104	-0.22462817531010354
-0.49217402193750104	-0.1994789133714884
-0.49211298678125104	-0.17288392800950853
-0.49205195162500104	-0.1450249512709027
-0.49199091646875104	-0.11609251268434968
-0.49192988131250104	-0.08628462403987226
-0.49186884615625104	-0.05580550661410594
-0.49180781100000104	-0.02486408198761104
-0.49174677584375104	0.006327323762537175
-0.49168574068750104	0.03755456903889407
-0.49162470553125104	0.06860302082690073
-0.49156367037500104	0.09925912286259614
-0.49150263521875104	0.1293118136613252
-0.49144160006250104	0.15855397701384225
-0.49138056490625104	0.18678388833566398
-0.49131952975000104	0.21380651260675587
-0.49125849459375104	0.23943499860254155
-0.49119745943750104	0.2634917599412311
-0.49113642428125104	0.2858098964487034
-0.49107538912500104	0.30623419021362525
-0.49101435396875104	0.32462226387312876
-0.49095331881250104	0.34084552803683954
-0.49089228365625104	0.35479006365226295
-0.49083124850000104	0.36635745812973763
-0.49077021334375104	0.3754654057342815
-0.49070917818750104	0.3820483861077318
-0.49064814303125104	0.3860580182027789
-0.49058710787500104	0.38746350424721065
-0.49052607271875104	0.38625175340908036
-0.49046503756250104	0.3824275779039622
-0.49040400240625104	0.37601359654215016
-0.49034296725000104	0.36705014029132876
-0.49028193209375104	0.3555949712530603
-0.49022089693750104	0.34172288899729136
-0.49015986178125104	0.32552527116838254
-0.49009882662500104	0.3071093978904121
-0.49003779146875104	0.2865977939205826
-0.48997675631250104	0.26412735051206504
-0.48991572115625104	0.23984843934179872
-0.48985468600000104	0.21392385546361328
-0.48979365084375104	0.18652775166561492
-0.48973261568750104	0.15784441998280166
-0.48967158053125104	0.1280670657773848
-0.48961054537500104	0.0973964719861872
-0.48954951021875104	0.06603965714884878
-0.48948847506250104	0.03420843690334245
-0.48942743990625104	0.0021179815122984572
-0.48936640475000104	-0.030014616934742167
-0.48930536959375104	-0.061971876630715524
-0.48924433443750104	-0.09353737396837639
-0.48918329928125104	-0.12449725114087046
-0.48912226412500104	-0.15464167206084248
-0.48906122896875104	-0.18376622445418456
-0.48900019381250104	-0.21167338851055117
-0.48893915865625104	-0.23817383889629715
-0.48887812350000104	-0.26308773225828763
-0.48881708834375104	-0.286246020891916
-0.48875605318750104	-0.3074915016537017
-0.48869501803125104	-0.3266800105243424
-0.48863398287500104	-0.34368131356716597
-0.48857294771875104	-0.3583800840438089
-0.48851191256250104	-0.3706766566425901
-0.48845087740625104	-0.3804877113495638
-0.48838984225000104	-0.3877469010307336
-0.48832880709375104	-0.39240522228810176
-0.48826777193750104	-0.3944314727513042
-0.48820673678125104	-0.3938123623107108
-0.48814570162500104	-0.39055269919551305
-0.48808466646875104	-0.38467529809449275
-0.48802363131250104	-0.3762208778952584
-0.48796259615625104	-0.36524776268731995
-0.48790156100000104	-0.3518314959711287
-0.48784052584375104	-0.33606434061212365
-0.48777949068750104	-0.3180546221056589
-0.48771845553125104	-0.2979260420864291
-0.48765742037500104	-0.2758167721140315
-0.48759638521875104	-0.2518785753010854
-0.48753535006250104	-0.22627571527222143
-0.48747431490625104	-0.19918387779140578
-0.48741327975000104	-0.17078893429578065
-0.48735224459375104	-0.14128569176207045
-0.48729120943750104	-0.11087655443230085
-0.48723017428125104	-0.07977012689327723
-0.48716913912500104	-0.048179800324067566
-0.48710810396875104	-0.016322277938107872
-0.48704706881250104	0.015583923417065396
-0.48698603365625104	0.047319948954800746
-0.48692499850000104	0.07866809362243557
-0.48686396334375104	0.10941340884283436
-0.48680292818750104	0.13934499124209612
-0.48674189303125104	0.16825762203416486
-0.48668085787500104	0.19595307001258833
-0.48661982271875104	0.222241459562895
-0.48655878756250104	0.24694266688456742
-0.48649775240625104	0.2698874169231271
-0.48643671725000104	0.2909186219627029
-0.48637568209375104	0.30989230494268677
-0.48631464693750104	0.326678710281717
-0.48625361178125104	0.34116314748609383
-0.48619257662500104	0.35324679604492
-0.48613154146875104	0.3628473975555643
-0.48607050631250104	0.36989980840192954
-0.48600947115625104	0.37435649233554513
-0.48594843600000104	0.37618779899408167
-0.48588740084375104	0.37538223346222344
-0.48582636568750104	0.3719464868017659
-0.48576533053125104	0.3659054400779043
-0.48570429537500104	0.35730196767562505
-0.48564326021875104	0.346196666535905
-0.48558222506250104	0.3326674315257196
-0.48552118990625104	0.316808935638093
-0.48546015475000104	0.29873198017480457
-0.48539911959375104	0.2785627148125405
-0.48533808443750104	0.25644181247890313
-0.48527704928125104	0.23252346223007003
-0.48521601412500104	0.20697434408082677
-0.48515497896875104	0.17997245929371003
-0.48509394381250104	0.1517059039595492
-0.48503290865625104	0.12237160759079357
-0.48497187350000104	0.09217392106316134
-0.48491083834375104	0.06132326244324657
-0.48484980318750104	0.030034628007090745
-0.48478876803125104	-0.001473883577695599
-0.48472773287500104	-0.03298255232945445
-0.48466669771875104	-0.06427161430249556
-0.48460566256250104	-0.09512270009080002
-0.48454462740625104	-0.12532041281113546
-0.48448359225000104	-0.15465380429035533
-0.48442255709375104	-0.1829177936419942
-0.48436152193750104	-0.2099146745729369
-0.48430048678125104	-0.23545537235054484
-0.48423945162500104	-0.2593608685451101
-0.48417841646875104	-0.28146338182565894
-0.48411738131250104	-0.30160752878667957
-0.48405634615625104	-0.31965146558700364
-0.48399531100000104	-0.33546778471292465
-0.48393427584375104	-0.34894451464757886
-0.48387324068750104	-0.359985795000189
-0.48381220553125104	-0.368512638934995
-0.48375117037500104	-0.374463427362605
-0.48369013521875104	-0.37779437760257406
-0.48362910006250104	-0.3784798583930551
-0.48356806490625104	-0.37651254492492137
-0.48350702975000104	-0.37190353855301667
-0.48344599459375104	-0.36468222942628387
-0.48338495943750104	-0.35489617962043496
-0.48332392428125104	-0.34261073383045637
-0.48326288912500104	-0.32790864271887155
-0.48320185396875104	-0.31088944996807144
-0.48314081881250104	-0.2916688394103412
-0.48307978365625104	-0.27037784971076007
-0.48301874850000104	-0.24716194512024747
-0.48295771334375104	-0.22218007212293614
-0.48289667818750104	-0.19560350099443055
-0.48283564303125104	-0.16761470140095866
-0.48277460787500104	-0.13840607331861998
-0.48271357271875104	-0.10817859638153382
-0.48265253756250104	-0.07714047150615179
-0.48259150240625104	-0.04550568884970857
-0.48253046725000104	-0.013492516988774189
-0.48246943209375104	0.01867797434730335
-0.48240839693750104	0.05078346107638326
-0.48234736178125104	0.08260188146010958
-0.48228632662500104	0.11391299784859854
-0.48222529146875104	0.14449992716904023
-0.48216425631250104	0.1741506005618657
-0.48210322115625104	0.20265930091221596
-0.48204218600000104	0.2298280156259038
-0.48198115084375104	0.25546788469234344
-0.48192011568750104	0.2794004790742831
-0.48185908053125104	0.30145901900255123
-0.48179804537500104	0.32148960077926925
-0.48173701021875104	0.3393522081956817
-0.48167597506250104	0.3549217245992906
-0.48161493990625104	0.36808879872356653
-0.48155390475000104	0.3787606151802718
-0.48149286959375104	0.386861547290777
-0.48143183443750104	0.39233368461398554
-0.48137079928125104	0.39513725808387457
-0.48130976412500104	0.39525091241189364
-0.48124872896875104	0.3926718757187518
-0.48118769381250104	0.38741598670016975
-0.48112665865625104	0.37951759323936096
-0.48106562350000104	0.36902933007439703
-0.48100458834375104	0.3560217625401533
-0.48094355318750104	0.3405829096290867
-0.48088251803125104	0.322817643129885
-0.48082148287500104	0.3028469711546396
-0.48076044771875104	0.28080720424640926
-0.48069941256250104	0.2568490364844262
-0.48063837740625104	0.2311364878914266
-0.48057734225000104	0.20384578806698633
-0.48051630709375104	0.17516415246357225
-0.48045527193750104	0.14528851076458688
-0.48039423678125104	0.11442411865398061
-0.48033320162500104	0.08278315560248375
-0.48027216646875104	0.05058328150845335
-0.48021113131250104	0.018046056794363437
-0.48015009615625104	-0.014604496877130174
-0.48008906100000104	-0.047143519615590296
-0.48002802584375104	-0.0793468317798522
-0.47996699068750104	-0.11099252187892154
-0.47990595553125104	-0.14186245848209442
-0.47984492037500104	-0.1717438075094723
-0.47978388521875104	-0.20043054367326324
-0.47972285006250104	-0.22772482223015578
-0.47966181490625104	-0.2534384386636533
-0.47960077975000104	-0.27739403679588687
-0.47953974459375104	-0.29942644987171374
-0.47947870943750104	-0.3193837686871357
-0.47941767428125104	-0.3371284441160638
-0.47935663912500104	-0.3525382501839071
-0.47929560396875104	-0.3655071050456632
-0.47923456881250104	-0.3759458653082544
-0.47917353365625104	-0.38378289105074054
-0.47911249850000104	-0.38896461605558236
-0.47905146334375104	-0.39145586908598373
-0.47899042818750104	-0.391240162783058
-0.47892939303125104	-0.38831980366840074
-0.47886835787500104	-0.3827158759344498
-0.47880732271875104	-0.3744681169428148
-0.47874628756250104	-0.36363463412075275
-0.47868525240625104	-0.35029151686788396
-0.47862421725000104	-0.3345323084913304
-0.47856318209375104	-0.316467368987334
-0.47850214693750104	-0.2962231004176509
-0.47844111178125104	-0.2739410863358434
-0.47838007662500104	-0.24977711196192542
-0.47831904146875104	-0.2239000610438692
-0.47825800631250104	-0.19649079050587537
-0.47819697115625104	-0.16774082020224024
-0.47813593600000104	-0.13785105058617741
-0.47807490084375104	-0.10703034046735951
-0.47801386568750104	-0.07549404979250712
-0.47795283053125104	-0.04346258289728091
-0.47789179537500104	-0.011159778078230091
-0.47783076021875104	0.021188559832838554
-0.47776972506250104	0.05335630765907077
-0.47770868990625104	0.08511857950385722
-0.47764765475000104	0.11625324173169162
-0.47758661959375104	0.14654256847616973
-0.47752558443750104	0.17577466824014093
-0.47746454928125104	0.20374500680598656
-0.47740351412500104	0.23025783734074512
-0.47734247896875104	0.2551275542082075
-0.47728144381250104	0.27818001160764233
-0.47722040865625104	0.2992537252696347
-0.47715937350000104	0.3182010320382744
-0.47709833834375104	0.33488907283100033
-0.47703730318750104	0.34920081197337133
-0.47697626803125104	0.3610357610131777
-0.47691523287500104	0.3703107842045593
-0.47685419771875104	0.3769606100371437
-0.47679316256250104	0.3809383342538963
-0.47673212740625104	0.38221576667999907
-0.47667109225000104	0.38078357510059746
-0.47661005709375104	0.37665145760244356
-0.47654902193750104	0.36984796602567144
-0.47648798678125104	0.36042043130308765
-0.47642695162500104	0.3484345392940994
-0.47636591646875104	0.33397395937967034
-0.47630488131250104	0.3171397135754198
-0.47624384615625104	0.29804950131308416
-0.47618281100000104	0.27683689461628536
-0.47612177584375104	0.25365036965238036
-0.47606074068750104	0.22865233931238238
-0.47599970553125104	0.20201794020976166
-0.47593867037500104	0.17393390606151923
-0.47587763521875104	0.14459718624422097
-0.47581660006250104	0.1142136168999054
-0.47575556490625104	0.08299647757025658
-0.47569452975000104	0.05116497813024022
-0.47563349459375104	0.018942774168485558
-0.47557245943750104	-0.013443660305429532
-0.47551142428125104	-0.04576654766277036
-0.47545038912500104	-0.07779846300818406
-0.47538935396875104	-0.1093139057333787
-0.47532831881250104	-0.14009084061712596
-0.47526728365625104	-0.1699123392666775
-0.47520624850000104	-0.19856801229870608
-0.47514521334375104	-0.2258555538578464
-0.47508417818750104	-0.25158213616924857
-0.47502314303125104	-0.2755657547590348
-0.47496210787500104	-0.2976365576587739
-0.47490107271875104	-0.3176379670143091
-0.47484003756250104	-0.33542786414886333
-0.47477900240625104	-0.35087953960779517
-0.47471796725000104	-0.36388260805130523
-0.47465693209375104	-0.3743438047802434
-0.47459589693750104	-0.38218761746108426
-0.47453486178125104	-0.38735686872968594
-0.47447382662500104	-0.389813081822908
-0.47441279146875104	-0.38953680342898395
-0.47435175631250104	-0.3865277219221651
-0.47429072115625104	-0.38080469628464686
-0.47422968600000104	-0.3724056335580132
-0.47416865084375104	-0.361387225794215
-0.47410761568750104	-0.34782457815161394
-0.47404658053125104	-0.3318106824289241
-0.47398554537500104	-0.31345578198264956
-0.47392451021875104	-0.2928866009137385
-0.47386347506250104	-0.27024547935346505
-0.47380243990625104	-0.245689366881738
-0.47374140475000104	-0.21938875690720006
-0.47368036959375104	-0.19152645913107416
-0.47361933443750104	-0.16229636939247735
-0.47355829928125104	-0.1319020848530398
-0.47349726412500104	-0.10055549210286958
-0.47343622896875104	-0.06847528692460697
-0.47337519381250104	-0.03588544384253218
-0.47331415865625104	-0.003013654194858197
-0.47325312350000104	0.029910298867852347
-0.47319208834375104	0.06265609544489514
-0.47313105318750104	0.09499456684377279
-0.47307001803125104	0.1266992218611438
-0.47300898287500104	0.15754792032348036
-0.47294794771875104	0.1873243774874838
-0.47288691256250104	0.2158196910033778
-0.47282587740625104	0.24283386319934647
-0.47276484225000104	0.2681771121473504
-0.47270380709375104	0.29167133580055776
-0.47264277193750104	0.3131512363057023
-0.47258173678125104	0.33246559783372076
-0.47252070162500104	0.34947830123309886
-0.47245966646875104	0.3640692667224131
-0.47239863131250104	0.376135395935547
-0.47233759615625104	0.3855911838091155
-0.47227656100000104	0.39236943992161893
-0.47221552584375104	0.3964216908781883
-0.47215449068750104	0.3977185789662567
-0.47209345553125104	0.39625005642873784
-0.47203242037500104	0.3920254652117444
-0.47197138521875104	0.3850735044060005
-0.47191035006250104	0.3754419988355738
-0.47184931490625104	0.36319762284722545
-0.47178827975000104	0.34842539212277696
-0.47172724459375104	0.33122811578649003
-0.47166620943750104	0.3117256549293164
-0.47160517428125104	0.29005410547924915
-0.47154413912500104	0.2663648499103215
-0.47148310396875104	0.24082347208774438
-0.47142206881250104	0.2136086556409065
-0.47136103365625104	0.18491087200521253
-0.47129999850000104	0.154931091959757
-0.47123896334375104	0.12387936141310632
-0.47117792818750104	0.09197331030329288
-0.47111689303125104	0.05943667278037936
-0.47105585787500104	0.026497657149850008
-0.47099482271875104	-0.006612614517600869
-0.47093378756250104	-0.03966174688861964
-0.47087275240625104	-0.0724177034323335
-0.47081171725000104	-0.10465045325003898
-0.47075068209375104	-0.1361335592088636
-0.47068964693750104	-0.1666458149093614
-0.47062861178125104	-0.19597277869208282
-0.47056757662500104	-0.22390827980702727
-0.47050654146875104	-0.25025590652947016
