Time	Frequency
-0.5000457890937469	0.35326625195856665
-0.49998475393749686	0.3381456674684817
-0.49992371878124686	0.32032384154587973
-0.49986268362499686	0.2999414962617021
-0.49980164846874686	0.2771596262721864
-0.49974061331249686	0.2521582373740478
-0.49967957815624686	0.2251349280677959
-0.49961854299999686	0.1963033513884917
-0.49955750784374686	0.16589154168050677
-0.49949647268749686	0.1341400861312219
-0.49943543753124686	0.10130031899531644
-0.49937440237499686	0.06763222153143861
-0.49931336721874686	0.033402515976114225
-0.49925233206249686	-0.0011175524291754967
-0.49919129690624686	-0.03565429996206233
-0.49913026174999686	-0.06993370669537978
-0.49906922659374686	-0.10368375135903095
-0.49900819143749686	-0.13663631065652754
-0.49894715628124686	-0.16852951891176213
-0.49888612112499686	-0.19910965384032783
-0.49882508596874686	-0.22813325505008053
-0.49876405081249686	-0.25536900381406324
-0.49870301565624686	-0.2805995448247746
-0.49864198049999686	-0.3036232738287921
-0.49858094534374686	-0.3242558341394439
-0.49851991018749686	-0.3423316968766347
-0.49845887503124686	-0.35770536855399915
-0.49839783987499686	-0.3702526661983077
-0.49833680471874686	-0.37987158203986554
-0.49827576956249686	-0.3864832358282362
-0.49821473440624686	-0.3900324014017633
-0.49815369924999686	-0.39048801994433535
-0.49809266409374686	-0.3878434581168282
-0.49803162893749686	-0.38211652500900795
-0.49797059378124686	-0.373349437401564
-0.49790955862499686	-0.3616083965063221
-0.49784852346874686	-0.3469831858307136
-0.49778748831249686	-0.3295863856417456
-0.49772645315624686	-0.3095525775708868
-0.49766541799999686	-0.28703723637051654
-0.49760438284374686	-0.26221555816928965
-0.49754334768749686	-0.2352810787656426
-0.49748231253124686	-0.2064441300882204
-0.49742127737499686	-0.17593026556799846
-0.49736024221874686	-0.14397839281570857
-0.49729920706249686	-0.11083897594915798
-0.49723817190624686	-0.07677204002096195
-0.49717713674999686	-0.04204511145474282
-0.49711610159374686	-0.006931122980828212
-0.49705506643749686	0.02829371129686184
-0.49699403128124686	0.06335212221515009
-0.49693299612499686	0.0979679385132862
-0.49687196096874686	0.13186825787036388
-0.49681092581249686	0.1647856549513879
-0.49674989065624686	0.19646021932304836
-0.49668885549999686	0.22664168401943605
-0.49662782034374686	0.2550913545322864
-0.49656678518749686	0.28158402907723123
-0.49650575003124686	0.30590976840698825
-0.49644471487499686	0.3278755599087729
-0.49638367971874686	0.3473068790921574
-0.49632264456249686	0.36404904140566374
-0.49626160940624686	0.3779684533463386
-0.49620057424999686	0.38895367910554624
-0.49613953909374686	0.39691633846279883
-0.49607850393749686	0.401791788470985
-0.49601746878124686	0.4035396997407611
-0.49595643362499686	0.40214433054684307
-0.49589539846874686	0.3976147090670495
-0.49583436331249686	0.38998455769351853
-0.49577332815624686	0.3793120300943826
-0.49571229299999686	0.3656792980915354
-0.49565125784374686	0.3491918732243497
-0.49559022268749686	0.3299778297086344
-0.49552918753124686	0.3081867583200387
-0.49546815237499686	0.28398864941158514
-0.49540711721874686	0.2575725092556854
-0.49534608206249686	0.22914490873872928
-0.49528504690624686	0.19892836561044183
-0.49522401174999686	0.16715954573777242
-0.49516297659374686	0.1340874826609503
-0.49510194143749686	0.09997152908028134
-0.49504090628124686	0.0650793734332329
-0.49497987112499686	0.02968490435417319
-0.49491883596874686	-0.005933944855224989
-0.49485780081249686	-0.04149739972991754
-0.49479676565624686	-0.07672605245243866
-0.49473573049999686	-0.11134303684327838
-0.49467469534374686	-0.14507629728288127
-0.49461366018749686	-0.1776606299180001
-0.49455262503124686	-0.20883991105439
-0.49449158987499686	-0.23836900976543418
-0.49443055471874686	-0.2660157792485304
-0.49436951956249686	-0.2915629489081051
-0.49430848440624686	-0.3148097269384269
-0.49424744924999686	-0.3355735339319799
-0.49418641409374686	-0.35369132874513265
-0.49412537893749686	-0.3690210039143319
-0.49406434378124686	-0.3814424565237656
-0.49400330862499686	-0.3908585674825421
-0.49394227346874686	-0.3971959836534042
-0.49388123831249686	-0.4004056866380485
-0.49382020315624686	-0.4004634221739803
-0.49375916799999686	-0.39736984923966173
-0.49369813284374686	-0.3911506076026124
-0.49363709768749686	-0.38185604818896995
-0.49357606253124686	-0.3695609180560459
-0.49351502737499686	-0.3543637011512135
-0.49345399221874686	-0.3363859098488598
-0.49339295706249686	-0.31577108061043546
-0.49333192190624686	-0.29268365634424
-0.49327088674999686	-0.2673077184357139
-0.49320985159374686	-0.2398454539755526
-0.49314881643749686	-0.21051567012315034
-0.49308778128124686	-0.1795519377865183
-0.49302674612499686	-0.14720084569671824
-0.49296571096874686	-0.11371997709635452
-0.49290467581249686	-0.07937590298125005
-0.49284364065624686	-0.04444207408361242
-0.49278260549999686	-0.009196579962009916
-0.49272157034374686	0.026079929500401628
-0.49266053518749686	0.06110662743591498
-0.49259950003124686	0.0956046028827464
-0.49253846487499686	0.12929917799501905
-0.49247742971874686	0.1619220449683518
-0.49241639456249686	0.1932134040943097
-0.49235535940624686	0.22292406204599227
-0.49229432424999686	0.2508173699264304
-0.49223328909374686	0.27667117841965677
-0.49217225393749686	0.3002795179534021
-0.49211121878124686	0.3214543477433704
-0.49205018362499686	0.3400269569760339
-0.49198914846874686	0.355849411069435
-0.49192811331249686	0.36879564782910157
-0.49186707815624686	0.3787625617701703
-0.49180604299999686	0.3856707915290682
-0.49174500784374686	0.3894653590845812
-0.49168397268749686	0.3901161646379548
-0.49162293753124686	0.3876181516490713
-0.49156190237499686	0.38199146309421844
-0.49150086721874686	0.3732811768821755
-0.49143983206249686	0.36155706306823027
-0.49137879690624686	0.34691295246121934
-0.49131776174999686	0.3294660487310095
-0.49125672659374686	0.30935599352920895
-0.49119569143749686	0.28674373685411936
-0.49113465628124686	0.2618103177610824
-0.49107362112499686	0.23475534901865341
-0.49101258596874686	0.20579551707036992
-0.49095155081249686	0.17516280147836866
-0.49089051565624686	0.1431026478127103
-0.49082948049999686	0.10987203985006483
-0.49076844534374686	0.0757374023512256
-0.49070741018749686	0.04097253404644372
-0.49064637503124686	0.0058563846207981595
-0.49058533987499686	-0.0293291443300946
-0.49052430471874686	-0.06430146999169754
-0.49046326956249686	-0.09877956932722548
-0.49040223440624686	-0.13248621441220476
-0.49034119924999686	-0.16515023611185609
-0.49028016409374686	-0.1965086068861327
-0.49021912893749686	-0.22630865663045996
-0.49015809378124686	-0.25431000501130285
-0.49009705862499686	-0.28028652161121015
-0.49003602346874686	-0.304028167949656
-0.48997498831249686	-0.32534262163217553
-0.48991395315624686	-0.34405690564542124
-0.48985291799999686	-0.3600186941172726
-0.48979188284374686	-0.3730976150244485
-0.48973084768749686	-0.3831862619989808
-0.48966981253124686	-0.39020108711950285
-0.48960877737499686	-0.39408307530389447
-0.48954774221874686	-0.3947982261907258
-0.48948670706249686	-0.3923378656304197
-0.48942567190624686	-0.386718692477442
-0.48936463674999686	-0.37798270665691874
-0.48930360159374686	-0.3661968458987559
-0.48924256643749686	-0.35145250612853374
-0.48918153128124686	-0.33386480054257106
-0.48912049612499686	-0.3135716627975682
-0.48905946096874686	-0.290732766376083
-0.48899842581249686	-0.2655282622102514
-0.48893739065624686	-0.23815733563425762
-0.48887635549999686	-0.20883665905337837
-0.48881532034374686	-0.17779863632036247
-0.48875428518749686	-0.1452895824586878
-0.48869325003124686	-0.1115677655403976
-0.48863221487499686	-0.07690130968081621
-0.48857117971874686	-0.041566142390326764
-0.48851014456249686	-0.005843681420448379
-0.48844910940624686	0.02998128937877796
-0.48838807424999686	0.06562299778157994
-0.48832703909374686	0.10079690498751766
-0.48826600393749686	0.13522197625456725
-0.48820496878124686	0.1686230034305704
-0.48814393362499686	0.20073268049772774
-0.48808289846874686	0.23129389217706792
-0.48802186331249686	0.2600616489617138
-0.48796082815624686	0.28680513596210866
-0.48789979299999686	0.31130951846150795
-0.48783875784374686	0.33337769492031977
-0.48777772268749686	0.3528318916814466
-0.48771668753124686	0.3695150444198894
-0.48765565237499686	0.3832921435118793
-0.48759461721874686	0.3940512537216439
-0.48753358206249686	0.40170447913901364
-0.48747254690624686	0.40618863778135256
-0.48741151174999686	0.4074658187010344
-0.48735047659374686	0.4055236718617007
-0.48728944143749686	0.4003755355357532
-0.48722840628124686	0.3920603444136996
-0.48716737112499686	0.3806423271719982
-0.48710633596874686	0.3662105173075843
-0.48704530081249686	0.348878044134254
-0.48698426565624686	0.3287812538112255
-0.48692323049999686	0.30607861988436746
-0.48686219534374686	0.2809494942365952
-0.48680116018749686	0.2535926915749533
-0.48674012503124686	0.22422489202021997
-0.48667908987499686	0.19307892616640124
-0.48661805471874686	0.16040194393910825
-0.48655701956249686	0.12645338729311084
-0.48649598440624686	0.09150299487293957
-0.48643494924999686	0.05582857707266708
-0.48637391409374686	0.019713849025259387
-0.48631287893749686	-0.016553853835224473
-0.48625184378124686	-0.05268589136209739
-0.48619080862499686	-0.08839458633959595
-0.48612977346874686	-0.12339558907195552
-0.48606873831249686	-0.1574100879826308
-0.48600770315624686	-0.19016709649353472
-0.48594666799999686	-0.22140559812353736
-0.48588563284374686	-0.2508766556496527
-0.48582459768749686	-0.27834539407866044
-0.48576356253124686	-0.30359291886608586
-0.48570252737499686	-0.32641803094432986
-0.48564149221874686	-0.34663888624455685
-0.48558045706249686	-0.36409445196779816
-0.48551942190624686	-0.37864577006600136
-0.48545838674999686	-0.39017714856396896
-0.48539735159374686	-0.3985970199634734
-0.48533631643749686	-0.4038387526796135
-0.48527528128124686	-0.4058611433222601
-0.48521424612499686	-0.4046487889033936
-0.48515321096874686	-0.40021220711066163
-0.48509217581249686	-0.39258775539320434
-0.48503114065624686	-0.3818373670420542
-0.48497010549999686	-0.368048036830187
-0.48490907034374686	-0.35133116388294394
-0.48484803518749686	-0.33182162189938225
-0.48478700003124686	-0.30967673664483786
-0.48472596487499686	-0.2850749850907902
-0.48466492971874686	-0.2582145850760082
-0.48460389456249686	-0.22931193025727153
-0.48454285940624686	-0.19859980080673706
-0.48448182424999686	-0.1663255776463305
-0.48442078909374686	-0.13274917700480798
-0.48435975393749686	-0.0981410202502681
-0.48429871878124686	-0.0627798602358929
-0.48423768362499686	-0.02695048215227154
-0.48417664846874686	0.009058493539783889
-0.48411561331249686	0.044957006460594424
-0.48405457815624686	0.08045585420353384
-0.48399354299999686	0.11526903447816707
-0.48393250784374686	0.14911603040958793
-0.48387147268749686	0.1817241083693994
-0.48381043753124686	0.2128304658819673
-0.48374940237499686	0.24218439163858752
-0.48368836721874686	0.26954928248769067
-0.48362733206249686	0.2947045183021442
-0.48356629690624686	0.31744733298784344
-0.48350526174999686	0.33759431897173936
-0.48344422659374686	0.3549830604462918
-0.48338319143749686	0.3694733441972176
-0.48332215628124686	0.380948333189218
-0.48326112112499686	0.38931554984786115
-0.48320008596874686	0.39450755405356924
-0.48313905081249686	0.3964825896845977
-0.48307801565624686	0.39522484541569136
-0.48301698049999686	0.3907446602561841
-0.48295594534374686	0.3830784030696275
-0.48289491018749686	0.3722882201145623
-0.48283387503124686	0.35846152239284795
-0.48277283987499686	0.3417103096315494
-0.48271180471874686	0.3221702597570049
-0.48265076956249686	0.2999996433472548
-0.48258973440624686	0.2753780907844159
-0.48252869924999686	0.24850507209273848
-0.48246766409374686	0.2195983995566674
-0.48240662893749686	0.18889236759048583
-0.48234559378124686	0.1566359669131558
-0.48228455862499686	0.1230908027423218
-0.48222352346874686	0.08852900820489848
-0.48216248831249686	0.05323109793412038
-0.48210145315624686	0.017483608083652194
-0.48204041799999686	-0.018423100799930484
-0.48197938284374686	-0.054197319603212085
-0.48191834768749686	-0.08954820803988078
-0.48185731253124686	-0.12418827716208157
-0.48179627737499686	-0.15783562457003553
-0.48173524221874686	-0.19021625726367947
-0.48167420706249686	-0.22106632801733958
-0.48161317190624686	-0.2501342017824421
-0.48155213674999686	-0.27718262318520204
-0.48149110159374686	-0.30199047962921416
-0.48143006643749686	-0.32435478595098377
-0.48136903128124686	-0.34409215600114695
-0.48130799612499686	-0.3610404401079565
-0.48124696096874686	-0.37505997350394277
-0.48118592581249686	-0.38603471221060215
-0.48112489065624686	-0.3938732775372738
-0.48106385549999686	-0.3985095574863036
-0.48100282034374686	-0.39990343626242003
-0.48094178518749686	-0.39804095998763295
-0.48088075003124686	-0.3929346131880117
-0.48081971487499686	-0.3846231313328707
-0.48075867971874686	-0.3731712499296814
-0.48069764456249686	-0.35866920814366016
-0.48063660940624686	-0.34123197535590555
-0.48057557424999686	-0.32099842175444304
-0.48051453909374686	-0.2981301192497044
-0.48045350393749686	-0.27281012635177915
-0.48039246878124686	-0.24524145961027155
-0.48033143362499686	-0.21564550994642606
-0.48027039846874686	-0.18426021846112484
-0.48020936331249686	-0.15133820266957296
-0.48014832815624686	-0.1171446784948203
-0.48008729299999686	-0.08195538120832925
-0.48002625784374686	-0.046054251835606685
-0.47996522268749686	-0.009731227836950017
-0.47990418753124686	0.026720121564475525
-0.47984315237499686	0.06300504526527899
-0.47978211721874686	0.09882984856245419
-0.47972108206249686	0.13390443762936324
-0.47966004690624686	0.16794451499501595
-0.47959901174999686	0.20067403028595593
-0.47953797659374686	0.23182730098507145
-0.47947694143749686	0.261151235941359
-0.47941590628124686	0.2884073830734541
-0.47935487112499686	0.31337384041231436
-0.47929383596874686	0.3358471282686434
-0.47923280081249686	0.3556437449706832
-0.47917176565624686	0.3726017955497994
-0.47911073049999686	0.3865821763198157
-0.47904969534374686	0.397469849591401
-0.47898866018749686	0.40517467782004446
-0.47892762503124686	0.4096322431103092
-0.47886658987499686	0.4108043566829711
-0.47880555471874686	0.4086793662956661
-0.47874451956249686	0.40327231755184867
-0.47868348440624686	0.3946247744280893
-0.47862244924999686	0.3828045843449165
-0.47856141409374686	0.36790525441635713
-0.47850037893749686	0.35004529090383335
-0.47843934378124686	0.3293671803518998
-0.47837830862499686	0.30603631300386813
-0.47831727346874686	0.28023960085996047
-0.47825623831249686	0.25218400701730237
-0.47819520315624686	0.2220948940246506
-0.47813416799999686	0.19021413408278307
-0.47807313284374686	0.15679826006403308
-0.47801209768749686	0.12211630492781021
-0.47795106253124686	0.08644769750157341
-0.47789002737499686	0.05007992849446192
-0.47782899221874686	0.013306297525622979
-0.47776795706249686	-0.023576497534445788
-0.47770692190624686	-0.060270792057192775
-0.47764588674999686	-0.09648028661025088
-0.47758485159374686	-0.13191256284382774
-0.47752381643749686	-0.16628134154541938
-0.47746278128124686	-0.1993089053773529
-0.47740174612499686	-0.23072827237602958
-0.47734071096874686	-0.2602854454326931
-0.47727967581249686	-0.2877414223496879
-0.47721864065624686	-0.3128741482880118
-0.47715760549999686	-0.3354803866865711
-0.47709657034374686	-0.3553772390103668
-0.47703553518749686	-0.3724038444235375
-0.47697450003124686	-0.3864224668033296
-0.47691346487499686	-0.3973198045997693
-0.47685242971874686	-0.40500783462827816
-0.47679139456249686	-0.40942451957202125
-0.47673035940624686	-0.4105344189726967
-0.47666932424999686	-0.4083288504282752
-0.47660828909374686	-0.40282611418166664
-0.47654725393749686	-0.3940712283248901
-0.47648621878124686	-0.38213566964476264
-0.47642518362499686	-0.36711673985675336
-0.47636414846874686	-0.3491368169964996
-0.47630311331249686	-0.3283423626794691
-0.47624207815624686	-0.30490271966520793
-0.47618104299999686	-0.27900878966292136
-0.47612000784374686	-0.25087142860884304
-0.47605897268749686	-0.22071979336332007
-0.47599793753124686	-0.18879944299242474
-0.47593690237499686	-0.1553703639268158
-0.47587586721874686	-0.12070487331821378
-0.47581483206249686	-0.08508536039289835
-0.47575379690624686	-0.04880205002595012
-0.47569276174999686	-0.012150594533964372
-0.47563172659374686	0.024570317922684944
-0.47557069143749686	0.06106136450375751
-0.47550965628124686	0.09702510014982037
-0.47544862112499686	0.1321682887516591
-0.47538758596874686	0.16620438038069088
-0.47532655081249686	0.19885579081331425
-0.47526551565624686	0.22985618338489242
-0.47520448049999686	0.25895268836920426
-0.47514344534374686	0.28590786948645885
-0.47508241018749686	0.3105017877568931
-0.47502137503124686	0.3325337207551131
-0.47496033987499686	0.3518238132334934
-0.47489930471874686	0.3682146054305724
-0.47483826956249686	0.3815722605493554
-0.47477723440624686	0.391787718146436
-0.47471619924999686	0.39877755789905145
-0.47465516409374686	0.402484716713787
-0.47459412893749686	0.40287895486715836
-0.47453309378124686	0.3999571029653854
-0.47447205862499686	0.39374312591088695
-0.47441102346874686	0.38428790579834876
-0.47434998831249686	0.37166886599729937
-0.47428895315624686	0.35598932977662223
-0.47422791799999686	0.3373776973965846
-0.47416688284374686	0.3159864055628911
-0.47410584768749686	0.2919906804012444
-0.47404481253124686	0.2655871425457053
-0.47398377737499686	0.23699217392740762
-0.47392274221874686	0.20644018322112728
-0.47386170706249686	0.1741816864674
-0.47380067190624686	0.1404812506549033
-0.47373963674999686	0.10561539408060172
-0.47367860159374686	0.06987023689134232
-0.47361756643749686	0.03353923586134072
-0.47355653128124686	-0.0030792227014585904
-0.47349549612499686	-0.03968429354446378
-0.47343446096874686	-0.07597510964118144
-0.47337342581249686	-0.11165325300764724
-0.47331239065624686	-0.14642518319042305
-0.47325135549999686	-0.18000468749222173
-0.47319032034374686	-0.21211515651701146
-0.47312928518749686	-0.2424919354862463
-0.47306825003124686	-0.2708844384803769
-0.47300721487499686	-0.29705822428788836
-0.47294617971874686	-0.3207969539168296
-0.47288514456249686	-0.34190411311282004
-0.47282410940624686	-0.36020470966683216
-0.47276307424999686	-0.3755466452772256
-0.47270203909374686	-0.3878020218966838
-0.47264100393749686	-0.3968682026477322
-0.47257996878124686	-0.40266862080784066
-0.47251893362499686	-0.40515349838960557
-0.47245789846874686	-0.404300193308436
-0.47239686331249686	-0.40011345350923844
-0.47233582815624686	-0.3926253778254483
-0.47227479299999686	-0.3818951485746188
-0.47221375784374686	-0.3680086151157649
-0.47215272268749686	-0.35107753370305494
-0.47209168753124686	-0.3312387449892424
-0.47203065237499686	-0.3086529988495973
-0.47196961721874686	-0.2835036946218635
-0.47190858206249686	-0.2559953915986728
-0.47184754690624686	-0.2263520943896974
-0.47178651174999686	-0.19481550736985281
-0.47172547659374686	-0.16164299671857107
-0.47166444143749686	-0.12710551859418698
-0.47160340628124686	-0.09148540921883763
-0.47154237112499686	-0.055074054627616074
-0.47148133596874686	-0.018169546684053618
-0.47142030081249686	0.018925810434755493
-0.47135926565624686	0.05590794326729187
-0.47129823049999686	0.09247348199426875
-0.47123719534374686	0.1283223157103163
-0.47117616018749686	0.1631599930149341
-0.47111512503124686	0.19670016415334926
-0.47105408987499686	0.22866694627782055
-0.47099305471874686	0.2587971641833028
-0.47093201956249686	0.28684255821517984
-0.47087098440624686	0.31257179623382175
-0.47080994924999686	0.3357723864952496
-0.47074891409374686	0.3562524523350777
-0.47068787893749686	0.3738423020596352
-0.47062684378124686	0.38839584473408356
-0.47056580862499686	0.3997917886653296
-0.47050477346874686	0.40793467592224975
-0.47044373831249686	0.4127556598005179
