Time	Frequency
-0.5000209808437432	2.2319077981141554e-26
-0.49995994568749325	-2.7743355448886575e-26
-0.49989891053124325	-7.757240306291823e-26
-0.49983787537499325	-1.2687829011250465e-25
-0.49977684021874325	-1.753742534390764e-25
-0.49971580506249325	-2.2277818424188533e-25
-0.49965476990624325	-2.688143200156673e-25
-0.49959373474999325	-3.1321483457023597e-25
-0.49953269959374325	-3.557213335413102e-25
-0.49947166443749325	-3.9608644573355985e-25
-0.49941062928124325	-4.340751818200175e-25
-0.49934959412499325	-4.694663394867156e-25
-0.49928855896874325	-5.020537978056551e-25
-0.49922752381249325	-5.316476700371448e-25
-0.49916648865624325	-5.58075511647848e-25
-0.49910545349999325	-5.811831756516166e-25
-0.49904441834374325	-6.00835884122739e-25
-0.49898338318749325	-6.1691885843954795e-25
-0.49892234803124325	-6.293381322590719e-25
-0.49886131287499325	-6.3802099306948555e-25
-0.49880027771874325	-6.42916495223464e-25
-0.49873924256249325	-6.439957070514849e-25
-0.49867820740624325	-6.412519301904777e-25
-0.49861717224999325	-6.347007194390352e-25
-0.49855613709374325	-6.2437981752002335e-25
-0.49849510193749325	-6.103489432971056e-25
-0.49843406678124325	-5.926894483002532e-25
-0.49837303162499325	-5.715038691144181e-25
-0.49831199646874325	-5.469153156960897e-25
-0.49825096131249325	-5.190668028337761e-25
-0.49818992615624325	-4.881203846457169e-25
-0.49812889099999325	-4.542562804184819e-25
-0.49806785584374325	-4.176717566972913e-25
-0.49800682068749325	-3.785800751963649e-25
-0.49794578553124325	-3.372091965159805e-25
-0.49788475037499325	-2.9380050539118964e-25
-0.49782371521874325	-2.486073660460802e-25
-0.49776268006249325	-2.018937349625437e-25
-0.49770164490624325	-1.5393252446090056e-25
-0.49764060974999325	-1.0500413667411585e-25
-0.49757957459374325	-5.539472760399888e-26
-0.49751853943749325	-5.3946475299791716e-27
-0.49745750428124325	4.470334052555267e-26
-0.49739646912499325	9.460567838461396e-26
-0.49733543396874325	1.4401978902132929e-25
-0.49727439881249325	1.9265570761126627e-25
-0.49721336365624325	2.4022784556937616e-25
-0.49715232849999325	2.8645661098979743e-25
-0.49709129334374325	3.310700120479334e-25
-0.49703025818749325	3.7380534413671073e-25
-0.49696922303124325	4.144105680400567e-25
-0.49690818787499325	4.526459869638187e-25
-0.49684715271874325	4.882853970458359e-25
-0.49678611756249325	5.2111768764178415e-25
-0.49672508240624325	5.509478218603711e-25
-0.49666404724999325	5.7759819539149945e-25
-0.49660301209374325	6.009095278064317e-25
-0.49654197693749325	6.207418811691196e-25
-0.49648094178124325	6.369754733379521e-25
-0.49641990662499325	6.495113628391969e-25
-0.49635887146874325	6.58272086133487e-25
-0.49629783631249325	6.632020546139218e-25
-0.49623680115624325	6.642679842643681e-25
-0.49617576599999325	6.614589980118726e-25
-0.49611473084374325	6.547868152563857e-25
-0.49605369568749325	6.442855906211148e-25
-0.49599266053124325	6.300118335173857e-25
-0.49593162537499325	6.120440026185392e-25
-0.49587059021874325	5.904821487992198e-25
-0.49580955506249325	5.654472669766022e-25
-0.49574851990624325	5.3708068779901505e-25
-0.49568748474999325	5.05543192772089e-25
-0.49562644959374325	4.710141572175319e-25
-0.49556541443749325	4.336904771615956e-25
-0.49550437928124325	3.9378545950179903e-25
-0.49544334412499325	3.515275694714264e-25
-0.49538230896874325	3.071591683954015e-25
-0.49532127381249325	2.6093500073745575e-25
-0.49526023865624325	2.1312087582516344e-25
-0.49519920349999325	1.6399198357984788e-25
-0.49513816834374325	1.1383140462542945e-25
-0.49507713318749325	6.29284039000153e-26
-0.49501609803124325	1.1576783718719848e-26
-0.49495506287499325	-3.99268219553323e-26
-0.49489402771874325	-9.12846730223579e-26
-0.49483299256249325	-1.4219966586790222e-25
-0.49477195740624325	-1.923770572391862e-25
-0.49471092224999325	-2.4152616841919784e-25
-0.49464988709374325	-2.8936209004989204e-25
-0.49458885193749325	-3.3560732111945313e-25
-0.49452781678124325	-3.799934381142779e-25
-0.49446678162499325	-4.22262582856476e-25
-0.49440574646874325	-4.621690775863586e-25
-0.49434471131249325	-4.994807185818184e-25
-0.49428367615624325	-5.339802889276025e-25
-0.49422264099999325	-5.654666979509384e-25
-0.49416160584374325	-5.93756252806787e-25
-0.49410057068749325	-6.186836904249362e-25
-0.49403953553124325	-6.4010317559714765e-25
-0.49397850037499325	-6.578891048021836e-25
-0.49391746521874325	-6.719369496168794e-25
-0.49385643006249325	-6.82163763438114e-25
-0.49379539490624325	-6.885087696617538e-25
-0.49373435974999325	-6.909336496867271e-25
-0.49367332459374325	-6.894228546285267e-25
-0.49361228943749325	-6.839836243645077e-25
-0.49355125428124325	-6.746460427108738e-25
-0.49349021912499325	-6.614627933635041e-25
-0.49342918396874325	-6.445089358367261e-25
-0.49336814881249325	-6.238814186495338e-25
-0.49330711365624325	-5.996985734915705e-25
-0.49324607849999325	-5.720994045416822e-25
-0.49318504334374325	-5.412427993953211e-25
-0.49312400818749325	-5.073066273838743e-25
-0.49306297303124325	-4.704866725719721e-25
-0.49300193787499325	-4.309955565983656e-25
-0.49294090271874325	-3.890614455004135e-25
-0.49287986756249325	-3.4492679233369634e-25
-0.49281883240624325	-2.9884687153757665e-25
-0.49275779724999325	-2.510883386784403e-25
-0.49269676209374325	-2.019276331190883e-25
-0.49263572693749325	-1.5164945268577662e-25
-0.49257469178124325	-1.0054498833744449e-25
-0.49251365662499325	-4.8910353866219766e-26
-0.49245262146874325	2.9553040760725757e-27
-0.49239158631249325	5.475133821595838e-26
-0.49233055115624325	1.0617757801781583e-25
-0.49226951599999325	1.5693587518734367e-25
-0.49220848084374325	2.067320233735876e-25
-0.49214744568749325	2.5527733367239035e-25
-0.49208641053124325	3.0229041814619976e-25
-0.49202537537499325	3.474988047335e-25
-0.49196434021874325	3.906404596922113e-25
-0.49190330506249325	4.314655128525401e-25
-0.49184226990624325	4.697374490929423e-25
-0.49178123474999325	5.052347742260059e-25
-0.49172019959374325	5.377520727940714e-25
-0.49165916443749325	5.671014251962614e-25
-0.49159812928124325	5.931133164511219e-25
-0.49153709412499325	6.156377842842617e-25
-0.49147605896874325	6.345452245170843e-25
-0.49141502381249325	6.497271788336964e-25
-0.49135398865624325	6.610969671373669e-25
-0.49129295349999325	6.6859020623063505e-25
-0.49123191834374325	6.7216519851865455e-25
-0.49117088318749325	6.718031651586422e-25
-0.49110984803124325	6.675083935513318e-25
-0.49104881287499325	6.593081755256156e-25
-0.49098777771874325	6.472527060729969e-25
-0.49092674256249325	6.314147396630251e-25
-0.49086570740624325	6.11889231487122e-25
-0.49080467224999325	5.887927228540359e-25
-0.49074363709374325	5.622627319629957e-25
-0.49068260193749325	5.324568882071824e-25
-0.49062156678124325	4.995520695347128e-25
-0.49056053162499325	4.637433285190004e-25
-0.49049949646874325	4.252427837873423e-25
-0.49043846131249325	3.8427836751060723e-25
-0.49037742615624325	3.4109249488898606e-25
-0.49031639099999325	2.9594062811313563e-25
-0.49025535584374325	2.490898314149082e-25
-0.49019432068749325	2.0081713112200673e-25
-0.49013328553124325	1.5140798913970865e-25
-0.49007225037499325	1.0115449945338909e-25
-0.49001121521874325	5.035383523765232e-26
-0.48995018006249325	-6.936605373992531e-28
-0.48988914490624325	-5.168610977300744e-26
-0.48982810974999325	-1.0232194453976288e-25
-0.48976707459374325	-1.5230165637182282e-25
-0.48970603943749325	-2.0132955371633736e-25
-0.48964500428124325	-2.491155084345682e-25
-0.48958396912499325	-2.9537669674349752e-25
-0.48952293396874325	-3.398391944673445e-25
-0.48946189881249325	-3.822396370161708e-25
-0.48940086365624325	-4.223267911502609e-25
-0.48933982849999325	-4.598630005980926e-25
-0.48927879334374325	-4.946256042479192e-25
-0.48921775818749325	-5.264082533823886e-25
-0.48915672303124325	-5.55022141131934e-25
-0.48909568787499325	-5.802971022647768e-25
-0.48903465271874325	-6.020826663870474e-25
-0.48897361756249325	-6.202488593841096e-25
-0.48891258240624325	-6.346871249358123e-25
-0.48885154724999325	-6.453108043066094e-25
-0.48879051209374325	-6.520558228112717e-25
-0.48872947693749325	-6.548809227750591e-25
-0.48866844178124325	-6.537680648288381e-25
-0.48860740662499325	-6.487224026749856e-25
-0.48854637146874325	-6.397724021260096e-25
-0.48848533631249325	-6.26969556236473e-25
-0.48842430115624325	-6.103882109133818e-25
-0.48836326599999325	-5.901250327639024e-25
-0.48830223084374325	-5.66298541872283e-25
-0.48824119568749325	-5.390483566779761e-25
-0.48818016053124325	-5.085344142056353e-25
-0.48811912537499325	-4.749360460743974e-25
-0.48805809021874325	-4.384508968753615e-25
-0.48799705506249325	-3.9929381245700336e-25
-0.48793601990624325	-3.576955250848009e-25
-0.48787498474999325	-3.1390138983381014e-25
-0.48781394959374325	-2.681698348979065e-25
-0.48775291443749325	-2.207709459942079e-25
-0.48769187928124325	-1.7198480076358254e-25
-0.48763084412499325	-1.2209989277996048e-25
-0.48756980896874325	-7.141135800036887e-26
-0.48750877381249325	-2.021933304368797e-26
-0.48744773865624325	3.1172927677673375e-26
-0.48738670349999325	8.246073874558347e-26
-0.48732566834374325	1.3333982477400798e-25
-0.48726463318749325	1.8350813561888159e-25
-0.48720359803124325	2.326675657058497e-25
-0.48714256287499325	2.8052580924297126e-25
-0.48708152771874325	3.26797975564036e-25
-0.48702049256249325	3.7120840159264155e-25
-0.48695945740624325	4.1349215602978885e-25
-0.48689842224999325	4.53396727014192e-25
-0.48683738709374325	4.906834198406784e-25
-0.48677635193749325	5.25128851423343e-25
-0.48671531678124325	5.565262395890504e-25
-0.48665428162499325	5.846866415464635e-25
-0.48659324646874325	6.09440083847161e-25
-0.48653221131249325	6.306365629534404e-25
-0.48647117615624325	6.481469973924646e-25
-0.48641014099999325	6.6186391605493e-25
-0.48634910584374325	6.7170219164277755e-25
-0.48628807068749325	6.775994868450316e-25
-0.48622703553124325	6.795167194793491e-25
-0.48616600037499325	6.774382046419632e-25
-0.48610496521874325	6.713718757823958e-25
-0.48604393006249325	6.613491511483974e-25
-0.48598289490624325	6.474248499103205e-25
-0.48592185974999325	6.296768091049372e-25
-0.48586082459374325	6.082055141797559e-25
-0.48579978943749325	5.831334462133437e-25
-0.48573875428124325	5.546044462026384e-25
-0.48567771912499325	5.227828172332969e-25
-0.48561668396874325	4.878524093192806e-25
-0.48555564881249325	4.500155427582065e-25
-0.48549461365624325	4.094917839860335e-25
-0.48543357849999325	3.665167533154906e-25
-0.48537254334374325	3.213406254809462e-25
-0.48531150818749325	2.742267617601522e-25
-0.48525047303124325	2.254501357440984e-25
-0.48518943787499325	1.752956532163344e-25
-0.48512840271874325	1.2405659624633475e-25
-0.48506736756249325	7.20328082778543e-26
-0.48500633240624325	1.9528942113670082e-26
-0.48494529724999325	-3.3147294705455597e-26
-0.48488426209374325	-8.568702438911414e-26
-0.48482322693749325	-1.3778192529729408e-25
-0.48476219178124325	-1.8912615400415572e-25
-0.48470115662499325	-2.394180681784862e-25
-0.48464012146874325	-2.883620727697964e-25
-0.48457908631249325	-3.356703300128727e-25
-0.48451805115624325	-3.810644671326358e-25
-0.48445701599999325	-4.242772481615788e-25
-0.48439598084374325	-4.650541221349573e-25
-0.48433494568749325	-5.03154786978864e-25
-0.48427391053124325	-5.38354535729363e-25
-0.48421287537499325	-5.7044569643442985e-25
-0.48415184021874325	-5.992387443238252e-25
-0.48409080506249325	-6.245635661736292e-25
-0.48402976990624325	-6.462703507520793e-25
-0.48396873474999325	-6.64230577113841e-25
-0.48390769959374325	-6.783377202477315e-25
-0.48384666443749325	-6.88507939326731e-25
-0.48378562928124325	-6.946805528481964e-25
-0.48372459412499325	-6.96818426320109e-25
-0.48366355896874325	-6.949081954525908e-25
-0.48360252381249325	-6.889603488154951e-25
-0.48354148865624325	-6.790092094958544e-25
-0.48348045349999325	-6.651126848563257e-25
-0.48341941834374325	-6.473520212192172e-25
-0.48335838318749325	-6.258312148457096e-25
-0.48329734803124325	-6.006765581872763e-25
-0.48323631287499325	-5.720357431826476e-25
-0.48317527771874325	-5.400771371493305e-25
-0.48311424256249325	-5.049886829445183e-25
-0.48305320740624325	-4.669768924833807e-25
-0.48299217224999325	-4.26265542213566e-25
-0.48293113709374325	-3.8309444237129084e-25
-0.48287010193749325	-3.377179537528712e-25
-0.48280906678124325	-2.904035216261826e-25
-0.48274803162499325	-2.4143010130877303e-25
-0.48268699646874325	-1.9108650237578056e-25
-0.48262596131249325	-1.3966966596328272e-25
-0.48256492615624325	-8.748296011605239e-26
-0.48250389099999325	-3.483430536242147e-26
-0.48244285584374325	1.7965548902033725e-26
-0.48238182068749325	7.060498125859758e-26
-0.48232078553124325	1.2277321527242504e-25
-0.48225975037499325	1.7416225584125038e-25
-0.48219871521874325	2.244687126065806e-25
-0.48213768006249325	2.7339551417999705e-25
-0.48207664490624325	3.2065381283822685e-25
-0.48201560974999325	3.6596451377996243e-25
-0.48195457459374325	4.0906017552338017e-25
-0.48189353943749325	4.496863211496129e-25
-0.48183250428124325	4.876032208785685e-25
-0.48177146912499325	5.225871078751705e-25
-0.48171043396874325	5.544316476038043e-25
-0.48164939881249325	5.829491142094348e-25
-0.48158836365624325	6.079714995135337e-25
-0.48152732849999325	6.29351557254904e-25
-0.48146629334374325	6.469636459632253e-25
-0.48140525818749325	6.607045286581532e-25
-0.48134422303124325	6.704939117443416e-25
-0.48128318787499325	6.762750633590099e-25
-0.48122215271874325	6.780149880918513e-25
-0.48116111756249325	6.757048097645646e-25
-0.48110008240624325	6.693596637045801e-25
-0.48103904724999325	6.590187698121126e-25
-0.48097801209374325	6.447450687983808e-25
-0.48091697693749325	6.266249733586955e-25
-0.48085594178124325	6.047677698422644e-25
-0.48079490662499325	5.793050418123505e-25
-0.48073387146874325	5.503898588623542e-25
-0.48067283631249325	5.181958640173504e-25
-0.48061180115624325	4.829163188077046e-25
-0.48055076599999325	4.447628255674602e-25
-0.48048973084374325	4.0396424661281965e-25
-0.48042869568749325	3.607651672472957e-25
-0.48036766053124325	3.1542460114179804e-25
-0.48030662537499325	2.682143355436158e-25
-0.48024559021874325	2.194173904384307e-25
-0.48018455506249325	1.6932631612565488e-25
-0.48012351990624325	1.182414084174692e-25
-0.48006248474999325	6.646899599914428e-26
-0.48000144959374325	1.431955408147697e-26
-0.47994041443749325	-3.789408568773758e-26
-0.47987937928124325	-8.985869612780454e-26
-0.47981834412499325	-1.4126239562965893e-25
-0.47975730896874325	-1.9179661891061566e-25
-0.47969627381249325	-2.4115792075829975e-25
-0.47963523865624325	-2.8904972927388927e-25
-0.47957420349999325	-3.351842932737606e-25
-0.47951316834374325	-3.7928411554337626e-25
-0.47945213318749325	-4.210839708841703e-25
-0.47939109803124325	-4.603321658809341e-25
-0.47933006287499325	-4.967922653596376e-25
-0.47926902771874325	-5.302444358380209e-25
-0.47920799256249325	-5.604867209901016e-25
-0.47914695740624325	-5.873363807966954e-25
-0.47908592224999325	-6.10630829551794e-25
-0.47902488709374325	-6.302287941802502e-25
-0.47896385193749325	-6.460110003118871e-25
-0.47890281678124325	-6.578810339164874e-25
-0.47884178162499325	-6.657658323226815e-25
-0.47878074646874325	-6.69616188638929e-25
-0.47871971131249325	-6.694070456769717e-25
-0.47865867615624325	-6.651376308140923e-25
-0.47859764099999325	-6.568315278855017e-25
-0.47853660584374325	-6.445364814536863e-25
-0.47847557068749325	-6.283241976958456e-25
-0.47841453553124325	-6.082898575123047e-25
-0.47835350037499325	-5.845516231673906e-25
-0.47829246521874325	-5.572498894386963e-25
-0.47823143006249325	-5.265465072196854e-25
-0.47817039490624325	-4.926237829612794e-25
-0.47810935974999325	-4.55683425465357e-25
-0.47804832459374325	-4.159453637366264e-25
-0.47798728943749325	-3.736463710902126e-25
-0.47792625428124325	-3.290387919354233e-25
-0.47786521912499325	-2.8238885772039395e-25
-0.47780418396874325	-2.3397530399000583e-25
-0.47774314881249325	-1.8408752501407775e-25
-0.47768211365624325	-1.3302401448660105e-25
-0.47762107849999325	-8.109041265448423e-26
-0.47756004334374325	-2.8597846908690836e-26
-0.47749900818749325	2.4139032823186868e-26
-0.47743797303124325	7.68039269995587e-26
-0.47737693787499325	1.2908067867018353e-25
-0.47731590271874325	1.8065535721237492e-25
-0.47725486756249325	2.312179011979748e-25
-0.47719383240624325	2.8046421868230065e-25
-0.47713279724999325	3.280977910117324e-25
-0.47707176209374325	3.738316338068073e-25
-0.47701072693749325	4.1738988598704425e-25
-0.47694969178124325	4.585095567561241e-25
-0.47688865662499325	4.969420727075215e-25
-0.47682762146874325	5.324547634027971e-25
-0.47676658631249325	5.648322985240541e-25
-0.47670555115624325	5.938779559614822e-25
-0.47664451599999325	6.194148369375281e-25
-0.47658348084374325	6.412869177600819e-25
-0.47652244568749325	6.593600149489687e-25
-0.47646141053124325	6.735225861646901e-25
-0.47640037537499325	6.836864317091023e-25
-0.47633934021874325	6.897872114480066e-25
-0.47627830506249325	6.917848871494525e-25
-0.47621726990624325	6.896639166612079e-25
-0.47615623474999325	6.834334394669554e-25
-0.47609519959374325	6.731271532565486e-25
-0.47603416443749325	6.588032170296008e-25
-0.47597312928124325	6.405438292466232e-25
-0.47591209412499325	6.184548240230156e-25
-0.47585105896874325	5.926650123067276e-25
-0.47579002381249325	5.633254374030005e-25
-0.47572898865624325	5.30608472162111e-25
-0.47566795349999325	4.947068284859459e-25
-0.47560691834374325	4.558323797834742e-25
-0.47554588318749325	4.142149369198646e-25
-0.47548484803124325	3.7010083688294946e-25
-0.47542381287499325	3.23751552512995e-25
-0.47536277771874325	2.754420453956791e-25
-0.47530174256249325	2.2545920649139503e-25
-0.47524070740624325	1.741000705612045e-25
-0.47517967224999325	1.2167011618839295e-25
-0.47511863709374325	6.848139810075893e-26
-0.47505760193749325	1.48506559169634e-26
-0.47499656678124325	-3.8902502570650283e-26
-0.47493553162499325	-9.245760411297685e-26
-0.47487449646874325	-1.4549514383713093e-25
-0.47481346131249325	-1.9769860575747185e-25
-0.47475242615624325	-2.4875623664650426e-25
-0.47469139099999325	-2.983630344328863e-25
-0.47463035584374325	-3.4622249474904403e-25
-0.47456932068749325	-3.920484514871068e-25
-0.47450828553124325	-4.355667435139532e-25
-0.47444725037499325	-4.765169397347079e-25
-0.47438621521874325	-5.146538233783762e-25
-0.47432518006249325	-5.497489324614379e-25
-0.47426414490624325	-5.815919206672071e-25
-0.47420310974999325	-6.099918225849713e-25
-0.47414207459374325	-6.3477820133134015e-25
-0.47408103943749325	-6.558022172377751e-25
-0.47402000428124325	-6.729374844892747e-25
-0.47395896912499325	-6.860808909856593e-25
-0.47389793396874325	-6.951531755257031e-25
-0.47383689881249325	-7.000994651927164e-25
-0.47377586365624325	-7.008895806063372e-25
-0.47371482849999325	-6.975182459739983e-25
-0.47365379334374325	-6.900051393309803e-25
-0.47359275818749325	-6.783947553045427e-25
-0.47353172303124325	-6.627561964951186e-25
-0.47347068787499325	-6.431827214337554e-25
-0.47340965271874325	-6.19791236107911e-25
-0.47334861756249325	-5.927215698177515e-25
-0.47328758240624325	-5.621356817699275e-25
-0.47322654724999325	-5.282166441514938e-25
-0.47316551209374325	-4.911676204919666e-25
-0.47310447693749325	-4.512105800659543e-25
-0.47304344178124325	-4.0858504164681563e-25
-0.47298240662499325	-3.635465945424755e-25
-0.47292137146874325	-3.1636536481460062e-25
-0.47286033631249325	-2.6732445247257645e-25
-0.47279930115624325	-2.167181577266053e-25
-0.47273826599999325	-1.6485026758440842e-25
-0.47267723084374325	-1.1203223530925776e-25
-0.47261619568749325	-5.858126231909894e-26
-0.47255516053124325	-4.818445671084023e-27
-0.47249412537499325	4.8933196262084963e-26
-0.47243309021874325	1.0235062108739707e-25
-0.47237205506249325	1.5511277327186298e-25
-0.47231101990624325	2.0690244305725376e-25
-0.47224998474999325	2.5740823226691765e-25
-0.47218894959374325	3.0632642813722422e-25
