Time	Frequency
-0.5000569823124863	-0.13831304533034602
-0.4999959471562363	-0.10522213868368743
-0.4999349119999863	-0.07136763953502519
-0.4998738768437363	-0.037010780483926
-0.4998128416874863	-0.0024166475336883245
-0.4997518065312363	0.03214783014760902
-0.4996907713749863	0.06641597437228133
-0.4996297362187363	0.10012339862567336
-0.4995687010624863	0.13300999271670358
-0.4995076659062363	0.16482205111843679
-0.4994466307499863	0.1953140699329312
-0.4993855955937363	0.22425078594463307
-0.4993245604374863	0.2514089070519155
-0.4992635252812363	0.2765788437773944
-0.4992024901249863	0.29956640273948376
-0.4991414549687363	0.3201941583808364
-0.4990804198124863	0.33830297416301114
-0.4990193846562363	0.35375311336037324
-0.4989583494999863	0.3664254038881105
-0.4988973143437363	0.3762221182815185
-0.4988362791874863	0.38306776591122554
-0.4987752440312363	0.3869096660364069
-0.4987142088749863	0.38771835576851266
-0.4986531737187363	0.38548786830126264
-0.4985921385624863	0.3802357129609994
-0.4985311034062363	0.3720028427682795
-0.4984700682499863	0.3608532504018279
-0.4984090330937363	0.34687356752709436
-0.4983479979374863	0.3301723507397791
-0.4982869627812363	0.3108792627243029
-0.4982259276249863	0.28914410829078774
-0.4981648924687363	0.26513562920080064
-0.4981038573124863	0.23904027838432398
-0.4980428221562363	0.21106071092367976
-0.4979817869999863	0.18141429840689646
-0.4979207518437363	0.15033139762938366
-0.4978597166874863	0.11805359202025718
-0.4977986815312363	0.08483187464146123
-0.4977376463749863	0.0509246078415023
-0.4976766112187363	0.016595641054357513
-0.4976155760624863	-0.01788779158269738
-0.4975545409062363	-0.05225712522432326
-0.4974935057499863	-0.08624453291737251
-0.4974324705937363	-0.1195850175585014
-0.4973714354374863	-0.15201842485849518
-0.4973104002812363	-0.18329151107582595
-0.4972493651249863	-0.21315986173742085
-0.4971883299687363	-0.241389813184683
-0.4971272948124863	-0.2677602625428858
-0.4970662596562363	-0.2920643769144069
-0.4970052244999863	-0.31411122093822014
-0.4969441893437363	-0.3337272270061027
-0.4968831541874863	-0.35075755131766206
-0.4968221190312363	-0.365067301876532
-0.4967610838749863	-0.37654256988185314
-0.4967000487187363	-0.3850913452189115
-0.4966390135624863	-0.3906442282350181
-0.4965779784062363	-0.393154992313819
-0.4965169432499863	-0.392600956364751
-0.4964559080937363	-0.3889831599554915
-0.4963948729374863	-0.3823263971651583
-0.4963338377812363	-0.37267901688062605
-0.4962728026249863	-0.3601125803232614
-0.4962117674687363	-0.3447213134513215
-0.4961507323124863	-0.3266213996286026
-0.4960896971562363	-0.30595008612840785
-0.4960286619999863	-0.2828646551633445
-0.4959676268437363	-0.2575411902148765
-0.4959065916874863	-0.23017326415480743
-0.4958455565312363	-0.20097041590702255
-0.4957845213749863	-0.1701565569662456
-0.4957234862187363	-0.1379682689474995
-0.4956624510624863	-0.10465293270566642
-0.4956014159062363	-0.07046687939282617
-0.4955403807499863	-0.03567334401781817
-0.4954793455937363	-0.0005405243815188112
-0.4954183104374863	0.03466059795687731
-0.4953572752812363	0.06965825711784097
-0.4952962401249863	0.10418205293088516
-0.4952352049687363	0.13796506855652174
-0.4951741698124863	0.17074585059635505
-0.4951131346562363	0.20227055594362892
-0.4950520994999863	0.23229478889274466
-0.4949910643437363	0.2605856296498087
-0.4949300291874863	0.2869233386321052
-0.4948689940312363	0.3111031180142274
-0.4948079588749863	0.33293671525415014
-0.4947469237187363	0.3522538354482903
-0.4946858885624863	0.3689035387653775
-0.4946248534062363	0.38275536617143857
-0.4945638182499863	0.3937003890438694
-0.4945027830937363	0.4016520614653665
-0.4944417479374863	0.40654690444855784
-0.4943807127812363	0.40834499220742626
-0.4943196776249863	0.4070303136015865
-0.4942586424687363	0.40261086508835997
-0.4941976073124863	0.3951186425240154
-0.4941365721562363	0.38460937662895134
-0.4940755369999863	0.37116213497323386
-0.4940145018437363	0.3548787176934672
-0.4939534666874863	0.3358828668649543
-0.4938924315312363	0.3143193556115008
-0.4938313963749863	0.29035283411766605
-0.4937703612187363	0.264166599390154
-0.4937093260624863	0.23596117646967546
-0.4936482909062363	0.2059527602082732
-0.4935872557499863	0.17437156821194782
-0.4935262205937363	0.14146006279322773
-0.4934651854374863	0.10747105429560301
-0.4934041502812363	0.07266578941317564
-0.4933431151249863	0.037311888825908204
-0.4932820799687363	0.0016813069038511055
-0.4932210448124863	-0.03395178683817111
-0.4931600096562363	-0.06931313115810163
-0.4930989744999863	-0.10413048278932296
-0.4930379393437363	-0.13813577201784744
-0.4929769041874863	-0.17106710490046353
-0.4929158690312363	-0.20267088214033321
-0.4928548338749863	-0.23270371601779494
-0.4927937987187363	-0.2609343168541876
-0.4927327635624863	-0.2871453422269282
-0.4926717284062363	-0.31113501757672263
-0.4926106932499863	-0.3327187739384905
-0.4925496580937363	-0.3517306405717619
-0.4924886229374863	-0.3680245577903702
-0.4924275877812363	-0.38147552068647705
-0.4923665526249863	-0.3919805350268842
-0.4923055174687363	-0.3994594626073152
-0.4922444823124863	-0.4038556048765533
-0.4921834471562363	-0.40513619138459506
-0.4921224119999863	-0.4032926124948406
-0.4920613768437363	-0.3983405095794331
-0.4920003416874863	-0.39031966100163196
-0.4919393065312363	-0.37929366327189246
-0.4918782713749863	-0.36534947243813576
-0.4918172362187363	-0.3485967022250496
-0.4917562010624863	-0.32916681089413596
-0.4916951659062363	-0.307212051004127
-0.4916341307499863	-0.2829043175119588
-0.4915730955937363	-0.2564338134433957
-0.4915120604374863	-0.22800755166800832
-0.4914510252812363	-0.19784778325426627
-0.4913899901249863	-0.16619022716462106
-0.4913289549687363	-0.13328228767994277
-0.4912679198124863	-0.09938110279546819
-0.4912068846562363	-0.06475152964761659
-0.4911458494999863	-0.029664129287131694
-0.4910848143437363	0.005607000854813521
-0.4910237791874863	0.04078630103162973
-0.4909627440312363	0.07559893903325869
-0.4909017088749863	0.10977294940485809
-0.4908406737187363	0.14304132302945616
-0.4907796385624863	0.17514414643551998
-0.4907186034062363	0.20583057089748474
-0.4906575682499863	0.23486082579503376
-0.4905965330937363	0.2620080512769324
-0.4905354979374863	0.2870601038228331
-0.4904744627812363	0.30982121447571687
-0.4904134276249863	0.3301134941037246
-0.4903523924687363	0.3477783628944258
-0.4902913573124863	0.3626777746506893
-0.4902303221562363	0.37469532186314813
-0.4901692869999863	0.38373712600103294
-0.4901082518437363	0.3897326114207278
-0.4900472166874863	0.39263503261275057
-0.4899861815312363	0.3924218774579519
-0.4899251463749863	0.38909503376492083
-0.4898641112187363	0.3826807904672852
-0.4898030760624863	0.3732296481758843
-0.4897420409062363	0.36081591659002754
-0.4896810057499863	0.34553716648592203
-0.4896199705937363	0.3275134516655986
-0.4895589354374863	0.30688640311040843
-0.4894979002812363	0.28381810533623897
-0.4894368651249863	0.2584898620298924
-0.4893758299687363	0.23110077148322056
-0.4893147948124863	0.20186616131967744
-0.4892537596562363	0.17101595124162106
-0.4891927244999863	0.13879281713507607
-0.4891316893437363	0.10545032557040959
-0.4890706541874863	0.07125094022313429
-0.4890096190312363	0.036463959906419964
-0.4889485838749863	0.001363450736160342
-0.4888875487187363	-0.03377394563476699
-0.4888265135624863	-0.06867114829768739
-0.4887654784062363	-0.10305281339841367
-0.4887044432499863	-0.13664749136669238
-0.4886434080937363	-0.16918977677226488
-0.4885823729374863	-0.20042235905521832
-0.4885213377812363	-0.2300980569161875
-0.4884603026249863	-0.2579817912852533
-0.4883992674687363	-0.2838523601252667
-0.4883382323124863	-0.3075042804889106
-0.4882771971562363	-0.3287493264869165
-0.4882161619999863	-0.3474180452206974
-0.4881551268437363	-0.36336112300588563
-0.4880940916874863	-0.37645049930583757
-0.4880330565312363	-0.38658048123292005
-0.4879720213749863	-0.3936684875286126
-0.4879109862187363	-0.397655781630961
-0.4878499510624863	-0.39850791998040785
-0.4877889159062363	-0.39621502699307054
-0.4877278807499863	-0.3907919271559791
-0.4876668455937363	-0.3822779923005109
-0.4876058104374863	-0.3707369039282053
-0.4875447752812363	-0.3562561230732012
-0.4874837401249863	-0.3389462587596349
-0.4874227049687363	-0.31894018649227684
-0.4873616698124863	-0.29639204414658493
-0.4873006346562363	-0.27147602533489806
-0.4872395994999863	-0.24438502520610939
-0.4871785643437363	-0.215329161415859
-0.4871175291874863	-0.1845341035936878
-0.4870564940312363	-0.15223936019988699
-0.4869954588749863	-0.11869635719028089
-0.4869344237187363	-0.08416652878823006
-0.4868733885624863	-0.04891923293781224
-0.4868123534062363	-0.013229663458646965
-0.4867513182499863	0.022623288303153098
-0.4866902830937363	0.05835926605767941
-0.4866292479374863	0.09369858608520931
-0.4865682127812363	0.12836447394895928
-0.4865071776249863	0.16208520339352211
-0.4864461424687363	0.19459626780138628
-0.4863851073124863	0.2256424302813011
-0.4863240721562363	0.25497972117041057
-0.4862630369999863	0.282377403384665
-0.4862020018437363	0.3076197396129705
-0.4861409666874863	0.33050772442226733
-0.4860799315312363	0.3508606479146973
-0.4860188963749863	0.3685175121637272
-0.4859578612187363	0.38333833019454044
-0.4858968260624863	0.3952052099199381
-0.4858357909062363	0.4040233101626041
-0.4857747557499863	0.4097215988125328
-0.4857137205937363	0.41225340340755595
-0.4856526854374863	0.4115968235488921
-0.4855916502812363	0.40775488799666343
-0.4855306151249863	0.4007555654768054
-0.4854695799687363	0.3906515499474704
-0.4854085448124863	0.3775198620995649
-0.4853475096562363	0.361461263979358
-0.4852864744999863	0.3425994784705184
-0.4852254393437363	0.3210802285409965
-0.4851644041874863	0.2970701102782868
-0.4851033690312363	0.2707553057391451
-0.4850423338749863	0.2423401019188071
-0.4849812987187363	0.212045344136252
-0.4849202635624863	0.18010666293018993
-0.4848592284062363	0.14677266865978844
-0.4847981932499863	0.11230299260766473
-0.4847371580937363	0.07696624817207032
-0.4846761229374863	0.041037946422868656
-0.4846150877812363	0.004798313118836265
-0.4845540526249863	-0.031469888530782385
-0.4844930174687363	-0.06748360214641524
-0.4844319823124863	-0.10296165655896287
-0.4843709471562363	-0.13762702707479263
-0.4843099119999863	-0.1712089778945499
-0.4842488768437363	-0.20344520759785342
-0.4841878416874863	-0.2340838963630489
-0.4841268065312363	-0.26288571047876735
-0.4840657713749863	-0.28962567946187945
-0.4840047362187363	-0.3140949446100696
-0.4839437010624863	-0.336102474410354
-0.4838826659062363	-0.35547647113473413
-0.4838216307499863	-0.3720658335218959
-0.4837605955937363	-0.3857412837640877
-0.4836995604374863	-0.39639640604447784
-0.4836385252812363	-0.40394852650959523
-0.4835774901249863	-0.40833930336738095
-0.4835164549687363	-0.4095352769242865
-0.4834554198124863	-0.40752806826740934
-0.4833943846562363	-0.40233449932494836
-0.4833333494999863	-0.39399645289737695
-0.4832723143437363	-0.3825805445465234
-0.4832112791874863	-0.3681776263132186
-0.4831502440312363	-0.35090205359449794
-0.4830892088749863	-0.33089081016933436
-0.4830281737187363	-0.3083024336062337
-0.4829671385624863	-0.2833157632273616
-0.4829061034062363	-0.2561285421350161
-0.4828450682499863	-0.22695588185164398
-0.4827840330937363	-0.19602851730082743
-0.4827229979374863	-0.16359107693967007
-0.4826619627812363	-0.1299000821350123
-0.4826009276249863	-0.09522194167445104
-0.4825398924687363	-0.05983091230851025
-0.4824788573124863	-0.02400684330544699
-0.4824178221562363	0.011966952073291763
-0.4823567869999863	0.047805976297945724
-0.4822957518437363	0.08322677110388346
-0.4822347166874863	0.11794918193607783
-0.4821736815312363	0.1516985356306251
-0.4821126463749863	0.1842078369496729
-0.4820516112187363	0.2152198932744308
-0.4819905760624863	0.24448929250487705
-0.4819295409062363	0.2717844330526359
-0.4818685057499863	0.2968892762544832
-0.4818074705937363	0.319605116365473
-0.4817464354374863	0.3397521282105064
-0.4816854002812363	0.3571708054309718
-0.4816243651249863	0.37172324400688017
-0.4815633299687363	0.3832941933550789
-0.4815022948124863	0.3917920525403623
-0.4814412596562363	0.3971495265496491
-0.4813802244999863	0.3993242142711811
-0.4813191893437363	0.39829895275099464
-0.4812581541874863	0.39408193024170535
-0.4811971190312363	0.38670667649188745
-0.4811360838749863	0.3762317665012114
-0.4810750487187363	0.3627403959949266
-0.4810140135624863	0.3463397151155155
-0.4809529784062363	0.32715999697212605
-0.4808919432499863	0.30535362501934465
-0.4808309080937363	0.2810938653818459
-0.4807698729374863	0.25457353753736606
-0.4807088377812363	0.22600347788705158
-0.4806478026249863	0.19561087397453544
-0.4805867674687363	0.16363748165835623
-0.4805257323124863	0.13033770183488885
-0.4804646971562363	0.09597658934895549
-0.4804036619999863	0.06082773081686956
-0.4803426268437363	0.02517110133593966
-0.4802815916874863	-0.010709160273280267
-0.4802205565312363	-0.046527011847769965
-0.4801595213749863	-0.08199676055269012
-0.4800984862187363	-0.11683534363270368
-0.4800374510624863	-0.1507645673607263
-0.4799764159062363	-0.18351331970853085
-0.4799153807499863	-0.21481971566510563
-0.4798543455937363	-0.24443320477711092
-0.4797933104374863	-0.27211653245401207
-0.4797322752812363	-0.2976476728786449
-0.4796712401249863	-0.3208215494772882
-0.4796102049687363	-0.3414517149791765
-0.4795491698124863	-0.3593718276869033
-0.4794881346562363	-0.3744369575441315
-0.4794270994999863	-0.38652481711517667
-0.4793660643437363	-0.39553665553909034
-0.4793050291874863	-0.40139814467177104
-0.4792439940312363	-0.4040599178032803
-0.4791829588749863	-0.4034980097130555
-0.4791219237187363	-0.3997140705286531
-0.4790608885624863	-0.39273532796901667
-0.4789998534062363	-0.3826144437784983
-0.4789388182499863	-0.36942905622089534
-0.4788777830937363	-0.3532812276630127
-0.4788167479374863	-0.3342966098418997
-0.4787557127812363	-0.3126234939388778
-0.4786946776249863	-0.28843162654727317
-0.4786336424687363	-0.261910878826618
-0.4785726073124863	-0.23326977630692095
-0.4785115721562363	-0.2027338007847506
-0.4784505369999863	-0.17054367955190297
-0.4783895018437363	-0.13695342934136165
-0.4783284666874863	-0.10222838160846115
-0.4782674315312363	-0.06664305325545017
-0.4782063963749863	-0.030478998189055705
-0.4781453612187363	0.005977417145763494
-0.4780843260624863	0.042437337849028006
-0.4780232909062363	0.07861163104229058
-0.4779622557499863	0.11421327088855351
-0.4779012205937363	0.148959533789124
-0.4778401854374863	0.18257431092609944
-0.4777791502812363	0.2147902867057377
-0.4777181151249863	0.2453510366044726
-0.4776570799687363	0.2740131290129165
-0.4775960448124863	0.3005479976446946
-0.4775350096562363	0.3247438513472345
-0.4774739744999863	0.34640726520723536
-0.4774129393437363	0.3653648294012363
-0.4773519041874863	0.38146446280533325
-0.4772908690312363	0.3945766661413796
-0.4772298338749863	0.40459558747749336
-0.4771687987187363	0.41143980481714365
-0.4771077635624863	0.41505309460509965
-0.4770467284062363	0.415404774207722
-0.4769856932499863	0.41249006895164464
-0.4769246580937363	0.40633008560454836
-0.4768636229374863	0.3969717052374763
-0.4768025877812363	0.3844872139542176
-0.4767415526249863	0.3689737243548787
-0.4766805174687363	0.3505524611285818
-0.4766194823124863	0.32936775448393923
-0.4765584471562363	0.3055859624096103
-0.4764974119999863	0.2793941068959971
-0.4764363768437363	0.2509984510613001
-0.4763753416874863	0.22062282463279273
-0.4763143065312363	0.1885068848828135
-0.4762532713749863	0.15490419858455584
-0.4761922362187363	0.12008024010909671
-0.4761312010624863	0.08431030674202654
-0.4760701659062363	0.04787728443741979
-0.4760091307499863	0.011069459588538328
-0.4759480955937363	-0.02582182140914514
-0.4758870604374863	-0.06250442457797434
-0.4758260252812363	-0.09868779243545857
-0.4757649901249863	-0.13408523984130552
-0.4757039549687363	-0.1684162007248937
-0.4756429198124863	-0.2014085609774589
-0.4755818846562363	-0.2328007066674515
-0.4755208494999863	-0.2623437107006487
-0.4754598143437363	-0.2898032717086281
-0.4753987791874863	-0.3149615707644125
-0.4753377440312363	-0.33761909013582575
-0.4752767088749863	-0.3575961010332133
-0.4752156737187363	-0.3747342128705653
-0.4751546385624863	-0.38889755128620496
-0.4750936034062363	-0.39997391441320745
-0.4750325682499863	-0.4078756540887595
-0.4749715330937363	-0.4125403632026782
-0.4749104979374863	-0.4139314381111163
-0.4748494627812363	-0.4120383096587778
-0.4747884276249863	-0.40687660598496705
-0.4747273924687363	-0.3984879869199852
-0.4746663573124863	-0.3869398480546736
-0.4746053221562363	-0.3723247926677483
-0.4745442869999863	-0.3547598822833179
-0.4744832518437363	-0.33438573691245915
-0.4744222166874863	-0.31136541274685897
-0.4743611815312363	-0.2858830903067198
-0.4743001463749863	-0.25814264459141323
-0.4742391112187363	-0.22836600083786066
-0.4741780760624863	-0.1967913728806614
-0.4741170409062363	-0.1636713738888597
-0.4740560057499863	-0.12927098997078237
-0.4739949705937363	-0.09386549527960701
-0.4739339354374863	-0.05773820262683313
-0.4738729002812363	-0.021178267843422173
-0.4738118651249863	0.015521667559890324
-0.4737508299687363	0.05206780032205
-0.4736897948124863	0.08816750522840126
-0.4736287596562363	0.12353171472005414
-0.4735677244999863	0.15787714648764214
-0.4735066893437363	0.19092868856361053
-0.4734456541874863	0.22242151480252992
-0.4733846190312363	0.2521032271194378
-0.4733235838749863	0.2797359311146111
-0.4732625487187363	0.3050980577696644
-0.4732015135624863	0.3279862400038956
-0.4731404784062363	0.3482168646898704
-0.4730794432499863	0.3656276067655992
-0.4730184080937363	0.3800787207080627
-0.4729573729374863	0.39145415388842936
-0.4728963377812363	0.3996625191834959
-0.4728353026249863	0.40463779989180393
-0.4727742674687363	0.40633992883690995
-0.4727132323124863	0.4047550771624887
-0.4726521971562363	0.39989582044826394
-0.4725911619999863	0.39180101359495834
-0.4725301268437363	0.380535510655326
-0.4724690916874863	0.36618965379471535
-0.4724080565312363	0.34887854602446927
-0.4723470213749863	0.3287411642193941
-0.4722859862187363	0.30593922718761213
-0.4722249510624863	0.28065592755860513
-0.4721639159062363	0.2530944665278495
-0.4721028807499863	0.22347642212659713
-0.4720418455937363	0.1920400058928889
-0.4719808104374863	0.15903812522394947
-0.4719197752812363	0.12473636807687527
-0.4718587401249863	0.08941091913042898
-0.4717977049687363	0.053346270074386214
-0.4717366698124863	0.016833005463170445
-0.4716756346562363	-0.0198345557586285
-0.4716145994999863	-0.0563607285245051
-0.4715535643437363	-0.0924508149958234
-0.4714925291874863	-0.1278135060478003
-0.4714314940312363	-0.16216317729142515
-0.4713704588749863	-0.19522223640816935
-0.4713094237187363	-0.22672331371303522
-0.4712483885624863	-0.2564114571343984
-0.4711873534062363	-0.2840461691784606
-0.4711263182499863	-0.3094033261966001
-0.4710652830937363	-0.3322770375444487
-0.4710042479374863	-0.35248126664763463
-0.4709432127812363	-0.36985136797308177
-0.4708821776249863	-0.384245408240172
-0.4708211424687363	-0.39554532126814707
-0.4707601073124863	-0.403657872561879
-0.4706990721562363	-0.40851543625519793
-0.4706380369999863	-0.41007653100742325
-0.4705770018437363	-0.4083261870560549
-0.4705159666874863	-0.4032760798801669
-0.4704549315312363	-0.3949644387550434
-0.4703938963749863	-0.38345578304264577
-0.4703328612187363	-0.36884038265375596
-0.4702718260624863	-0.3512335851856312
-0.4702107909062363	-0.330774872352452
-0.4701497557499863	-0.3076267745032517
-0.4700887205937363	-0.2819735647372121
-0.4700276854374863	-0.25401979293205346
-0.4699666502812363	-0.22398866309090354
-0.4699056151249863	-0.19212021743559252
-0.4698445799687363	-0.15866947037472137
-0.4697835448124863	-0.12390430032689387
-0.4697225096562363	-0.08810336443551466
