Time	Frequency
-0.5000274180312374	-0.28162626691596115
-0.4999663828749874	-0.26392008994090005
-0.4999053477187374	-0.24453163988795557
-0.4998443125624874	-0.2235847131065444
-0.4997832774062374	-0.20121298758140022
-0.4997222422499874	-0.17755915967027736
-0.4996612070937374	-0.15277407028206394
-0.4996001719374874	-0.12701575088246922
-0.4995391367812374	-0.10044842066494451
-0.4994781016249874	-0.0732414562073348
-0.4994170664687374	-0.045568353074842784
-0.4993560313124874	-0.01760557310589151
-0.4992949961562374	0.010468495648310558
-0.4992339609999874	0.03847472744724827
-0.4991729258437374	0.06623434497037702
-0.4991118906874874	0.09357005678970076
-0.4990508555312374	0.1203072091731975
-0.4989898203749874	0.14627483211179815
-0.4989287852187374	0.17130678459651416
-0.4988677500624874	0.19524274093705754
-0.4988067149062374	0.2179292731097504
-0.4987456797499874	0.23922075226181294
-0.4986846445937374	0.2589803443570744
-0.4986236094374874	0.2770808202647779
-0.4985625742812374	0.29340539870533616
-0.4985015391249874	0.3078484706229969
-0.4984405039687374	0.32031630170296593
-0.4983794688124874	0.3307275876673294
-0.4983184336562374	0.33901400803184495
-0.4982573984999874	0.345120669037379
-0.4981963633437374	0.3490064213067982
-0.4981353281874874	0.35064418447970114
-0.4980742930312374	0.3500210604843531
-0.4980132578749874	0.3471385011525348
-0.4979522227187374	0.34201222499525613
-0.4978911875624874	0.3346722120633675
-0.4978301524062374	0.3251624415112865
-0.4977691172499874	0.3135407034554563
-0.4977080820937374	0.29987816815178064
-0.4976470469374874	0.28425900787222474
-0.4975860117812374	0.2667798360323809
-0.4975249766249874	0.2475491168914395
-0.4974639414687374	0.22668650355326644
-0.4974029063124874	0.20432205283164315
-0.4973418711562374	0.1805954567687566
-0.4972808359999874	0.15565514507437503
-0.4972198008437374	0.12965732883920594
-0.4971587656874874	0.1027650850601586
-0.4970977305312374	0.0751472653915088
-0.4970366953749874	0.0469774652323097
-0.4969756602187374	0.018432940996806636
-0.4969146250624874	-0.010306536059172642
-0.4968535899062374	-0.039059778354734453
-0.4967925547499874	-0.06764536739119546
-0.4967315195937374	-0.09588274056502792
-0.4966704844374874	-0.12359340623634556
-0.4966094492812374	-0.15060198768289038
-0.4965484141249874	-0.1767374208924659
-0.4964873789687374	-0.20183393498210955
-0.4964263438124874	-0.22573221936882243
-0.4963653086562374	-0.24828033808337288
-0.4963042734999874	-0.2693347279356306
-0.4962432383437374	-0.2887611346766667
-0.4961822031874874	-0.3064354170933253
-0.4961211680312374	-0.32224439283827266
-0.4960601328749874	-0.33608650408122326
-0.4959990977187374	-0.34787251526340063
-0.4959380625624874	-0.3575260483574798
-0.4958770274062374	-0.364984103962685
-0.4958159922499874	-0.3701974404522422
-0.4957549570937374	-0.37313091105746815
-0.4956939219374874	-0.37376368917821284
-0.4956328867812374	-0.372089412392413
-0.4955718516249874	-0.3681162251452243
-0.4955108164687374	-0.3618667461412366
-0.4954497813124874	-0.3533779257757469
-0.4953887461562374	-0.34270082949245073
-0.4953277109999874	-0.3299003176569809
-0.4952666758437374	-0.3150546511655062
-0.4952056406874874	-0.29825499653429643
-0.4951446055312374	-0.2796048737436925
-0.4950835703749874	-0.25921948868603434
-0.4950225352187374	-0.23722503208067902
-0.4949615000624874	-0.21375788540372495
-0.4949004649062374	-0.18896374937837995
-0.4948394297499874	-0.1629967538818096
-0.4947783945937374	-0.13601846959724395
-0.4947173594374874	-0.10819691290110983
-0.4946563242812374	-0.07970545157799705
-0.4945952891249874	-0.05072177524380845
-0.4945342539687374	-0.021426694264366955
-0.4944732188124874	0.007996930013452516
-0.4944121836562374	0.03736535664845175
-0.4943511484999874	0.0664951747176147
-0.4942901133437374	0.09520437088614378
-0.4942290781874874	0.1233135828158137
-0.4941680430312374	0.15064713234339316
-0.4941070078749874	0.17703421600169683
-0.4940459727187374	0.20230995315018208
-0.4939849375624874	0.2263164166723285
-0.4939239024062374	0.24890367455276682
-0.4938628672499874	0.26993069207443027
-0.4938018320937374	0.28926627242075914
-0.4937407969374874	0.30678985441512807
-0.4936797617812374	0.32239229915020506
-0.4936187266249874	0.3359765777971251
-0.4935576914687374	0.347458389615831
-0.4934966563124874	0.3567667030363293
-0.4934356211562374	0.3638441937588319
-0.4933745859999874	0.3686476467609345
-0.4933135508437374	0.37114818721741144
-0.4932525156874874	0.37133151230804784
-0.4931914805312374	0.3691979532789551
-0.4931304453749874	0.3647624957570453
-0.4930694102187374	0.35805468556949566
-0.4930083750624874	0.34911843521289665
-0.4929473399062374	0.3380117686553079
-0.4928863047499874	0.3248064337227761
-0.4928252695937374	0.3095874820256764
-0.4927642344374874	0.2924526812551585
-0.4927031992812374	0.2735119785334363
-0.4926421641249874	0.25288670671124747
-0.4925811289687374	0.230708915963502
-0.4925200938124874	0.2071204531411427
-0.4924590586562374	0.1822721231380113
-0.4923980234999874	0.15632271019616822
-0.4923369883437374	0.12943796328512588
-0.4922759531874874	0.10178956843636457
-0.4922149180312374	0.07355402255335947
-0.4921538828749874	0.04491156455053138
-0.4920928477187374	0.016044974455430402
-0.4920318125624874	-0.012861540315493088
-0.4919707774062374	-0.04162356578417854
-0.4919097422499874	-0.07005758592100923
-0.4918487070937374	-0.09798223004251852
-0.4917876719374874	-0.1252193656271727
-0.4917266367812374	-0.15159527759077746
-0.4916656016249874	-0.1769417208518682
-0.4916045664687374	-0.20109706332645788
-0.4915435313124874	-0.22390725505756698
-0.4914824961562374	-0.24522685812109843
-0.4914214609999874	-0.2649199405803053
-0.4913604258437374	-0.28286096231038194
-0.4912993906874874	-0.29893559387233054
-0.4912383555312374	-0.31304140220349286
-0.4911773203749874	-0.3250885738335556
-0.4911162852187374	-0.3350004215295331
-0.4910552500624874	-0.34271393836693714
-0.4909942149062374	-0.34818016174907873
-0.4909331797499874	-0.35136451985068706
-0.4908721445937374	-0.3522470285941816
-0.4908111094374874	-0.35082246314529
-0.4907500742812374	-0.34710034786944677
-0.4906890391249874	-0.3411049577809232
-0.4906280039687374	-0.3328751083773646
-0.4905669688124874	-0.32246397168818086
-0.4905059336562374	-0.3099386945685986
-0.4904448984999874	-0.29538001420853494
-0.4903838633437374	-0.27888170954292824
-0.4903228281874874	-0.2605500482474804
-0.4902617930312374	-0.24050308420560845
-0.4902007578749874	-0.2188699105248875
-0.4901397227187374	-0.19578985826302503
-0.4900786875624874	-0.17141158984359212
-0.4900176524062374	-0.1458921709663862
-0.4899566172499874	-0.11939603326165527
-0.4898955820937374	-0.09209400377387127
-0.4898345469374874	-0.06416210634589757
-0.4897735117812374	-0.03578054678697557
-0.4897124766249874	-0.007132483958034682
-0.4896514414687374	0.02159710083500009
-0.4895904063124874	0.0502225967092927
-0.4895293711562374	0.07855895095716194
-0.4894683359999874	0.10642286324925024
-0.4894073008437374	0.13363392576539254
-0.4893462656874874	0.16001583662886018
-0.4892852305312374	0.18539745782004904
-0.4892241953749874	0.20961399563321206
-0.4891631602187374	0.23250798023393
-0.4891021250624874	0.253930331852558
-0.4890410899062374	0.2737413101219188
-0.4889800547499874	0.2918113793306214
-0.4889190195937374	0.30802211574334637
-0.4888579844374874	0.3222668769521987
-0.4887969492812374	0.3344516019323239
-0.4887359141249874	0.344495299101872
-0.4886748789687374	0.35233071503642766
-0.4886138438124874	0.35790461995408046
-0.4885528086562374	0.361178297473883
-0.4884917734999874	0.36212770652753545
-0.4884307383437374	0.3607436924580971
-0.4883697031874874	0.3570320463926325
-0.4883086680312374	0.35101346116123805
-0.4882476328749874	0.3427234493455297
-0.4881865977187374	0.33221207000586683
-0.4881255625624874	0.3195436836120554
-0.4880645274062374	0.304796486823134
-0.4880034922499874	0.2880620751538511
-0.4879424570937374	0.2694448280123582
-0.4878814219374874	0.24906127892488167
-0.4878203867812374	0.22703935078328477
-0.4877593516249874	0.20351757649435667
-0.4876983164687374	0.1786441819998149
-0.4876372813124874	0.15257620027407454
-0.4875762461562374	0.12547839322015614
-0.4875152109999874	0.09752230442709561
-0.4874541758437374	0.06888505612954875
-0.4873931406874874	0.03974832322551987
-0.4873321055312374	0.010297092463428859
-0.4872710703749874	-0.01928147078979868
-0.4872100352187374	-0.04879921654978323
-0.4871490000624874	-0.07806826550995888
-0.4870879649062374	-0.10690213511086918
-0.4870269297499874	-0.1351170056809316
-0.4869658945937374	-0.16253282796232196
-0.4869048594374874	-0.18897454676548042
-0.4868438242812374	-0.21427317243365726
-0.4867827891249874	-0.23826689471440637
-0.4867217539687374	-0.26080209942265803
-0.4866607188124874	-0.28173438741068807
-0.4865996836562374	-0.30092945171489194
-0.4865386484999874	-0.31826403352848853
-0.4864776133437374	-0.33362658959793
-0.4864165781874874	-0.3469181542629442
-0.4863555430312374	-0.3580528603480764
-0.4862945078749874	-0.36695857014141137
-0.4862334727187374	-0.37357731723728466
-0.4861724375624874	-0.3778656820243721
-0.4861114024062374	-0.3797951058097675
-0.4860503672499874	-0.37935203014803415
-0.4859893320937374	-0.37653806585949545
-0.4859282969374874	-0.3713699019651643
-0.4858672617812374	-0.36387930425230014
-0.4858062266249874	-0.35411282302321206
-0.4857451914687374	-0.34213159006526284
-0.4856841563124874	-0.32801086612130814
-0.4856231211562374	-0.3118396182644699
-0.4855620859999874	-0.29371991594357877
-0.4855010508437374	-0.27376631636683724
-0.4854400156874874	-0.25210511091978216
-0.4853789805312374	-0.22887355681476515
-0.4853179453749874	-0.2042189490339913
-0.4852569102187374	-0.17829774231152387
-0.4851958750624874	-0.1512745091893144
-0.4851348399062374	-0.1233209070430002
-0.4850738047499874	-0.09461458594549205
-0.4850127695937374	-0.0653380316523198
-0.4849517344374874	-0.03567743580854301
-0.4848906992812374	-0.005821448329118098
-0.4848296641249874	0.024039963979903125
-0.4847686289687374	0.05371680146114004
-0.4847075938124874	0.08302018079298294
-0.4846465586562374	0.1117636215073099
-0.4845855234999874	0.13976418150367992
-0.4845244883437374	0.16684366502066209
-0.4844634531874874	0.19282974251205218
-0.4844024180312374	0.21755710268643236
-0.4843413828749874	0.24086845513241062
-0.4842803477187374	0.2626155936716208
-0.4842193125624874	0.28266033561298615
-0.4841582774062374	0.3008753862913365
-0.4840972422499874	0.3171452143086099
-0.4840362070937374	0.3313667300645518
-0.4839751719374874	0.34345002581846595
-0.4839141367812374	0.3533188762974087
-0.4838531016249874	0.3609113251052168
-0.4837920664687374	0.36617998898645576
-0.4837310313124874	0.3690924565273205
-0.4836699961562374	0.36963143370785656
-0.4836089609999874	0.36779490056937997
-0.4835479258437374	0.36359611306935413
-0.4834868906874874	0.3570635144229255
-0.4834258555312374	0.3482405847743388
-0.4833648203749874	0.3371855230814564
-0.4833037852187374	0.32397092834360186
-0.4832427500624874	0.30868327890152497
-0.4831817149062374	0.2914224407199869
-0.4831206797499874	0.27230096571200224
-0.4830596445937374	0.25144342748708143
-0.4829986094374874	0.22898557731078267
-0.4829375742812374	0.2050735021423385
-0.4828765391249874	0.17986267047842747
-0.4828155039687374	0.15351693234705813
-0.4827544688124874	0.12620748226210293
-0.4826934336562374	0.09811173283288063
-0.4826323984999874	0.06941217961137422
-0.4825713633437374	0.04029525733341962
-0.4825103281874874	0.010950058626370714
-0.4824492930312374	-0.01843277158960816
-0.4823882578749874	-0.047662394172996767
-0.4823272227187374	-0.07654888327496029
-0.4822661875624874	-0.10490457106975427
-0.4822051524062374	-0.13254515312938925
-0.4821441172499874	-0.15929096695430375
-0.4820830820937374	-0.18496811737187563
-0.4820220469374874	-0.20940955718798776
-0.4819610117812374	-0.23245630342713164
-0.4818999766249874	-0.2539582840968067
-0.4818389414687374	-0.2737754963886764
-0.4817779063124874	-0.29177875686866556
-0.4817168711562374	-0.30785067527223
-0.4816558359999874	-0.32188630851164207
-0.4815948008437374	-0.33379393119346445
-0.4815337656874874	-0.34349556925488417
-0.4814727305312374	-0.3509275572492897
-0.4814116953749874	-0.356040930811221
-0.4813506602187374	-0.35880175852325413
-0.4812896250624874	-0.3591913686324123
-0.4812285899062374	-0.35720647429668834
-0.4811675547499874	-0.35285920765291395
-0.4811065195937374	-0.3461770403944909
-0.4810454844374874	-0.33720262317995237
-0.4809844492812374	-0.32599350646844744
-0.4809234141249874	-0.31262178605489943
-0.4808623789687374	-0.2971736310141155
-0.4808013438124874	-0.2797487494954679
-0.4807403086562374	-0.26045972746065
-0.4806792734999874	-0.23943134108031666
-0.4806182383437374	-0.21679969698513013
-0.4805572031874874	-0.19271143159866846
-0.4804961680312374	-0.16732269121815382
-0.4804351328749874	-0.1407981927500915
-0.4803740977187374	-0.11331010229655075
-0.4803130625624874	-0.0850369736455976
-0.4802520274062374	-0.05616256185868586
-0.4801909922499874	-0.0268746207799135
-0.4801299570937374	0.0026362266240867144
-0.4800689219374874	0.032177853442109515
-0.4800078867812374	0.0615577567282375
-0.4799468516249874	0.09058436831375706
-0.4798858164687374	0.11906828907690602
-0.4798247813124874	0.14682347661094378
-0.4797637461562374	0.1736685516095667
-0.4797027109999874	0.1994278370029073
-0.4796416758437374	0.22393263732270863
-0.4795806406874874	0.24702224029839007
-0.4795196055312374	0.26854501979699336
-0.4794585703749874	0.2883593998236749
-0.4793975352187374	0.30633477191318004
-0.4793365000624874	0.32235239792958387
-0.4792754649062374	0.3363061028212525
-0.4792144297499874	0.34810307114372685
-0.4791533945937374	0.35766436473055085
-0.4790923594374874	0.3649255199594732
-0.4790313242812374	0.36983692133673274
-0.4789702891249874	0.3723641663521487
-0.4789092539687374	0.3724882776025619
-0.4788482188124874	0.3702058549252394
-0.4787871836562374	0.3655290889042094
-0.4787261484999874	0.35848571059285933
-0.4786651133437374	0.3491188044999506
-0.4786040781874874	0.3374865548698181
-0.4785430430312374	0.3236618735947798
-0.4784820078749874	0.3077319232296262
-0.4784209727187374	0.2897975878655103
-0.4783599375624874	0.2699728030220077
-0.4782989024062374	0.2483838481226239
-0.4782378672499874	0.2251685039379005
-0.4781768320937374	0.20047521051882877
-0.4781157969374874	0.1744620601568901
-0.4780547617812374	0.14729583830659282
-0.4779937266249874	0.11915086888151992
-0.4779326914687374	0.09020798924184176
-0.4778716563124874	0.060653280817583664
-0.4778106211562374	0.030676924518693274
-0.4777495859999874	0.0004719741531053638
-0.4776885508437374	-0.029766942658981745
-0.4776275156874874	-0.059844824318944376
-0.4775664805312374	-0.08956762245451384
-0.4775054453749874	-0.11874344026439831
-0.4774444102187374	-0.14718383369784938
-0.4773833750624874	-0.17470499105142404
-0.4773223399062374	-0.2011289602701483
-0.4772613047499874	-0.2262847804368533
-0.4772002695937374	-0.2500096365791045
-0.4771392344374874	-0.27214986666855784
-0.4770781992812374	-0.2925620011744405
-0.4770171641249874	-0.31111369020197216
-0.4769561289687374	-0.3276845646716536
-0.4768950938124874	-0.34216703764583295
-0.4768340586562374	-0.3544669858007587
-0.4767730234999874	-0.364504394664741
-0.4767119883437374	-0.3722138596633296
-0.4766509531874874	-0.37754504309072867
-0.4765899180312374	-0.38046298819123736
-0.4765288828749874	-0.380948367684963
-0.4764678477187374	-0.3789976116373538
-0.4764068125624874	-0.37462293535244523
-0.4763457774062374	-0.36785227790056724
-0.4762847422499874	-0.35872911402941166
-0.4762237070937374	-0.3473121958316371
-0.4761626719374874	-0.33367515955149063
-0.4761016367812374	-0.3179060759221929
-0.4760406016249874	-0.3001068570691236
-0.4759795664687374	-0.28039262732353
-0.4759185313124874	-0.2588909700181787
-0.4758574961562374	-0.23574108730455168
-0.4757964609999874	-0.21109293415826888
-0.4757354258437374	-0.18510621880697029
-0.4756743906874874	-0.15794937062805336
-0.4756133555312374	-0.12979847816281917
-0.4755523203749874	-0.10083610176179887
-0.4754912852187374	-0.07125011688584916
-0.4754302500624874	-0.041232496352660145
-0.4753692149062374	-0.01097803833571247
-0.4753081797499874	0.019316867401956997
-0.4752471445937374	0.04945556580120741
-0.4751861094374874	0.07924234419411462
-0.4751250742812374	0.10848379516385347
-0.4750640391249874	0.13698999186586297
-0.4750030039687374	0.16457580540846467
-0.4749419688124874	0.19106204635303375
-0.4748809336562374	0.21627667408012957
-0.4748198984999874	0.24005591555539718
-0.4747588633437374	0.26224532172877885
-0.4746978281874874	0.2827007965591451
-0.4746367930312374	0.3012895200790617
-0.4745757578749874	0.31789083620936076
-0.4745147227187374	0.33239704675926535
-0.4744536875624874	0.34471409521122004
-0.4743926524062374	0.3547622147028686
-0.4743316172499874	0.36247643141539854
-0.4742705820937374	0.36780700228416924
-0.4742095469374874	0.37071976072798773
-0.4741485117812374	0.3711963054787213
-0.4740874766249874	0.36923418694626536
-0.4740264414687374	0.3648468520871575
-0.4739654063124874	0.3580636511381251
-0.4739043711562374	0.34892955902851497
-0.4738433359999874	0.33750498134564194
-0.4737823008437374	0.32386527115778707
-0.4737212656874874	0.3081003282535981
-0.4736602305312374	0.29031394786384424
-0.4735991953749874	0.2706232029935494
-0.4735381602187374	0.24915763239318897
-0.4734771250624874	0.22605844158342628
-0.4734160899062374	0.2014775620256445
-0.4733550547499874	0.17557665022833213
-0.4732940195937374	0.14852607524299377
-0.4732329844374874	0.12050375284011135
-0.4731719492812374	0.0916940275936449
-0.4731109141249874	0.06228644217738183
-0.4730498789687374	0.032474517901611696
-0.4729888438124874	0.0024544621951457157
-0.4729278086562374	-0.02757607495051992
-0.4728667734999874	-0.05741934236255559
-0.4728057383437374	-0.08687875086944674
-0.4727447031874874	-0.115760156338948
-0.4726836680312374	-0.14387318479864014
-0.4726226328749874	-0.17103240625453284
-0.4725615977187374	-0.1970586133320953
-0.4725005625624874	-0.22177997363602686
-0.4724395274062374	-0.24503315401833564
-0.4723784922499874	-0.2666644432844878
-0.4723174570937374	-0.28653064549793344
-0.4722564219374874	-0.30450021750966605
-0.4721953867812374	-0.32045391149812663
-0.4721343516249874	-0.3342857771155653
-0.4720733164687374	-0.34590369021712175
-0.4720122813124874	-0.3552300791962717
-0.4719512461562374	-0.3622023884115589
-0.4718902109999874	-0.3667735020738294
-0.4718291758437374	-0.36891208788399166
-0.4717681406874874	-0.368602759062759
-0.4717071055312374	-0.36584625673895266
-0.4716460703749874	-0.360659367147291
-0.4715850352187374	-0.35307491347397607
-0.4715240000624874	-0.3431414568629307
-0.4714629649062374	-0.3309230726907815
-0.4714019297499874	-0.3164988544748336
-0.4713408945937374	-0.2999624852385473
-0.4712798594374874	-0.2814215611441923
-0.4712188242812374	-0.26099694144699753
-0.4711577891249874	-0.23882192305001512
-0.4710967539687374	-0.21504141136351765
-0.4710357188124874	-0.18981093946397742
-0.4709746836562374	-0.16329569505123434
-0.4709136484999874	-0.1356693664009619
-0.4708526133437374	-0.10711310734989687
-0.4707915781874874	-0.07781425905603258
-0.4707305430312374	-0.04796519276363319
-0.4706695078749874	-0.01776198474901462
-0.4706084727187374	0.012596803385075146
-0.4705474375624874	0.04291148871212126
-0.4704864024062374	0.07298254395839328
-0.4704253672499874	0.10261188508811987
-0.4703643320937374	0.13160427671004538
-0.4703032969374874	0.15976845315195068
-0.4702422617812374	0.18691856527710132
-0.4701812266249874	0.21287522755662566
-0.4701201914687374	0.23746685589263547
-0.4700591563124874	0.26053066539732017
-0.4699981211562374	0.28191386807286073
-0.4699370859999874	0.30147457264866295
-0.4698760508437374	0.31908282253922693
-0.4698150156874874	0.3346213737723246
-0.4697539805312374	0.34798654131488743
