Time	Frequency
-0.5000224235312487	3.8609600798257174e-25
-0.4999613883749987	3.5192898390176847e-25
-0.4999003532187487	3.1523666712719586e-25
-0.4998393180624987	2.7628847447640147e-25
-0.4997782829062487	2.35370379734088e-25
-0.4997172477499987	1.927828446676897e-25
-0.4996562125937487	1.4883867911958117e-25
-0.4995951774374987	1.0386060814164843e-25
-0.4995341422812487	5.817904834888835e-26
-0.4994731071249987	1.212954763884435e-26
-0.4994120719687487	-3.3949617481605155e-26
-0.4993510368124987	-7.971993336846272e-26
-0.4992900016562487	-1.248451745867047e-25
-0.4992289664999987	-1.6899386723127252e-25
-0.4991679313437487	-2.1184176007123787e-25
-0.4991068961874987	-2.5307413048134712e-25
-0.4990458610312487	-2.9238825530984e-25
-0.4989848258749987	-3.2949552176012202e-25
-0.4989237907187487	-3.641235946506853e-25
-0.4988627555624987	-3.9601848199652765e-25
-0.4988017204062487	-4.24946341927655e-25
-0.4987406852499987	-4.5069526828919335e-25
-0.4986796500937487	-4.730768288125341e-25
-0.4986186149374987	-4.9192749256223145e-25
-0.4985575797812487	-5.071098086492941e-25
-0.4984965446249987	-5.185134636333111e-25
-0.4984355094687487	-5.26056092987701e-25
-0.4983744743124987	-5.296838775887289e-25
-0.4983134391562487	-5.293719855702834e-25
-0.4982524039999987	-5.251247292434553e-25
-0.4981913688437487	-5.169755678289642e-25
-0.4981303336874987	-5.049868514140925e-25
-0.4980692985312487	-4.8924937428038705e-25
-0.4980082633749987	-4.698817120341617e-25
-0.4979472282187487	-4.470293485227494e-25
-0.4978861930624987	-4.208636042483197e-25
-0.4978251579062487	-3.915803895057854e-25
-0.4977641227499987	-3.59398739499391e-25
-0.4977030875937487	-3.245592183301368e-25
-0.4976420524374987	-2.8732213453536788e-25
-0.4975810172812487	-2.4796559540442737e-25
-0.4975199821249987	-2.0678352633327073e-25
-0.4974589469687487	-1.6408339227174955e-25
-0.4973979118124987	-1.2018399931619887e-25
-0.4973368766562487	-7.541312362998684e-26
-0.4972758414999987	-3.010503743085922e-26
-0.4972148063437487	1.5401896637148756e-26
-0.4971537711874987	6.076779827135893e-26
-0.4970927360312487	1.0565375691724518e-25
-0.4970317008749987	1.4972435479559927e-25
-0.4969706657187487	1.9265015800139474e-25
-0.4969096305624987	2.3411016699592303e-25
-0.4968485954062487	2.7379419314130124e-25
-0.4967875602499987	3.114051880905814e-25
-0.4967265250937487	3.4666143534491554e-25
-0.4966654899374987	3.792986402173975e-25
-0.4966044547812487	4.0907195235008726e-25
-0.4965434196249987	4.357577176803241e-25
-0.4964823844687487	4.591552140322962e-25
-0.4964213493124987	4.790881250596712e-25
-0.4963603141562487	4.95405852895618e-25
-0.4962992789999987	5.07984691238194e-25
-0.4962382438437487	5.167286988769799e-25
-0.4961772086874987	5.21570484623129e-25
-0.4961161735312487	5.224716804898905e-25
-0.4960551383749987	5.194232711511707e-25
-0.4959941032187487	5.124456631400877e-25
-0.4959330680624987	5.015885407038396e-25
-0.4958720329062487	4.869305481512076e-25
-0.4958109977499987	4.6857866635020475e-25
-0.4957499625937487	4.466674968030169e-25
-0.4956889274374987	4.213582232660594e-25
-0.4956278922812487	3.9283745914125233e-25
-0.4955668571249987	3.6131587100271433e-25
-0.4955058219687487	3.2702660832472544e-25
-0.4954447868124987	2.9022362964682953e-25
-0.4953837516562487	2.5117975772461382e-25
-0.4953227164999987	2.1018472994168003e-25
-0.4952616813437487	1.6754300485820358e-25
-0.4952006461874987	1.2357154763671324e-25
-0.4951396110312487	7.859744911296584e-26
-0.4950785758749987	3.2955511870041885e-26
-0.4950175407187487	-1.3014218052220206e-26
-0.4949565055624987	-5.896902296979405e-26
-0.4948954704062487	-1.0456599214426871e-25
-0.4948344352499987	-1.494646460740903e-25
-0.4947734000937487	-1.9332938928367121e-25
-0.4947123649374987	-2.3583210681977136e-25
-0.4946513297812487	-2.76654517127115e-25
-0.4945902946249987	-3.1549057697926843e-25
-0.4945292594687487	-3.520488215474967e-25
-0.4944682243124987	-3.860544306965674e-25
-0.4944071891562487	-4.17251401079069e-25
-0.4943461539999987	-4.454043728952025e-25
-0.4942851188437487	-4.703004342728099e-25
-0.4942240836874987	-4.917507317306033e-25
-0.4941630485312487	-5.0959185829139195e-25
-0.4941020133749987	-5.236871033421252e-25
-0.4940409782187487	-5.339274946817848e-25
-0.4939799430624987	-5.402326094218951e-25
-0.4939189079062487	-5.4255120471729015e-25
-0.4938578727499987	-5.408616229899429e-25
-0.4937968375937487	-5.351719491011073e-25
-0.4937358024374987	-5.255200061946337e-25
-0.4936747672812487	-5.119730589410382e-25
-0.4936137321249987	-4.946273632953513e-25
-0.4935526969687487	-4.7360744684693e-25
-0.4934916618124987	-4.490652139785008e-25
-0.4934306266562487	-4.211788469394074e-25
-0.4933695914999987	-3.9015145784887504e-25
-0.4933085563437487	-3.5620964718680576e-25
-0.4932475211874987	-3.196017942513934e-25
-0.4931864860312487	-2.8059624924814586e-25
-0.4931254508749987	-2.394793334305312e-25
-0.4930644157187487	-1.9655323051451163e-25
-0.4930033805624987	-1.5213375686724628e-25
-0.4929423454062487	-1.0654799760923552e-25
-0.4928813102499987	-6.013193457200248e-26
-0.4928202750937487	-1.322787103674303e-26
-0.4927592399374987	3.381802652972825e-26
-0.4926982047812487	8.065834924004749e-26
-0.4926371696249987	1.2694702215770503e-25
-0.4925761344687487	1.7234184450236196e-25
-0.4925150993124987	2.16507099113136e-25
-0.4924540641562487	2.5911598505198267e-25
-0.4923930289999987	2.998530870185573e-25
-0.4923319938437487	3.3841675535119875e-25
-0.4922709586874987	3.7452127934431017e-25
-0.4922099235312487	4.07899095303888e-25
-0.4921488883749987	4.383027540832137e-25
-0.4920878532187487	4.655067545522915e-25
-0.4920268180624987	4.893092936936271e-25
-0.4919657829062487	5.095336759440402e-25
-0.4919047477499987	5.260297710140102e-25
-0.4918437125937487	5.386750130785127e-25
-0.4917826774374987	5.47375423806857e-25
-0.4917216422812487	5.520662822049578e-25
-0.4916606071249987	5.527125985825172e-25
-0.4915995719687487	5.493094563161813e-25
-0.4915385368124987	5.418819663854964e-25
-0.4914775016562487	5.304851970766644e-25
-0.4914164664999987	5.1520367634543825e-25
-0.4913554313437487	4.961508553509602e-25
-0.4912943961874987	4.7346821788422095e-25
-0.4912333610312487	4.473242723154539e-25
-0.4911723258749987	4.179132833180408e-25
-0.4911112907187487	3.8545384312502545e-25
-0.4910502555624987	3.501872723020608e-25
-0.4909892204062487	3.123757646233123e-25
-0.4909281852499987	2.7230052384240676e-25
-0.4908671500937487	2.302596034940576e-25
-0.4908061149374987	1.8656574480143458e-25
-0.4907450797812487	1.4154399075165814e-25
-0.4906840446249987	9.552931277684462e-26
-0.4906230094687487	4.886410908720039e-26
-0.4905619743124987	1.8956020446359366e-27
-0.4905009391562487	-4.5026662471298467e-26
-0.4904399039999987	-9.15535230308847e-26
-0.4903788688437487	-1.3733872555684289e-25
-0.4903178336874987	-1.8204156422004748e-25
-0.4902567985312487	-2.253294229604341e-25
-0.4901957633749987	-2.6688021995211197e-25
-0.4901347282187487	-3.063848650889885e-25
-0.4900736930624987	-3.435495648362715e-25
-0.4900126579062487	-3.7809799757647253e-25
-0.4899516227499987	-4.0977339997035463e-25
-0.4898905875937487	-4.383405233301614e-25
-0.4898295524374987	-4.635873191756163e-25
-0.4897685172812487	-4.853266376065748e-25
-0.4897074821249987	-5.033975342432107e-25
-0.4896464469687487	-5.176665508107125e-25
-0.4895854118124987	-5.280287008985771e-25
-0.4895243766562487	-5.34408237085967e-25
-0.4894633414999987	-5.367592886205907e-25
-0.4894023063437487	-5.350661330527825e-25
-0.4893412711874987	-5.29343404285008e-25
-0.4892802360312487	-5.1963592175931155e-25
-0.4892192008749987	-5.060184158738786e-25
-0.4891581657187487	-4.885949481122505e-25
-0.4890971305624987	-4.674981394988152e-25
-0.4890360954062487	-4.428882083506505e-25
-0.4889750602499987	-4.149517463270532e-25
-0.4889140250937487	-3.839003535343881e-25
-0.4888529899374987	-3.499690479122927e-25
-0.4887919547812487	-3.134144965397983e-25
-0.4887309196249987	-2.7451312747913207e-25
-0.4886698844687487	-2.335590332273238e-25
-0.4886088493124987	-1.9086177619427935e-25
-0.4885478141562487	-1.467440985923014e-25
-0.4884867789999987	-1.0153942909990254e-25
-0.4884257438437487	-5.558948750341457e-26
-0.4883647086874987	-9.24163419543527e-27
-0.4883036735312487	3.7153718595305886e-26
-0.4882426383749987	8.324567991264792e-26
-0.4881816032187487	1.2868562240798168e-25
-0.4881205680624987	1.7312970224311652e-25
-0.4880595329062487	2.162414979584796e-25
-0.4879984977499987	2.57694558696223e-25
-0.4879374625937487	2.9717479584182707e-25
-0.4878764274374987	3.343829282929396e-25
-0.4878153922812487	3.6903668748971244e-25
-0.4877543571249987	4.0087296268703237e-25
-0.4876933219687487	4.296498161316531e-25
-0.4876322868124987	4.551482524604433e-25
-0.4875712516562487	4.771739425788564e-25
-0.4875102164999987	4.955586641670873e-25
-0.4874491813437487	5.101615747110446e-25
-0.4873881461874987	5.208703145423136e-25
-0.4873271110312487	5.276018382569932e-25
-0.4872660758749987	5.303030701704578e-25
-0.4872050407187487	5.289513188785538e-25
-0.4871440055624987	5.2355446295195765e-25
-0.4870829704062487	5.141509077575281e-25
-0.4870219352499987	5.008093124716178e-25
-0.4869609000937487	4.8362809544462555e-25
-0.4868998649374987	4.627347053570902e-25
-0.4868388297812487	4.382846773777371e-25
-0.4867777946249987	4.104604932607417e-25
-0.4867167594687487	3.7947018602852814e-25
-0.4866557243124987	3.455458396779629e-25
-0.4865946891562487	3.089418260835455e-25
-0.4865336539999987	2.6993287312029117e-25
-0.4864726188437487	2.28812101717563e-25
-0.4864115836874987	1.8588871454019166e-25
-0.4863505485312487	1.4148575461911528e-25
-0.4862895133749987	9.593766372583756e-26
-0.4862284782187487	4.9587745878754284e-26
-0.4861674430624987	2.785631811175321e-27
-0.4861064079062487	-4.411541524013668e-26
-0.4860453727499987	-9.076106969392956e-26
-0.4859843375937487	-1.3679871514686423e-25
-0.4859233024374987	-1.8188002262739306e-25
-0.4858622672812487	-2.2566358699195123e-25
-0.4858012321249987	-2.6781756971974985e-25
-0.4857401969687487	-3.080221157528654e-25
-0.4856791618124987	-3.4597183634104724e-25
-0.4856181266562487	-3.8137808235543783e-25
-0.4855570914999987	-4.1397114973969345e-25
-0.4854960563437487	-4.435023309635771e-25
-0.4854350211874987	-4.697457631127522e-25
-0.4853739860312487	-4.925002108542098e-25
-0.4853129508749987	-5.115905375363491e-25
-0.4852519157187487	-5.268690634194541e-25
-0.4851908805624987	-5.382167318531882e-25
-0.4851298454062487	-5.455439528667507e-25
-0.4850688102499987	-5.487913836853291e-25
-0.4850077750937487	-5.479303252864574e-25
-0.4849467399374987	-5.429629947257196e-25
-0.4848857047812487	-5.339225371321766e-25
-0.4848246696249987	-5.20872757550302e-25
-0.4847636344687487	-5.039077165924708e-25
-0.4847025993124987	-4.831509850844032e-25
-0.4846415641562487	-4.587547762525379e-25
-0.4845805289999987	-4.3089880209779645e-25
-0.4845194938437487	-3.9978892550456497e-25
-0.4844584586874987	-3.6565565356776576e-25
-0.4843974235312487	-3.2875239308722646e-25
-0.4843363883749987	-2.893535599893203e-25
-0.4842753532187487	-2.477525522270986e-25
-0.4842143180624987	-2.042594999596871e-25
-0.4841532829062487	-1.5919899971506066e-25
-0.4840922477499987	-1.1290762180978057e-25
-0.4840312125937487	-6.573141340913488e-26
-0.4839701774374987	-1.8023311431300386e-26
-0.4839091422812487	2.985956924344771e-26
-0.4838481071249987	7.755856160124278e-26
-0.4837870719687487	1.2471619013513412e-25
-0.4837260368124987	1.7097883073519996e-25
-0.4836650016562487	2.159994332590285e-25
-0.4836039664999987	2.5944008366512952e-25
-0.4835429313437487	3.0097456586721334e-25
-0.4834818961874987	3.402908839581718e-25
-0.4834208610312487	3.7709352964648575e-25
-0.4833598258749987	4.1110579246415264e-25
-0.4832987907187487	4.420718536394512e-25
-0.4832377555624987	4.697586376700825e-25
-0.4831767204062487	4.939577176833945e-25
-0.4831156852499987	5.1448679279561925e-25
-0.4830546500937487	5.311911124723885e-25
-0.4829936149374987	5.439446832010255e-25
-0.4829325797812487	5.526511630316962e-25
-0.4828715446249987	5.572446981172025e-25
-0.4828105094687487	5.576903364361635e-25
-0.4827494743124987	5.539843841283669e-25
-0.4826884391562487	5.461543974644714e-25
-0.4826274039999987	5.342590069687864e-25
-0.4825663688437487	5.183874993624125e-25
-0.4825053336874987	4.986591231659708e-25
-0.4824442985312487	4.75222247427147e-25
-0.4823832633749987	4.482532096003114e-25
-0.4823222282187487	4.17955015072028e-25
-0.4822611930624987	3.8455582791254904e-25
-0.4822001579062487	3.4830722771685656e-25
-0.4821391227499987	3.094823316805811e-25
-0.4820780875937487	2.683737507981401e-25
-0.4820170524374987	2.252913624236658e-25
-0.4819560172812487	1.8056000326693378e-25
-0.4818949821249987	1.3451697954949674e-25
-0.4818339469687487	8.750956208026085e-26
-0.4817729118124987	3.9892344938631547e-26
-0.4817118766562487	-7.975456330585376e-27
-0.4816508414999987	-5.573267097480532e-26
-0.4815898063437487	-1.0301893840945909e-25
-0.4815287711874987	-1.4947743533389597e-25
-0.4814677360312487	-1.9475757490170237e-25
-0.4814067008749987	-2.3851765718017505e-25
-0.4813456657187487	-2.8042742896173036e-25
-0.4812846305624987	-3.201706802354201e-25
-0.4812235954062487	-3.5744754496185845e-25
-0.4811625602499987	-3.9197680502569064e-25
-0.4811015250937487	-4.23498086055065e-25
-0.4810404899374987	-4.517737299174052e-25
-0.4809794547812487	-4.765907214102156e-25
-0.4809184196249987	-4.977622116975658e-25
-0.4808573844687487	-5.151290003088284e-25
-0.4807963493124987	-5.285607323287433e-25
-0.4807353141562487	-5.379568957502652e-25
-0.4806742789999987	-5.432476112144562e-25
-0.4806132438437487	-5.443941275631336e-25
-0.4805522086874987	-5.413891931152578e-25
-0.4804911735312487	-5.342570468198712e-25
-0.4804301383749987	-5.230533133420827e-25
-0.4803691032187487	-5.0786453587243295e-25
-0.4803080680624987	-4.888075605696181e-25
-0.4802470329062487	-4.660286581216205e-25
-0.4801859977499987	-4.397023931852789e-25
-0.4801249625937487	-4.1003036021023054e-25
-0.4800639274374987	-3.7723959997153524e-25
-0.4800028922812487	-3.4158093498560585e-25
-0.4799418571249987	-3.0332704281042615e-25
-0.4798808219687487	-2.6277038583326676e-25
-0.4798197868124987	-2.202210302837202e-25
-0.4797587516562487	-1.7600424209259594e-25
-0.4796977164999987	-1.3045807243448026e-25
-0.4796366813437487	-8.393074591632896e-26
-0.4795756461874987	-3.677803721969554e-26
-0.4795146110312487	1.063940542741869e-26
-0.4794535758749987	5.79588961300939e-26
-0.4793925407187487	1.0481834224204958e-25
-0.4793315055624987	1.5085909862854553e-25
-0.4792704704062487	1.9572870230957087e-25
-0.4792094352499987	2.3908344344458865e-25
-0.4791484000937487	2.80591147465902e-25
-0.4790873649374987	3.1993358641683885e-25
-0.4790263297812487	3.568089679245326e-25
-0.4789652946249987	3.9093423112576965e-25
-0.4789042594687487	4.2204719009839035e-25
-0.4788432243124987	4.499085977857706e-25
-0.4787821891562487	4.743038903237936e-25
-0.4787211539999987	4.95044938695488e-25
-0.4786601188437487	5.119713938088019e-25
-0.4785990836874987	5.249520124383768e-25
-0.4785380485312487	5.338856083887864e-25
-0.4784770133749987	5.387018586687494e-25
-0.4784159782187487	5.393618879996724e-25
-0.4783549430624987	5.35858505858368e-25
-0.4782939079062487	5.282163790212809e-25
-0.4782328727499987	5.16491754400033e-25
-0.4781718375937487	5.00772140871021e-25
-0.4781108024374987	4.8117559421766055e-25
-0.4780497672812487	4.578498559347077e-25
-0.4779887321249987	4.309712646470793e-25
-0.4779276969687487	4.0074337442559486e-25
-0.4778666618124987	3.673954814500742e-25
-0.4778056266562487	3.3118083529531637e-25
-0.4777445914999987	2.923747426262421e-25
-0.4776835563437487	2.5127249426703918e-25
-0.4776225211874987	2.0818710293680307e-25
-0.4775614860312487	1.634469216915846e-25
-0.4775004508749987	1.1739317514210213e-25
-0.4774394157187487	7.037731944897001e-26
-0.4773783805624987	2.2758431887525185e-26
-0.4773173454062487	-2.5099606096325866e-26
-0.4772563102499987	-7.28308186619885e-26
-0.4771952750937487	-1.2006994323319277e-25
-0.4771342399374987	-1.6645524937162768e-25
-0.4770732047812487	-2.116312434322559e-25
-0.4770121696249987	-2.552514739082515e-25
-0.4769511344687487	-2.969810528014388e-25
-0.4768900993124987	-3.3649937093928384e-25
-0.4768290641562487	-3.7350243338353065e-25
-0.4767680289999987	-4.077052433503593e-25
-0.4767069938437487	-4.388439892216381e-25
-0.4766459586874987	-4.666780509333868e-25
-0.4765849235312487	-4.909918980253514e-25
-0.4765238883749987	-5.115966691689742e-25
-0.4764628532187487	-5.283317314923755e-25
-0.4764018180624987	-5.410658338402062e-25
-0.4763407829062487	-5.49698204477712e-25
-0.4762797477499987	-5.541592749981529e-25
-0.4762187125937487	-5.544112804902584e-25
-0.4761576774374987	-5.504485420828807e-25
-0.4760966422812487	-5.422975357035308e-25
-0.4760356071249987	-5.300167261816068e-25
-0.4759745719687487	-5.136961050991489e-25
-0.4759135368124987	-4.934565814227291e-25
-0.4758525016562487	-4.694490054799346e-25
-0.4757914664999987	-4.418531092397643e-25
-0.4757304313437487	-4.108760976396921e-25
-0.4756693961874987	-3.767511043012406e-25
-0.4756083610312487	-3.397354528661738e-25
-0.4755473258749987	-3.0010863278497505e-25
-0.4754862907187487	-2.581702834118742e-25
-0.4754252555624987	-2.1423783339758753e-25
-0.4753642204062487	-1.6864409731521604e-25
-0.4753031852499987	-1.217348185953228e-25
-0.4752421500937487	-7.38659181466048e-26
-0.4751811149374987	-2.5400896906231303e-26
-0.4751200797812487	2.3292024565742282e-26
-0.4750590446249987	7.184266722950212e-26
-0.4749980094687487	1.1988170543089474e-25
-0.4749369743124987	1.670435842751438e-25
-0.4748759391562487	2.129691635448548e-25
-0.4748149039999987	2.573086134603297e-25
-0.4747538688437487	2.9972399072068887e-25
-0.4746928336874987	3.398918671128856e-25
-0.4746317985312487	3.775058248719765e-25
-0.4745707633749987	4.1227875842504894e-25
-0.4745097282187487	4.439451465840785e-25
-0.4744486930624987	4.722630088646055e-25
-0.4743876579062487	4.970158622528193e-25
-0.4743266227499987	5.18014300409e-25
-0.4742655875937487	5.350975190684209e-25
-0.4742045524374987	5.481345364226672e-25
-0.4741435172812487	5.570251939820439e-25
-0.4740824821249987	5.617009806653243e-25
-0.4740214469687487	5.621255144657069e-25
-0.4739604118124987	5.582948959382959e-25
-0.4738993766562487	5.502377036878698e-25
-0.4738383414999987	5.380148242432396e-25
-0.4737773063437487	5.217189879733412e-25
-0.4737162711874987	5.014740634088761e-25
-0.4736552360312487	4.774341564335066e-25
-0.4735942008749987	4.497824036007357e-25
-0.4735331657187487	4.187296142849422e-25
-0.4734721305624987	3.845126525973295e-25
-0.4734110954062487	3.473926344021946e-25
-0.4733500602499987	3.0765296350096516e-25
-0.4732890250937487	2.6559712025035066e-25
-0.4732279899374987	2.2154639901692415e-25
-0.4731669547812487	1.758374309117556e-25
-0.4731059196249987	1.2881958585226865e-25
-0.4730448844687487	8.085235111159888e-26
-0.4729838493124987	3.230255031764393e-26
-0.4729228141562487	-1.6458484568193483e-26
-0.4728617789999987	-6.505769348034099e-26
-0.4728007438437487	-1.1312323209183636e-25
-0.4727397086874987	-1.6028726464893844e-25
-0.4726786735312487	-2.0618878408781546e-25
-0.4726176383749987	-2.504764587642236e-25
-0.4725566032187487	-2.9281119846412204e-25
-0.4724955680624987	-3.3286890897921444e-25
-0.4724345329062487	-3.703428875439855e-25
-0.4723734977499987	-4.049462005659252e-25
-0.4723124625937487	-4.3641392662990085e-25
-0.4722514274374987	-4.645051594130063e-25
-0.4721903922812487	-4.8900491015388895e-25
-0.4721293571249987	-5.097257070836645e-25
-0.4720683219687487	-5.265091163001067e-25
-0.4720072868124987	-5.3922690895751985e-25
-0.4719462516562487	-5.477821099784638e-25
-0.4718852164999987	-5.521097082390042e-25
-0.4718241813437487	-5.521772004477463e-25
-0.4717631461874987	-5.4798484907977815e-25
-0.4717021110312487	-5.395656678241198e-25
-0.4716410758749987	-5.269852242866149e-25
-0.4715800407187487	-5.103410968573549e-25
