Time	Frequency
-0.5000408859374943	-0.07407321771299546
-0.4999798507812443	-0.10659117607616395
-0.4999188156249943	-0.13836082527329807
-0.4998577804687443	-0.1691436201957548
-0.4997967453124943	-0.198708213965295
-0.4997357101562443	-0.22683218755763065
-0.4996746749999943	-0.2533036822159653
-0.4996136398437443	-0.27792302756591886
-0.4995526046874943	-0.30050421336023875
-0.4994915695312443	-0.32087629584859406
-0.4994305343749943	-0.3388846898581704
-0.4993694992187443	-0.3543923001347445
-0.4993084640624943	-0.36728061805125556
-0.4992474289062443	-0.37745054329252925
-0.4991863937499943	-0.3848232044413623
-0.4991253585937443	-0.3893405172738376
-0.4990643234374943	-0.3909656428190198
-0.4990032882812443	-0.3896832937646588
-0.4989422531249943	-0.38549983381404196
-0.4988812179687443	-0.37844327688160956
-0.4988201828124943	-0.36856306242916687
-0.4987591476562443	-0.355929730442648
-0.4986981124999943	-0.3406343810283654
-0.4986370773437443	-0.3227880367835687
-0.4985760421874943	-0.3025208008977335
-0.4985150070312443	-0.27998092776774713
-0.4984539718749943	-0.25533370395017096
-0.4983929367187443	-0.2287602407830222
-0.4983319015624943	-0.20045612980461072
-0.4982708664062443	-0.17062999551436325
-0.4982098312499943	-0.13950195562764986
-0.4981487960937443	-0.10730195281506777
-0.4980877609374943	-0.07426809766189948
-0.4980267257812443	-0.04064485434583995
-0.4979656906249943	-0.006681245539950874
-0.4979046554687443	0.0273710137531268
-0.4978436203124943	0.061259389610206244
-0.4977825851562443	0.09473240726471673
-0.4977215499999943	0.12754153327379814
-0.4976605148437443	0.15944303455923636
-0.4975994796874943	0.19019979176218488
-0.4975384445312443	0.2195830666924024
-0.4974774093749943	0.24737423743731388
-0.4974163742187443	0.27336640921029537
-0.4973553390624943	0.2973659778048347
-0.4972943039062443	0.31919407341926115
-0.4972332687499943	0.3386879284535024
-0.4971722335937443	0.3557020516331944
-0.4971111984374943	0.3701093743038138
-0.4970501632812443	0.3818021784941686
-0.4969891281249943	0.39069291013646096
-0.4969280929687443	0.39671487139766404
-0.4968670578124943	0.39982267738962146
-0.4968060226562443	0.3999926693246782
-0.4967449874999943	0.39722303465411496
-0.4966839523437443	0.39153388646216497
-0.4966229171874943	0.3829670875525109
-0.4965618820312443	0.3715859616730626
-0.4965008468749943	0.3574748315901953
-0.4964398117187443	0.34073837873302637
-0.4963787765624943	0.32150090742135523
-0.4963177414062443	0.29990537528263433
-0.4962567062499943	0.2761123794698006
-0.4961956710937443	0.2502989185868832
-0.4961346359374943	0.22265711306830788
-0.4960736007812443	0.19339275805790165
-0.4960125656249943	0.1627237785593402
-0.4959515304687443	0.13087862993972496
-0.4958904953124943	0.09809456818144341
-0.4958294601562443	0.0646158860751474
-0.4957684249999943	0.030692095045499013
-0.4957073898437443	-0.003423933904173187
-0.4956463546874943	-0.037477911549486535
-0.4955853195312443	-0.07121596464228626
-0.4955242843749943	-0.10438656251428477
-0.4954632492187443	-0.13674244879065456
-0.4954022140624943	-0.16804241484293725
-0.4953411789062443	-0.19805315373299534
-0.4952801437499943	-0.2265510314053297
-0.4952191085937443	-0.25332370298556117
-0.4951580734374943	-0.2781717705133121
-0.4950970382812443	-0.30091023565154296
-0.4950360031249943	-0.3213699216565318
-0.4949749679687443	-0.33939874153302174
-0.4949139328124943	-0.35486280494526434
-0.4948528976562443	-0.3676475073508406
-0.4947918624999943	-0.3776583001205854
-0.4947308273437443	-0.3848214921309608
-0.4946697921874943	-0.3890847481059527
-0.4946087570312443	-0.3904175104576424
-0.4945477218749943	-0.3888112494660928
-0.4944866867187443	-0.38427949348050916
-0.4944256515624943	-0.3768577842104435
-0.4943646164062443	-0.3666033644748463
-0.4943035812499943	-0.35359480000043864
-0.4942425460937443	-0.3379313573691322
-0.4941815109374943	-0.3197322906096901
-0.4941204757812443	-0.2991359379578559
-0.4940594406249943	-0.2762986814458644
-0.4939984054687443	-0.2513937948865109
-0.4939373703124943	-0.22461012227284508
-0.4938763351562443	-0.19615068069546296
-0.4938152999999943	-0.16623112946854618
-0.4937542648437443	-0.13507813213368006
-0.4936932296874943	-0.10292770814179
-0.4936321945312443	-0.07002337579029698
-0.4935711593749943	-0.03661440298949162
-0.4935101242187443	-0.0029538843793572517
-0.4934490890624943	0.030703171568995536
-0.4933880539062443	0.06410171129742287
-0.4933270187499943	0.09698863644763685
-0.4932659835937443	0.1291146130232666
-0.4932049484374943	0.16023606675055535
-0.4931439132812443	0.1901169108841124
-0.4930828781249943	0.21853042401370787
-0.4930218429687443	0.2452608978767891
-0.4929608078124943	0.27010527863093575
-0.4928997726562443	0.2928747619744063
-0.4928387374999943	0.3133961313218385
-0.4927777023437443	0.33151315136648357
-0.4927166671874943	0.3470876993567219
-0.4926556320312443	0.3600008626869742
-0.4925945968749943	0.3701537963331287
-0.4925335617187443	0.3774685239317
-0.4924725265624943	0.38188849712194795
-0.4924114914062443	0.3833790694625907
-0.4923504562499943	0.38192773656179835
-0.4922894210937443	0.3775442601778761
-0.4922283859374943	0.3702606071818467
-0.4921673507812443	0.360130698571486
-0.4921063156249943	0.34723005207867075
-0.4920452804687443	0.3316551696058656
-0.4919842453124943	0.3135228834915886
-0.4919232101562443	0.2929694226789366
-0.4918621749999943	0.27014944610259445
-0.4918011398437443	0.2452348430162294
-0.4917401046874943	0.21841346874817263
-0.4916790695312443	0.1898877467103049
-0.4916180343749943	0.15987309621164472
-0.4915569992187443	0.12859638387268876
-0.4914959640624943	0.09629413876621734
-0.4914349289062443	0.06321083445232833
-0.4913738937499943	0.02959702986667663
-0.4913128585937443	-0.0042925589012095195
-0.4912518234374943	-0.03820092348067947
-0.4911907882812443	-0.07187074129312981
-0.4911297531249943	-0.10504630762455873
-0.4910687179687443	-0.1374754795805198
-0.4910076828124943	-0.16891156073773764
-0.4909466476562443	-0.19911519435474756
-0.4908856124999943	-0.2278561719646793
-0.4908245773437443	-0.2549151587199009
-0.4907635421874943	-0.2800853940747241
-0.4907025070312443	-0.30317421479357226
-0.4906414718749943	-0.3240045895382476
-0.4905804367187443	-0.34241638629032495
-0.4905194015624943	-0.3582676523509241
-0.4904583664062443	-0.37143569573370583
-0.4903973312499943	-0.3818179663066183
-0.4903362960937443	-0.389332953333064
-0.4902752609374943	-0.39392068415662107
-0.4902142257812443	-0.3955433187692032
-0.4901531906249943	-0.3941853513854514
-0.4900921554687443	-0.3898537945098762
-0.4900311203124943	-0.3825781514996374
-0.4899700851562443	-0.37241014138640505
-0.4899090499999943	-0.35942342667140786
-0.4898480148437443	-0.34371295678450325
-0.4897869796874943	-0.32539437129051213
-0.4897259445312443	-0.30460305366952206
-0.4896649093749943	-0.28149318096885473
-0.4896038742187443	-0.2562365403072529
-0.4895428390624943	-0.229021250306336
-0.4894818039062443	-0.2000503614051389
-0.4894207687499943	-0.16954029452589317
-0.4893597335937443	-0.13771927637656814
-0.4892986984374943	-0.1048255567255154
-0.4892376632812443	-0.07110566260826584
-0.4891766281249943	-0.036812510400282404
-0.4891155929687443	-0.002203524316183936
-0.4890545578124943	0.03246133738882012
-0.4889935226562443	0.06692151056437944
-0.4889324874999943	0.10091783035455103
-0.4888714523437443	0.13419445034296418
-0.4888104171874943	0.16650081191997526
-0.4887493820312443	0.1975935328589115
-0.4886883468749943	0.2272382293063442
-0.4886273117187443	0.2552113374915128
-0.4885662765624943	0.2813017474071406
-0.4885052414062443	0.3053124711511571
-0.4884442062499943	0.32706209500457495
-0.4883831710937443	0.3463861706631552
-0.4883221359374943	0.3631384786214521
-0.4882611007812443	0.3771921375888217
-0.4882000656249943	0.3884405505581441
-0.4881390304687443	0.3967982717380265
-0.4880779953124943	0.4022016104342555
-0.4880169601562443	0.40460915912433804
-0.4879559249999943	0.40400210190728275
-0.4878948898437443	0.4003843655653379
-0.4878338546874943	0.39378261924224683
-0.4877728195312443	0.3842460501930267
-0.4877117843749943	0.3718460440822545
-0.4876507492187443	0.3566756088937988
-0.4875897140624943	0.33884872268981836
-0.4875286789062443	0.31849944405885827
-0.4874676437499943	0.2957809395361146
-0.4874066085937443	0.2708642950808821
-0.4873455734374943	0.24393726498809135
-0.4872845382812443	0.21520283155116707
-0.4872235031249943	0.184877670622363
-0.4871624679687443	0.1531905483862521
-0.4871014328124943	0.12038054660086096
-0.4870403976562443	0.08669530178013246
-0.4869793624999943	0.05238908562181489
-0.4869183273437443	0.017720912899405476
-0.4868572921874943	-0.01704741410773457
-0.4867962570312443	-0.05165334505017665
-0.4867352218749943	-0.08583549619003127
-0.4866741867187443	-0.11933568068020674
-0.4866131515624943	-0.15190087784953987
-0.4865521164062443	-0.1832850936212129
-0.4864910812499943	-0.21325131700913993
-0.4864300460937443	-0.2415732354191457
-0.4863690109374943	-0.2680370286898818
-0.4863079757812443	-0.29244293009289163
-0.4862469406249943	-0.31460680871733504
-0.4861859054687443	-0.33436153806294705
-0.4861248703124943	-0.3515582462228984
-0.4860638351562443	-0.3660675610337087
-0.4860027999999943	-0.37778041822014385
-0.4859417648437443	-0.38660909602880433
-0.4858807296874943	-0.3924877323213354
-0.4858196945312443	-0.3953729113227668
-0.4857586593749943	-0.3952439995514994
-0.4856976242187443	-0.3921032490550866
-0.4856365890624943	-0.38597588628237656
-0.4855755539062443	-0.37690981328213824
-0.4855145187499943	-0.3649753582361586
-0.4854534835937443	-0.35026466187170363
-0.4853924484374943	-0.3328910363895104
-0.4853314132812443	-0.312988080485039
-0.4852703781249943	-0.29070868776376657
-0.4852093429687443	-0.2662238729089183
-0.4851483078124943	-0.23972147513924594
-0.4850872726562443	-0.21140475436262773
-0.4850262374999943	-0.18149081304958198
-0.4849652023437443	-0.15020898171281222
-0.4849041671874943	-0.11779903461248026
-0.4848431320312443	-0.08450940341428628
-0.4847820968749943	-0.05059526768437185
-0.4847210617187443	-0.016316608073558475
-0.4846600265624943	0.018063767198861966
-0.4845989914062443	0.05228224274048236
-0.4845379562499943	0.08607637797505036
-0.4844769210937443	0.11918692566677865
-0.4844158859374943	0.15135984515162274
-0.4843548507812443	0.18234817296342584
-0.4842938156249943	0.2119139864811224
-0.4842327804687443	0.23983016208151497
-0.4841717453124943	0.26588215934006276
-0.4841107101562443	0.28986964107743574
-0.4840496749999943	0.3116080138975053
-0.4839886398437443	0.33092987484827996
-0.4839276046874943	0.3476862166244992
-0.4838665695312443	0.3617477010173303
-0.4838055343749943	0.3730055203388047
-0.4837444992187443	0.3813723521829317
-0.4836834640624943	0.3867829685393067
-0.4836224289062443	0.38919475811508397
-0.4835613937499943	0.3885881027052033
-0.4835003585937443	0.38496646466288953
-0.4834393234374943	0.3783564612917273
-0.4833782882812443	0.3688075849693661
-0.4833172531249943	0.356391910752972
-0.4832562179687443	0.34120350445695213
-0.4831951828124943	0.3233577478103383
-0.4831341476562443	0.3029904487325833
-0.4830731124999943	0.28025681454278006
-0.4830120773437443	0.255330302203995
-0.4829510421874943	0.22840124393262462
-0.4828900070312443	0.19967547413316705
-0.4828289718749943	0.16937269397256766
-0.4827679367187443	0.13772484228932502
-0.4827069015624943	0.10497431606455154
-0.4826458664062443	0.07137210766297801
-0.4825848312499943	0.03717592220313935
-0.4825237960937443	0.002648147377630826
-0.4824627609374943	-0.03194606910656196
-0.4824017257812443	-0.06634091569385193
-0.4823406906249943	-0.10027193535263207
-0.4822796554687443	-0.13347801827544786
-0.4822186203124943	-0.16570345813753418
-0.4821575851562443	-0.19669985912916343
-0.4820965499999943	-0.22622808135897057
-0.4820355148437443	-0.25406006676099446
-0.4819744796874943	-0.27998057032632717
-0.4819134445312443	-0.3037888726705527
-0.4818524093749943	-0.3253002572842743
-0.4817913742187443	-0.34434748150062866
-0.4817303390624943	-0.360782066179708
-0.4816693039062443	-0.3744754137748105
-0.4816082687499943	-0.3853198613936718
-0.4815472335937443	-0.3932294449334731
-0.4814861984374943	-0.39814065763353396
-0.4814251632812443	-0.40001286986326223
-0.4813641281249943	-0.3988287182558259
-0.4813030929687443	-0.39459422212967976
-0.4812420578124943	-0.3873387496676826
-0.4811810226562443	-0.3771148490849313
-0.4811199874999943	-0.36399779138356225
-0.4810589523437443	-0.3480850927050651
-0.4809979171874943	-0.3294957012774852
-0.4809368820312443	-0.308369176799539
-0.4808758468749943	-0.2848645668980209
-0.4808148117187443	-0.2591592535341688
-0.4807537765624943	-0.23144756950879555
-0.4806927414062443	-0.20193935642113256
-0.4806317062499943	-0.17085834299229946
-0.4805706710937443	-0.13844042631501843
-0.4805096359374943	-0.10493193923976574
-0.4804486007812443	-0.07058765637429648
-0.4803875656249943	-0.035669007736160385
-0.4803265304687443	-0.0004418918400128161
-0.4802654953124943	0.034825192401915
-0.4802044601562443	0.0698632959336755
-0.4801434249999943	0.10440506224247545
-0.4800823898437443	0.13818672842379584
-0.4800213546874943	0.17095024932863626
-0.4799603195312443	0.20244514435013566
-0.4798992843749943	0.23243057144812446
-0.4798382492187443	0.260677003571849
-0.4797772140624943	0.28696818530911705
-0.4797161789062443	0.3111026417148637
-0.4796551437499943	0.33289530018272456
-0.4795941085937443	0.3521789311952034
-0.4795330734374943	0.36880538415546
-0.4794720382812443	0.3826468034274358
-0.4794110031249943	0.39359653279101653
-0.4793499679687443	0.4015700590969718
-0.4792889328124943	0.40650553311588433
-0.4792278976562443	0.4083643929254136
-0.4791668624999943	0.4071315628529614
-0.4791058273437443	0.4028156469135396
-0.4790447921874943	0.39544885135575086
-0.4789837570312443	0.38508673432391105
-0.4789227218749943	0.37180783546912144
-0.4788616867187443	0.35571302072684124
-0.4788006515624943	0.33692479102288064
-0.4787396164062443	0.3155862830718229
-0.4786785812499943	0.29186023479400236
-0.4786175460937443	0.2659277135745498
-0.4785565109374943	0.2379867426304575
-0.4784954757812443	0.2082507913738765
-0.4784344406249943	0.17694714967331918
-0.4783734054687443	0.1443151549318327
-0.4783123703124943	0.11060442249519781
-0.4782513351562443	0.07607286581251772
-0.4781902999999943	0.040984733245015365
-0.4781292648437443	0.0056086584523433475
-0.4780682296874943	-0.02978454999079449
-0.4780071945312443	-0.06492383592318668
-0.4779461593749943	-0.09954008455930587
-0.4778851242187443	-0.13336815838558225
-0.4778240890624943	-0.166148885388474
-0.4777630539062443	-0.1976311746547767
-0.4777020187499943	-0.2275738165799799
-0.4776409835937443	-0.25574743266629857
-0.4775799484374943	-0.281936217357815
-0.4775189132812443	-0.3059395751543335
-0.4774578781249943	-0.32757371828912174
-0.4773968429687443	-0.3466730657793836
-0.4773358078124943	-0.363091496768526
-0.4772747726562443	-0.37670353503742493
-0.4772137374999943	-0.387405281771658
-0.4771527023437443	-0.3951152282931514
-0.4770916671874943	-0.39977492834087347
-0.4770306320312443	-0.4013493834565221
-0.4769695968749943	-0.39982741077058725
-0.4769085617187443	-0.39522165320486263
-0.4768475265624943	-0.38756854945579255
-0.4767864914062443	-0.37692803381242307
-0.4767254562499943	-0.3633830781127626
-0.4766644210937443	-0.3470390882464074
-0.4766033859374943	-0.32802305839231144
-0.4765423507812443	-0.3064826391053766
-0.4764813156249943	-0.2825849618445936
-0.4764202804687443	-0.2565154120267185
-0.4763592453124943	-0.22847613981479586
-0.4762982101562443	-0.19868456199352294
-0.4762371749999943	-0.1673716585046273
-0.4761761398437443	-0.13478018048348714
-0.4761151046874943	-0.10116284168819065
-0.4760540695312443	-0.06678028360947047
-0.4759930343749943	-0.0318991319279161
-0.4759319992187443	0.003210082722700656
-0.4758709640624943	0.03827503752672858
-0.4758099289062443	0.07302366323922657
-0.4757488937499943	0.10718632457181793
-0.4756878585937443	0.14049783216353728
-0.4756268234374943	0.1726995467019171
-0.4755657882812443	0.20354136856462526
-0.4755047531249943	0.23278363844583885
-0.4754437179687443	0.2601990723238849
-0.4753826828124943	0.2855744306664957
-0.4753216476562443	0.3087122774002111
-0.4752606124999943	0.3294324104477316
-0.4751995773437443	0.3475733455474072
-0.4751385421874943	0.36299353874828816
-0.4750775070312443	0.3755724740136401
-0.4750164718749943	0.38521167065210604
-0.4749554367187443	0.39183535657371277
-0.4748944015624943	0.39539117977013327
-0.4748333664062443	0.39585051640092705
-0.4747723312499943	0.39320879003891923
-0.4747112960937443	0.38748546586622795
-0.4746502609374943	0.3787239295526045
-0.4745892257812443	0.36699117613183274
-0.4745281906249943	0.35237726417241777
-0.4744671554687443	0.33499468823978523
-0.4744061203124943	0.3149774509931489
-0.4743450851562443	0.29248010236883604
-0.4742840499999943	0.26767648987405274
-0.4742230148437443	0.24075847538109965
-0.4741619796874943	0.21193443533957618
-0.4741009445312443	0.18142762892160813
-0.4740399093749943	0.14947453532801477
-0.4739788742187443	0.11632295606377442
-0.4739178390624943	0.0822301705528489
-0.4738568039062443	0.047460885735795114
-0.4737957687499943	0.01228523427751804
-0.4737347335937443	-0.023023344032588742
-0.4736736984374943	-0.058190225597293324
-0.4736126632812443	-0.09294169239076754
-0.4735516281249943	-0.127007118116034
-0.4734905929687443	-0.16012099498618834
-0.4734295578124943	-0.19202507724065107
-0.4733685226562443	-0.22247030850095678
-0.4733074874999943	-0.251218828541259
-0.4732464523437443	-0.27804576834725664
-0.4731854171874943	-0.30274105358076675
-0.4731243820312443	-0.32511100641470864
-0.4730633468749943	-0.34497985721266045
-0.4730023117187443	-0.36219117352762276
-0.4729412765624943	-0.37660898881255034
-0.4728802414062443	-0.3881189876827663
-0.4728192062499943	-0.39662928947805365
-0.4727581710937443	-0.40207128357730193
-0.4726971359374943	-0.4044000798656142
-0.4726361007812443	-0.4035949466850269
-0.4725750656249943	-0.39965945338080056
-0.4725140304687443	-0.39262144097304036
-0.4724529953124943	-0.3825328840908437
-0.4723919601562443	-0.36946941263475597
-0.4723309249999943	-0.35352983948069683
-0.4722698898437443	-0.3348353121477647
-0.4722088546874943	-0.31352847161123426
-0.4721478195312443	-0.2897722958400243
-0.4720867843749943	-0.2637488798253421
-0.4720257492187443	-0.2356580345577231
-0.4719647140624943	-0.20571572600843874
-0.4719036789062443	-0.17415243552575166
-0.4718426437499943	-0.1412113559462861
-0.4717816085937443	-0.10714653951456769
-0.4717205734374943	-0.07222088629749761
-0.4716595382812443	-0.03670417676758077
-0.4715985031249943	-0.0008709198653079258
-0.4715374679687443	0.03500175817889358
-0.4714764328124943	0.07063623176477131
-0.4714153976562443	0.10575657788674486
-0.4713543624999943	0.14009069785780442
-0.4712933273437443	0.17337240709072504
-0.4712322921874943	0.2053435806798511
-0.4711712570312443	0.23575605058258747
-0.4711102218749943	0.26437365910965654
-0.4710491867187443	0.2909740201054243
-0.4709881515624943	0.3153502356137066
-0.4709271164062443	0.33731265291067136
-0.4708660812499943	0.3566901198839857
-0.4708050460937443	0.3733315777553954
-0.4707440109374943	0.3871070207067592
-0.4706829757812443	0.3979086663806507
-0.4706219406249943	0.4056517645810913
-0.4705609054687443	0.41027520661375566
-0.4704998703124943	0.4117421498654248
-0.4704388351562443	0.4100401341162987
-0.4703777999999943	0.40518138765833545
-0.4703167648437443	0.3972025674984291
-0.4702557296874943	0.3861646224919793
-0.4701946945312443	0.3721522473639058
-0.4701336593749943	0.3552732701743675
-0.4700726242187443	0.3356578355031033
-0.4700115890624943	0.3134573611383834
-0.4699505539062443	0.28884342625271486
-0.4698895187499943	0.26200639182826846
-0.4698284835937443	0.23315397770622054
-0.4697674484374943	0.20250961132755935
-0.4697064132812443	0.17031074156151227
