Time	Frequency
-0.5000493811874946	-0.14285111193177058
-0.49998834603124465	-0.11184834245764753
-0.49992731087499465	-0.08007555567557267
-0.49986627571874465	-0.047766201342585815
-0.49980524056249465	-0.015157667408070825
-0.49974420540624465	0.0175105211672683
-0.49968317024999465	0.04999835368483306
-0.49962213509374465	0.08206718943212857
-0.49956109993749465	0.11348143271406115
-0.49950006478124465	0.14401027550172069
-0.49943902962499465	0.17342942005956177
-0.49937799446874465	0.2015226651037291
-0.49931695931249465	0.22808353501148793
-0.49925592415624465	0.2529167929245333
-0.49919488899999465	0.2758398188222216
-0.49913385384374465	0.2966840553621139
-0.49907281868749465	0.3152961276079468
-0.49901178353124465	0.3315390602383837
-0.49895074837499465	0.3452932628389031
-0.49888971321874465	0.3564573671772376
-0.49882867806249465	0.3649490735516541
-0.49876764290624465	0.37070564673649836
-0.49870660774999465	0.3736844907276928
-0.49864557259374465	0.3738633829057417
-0.49858453743749465	0.3712407079649244
-0.49852350228124465	0.36583544225863995
-0.49846246712499465	0.3576870360187772
-0.49840143196874465	0.3468551412823199
-0.49834039681249465	0.33341915936948235
-0.49827936165624465	0.3174777085149382
-0.49821832649999465	0.29914786020770295
-0.49815729134374465	0.27856433673094044
-0.49809625618749465	0.2558784846558879
-0.49803522103124465	0.23125723267707596
-0.49797418587499465	0.2048818096404347
-0.49791315071874465	0.1769464583692078
-0.49785211556249465	0.1476570339689225
-0.49779108040624465	0.11722944362035549
-0.49773004524999465	0.0858881338172325
-0.49766901009374465	0.05386438777236696
-0.49760797493749465	0.021394678810293312
-0.49754693978124465	-0.011281097855891936
-0.49748590462499465	-0.043921363047773526
-0.49742486946874465	-0.07628461480138846
-0.49736383431249465	-0.1081312581511993
-0.49730279915624465	-0.13922528320621183
-0.49724176399999465	-0.1693360722861955
-0.49718072884374465	-0.19824006010829773
-0.49711969368749465	-0.2257223733680229
-0.49705865853124465	-0.25157845887512753
-0.49699762337499465	-0.27561552446414017
-0.49693658821874465	-0.2976540230461561
-0.49687555306249465	-0.317528959513385
-0.49681451790624465	-0.33509109032247786
-0.49675348274999465	-0.35020807270207704
-0.49669244759374465	-0.36276540240254423
-0.49663141243749465	-0.372667301666108
-0.49657037728124465	-0.37983742393550124
-0.49650934212499465	-0.3842194184991287
-0.49644830696874465	-0.3857773802272994
-0.49638727181249465	-0.384496104658603
-0.49632623665624465	-0.38038122969103844
-0.49626520149999465	-0.3734592033607306
-0.49620416634374465	-0.3637771079164618
-0.49614313118749465	-0.35140232382649356
-0.49608209603124465	-0.3364220612044234
-0.49602106087499465	-0.31894271456116896
-0.49596002571874465	-0.29908912321233966
-0.49589899056249465	-0.2770036394451121
-0.49583795540624465	-0.2528451121373827
-0.49577692024999465	-0.22678775196321777
-0.49571588509374465	-0.19901980603801347
-0.49565484993749465	-0.1697422652710123
-0.49559381478124465	-0.1391673240835607
-0.49553277962499465	-0.10751687616685261
-0.49547174446874465	-0.07502090058159709
-0.49541070931249465	-0.041915727397142534
-0.49534967415624465	-0.008442381490730146
-0.49528863899999465	0.02515526665832498
-0.49522760384374465	0.05863219494158137
-0.49516656868749465	0.09174410693789076
-0.49510553353124465	0.12424918683640063
-0.49504449837499465	0.1559098499870743
-0.49498346321874465	0.18649458795013252
-0.49492242806249465	0.215779501726438
-0.49486139290624465	0.24355014108451534
-0.49480035774999465	0.26960293984831973
-0.49473932259374465	0.29374676311460124
-0.49467828743749465	0.3158043793310264
-0.49461725228124465	0.3356136142620678
-0.49455621712499465	0.3530287465791729
-0.49449518196874465	0.3679214112453854
-0.49443414681249465	0.3801816625222535
-0.49437311165624465	0.3897187526533869
-0.49431207649999465	0.3964617866273445
-0.49425104134374465	0.4003603149162458
-0.49419000618749465	0.4013846318626729
-0.49412897103124465	0.39952609137615686
-0.49406793587499465	0.3947971037274111
-0.49400690071874465	0.387231115733067
-0.49394586556249465	0.37688233371071783
-0.49388483040624465	0.3638253575370767
-0.49382379524999465	0.3481546406645558
-0.49376276009374465	0.32998378777501347
-0.49370172493749465	0.30944476654060715
-0.49364068978124465	0.2866868987455551
-0.49357965462499465	0.26187581143579663
-0.49351861946874465	0.23519219933793378
-0.49345758431249465	0.20683053427228767
-0.49339654915624465	0.17699759988847966
-0.49333551399999465	0.1459110090556049
-0.49327447884374465	0.11379762547764104
-0.49321344368749465	0.08089181308209303
-0.49315240853124465	0.047433854357953144
-0.49309137337499465	0.013668039820044511
-0.49303033821874465	-0.02015902014726071
-0.49296930306249465	-0.05380024279862986
-0.49290826790624465	-0.08700992863306188
-0.49284723274999465	-0.1195454928794117
-0.49278619759374465	-0.1511693245160932
-0.49272516243749465	-0.1816504755637911
-0.49266412728124465	-0.21076643673338127
-0.49260309212499465	-0.23830467595670138
-0.49254205696874465	-0.26406431697207994
-0.49248102181249465	-0.28785752563412625
-0.49241998665624465	-0.30951097726151533
-0.49235895149999465	-0.32886707480118893
-0.49229791634374465	-0.3457851356289077
-0.49223688118749465	-0.36014247295732305
-0.49217584603124465	-0.3718352205616261
-0.49211481087499465	-0.3807792000263783
-0.49205377571874465	-0.3869104470866502
-0.49199274056249465	-0.3901857899332875
-0.49193170540624465	-0.39058308170873063
-0.49187067024999465	-0.38810143444930345
-0.49180963509374465	-0.3827611978258998
-0.49174859993749465	-0.37460381630328654
-0.49168756478124465	-0.3636915490014266
-0.49162652962499465	-0.3501069819988635
-0.49156549446874465	-0.33395245860871237
-0.49150445931249465	-0.315349295352187
-0.49144342415624465	-0.29443691763661745
-0.49138238899999465	-0.27137181413470535
-0.49132135384374465	-0.2463263942024681
-0.49126031868749465	-0.21948770781451005
-0.49119928353124465	-0.19105608792930914
-0.49113824837499465	-0.16124363592181384
-0.49107721321874465	-0.13027269110947057
-0.49101617806249465	-0.09837416366652228
-0.49095514290624465	-0.0657858387804907
-0.49089410774999465	-0.03275062055411184
-0.49083307259374465	0.0004852848688481713
-0.49077203743749465	0.03367415814949659
-0.49071100228124465	0.06656863392614622
-0.49064996712499465	0.09892351387351887
-0.49058893196874465	0.13049759844164935
-0.49052789681249465	0.16105545708576074
-0.49046686165624465	0.19036920393880488
-0.49040582649999465	0.21822014634887665
-0.49034479134374465	0.24440047029917805
-0.49028375618749465	0.26871473071011165
-0.49022272103124465	0.29098132111550823
-0.49016168587499465	0.31103385975238595
-0.49010065071874465	0.32872236780432795
-0.49003961556249465	0.3439144666078173
-0.48997858040624465	0.35649626888381275
-0.48991754524999465	0.3663733462804183
-0.48985651009374465	0.3734713423801348
-0.48979547493749465	0.3777365741042833
-0.48973443978124465	0.3791364650947716
-0.48967340462499465	0.3776597242977791
-0.48961236946874465	0.37331653259887754
-0.48955133431249465	0.36613838753392997
-0.48949029915624465	0.35617795380257555
-0.48942926399999465	0.34350863128197184
-0.48936822884374465	0.3282240468255658
-0.48930719368749465	0.31043736426619695
-0.48924615853124465	0.2902804394540323
-0.48918512337499465	0.26790288627247827
-0.48912408821874465	0.2434709142213845
-0.48906305306249465	0.2171661776885195
-0.48900201790624465	0.18918437206442504
-0.48894098274999465	0.15973381098403527
-0.48887994759374465	0.12903389844951282
-0.48881891243749465	0.09731346525911924
-0.48875787728124465	0.06480914277382008
-0.48869684212499465	0.03176351017301161
-0.48863580696874465	-0.0015766015292246816
-0.48857477181249465	-0.03496202746490878
-0.48851373665624465	-0.06814307688187717
-0.48845270149999465	-0.10087135668200345
-0.48839166634374465	-0.1329017393541704
-0.48833063118749465	-0.16399401001091124
-0.48826959603124465	-0.19391484022579641
-0.48820856087499465	-0.22243939084361875
-0.48814752571874465	-0.24935303639118053
-0.48808649056249465	-0.27445301077993467
-0.48802545540624465	-0.2975498407595664
-0.48796442024999465	-0.31846882643978697
-0.48790338509374465	-0.3370513289059675
-0.48784234993749465	-0.3531559667692615
-0.48778131478124465	-0.36665964361018266
-0.48772027962499465	-0.37745857169963665
-0.48765924446874465	-0.38546891971630737
-0.48759820931249465	-0.3906275797217099
-0.48753717415624465	-0.392892569836177
-0.48747613899999465	-0.3922433836602386
-0.48741510384374465	-0.38868118724783546
-0.48735406868749465	-0.3822287612327616
-0.48729303353124465	-0.3729304315116323
-0.48723199837499465	-0.3608516649850645
-0.48717096321874465	-0.34607868186486224
-0.48710992806249465	-0.3287177614787206
-0.48704889290624465	-0.3088945127206717
-0.48698785774999465	-0.28675293966275645
-0.48692682259374465	-0.26245435851390536
-0.48686578743749465	-0.2361762703880933
-0.48680475228124465	-0.20811098741699513
-0.48674371712499465	-0.17846425115549674
-0.48668268196874465	-0.14745372700815204
-0.48662164681249465	-0.11530733239226373
-0.48656061165624465	-0.082261634371999
-0.48649957649999465	-0.04856002356580779
-0.48643854134374465	-0.014450943127230439
-0.48637750618749465	0.01981392022753604
-0.48631647103124465	0.053981611665519846
-0.48625543587499465	0.08779965007591115
-0.48619440071874465	0.12101800035467165
-0.48613336556249465	0.15339091886991044
-0.48607233040624465	0.184678737080786
-0.48601129524999465	0.21464969990273927
-0.48595026009374465	0.24308167151621288
-0.48588922493749465	0.2697637824963815
-0.48582818978124465	0.2944980105590472
-0.48576715462499465	0.31710068667016433
-0.48570611946874465	0.3374038153527162
-0.48564508431249465	0.35525638470158233
-0.48558404915624465	0.3705254718443277
-0.48552301399999465	0.383097234009364
-0.48546197884374465	0.3928777920469794
-0.48540094368749465	0.3997939219121673
-0.48533990853124465	0.4037936057903334
-0.48527887337499465	0.4048464429522295
-0.48521783821874465	0.4029438833330008
-0.48515680306249465	0.3980992861231079
-0.48509576790624465	0.390347867382669
-0.48503473274999465	0.379746398154387
-0.48497369759374465	0.36637284613975135
-0.48491266243749465	0.3503257599486226
-0.48485162728124465	0.33172357336181324
-0.48479059212499465	0.3107037234653747
-0.48472955696874465	0.28742162060759635
-0.48466852181249465	0.2620495504628885
-0.48460748665624465	0.2347753112774185
-0.48454645149999465	0.20580092816015147
-0.48448541634374465	0.1753410372364904
-0.48442438118749465	0.14362140824117364
-0.48436334603124465	0.11087719539180617
-0.48430231087499465	0.07735116763057268
-0.48424127571874465	0.04329201132572462
-0.48418024056249465	0.00895232215377116
-0.48411920540624465	-0.02541309904929372
-0.48405817024999465	-0.05954932382370469
-0.48399713509374465	-0.09320304941226953
-0.48393609993749465	-0.1261245742696946
-0.48387506478124465	-0.1580696498918133
-0.48381402962499465	-0.18880124842911014
-0.48375299446874465	-0.21809144241621986
-0.48369195931249465	-0.24572297138659363
-0.48363092415624465	-0.271491013441422
-0.48356988899999465	-0.2952045677949726
-0.48350885384374465	-0.3166880333592892
-0.48344781868749465	-0.33578240549087934
-0.48338678353124465	-0.3523465337051645
-0.48332574837499465	-0.3662581723217215
-0.48326471321874465	-0.3774148709869781
-0.48320367806249465	-0.3857347989456915
-0.48314264290624465	-0.3911572881859206
-0.48308160774999465	-0.39364338716608976
-0.48302057259374465	-0.39317605607093475
-0.48295953743749465	-0.3897604013360024
-0.48289850228124465	-0.38342355101982234
-0.48283746712499465	-0.37421453679857386
-0.48277643196874465	-0.36220387637525153
-0.48271539681249465	-0.3474830828176812
-0.48265436165624465	-0.3301639823185072
-0.48259332649999465	-0.3103778557703108
-0.48253229134374465	-0.2882745188895457
-0.48247125618749465	-0.26402112947210327
-0.48241022103124465	-0.23780101150454425
-0.48234918587499465	-0.2098122363820126
-0.48228815071874465	-0.18026616726233366
-0.48222711556249465	-0.14938587541888834
-0.48216608040624465	-0.11740446165136828
-0.48210504524999465	-0.08456331978477244
-0.48204401009374465	-0.05111033606120777
-0.48198297493749465	-0.01729800322280012
-0.48192193978124465	0.016618443328875472
-0.48186090462499465	0.05038293611175729
-0.48179986946874465	0.08374054630997446
-0.48173883431249465	0.11643933323703455
-0.48167779915624465	0.1482322837587321
-0.48161676399999465	0.17887914196575258
-0.48155572884374465	0.20814824985934705
-0.48149469368749465	0.23581825123699454
-0.48143365853124465	0.26167976503436335
-0.48137262337499465	0.28553702107738116
-0.48131158821874465	0.3072092340972265
-0.48125055306249465	0.3265320822067038
-0.48118951790624465	0.3433588470659289
-0.48112848274999465	0.3575616026004293
-0.48106744759374465	0.36903214680146146
-0.48100641243749465	0.3776828162116987
-0.48094537728124465	0.38344720821170386
-0.48088434212499465	0.3862806040769008
-0.48082330696874465	0.38616041311431354
-0.48076227181249465	0.3830862684911881
-0.48070123665624465	0.3770801048644792
-0.48064020149999465	0.3681859618615798
-0.48057916634374465	0.3564696889100586
-0.48051813118749465	0.34201845472130016
-0.48045709603124465	0.3249400899386409
-0.48039606087499465	0.30536231457836677
-0.48033502571874465	0.2834317562807642
-0.48027399056249465	0.2593128850177783
-0.48021295540624465	0.23318676046579234
-0.48015192024999465	0.2052497002203401
-0.48009088509374465	0.17571179532441983
-0.48002984993749465	0.14479534978162192
-0.47996881478124465	0.11273318683655702
-0.47990777962499465	0.07976695905763323
-0.47984674446874465	0.046145251904385134
-0.47978570931249465	0.012121787749657737
-0.47972467415624465	-0.022046485439361895
-0.47966363899999465	-0.05610141444129796
-0.47960260384374465	-0.08978544984024395
-0.47954156868749465	-0.12284369579580966
-0.47948053353124465	-0.15502577421032615
-0.47941949837499465	-0.1860877369663493
-0.47935846321874465	-0.21579390813115046
-0.47929742806249465	-0.24391861998904552
-0.47923639290624465	-0.270247997957481
-0.47917535774999465	-0.294581517742491
-0.47911432259374465	-0.31673352975376456
-0.47905328743749465	-0.33653470743837544
-0.47899225228124465	-0.35383328701094174
-0.47893121712499465	-0.3684962440796803
-0.47887018196874465	-0.380410313819346
-0.47880914681249465	-0.3894828370660972
-0.47874811165624465	-0.3956424956653346
-0.47868707649999465	-0.39883984371541664
-0.47862604134374465	-0.39904770971422093
-0.47856500618749465	-0.39626140259403964
-0.47850397103124465	-0.3904987776138318
-0.47844293587499465	-0.3818001019598788
-0.47838190071874465	-0.3702277784851536
-0.47832086556249465	-0.35586588394260726
-0.47825983040624465	-0.338819547701283
-0.47819879524999465	-0.3192141874787229
-0.47813776009374465	-0.2971945559741742
-0.47807672493749465	-0.27292369595934823
-0.47801568978124465	-0.24658168017746374
-0.47795465462499465	-0.2183643087894172
-0.47789361946874465	-0.18848162290864912
-0.47783258431249465	-0.15715633062756987
-0.47777154915624465	-0.12462215783609852
-0.47771051399999465	-0.09112204827335407
-0.47764947884374465	-0.05690641786777089
-0.47758844368749465	-0.02223117578080031
-0.47752740853124465	0.012644106447162622
-0.47746637337499465	0.04745820895477315
-0.47740533821874465	0.08195022888005819
-0.47734430306249465	0.11586148326778588
-0.47728326790624465	0.14893756408070735
-0.47722223274999465	0.1809301425544283
-0.47716119759374465	0.21159893984803232
-0.47710016243749465	0.2407134701404032
-0.47703912728124465	0.2680548451986087
-0.47697809212499465	0.2934173842745351
-0.47691705696874465	0.3166101709258
-0.47685602181249465	0.33745854866567
-0.47679498665624465	0.3558053877706749
-0.47673395149999465	0.37151231588891603
-0.47667291634374465	0.38446075156690784
-0.47661188118749465	0.3945528292555389
-0.47655084603124465	0.4017121142172187
-0.47648981087499465	0.4058842378155477
-0.47642877571874465	0.4070372597790569
-0.47636774056249465	0.40516198139145443
-0.47630670540624465	0.4002719714398358
-0.47624567024999465	0.39240351291040454
-0.47618463509374465	0.3816153249953498
-0.47612359993749465	0.36798811848739416
-0.47606256478124465	0.35162403629489614
-0.47600152962499465	0.3326458334608897
-0.47594049446874465	0.31119601898568733
-0.47587945931249465	0.2874357464972271
-0.47581842415624465	0.2615436324625323
-0.47575738899999465	0.2337143891180155
-0.47569635384374465	0.2041574023461166
-0.47563531868749465	0.17309508915671923
-0.47557428353124465	0.140761306079384
-0.47551324837499465	0.107399523927459
-0.47545221321874465	0.07326101227155982
-0.47539117806249465	0.038602964002312945
-0.47533014290624465	0.0036864870676902887
-0.47526910774999465	-0.031225236533212464
-0.47520807259374465	-0.06586911706313897
-0.47514703743749465	-0.099983974020867
-0.47508600228124465	-0.1333126326700188
-0.47502496712499465	-0.16560381964794937
-0.47496393196874465	-0.19661404847616587
-0.47490289681249465	-0.22610954220290067
-0.47484186165624465	-0.25386788573828
-0.47478082649999465	-0.2796798379346877
-0.47471979134374465	-0.30335082339701197
-0.47465875618749465	-0.3247024721772011
-0.47459772103124465	-0.34357394090082954
-0.47453668587499465	-0.3598231553301337
-0.47447565071874465	-0.37332789024133145
-0.47441461556249465	-0.38398668243523215
-0.47435358040624465	-0.39171964662066244
-0.47429254524999465	-0.3964690461857583
-0.47423151009374465	-0.398199766142681
-0.47417047493749465	-0.39689958079981086
-0.47410943978124465	-0.3925792393365893
-0.47404840462499465	-0.3852724227080285
-0.47398736946874465	-0.3750354632283598
-0.47392633431249465	-0.3619469515392861
-0.47386529915624465	-0.3461071303714114
-0.47380426399999465	-0.3276371520082529
-0.47374322884374465	-0.30667816573660533
-0.47368219368749465	-0.28339024039719174
-0.47362115853124465	-0.2579511855135468
-0.47356012337499465	-0.23055516915923213
-0.47349908821874465	-0.20141128159138197
-0.47343805306249465	-0.1707419328328881
-0.47337701790624465	-0.13878118867842393
-0.47331598274999465	-0.10577296862982191
-0.47325494759374465	-0.07196921740194274
-0.47319391243749465	-0.037627991538119264
-0.47313287728124465	-0.003011488758613216
-0.47307184212499465	0.03161592880395865
-0.47301080696874465	0.06598975562630327
-0.47294977181249465	0.09984735316426245
-0.47288873665624465	0.13292993732691555
-0.47282770149999465	0.16498456447929602
-0.47276666634374465	0.1957660438903908
-0.47270563118749465	0.22503881361674413
-0.47264459603124465	0.25257874314271606
-0.47258356087499465	0.27817482732176263
-0.47252252571874465	0.30163081578953194
-0.47246149056249465	0.3227667069925691
-0.47240045540624465	0.34142012638985964
-0.47233942024999465	0.35744756437330205
-0.47227838509374465	0.3707254973623824
-0.47221734993749465	0.38115130774887074
-0.47215631478124465	0.3886441152231893
-0.47209527962499465	0.39314536691442
-0.47203424446874465	0.3946193117366889
-0.47197320931249465	0.39305329508635745
-0.47191217415624465	0.38845783920341953
-0.47185113899999465	0.38086660584819204
-0.47179010384374465	0.37033612876772704
-0.47172906868749465	0.35694540738302943
-0.47166803353124465	0.34079531359157156
-0.47160699837499465	0.32200784075976124
-0.47154596321874465	0.30072517050353215
-0.47148492806249465	0.27710861745633425
-0.47142389290624465	0.25133740666737625
-0.47136285774999465	0.223607294521309
-0.47130182259374465	0.19412913664917952
-0.47124078743749465	0.16312722668588045
-0.47117975228124465	0.13083764766910708
-0.47111871712499465	0.09750644219567509
-0.47105768196874465	0.06338775564634994
-0.47099664681249465	0.028741929220894868
-0.47093561165624465	-0.006166560651756028
-0.47087457649999465	-0.04107100229843997
-0.47081354134374465	-0.07570460209946331
-0.47075250618749465	-0.10980239661381769
-0.47069147103124465	-0.1431034128648583
-0.47063043587499465	-0.1753525368426783
-0.47056940071874465	-0.20630250349456156
-0.47050836556249465	-0.2357158738370559
-0.47044733040624465	-0.2633666632030739
