Time	Frequency
-0.5000195604374937	3.3930012205203134e-25
-0.49995852528124374	3.6995079384335104e-25
-0.49989749012499374	3.976453075282455e-25
-0.49983645496874374	4.221660164436211e-25
-0.49977541981249374	4.433204444730928e-25
-0.49971438465624374	4.60942811486798e-25
-0.49965334949999374	4.748954440646183e-25
-0.49959231434374374	4.8506975158446e-25
-0.49953127918749374	4.913872187561147e-25
-0.49947024403124374	4.93799951866695e-25
-0.49940920887499374	4.922911051899841e-25
-0.49934817371874374	4.86875024568881e-25
-0.49928713856249374	4.775971117572788e-25
-0.49922610340624374	4.645335161931036e-25
-0.49916506824999374	4.47790488319938e-25
-0.49910403309374374	4.275035768482364e-25
-0.49904299793749374	4.0383655243649424e-25
-0.49898196278124374	3.7698007958742233e-25
-0.49892092762499374	3.4715025580417857e-25
-0.49885989246874374	3.1458684584099833e-25
-0.49879885731249374	2.79551416734647e-25
-0.49873782215624374	2.423252476297821e-25
-0.49867678699999374	2.0320706665684804e-25
-0.49861575184374374	1.6251073276665094e-25
-0.49855471668749374	1.2056264865869434e-25
-0.49849368153124374	7.769927684180463e-26
-0.49843264637499374	3.426435956016307e-26
-0.49837161121874374	-9.39380277514271e-27
-0.49831057606249374	-5.292505648490695e-26
-0.49824954090624374	-9.598029979082976e-26
-0.49818850574999374	-1.3821417780573876e-25
-0.49812747059374374	-1.7928789568031474e-25
-0.49806643543749374	-2.1887189384834722e-25
-0.49800540028124374	-2.566485115857508e-25
-0.49794436512499374	-2.923145036698692e-25
-0.49788332996874374	-3.255834745903365e-25
-0.49782229481249374	-3.5618820118358886e-25
-0.49776125965624374	-3.838827058863885e-25
-0.49770022449999374	-4.084443264698669e-25
-0.49763918934374374	-4.296754130056836e-25
-0.49757815418749374	-4.474049807789103e-25
-0.49751711903124374	-4.614900664524229e-25
-0.49745608387499374	-4.718168635813758e-25
-0.49739504871874374	-4.783016978900979e-25
-0.49733401356249374	-4.80891641712352e-25
-0.49727297840624374	-4.79565012756487e-25
-0.49721194324999374	-4.743315188040986e-25
-0.49715090809374374	-4.652322215387454e-25
-0.49708987293749374	-4.523392047229616e-25
-0.49702883778124374	-4.357550265775101e-25
-0.49696780262499374	-4.156119048840286e-25
-0.49690676746874374	-3.920706759137641e-25
-0.49684573231249374	-3.6531952593823887e-25
-0.49678469715624374	-3.355724889086937e-25
-0.49672366199999374	-3.030677787489502e-25
-0.49666262684374374	-2.6806581870803787e-25
-0.49660159168749374	-2.3084727548036475e-25
-0.49654055653124374	-1.917107492155712e-25
-0.49647952137499374	-1.5097038668053328e-25
-0.49641848621874374	-1.0895345853341357e-25
-0.49635745106249374	-6.599760585599638e-26
-0.49629641590624374	-2.244830781464881e-26
-0.49623538074999374	2.1344014977921795e-26
-0.49617434559374374	6.502675629717963e-26
-0.49611331043749374	1.0824788408017474e-25
-0.49605227528124374	1.506589094676302e-25
-0.49599124012499374	1.9191750487929387e-25
-0.49593020496874374	2.3169039687955175e-25
-0.49586916981249374	2.696559333408958e-25
-0.49580813465624374	3.0550675262176237e-25
-0.49574709949999374	3.3895220172675504e-25
-0.49568606434374374	3.6972065676201433e-25
-0.49562502918749374	3.975618134614601e-25
-0.49556399403124374	4.22248567831973e-25
-0.49550295887499374	4.435789700473761e-25
-0.49544192371874374	4.613777738351001e-25
-0.49538088856249374	4.754979212184904e-25
-0.49531985340624374	4.858216999030537e-25
-0.49525881824999374	4.922617203207782e-25
-0.49519778309374374	4.947616425345407e-25
-0.49513674793749374	4.932966320472297e-25
-0.49507571278124374	4.878736103435745e-25
-0.49501467762499374	4.785311794139382e-25
-0.49495364246874374	4.653393846725586e-25
-0.49489260731249374	4.483991304492684e-25
-0.49483157215624374	4.278414281914794e-25
-0.49477053699999374	4.038263528295131e-25
-0.49470950184374374	3.765417746501503e-25
-0.49464846668749374	3.462018998303274e-25
-0.49458743153124374	3.1304554482834936e-25
-0.49452639637499374	2.7733426690446854e-25
-0.49446536121874374	2.393502648343333e-25
-0.49440432606249374	1.9939415011899598e-25
-0.49434329090624374	1.5778254988716712e-25
-0.49428225574999374	1.148455643412233e-25
-0.49422122059374374	7.092417915894286e-26
-0.49416018543749374	2.636747228650455e-26
-0.49409915028124374	-1.8470091681259274e-26
-0.49403811512499374	-6.323155314163012e-26
-0.49397707996874374	-1.0756032092497074e-25
-0.49391604481249374	-1.5110295052224216e-25
-0.49385500965624374	-1.9351208109705422e-25
-0.49379397449999374	-2.3444913877173352e-25
-0.49373293934374374	-2.735870777301222e-25
-0.49367190418749374	-3.106130213329052e-25
-0.49361086903124374	-3.452307527537376e-25
-0.49354983387499374	-3.771631012248627e-25
-0.49348879871874374	-4.0615419248976635e-25
-0.49342776356249374	-4.319714751365607e-25
-0.49336672840624374	-4.544076111253155e-25
-0.49330569324999374	-4.732821864130659e-25
-0.49324465809374374	-4.884430924337953e-25
-0.49318362293749374	-4.997678270877189e-25
-0.49312258778124374	-5.071644766602464e-25
-0.49306155262499374	-5.105724328271955e-25
-0.49300051746874374	-5.099629472128608e-25
-0.49293948231249374	-5.053393372009566e-25
-0.49287844715624374	-4.96736992169191e-25
-0.49281741199999374	-4.842231111894403e-25
-0.49275637684374374	-4.678961592919312e-25
-0.49269534168749374	-4.478851242437773e-25
-0.49263430653124374	-4.243484582217481e-25
-0.49257327137499374	-3.974728584578684e-25
-0.49251223621874374	-3.674717668059405e-25
-0.49245120106249374	-3.3458366668882475e-25
-0.49239016590624374	-2.990701879299612e-25
-0.49232913074999374	-2.612140182101087e-25
-0.49226809559374374	-2.2131665327513556e-25
-0.49220706043749374	-1.7969596794804293e-25
-0.49214602528124374	-1.3668370591989006e-25
-0.49208499012499374	-9.262277076142402e-26
-0.49202395496874374	-4.786453625413895e-26
-0.49196291981249374	-2.766005925618155e-27
-0.49190188465624374	4.2313060442045044e-26
-0.49184084949999374	8.701300175687903e-26
-0.49177981434374374	1.3097718445400708e-25
-0.49171877918749374	1.7385481985811464e-25
-0.49165774403124374	2.153038226121778e-25
-0.49159670887499374	2.549935462000179e-25
-0.49153567371874374	2.926074030627019e-25
-0.49147463856249374	3.2784549014875765e-25
-0.49141360340624374	3.6042694253354712e-25
-0.49135256824999374	3.9009219054495683e-25
-0.49129153309374374	4.166051324327404e-25
-0.49123049793749374	4.397549108365726e-25
-0.49116946278124374	4.593577349259754e-25
-0.49110842762499374	4.752583037453262e-25
-0.49104739246874374	4.873310424552267e-25
-0.49098635731249374	4.9548122098992875e-25
-0.49092532215624374	4.9964557506072035e-25
-0.49086428699999374	4.99792968440774e-25
-0.49080325184374374	4.959245545571144e-25
-0.49074221668749374	4.880738094019505e-25
-0.49068118153124374	4.763062936387616e-25
-0.49062014637499374	4.607190696664513e-25
-0.49055911121874374	4.414400091990709e-25
-0.49049807606249374	4.186266908618894e-25
-0.49043704090624374	3.924652010035737e-25
-0.49037600574999374	3.631685992604015e-25
-0.49031497059374374	3.3097523979255125e-25
-0.49025393543749374	2.961468319931932e-25
-0.49019290028124374	2.5896632819377986e-25
-0.49013186512499374	2.197356975014188e-25
-0.49007082996874374	1.7877343384802101e-25
-0.49000979481249374	1.3641203449576297e-25
-0.48994875965624374	9.29952712046979e-26
-0.48988772449999374	4.8875496490985885e-26
-0.48982668934374374	4.410714154113917e-27
-0.48976565418749374	-4.003826478084681e-26
-0.48970461903124374	-8.411069704698316e-26
-0.48964358387499374	-1.274489374894997e-25
-0.48958254871874374	-1.6970120141593701e-25
-0.48952151356249374	-2.1052449434666485e-25
-0.48946047840624374	-2.49587343323022e-25
-0.48939944324999374	-2.8657251552157763e-25
-0.48933840809374374	-3.2117953844419393e-25
-0.48927737293749374	-3.531271998019867e-25
-0.48921633778124374	-3.821557914015297e-25
-0.48915530262499374	-4.0802918151622056e-25
-0.48909426746874374	-4.305368404386397e-25
-0.48903323231249374	-4.494954285180379e-25
-0.48897219715624374	-4.647503988308814e-25
-0.48891116199999374	-4.761771787858367e-25
-0.48885012684374374	-4.83682237842262e-25
-0.48878909168749374	-4.872038490644113e-25
-0.48872805653124374	-4.867125867686634e-25
-0.48866702137499374	-4.822116052212139e-25
-0.48860598621874374	-4.737365991229631e-25
-0.48854495106249374	-4.613555577411155e-25
-0.48848391590624374	-4.45168206058271e-25
-0.48842288074999374	-4.253052284878191e-25
-0.48836184559374374	-4.0192721780000463e-25
-0.48830081043749374	-3.752233917586917e-25
-0.48823977528124374	-3.4541006849787225e-25
-0.48817874012499374	-3.1272894471683944e-25
-0.48811770496874374	-2.7744511696659314e-25
-0.48805666981249374	-2.398450020928946e-25
-0.48799563465624374	-2.0023394991188806e-25
-0.48793459949999374	-1.5893385979779554e-25
-0.48787356434374374	-1.1628051923806293e-25
-0.48781252918749374	-7.262090561196666e-26
-0.48775149403124374	-2.831043828119693e-26
-0.48769045887499374	1.62900380675211e-26
-0.48762942371874374	6.08169931275928e-26
-0.48756838856249374	1.0490732517869596e-25
-0.48750735340624374	1.482011969034027e-25
-0.48744631824999374	1.9034496924603133e-25
-0.48738528309374374	2.3099416424596265e-25
-0.48732424793749374	2.6981611081221766e-25
-0.48726321278124374	3.064928019647556e-25
-0.48720217762499374	3.4072337693768035e-25
-0.48714114246874374	3.7222661036687385e-25
-0.48708010731249374	4.007432379419509e-25
-0.48701907215624374	4.260380043875586e-25
-0.48695803699999374	4.479016503698056e-25
-0.48689700184374374	4.6615259842206325e-25
-0.48683596668749374	4.806384410335211e-25
-0.48677493153124374	4.912372089728231e-25
-0.48671389637499374	4.978583860822124e-25
-0.48665286121874374	5.004436412595612e-25
-0.48659182606249374	4.989673517550712e-25
-0.48653079090624374	4.934368196667023e-25
-0.48646975574999374	4.838922304555979e-25
-0.48640872059374374	4.704063728513751e-25
-0.48634768543749374	4.5308404203250595e-25
-0.48628665028124374	4.320612390986919e-25
-0.48622561512499374	4.0750407018683217e-25
-0.48616457996874374	3.7960743897948556e-25
-0.48610354481249374	3.4859346711670664e-25
-0.48604250965624374	3.147097334554547e-25
-0.48598147449999374	2.7822726548785024e-25
-0.48592043934374374	2.394383689831956e-25
-0.48585940418749374	1.9865427541447918e-25
-0.48579836903124374	1.5620260894392545e-25
-0.48573733387499374	1.1242478988550614e-25
-0.48567629871874374	6.767322274672498e-26
-0.48561526356249374	2.2308466985616398e-26
-0.48555422840624374	-2.3303669586107804e-26
-0.48549319324999374	-6.879509721689427e-26
-0.48543215809374374	-1.1379844863117655e-25
-0.48537112293749374	-1.5795002927760547e-25
-0.48531008778124374	-2.0089279059760301e-25
-0.48524905262499374	-2.42279194978069e-25
-0.48518801746874374	-2.8177411603967546e-25
-0.48512698231249374	-3.190574560181232e-25
-0.48506594715624374	-3.5382683652744174e-25
-0.48500491199999374	-3.8580004749701763e-25
-0.48494387684374374	-4.147172766995077e-25
-0.48488284168749374	-4.403433796942461e-25
-0.48482180653124374	-4.62469589217492e-25
-0.48476077137499374	-4.809154660966281e-25
-0.48469973621874374	-4.955301610189116e-25
-0.48463870106249374	-5.061937929524108e-25
-0.48457766590624374	-5.128184186388018e-25
-0.48451663074999374	-5.153486659357324e-25
-0.48445559559374374	-5.137623847219808e-25
-0.48439456043749374	-5.080706206982488e-25
-0.48433352528124374	-4.983177606038897e-25
-0.48427249012499374	-4.845810184010913e-25
-0.48421145496874374	-4.669699296447925e-25
-0.48415041981249374	-4.456254445677814e-25
-0.48408938465624374	-4.20718770285086e-25
-0.48402834949999374	-3.9245007798788644e-25
-0.48396731434374374	-3.610467740392198e-25
-0.48390627918749374	-3.2676179787342355e-25
-0.48384524403124374	-2.8987145932116144e-25
-0.48378420887499374	-2.506732962470497e-25
-0.48372317371874374	-2.094836264235666e-25
-0.48366213856249374	-1.6663495635458133e-25
-0.48360110340624374	-1.2247339021358955e-25
-0.48354006824999374	-7.735568827630818e-26
-0.48347903309374374	-3.164647611284129e-26
-0.48341799793749374	1.428474306732991e-26
-0.48335696278124374	6.006662161704249e-26
-0.48329592762499374	1.0532895458713867e-25
-0.48323489246874374	1.497056764990018e-25
-0.48317385731249374	1.928378772644232e-25
-0.48311282215624374	2.343767143763969e-25
-0.48305178699999374	2.7398619457676515e-25
-0.48299075184374374	3.113460387886489e-25
-0.48292971668749374	3.4615414093883085e-25
-0.48286868153124374	3.781291461199279e-25
-0.48280764637499374	4.070127153491295e-25
-0.48274661121874374	4.325715805584307e-25
-0.48268557606249374	4.545995716395876e-25
-0.48262454090624374	4.729191653901398e-25
-0.48256350574999374	4.873830454122148e-25
-0.48250247059374374	4.978752676185095e-25
-0.48244143543749374	5.043122059049924e-25
-0.48238040028124374	5.066432787715979e-25
-0.48231936512499374	5.0485133210280665e-25
-0.48225832996874374	4.9895281857380725e-25
-0.48219729481249374	4.889976601292667e-25
-0.48213625965624374	4.75068853076322e-25
-0.48207522449999374	4.57281798671952e-25
-0.48201418934374374	4.357833790857987e-25
-0.48195315418749374	4.1075076134217273e-25
-0.48189211903124374	3.823899616654399e-25
-0.48183108387499374	3.509341687885375e-25
-0.48177004871874374	3.166418648679875e-25
-0.48170901356249374	2.7979469888704734e-25
-0.48164797840624374	2.4069521186389408e-25
-0.48158694324999374	1.9966435358192928e-25
-0.48152590809374374	1.5703889972832642e-25
-0.48146487293749374	1.1316866647862936e-25
-0.48140383778124374	6.841365805803966e-26
-0.48134280262499374	2.3141192520170772e-26
-0.48128176746874374	-2.2277222987956638e-26
-0.48122073231249374	-6.746879459639316e-26
-0.48115969715624374	-1.1206257139192017e-25
-0.48109866199999374	-1.5569249605394251e-25
-0.48103762684374374	-1.9800028827393012e-25
-0.48097659168749374	-2.3863854288473e-25
-0.48091555653124374	-2.7727343722967935e-25
-0.48085452137499374	-3.135875183896864e-25
-0.48079348621874374	-3.4728237722942814e-25
-0.48073245106249374	-3.7808092655068606e-25
-0.48067141590624374	-4.0572987508876567e-25
-0.48061038074999374	-4.300017043231303e-25
-0.48054934559374374	-4.506964986461084e-25
-0.48048831043749374	-4.676437474491899e-25
-0.48042727528124374	-4.807035794714968e-25
-0.48036624012499374	-4.897680497825386e-25
-0.48030520496874374	-4.94761982331399e-25
-0.48024416981249374	-4.956435868865908e-25
-0.48018313465624374	-4.924048804208544e-25
-0.48012209949999374	-4.850716785964515e-25
-0.48006106434374374	-4.737034859020397e-25
-0.48000002918749374	-4.583929568769556e-25
-0.47993899403124374	-4.392651939800269e-25
-0.47987795887499374	-4.16476712324742e-25
-0.47981692371874374	-3.902141847377546e-25
-0.47975588856249374	-3.6069292835221577e-25
-0.47969485340624374	-3.2815512046201405e-25
-0.47963381824999374	-2.9286788249568035e-25
-0.47957278309374374	-2.551210416596359e-25
-0.47951174793749374	-2.1522480532968073e-25
-0.47945071278124374	-1.7350720409428657e-25
-0.47938967762499374	-1.3031142010696504e-25
-0.47932864246874374	-8.599298022709167e-26
-0.47926760731249374	-4.091683351494665e-26
-0.47920657215624374	4.545641677975612e-27
-0.47914553699999374	5.00196546056977e-26
-0.47908450184374374	9.513010657054391e-26
-0.47902346668749374	1.3950466865219225e-25
-0.47896243153124374	1.8277682128807033e-25
-0.47890139637499374	2.245888794809539e-25
-0.47884036121874374	2.645949283786444e-25
-0.47877932606249374	3.0246370853641303e-25
-0.47871829090624374	3.37881254293683e-25
-0.47865725574999374	3.705535960463687e-25
-0.47859622059374374	4.002091097952458e-25
-0.47853518543749374	4.26600776809035e-25
-0.47847415028124374	4.4950825272989e-25
-0.47841311512499374	4.687396527390773e-25
-0.47835207996874374	4.841332069444719e-25
-0.47829104481249374	4.9555852664739575e-25
-0.47823000965624374	5.029177803820552e-25
-0.47816897449999374	5.0614644901056695e-25
-0.47810793934374374	5.052139250503228e-25
-0.47804690418749374	5.001237645717177e-25
-0.47798586903124374	4.909136750958928e-25
-0.47792483387499374	4.776552569983612e-25
-0.47786379871874374	4.604533979323539e-25
-0.47780276356249374	4.394454728255955e-25
-0.47774172840624374	4.148002009836697e-25
-0.47768069324999374	3.8671632351835224e-25
-0.47761965809374374	3.554209398085145e-25
-0.47755862293749374	3.211677058367172e-25
-0.47749758778124374	2.842347528029777e-25
-0.47743655262499374	2.4492239275783427e-25
-0.47737551746874374	2.0355073908863554e-25
-0.47731448231249374	1.6045697509435384e-25
-0.47725344715624374	1.1599272532261499e-25
-0.47719241199999374	7.052109488346852e-26
-0.47713137684374374	2.441366281299497e-26
-0.47707034168749374	-2.1952393067667213e-26
-0.47700930653124374	-6.819765268694018e-26
-0.47694827137499374	-1.1394332720245675e-25
-0.47688723621874374	-1.588144939111663e-25
-0.47682620106249374	-2.0244319828519938e-25
-0.47676516590624374	-2.444713502902287e-25
-0.47670413074999374	-2.845538672389702e-25
-0.47664309559374374	-3.223613077768814e-25
-0.47658206043749374	-3.5758276259122434e-25
-0.47652102528124374	-3.8992829836821413e-25
-0.47645999012499374	-4.191314322177056e-25
-0.47639895496874374	-4.449512948108841e-25
-0.47633791981249374	-4.6717460676429095e-25
-0.47627688465624374	-4.856175253089555e-25
-0.47621584949999374	-5.001270580986125e-25
-0.47615481434374374	-5.105824714050651e-25
-0.47609377918749374	-5.168961544867826e-25
-0.47603274403124374	-5.190144983402763e-25
-0.47597170887499374	-5.16918247480693e-25
-0.47591067371874374	-5.106227306233779e-25
-0.47584963856249374	-5.001777618759908e-25
-0.47578860340624374	-4.8566719087825395e-25
-0.47572756824999374	-4.672083177457159e-25
-0.47566653309374374	-4.449508508885087e-25
-0.47560549793749374	-4.190757764693906e-25
-0.47554446278124374	-3.8979383556881842e-25
-0.47548342762499374	-3.573438174117694e-25
-0.47542239246874374	-3.219906154114492e-25
-0.47536135731249374	-2.8402306201998202e-25
-0.47530032215624374	-2.437515456926971e-25
-0.47523928699999374	-2.0150550529400689e-25
-0.47517825184374374	-1.5763067314718028e-25
-0.47511721668749374	-1.1248628718724576e-25
-0.47505618153124374	-6.644212861691153e-26
-0.47499514637499374	-1.9875446189510823e-26
-0.47493411121874374	2.683207303209595e-26
-0.47487307606249374	7.329752779985773e-26
-0.47481204090624374	1.19139904828414e-25
-0.47475100574999374	1.639831946195341e-25
-0.47468997059374374	2.0745956524933865e-25
-0.47462893543749374	2.4921234287069276e-25
-0.47456790028124374	2.8889893185379095e-25
-0.47450686512499374	3.2619373781775416e-25
-0.47444582996874374	3.607907306191997e-25
-0.47438479481249374	3.924060831308727e-25
-0.47432375965624374	4.207804593792574e-25
-0.47426272449999374	4.456811774605675e-25
-0.47420168934374374	4.66904148912228e-25
-0.47414065418749374	4.842755434575051e-25
-0.47407961903124374	4.976532854722044e-25
-0.47401858387499374	5.069281564003742e-25
-0.47395754871874374	5.120248160827653e-25
-0.47389651356249374	5.129023193776713e-25
-0.47383547840624374	5.0955456886261465e-25
-0.47377444324999374	5.0201030792868225e-25
-0.47371340809374374	4.903329245821755e-25
-0.47365237293749374	4.746199528493069e-25
-0.47359133778124374	4.5500223034667e-25
-0.47353030262499374	4.316429023159783e-25
-0.47346926746874374	4.0473600677278355e-25
-0.47340823231249374	3.7450495238561607e-25
-0.47334719715624374	3.412006226354699e-25
-0.47328616199999374	3.050993504081095e-25
-0.47322512684374374	2.665006406719544e-25
-0.47316409168749374	2.2572467677802293e-25
-0.47310305653124374	1.831097019559388e-25
-0.47304202137499374	1.3900921995374862e-25
-0.47298098621874374	9.378907724240231e-26
-0.47291995106249374	4.7824451233603757e-26
-0.47285891590624374	1.4967176179600218e-27
-0.47279788074999374	-4.4809672054130085e-26
-0.47273684559374374	-9.071037442885485e-26
-0.47267581043749374	-1.3582436566299474e-25
-0.47261477528124374	-1.797770571197977e-25
-0.47255374012499374	-2.222034310577651e-25
-0.47249270496874374	-2.6275106935361274e-25
-0.47243166981249374	-3.0108304844968896e-25
-0.47237063465624374	-3.368807504963943e-25
-0.47230959949999374	-3.6984654901592133e-25
-0.47224856434374374	-3.9970621005061184e-25
