Time	Frequency
-0.5000113045624914	-0.41413050427486425
-0.49995026940624143	-0.41593395000328265
-0.49988923424999143	-0.41435680734029257
-0.49982819909374143	-0.40941231575719256
-0.49976716393749143	-0.40114153528352303
-0.49970612878124143	-0.38961307895281067
-0.49964509362499143	-0.37492249835043595
-0.49958405846874143	-0.3571915363753158
-0.49952302331249143	-0.3365671089060937
-0.49946198815624143	-0.31322009312279264
-0.49940095299999143	-0.2873439391972423
-0.49933991784374143	-0.25915302503513327
-0.49927888268749143	-0.22888093756590985
-0.49921784753124143	-0.19677849878343115
-0.49915681237499143	-0.16311169133775844
-0.49909577721874143	-0.12815948173977704
-0.49903474206249143	-0.09221145766094178
-0.49897370690624143	-0.055565479972586616
-0.49891267174999143	-0.018525173542034062
-0.49885163659374143	0.01860263225665867
-0.49879060143749143	0.055510332205359864
-0.49872956628124143	0.09189226778341082
-0.49866853112499143	0.1274471179339417
-0.49860749596874143	0.161880513353707
-0.49854646081249143	0.19490746449697172
-0.49848542565624143	0.22625464725688402
-0.49842439049999143	0.25566287215645234
-0.49836335534374143	0.2828890016534072
-0.49830232018749143	0.3077082323657507
-0.49824128503124143	0.3299157474600503
-0.49818024987499143	0.349328570860326
-0.49811921471874143	0.3657870854437731
-0.49805817956249143	0.3791562354706592
-0.49799714440624143	0.3893268957721063
-0.49793610924999143	0.39621653098741605
-0.49787507409374143	0.39977008642320977
-0.49781403893749143	0.3999603413216006
-0.49775300378124143	0.396788187345087
-0.49769196862499143	0.39028262806854735
-0.49763093346874143	0.3805005118305535
-0.49756989831249143	0.3675261127694986
-0.49750886315624143	0.35147037351758004
-0.49744782799999143	0.3324700571412245
-0.49738679284374143	0.3106865227621843
-0.49732575768749143	0.2863044774280141
-0.49726472253124143	0.25953035731098095
-0.49720368737499143	0.23059065722640484
-0.49714265221874143	0.19973003438418574
-0.49708161706249143	0.1672092257795361
-0.49702058190624143	0.13330295314476087
-0.49695954674999143	0.09829752952646413
-0.49689851159374143	0.06248855866950006
-0.49683747643749143	0.026178394214339876
-0.49677644128124143	-0.010326348758107872
-0.49671540612499143	-0.04671737766129753
-0.49665437096874143	-0.08268731289878443
-0.49659333581249143	-0.1179322083958516
-0.49653230065624143	-0.15215420197542295
-0.49647126549999143	-0.18506389142887059
-0.49641023034374143	-0.21638287000071563
-0.49634919518749143	-0.24584599691220857
-0.49628816003124143	-0.2732036345734378
-0.49622712487499143	-0.2982238123577688
-0.49616608971874143	-0.3206940546786361
-0.49610505456249143	-0.34042331276846205
-0.49604401940624143	-0.35724347244988297
-0.49598298424999143	-0.3710108052677006
-0.49592194909374143	-0.3816072384137449
-0.49586091393749143	-0.3889412590997064
-0.49579987878124143	-0.39294880017373335
-0.49573884362499143	-0.3935937068495515
-0.49567780846874143	-0.3908681092513624
-0.49561677331249143	-0.38479249621395933
-0.49555573815624143	-0.37541552619871366
-0.49549470299999143	-0.36281369558762094
-0.49543366784374143	-0.3470906457912951
-0.49537263268749143	-0.3283763726895283
-0.49531159753124143	-0.3068261043220686
-0.49525056237499143	-0.2826190524846443
-0.49518952721874143	-0.25595688455424903
-0.49512849206249143	-0.2270620855908144
-0.49506745690624143	-0.19617609360889982
-0.49500642174999143	-0.1635572506522574
-0.49494538659374143	-0.12947872888466325
-0.49488435143749143	-0.09422613091519612
-0.49482331628124143	-0.05809523913250195
-0.49476228112499143	-0.021389416950059213
-0.49470124596874143	0.0155828621095531
-0.49464021081249143	0.052510581100004165
-0.49457917565624143	0.08908287604553991
-0.49451814049999143	0.12499152134736766
-0.49445710534374143	0.15993366497132847
-0.49439607018749143	0.19361420533440973
-0.49433503503124143	0.22574839776930578
-0.49427399987499143	0.25606422644889265
-0.49421296471874143	0.28430463867230626
-0.49415192956249143	0.3102297982676692
-0.49409089440624143	0.3336190082717517
-0.49402985924999143	0.3542726813238226
-0.49396882409374143	0.3720139558247348
-0.49390778893749143	0.3866902085954403
-0.49384675378124143	0.39817439178331326
-0.49378571862499143	0.4063660576602408
-0.49372468346874143	0.41119226431558825
-0.49366364831249143	0.41260820255693204
-0.49360261315624143	0.41059756296992483
-0.49354157799999143	0.4051727300725704
-0.49348054284374143	0.3963746716407863
-0.49341950768749143	0.3842726346614146
-0.49335847253124143	0.36896357171041655
-0.49329743737499143	0.3505713516366016
-0.49323640221874143	0.3292457501905181
-0.49317536706249143	0.3051611975980114
-0.49311433190624143	0.2785153344267202
-0.49305329674999143	0.24952739259436207
-0.49299226159374143	0.21843634270738063
-0.49293122643749143	0.18549890865928112
-0.49287019128124143	0.15098747537756046
-0.49280915612499143	0.1151877163477493
-0.49274812096874143	0.07839633134414328
-0.49268708581249143	0.04091847703836075
-0.49262605065624143	0.003065195021693607
-0.49256501549999143	-0.034849041335021785
-0.49250398034374143	-0.07250915824904383
-0.49244294518749143	-0.10960199050228109
-0.49238191003124143	-0.1458189324647368
-0.49232087487499143	-0.18085858375601185
-0.49225983971874143	-0.21442918493383684
-0.49219880456249143	-0.24625116518490908
-0.49213776940624143	-0.2760594018965766
-0.49207673424999143	-0.3036055448825866
-0.49201569909374143	-0.32866002920444987
-0.49195466393749143	-0.3510140267503391
-0.49189362878124143	-0.3704812722581083
-0.49183259362499143	-0.3868995087790202
-0.49177155846874143	-0.40013200259052717
-0.49171052331249143	-0.41006859415511077
-0.49164948815624143	-0.4166266666275897
-0.49158845299999143	-0.41975189616301634
-0.49152741784374143	-0.4194186218032419
-0.49146638268749143	-0.41563018311450917
-0.49140534753124143	-0.40841881099755606
-0.49134431237499143	-0.3978454187142088
-0.49128327721874143	-0.38399909628089146
-0.49122224206249143	-0.3669963410689142
-0.49116120690624143	-0.3469801413610401
-0.49110017174999143	-0.32411871564222267
-0.49103913659374143	-0.298604173694941
-0.49097810143749143	-0.2706508706486754
-0.49091706628124143	-0.24049362528137522
-0.49085603112499143	-0.20838573401569177
-0.49079499596874143	-0.17459688599540454
-0.49073396081249143	-0.13941085399467235
-0.49067292565624143	-0.10312313240045401
-0.49061189049999143	-0.06603847627058977
-0.49055085534374143	-0.028468277627648496
-0.49048982018749143	0.009271958219473736
-0.49042878503124143	0.04686539524931574
-0.49036774987499143	0.08399639324830087
-0.49030671471874143	0.12035328511932931
-0.49024567956249143	0.15563093150426718
-0.49018464440624143	0.1895333043578531
-0.49012360924999143	0.22177604894063271
-0.49006257409374143	0.25208873758087835
-0.49000153893749143	0.28021734470312165
-0.48994050378124143	0.30592620874712645
-0.48987946862499143	0.32900017753471567
-0.48981843346874143	0.34924630047297656
-0.48975739831249143	0.36649554514233895
-0.48969636315624143	0.38060423524648007
-0.48963532799999143	0.3914551543970117
-0.48957429284374143	0.3989587380565142
-0.48951325768749143	0.40305361525284156
-0.48945222253124143	0.40370732790957814
-0.48939118737499143	0.4009164866301891
-0.48933015221874143	0.394706842093672
-0.48926911706249143	0.3851331293155372
-0.48920808190624143	0.3722784904219583
-0.48914704674999143	0.35625393416114987
-0.48908601159374143	0.33719725834096703
-0.48902497643749143	0.315271996101228
-0.48896394128124143	0.2906659996149948
-0.48890290612499143	0.26358982282189725
-0.48884187096874143	0.23427505251629685
-0.48878083581249143	0.20297220553986473
-0.48871980065624143	0.16994876698501002
-0.48865876549999143	0.13548680311715633
-0.48859773034374143	0.09988065498259915
-0.48853669518749143	0.06343445230196496
-0.48847566003124143	0.02645943015121322
-0.48841462487499143	-0.010728494880594722
-0.48835358971874143	-0.04781164594901924
-0.48829255456249143	-0.08447308938925646
-0.48823151940624143	-0.12039941385311097
-0.48817048424999143	-0.15528336478778562
-0.48810944909374143	-0.18882644696937279
-0.48804841393749143	-0.22074148211512815
-0.48798737878124143	-0.2507550048826673
-0.48792634362499143	-0.27860967989710866
-0.48786530846874143	-0.3040663279306873
-0.48780427331249143	-0.3269062054655918
-0.48774323815624143	-0.3469325904647196
-0.48768220299999143	-0.36397270917835195
-0.48762116784374143	-0.3778790814031199
-0.48756013268749143	-0.3885307660065913
-0.48749909753124143	-0.3958345686350098
-0.48743806237499143	-0.39972557457002755
-0.48737702721874143	-0.40016803081276864
-0.48731599206249143	-0.39715539058188915
-0.48725495690624143	-0.390710560781073
-0.48719392174999143	-0.38088567191839345
-0.48713288659374143	-0.36776160272521813
-0.48707185143749143	-0.3514474332660887
-0.48701081628124143	-0.3320793806206586
-0.48694978112499143	-0.30981981347437176
-0.48688874596874143	-0.28485576456116807
-0.48682771081249143	-0.25739744609623655
-0.48676667565624143	-0.22767644126872927
-0.48670564049999143	-0.19594373273932308
-0.48664460534374143	-0.16246764868957467
-0.48658357018749143	-0.12753153063673756
-0.48652253503124143	-0.09143138306403151
-0.48646149987499143	-0.05447333188908321
-0.48640046471874143	-0.016971064298765666
-0.48633942956249143	0.02075684248823128
-0.48627839440624143	0.05838962420501667
-0.48621735924999143	0.09560703906309122
-0.48615632409374143	0.13209212430700776
-0.48609528893749143	0.16753382406124298
-0.48603425378124143	0.20162968681901489
-0.48597321862499143	0.2340884550462636
-0.48591218346874143	0.2646324577861604
-0.48585114831249143	0.29300007634576497
-0.48579011315624143	0.3189479283762937
-0.48572907799999143	0.3422529328133387
-0.48566804284374143	0.36271427383211413
-0.48560700768749143	0.38015504976968434
-0.48554597253124143	0.3944238619699264
-0.48548493737499143	0.4053960530925396
-0.48542390221874143	0.4129748356142471
-0.48536286706249143	0.41709212493818065
-0.48530183190624143	0.4177090799490189
-0.48524079674999143	0.4148165614329403
-0.48517976159374143	0.408435112217038
-0.48511872643749143	0.3986148950501618
-0.48505769128124143	0.3854352422763188
-0.48499665612499143	0.36900399732103245
-0.48493562096874143	0.3494566662622583
-0.48487458581249143	0.32695521236438063
-0.48481355065624143	0.30168677862466287
-0.48475251549999143	0.2738620556592007
-0.48469148034374143	0.24371353696838338
-0.48463044518749143	0.2114935566089262
-0.48456941003124143	0.1774721521358667
-0.48450837487499143	0.14193480459024538
-0.48444733971874143	0.10517999181526524
-0.48438630456249143	0.06751668311830424
-0.48432526940624143	0.029261750301482457
-0.48426423424999143	-0.009262787632911688
-0.48420319909374143	-0.04773241696213466
-0.48414216393749143	-0.08582294773779571
-0.48408112878124143	-0.12321321983125323
-0.48402009362499143	-0.15958782876922634
-0.48395905846874143	-0.19463989373534452
-0.48389802331249143	-0.22807349505316546
-0.48383698815624143	-0.25960640378323036
-0.48377595299999143	-0.28897230486284714
-0.48371491784374143	-0.31592316595640946
-0.48365388268749143	-0.3402313578494813
-0.48359284753124143	-0.3616914737391158
-0.48353181237499143	-0.38012230560398663
-0.48347077721874143	-0.3953681570827915
-0.48340974206249143	-0.4073003516197627
-0.48334870690624143	-0.41581825329768496
-0.48328767174999143	-0.42085013545711797
-0.48322663659374143	-0.42235387293494797
-0.48316560143749143	-0.42031718986471583
-0.48310456628124143	-0.41475791473515616
-0.48304353112499143	-0.40572372026682835
-0.48298249596874143	-0.3932918126133818
-0.48292146081249143	-0.37756824169177666
-0.48286042565624143	-0.3586870144970984
-0.48279939049999143	-0.33680899349787624
-0.48273835534374143	-0.3121204894639247
-0.48267732018749143	-0.28483173666159384
-0.48261628503124143	-0.255175064176805
-0.48255524987499143	-0.2234029484273462
-0.48249421471874143	-0.1897858891858372
-0.48243317956249143	-0.1546100643971491
-0.48237214440624143	-0.11817492151453392
-0.48231110924999143	-0.08079065836018963
-0.48225007409374143	-0.04277551689266579
-0.48218903893749143	-0.004453169684312864
-0.48212800378124143	0.03385018313208103
-0.48206696862499143	0.07180841614091289
-0.48200593346874143	0.10909839106314284
-0.48194489831249143	0.1454027036874699
-0.48188386315624143	0.18041228546649946
-0.48182282799999143	0.21382921998459598
-0.48176179284374143	0.24536906846448364
-0.48170075768749143	0.27476355131948976
-0.48163972253124143	0.30176261126607895
-0.48157868737499143	0.3261367088538984
-0.48151765221874143	0.3476787422510461
-0.48145661706249143	0.3662057533582839
-0.48139558190624143	0.3815606670641242
-0.48133454674999143	0.39361342203729077
-0.48127351159374143	0.40226229969208394
-0.48121247643749143	0.4074346400714849
-0.48115144128124143	0.4090875701389058
-0.48109040612499143	0.4072083525141535
-0.48102937096874143	0.40181446317639297
-0.48096833581249143	0.39295353847307823
-0.48090730065624143	0.38070287193841634
-0.48084626549999143	0.3651688587936057
-0.48078523034374143	0.3464860265640654
-0.48072419518749143	0.32481591782623903
-0.48066316003124143	0.300345739205556
-0.48060212487499143	0.27328670974288666
-0.48054108971874143	0.24387232575689113
-0.48048005456249143	0.21235630812827205
-0.48041901940624143	0.17901048933602995
-0.48035798424999143	0.14412244550659542
-0.48029694909374143	0.10799306415507758
-0.48023591393749143	0.07093399318659348
-0.48017487878124143	0.033264861528991094
-0.48011384362499143	-0.0046892706042211164
-0.48005280846874143	-0.0426008709296548
-0.47999177331249143	-0.0801426678863923
-0.47993073815624143	-0.11699043226465945
-0.47986970299999143	-0.15282584547412387
-0.47980866784374143	-0.18733911867254796
-0.47974763268749143	-0.22023177270032956
-0.47968659753124143	-0.2512191104851402
-0.47962556237499143	-0.2800327230784962
-0.47956452721874143	-0.3064227883953942
-0.47950349206249143	-0.3301601927885727
-0.47944245690624143	-0.3510385783111231
-0.47938142174999143	-0.36887604776598704
-0.47932038659374143	-0.38351679107432274
-0.47925935143749143	-0.39483242606374475
-0.47919831628124143	-0.4027230973077448
-0.47913728112499143	-0.40711837342836416
-0.47907624596874143	-0.4079778577572416
-0.47901521081249143	-0.4052915501045468
-0.47895417565624143	-0.3990799519120349
-0.47889314049999143	-0.3893939189637019
-0.47883210534374143	-0.3763142166360646
-0.47877107018749143	-0.35995087782940294
-0.47871003503124143	-0.34044224503706366
-0.47864899987499143	-0.31795381807946527
-0.47858796471874143	-0.29267683887676815
-0.47852692956249143	-0.2648266813706448
-0.47846589440624143	-0.23464098217265442
-0.47840485924999143	-0.2023776645283373
-0.47834382409374143	-0.16831267835408859
-0.47828278893749143	-0.1327376640987316
-0.47822175378124143	-0.09595752001339407
-0.47816071862499143	-0.058287645356363535
-0.47809968346874143	-0.020051406447402345
-0.47803864831249143	0.018422785875880535
-0.47797761315624143	0.05680417521834562
-0.47791657799999143	0.09476257234335636
-0.47785554284374143	0.13197118081452164
-0.47779450768749143	0.16810935552725406
-0.47773347253124143	0.20286549609751514
-0.47767243737499143	0.2359395113201045
-0.47761140221874143	0.2670456376878302
-0.47755036706249143	0.29591475308802495
-0.47748933190624143	0.32229673700918077
-0.47742829674999143	0.34596269288294623
-0.47736726159374143	0.3667067948801735
-0.47730622643749143	0.38434824438127085
-0.47724519128124143	0.39873269042588355
-0.47718415612499143	0.40973364746465557
-0.47712312096874143	0.41725361292939356
-0.47706208581249143	0.42122485002167104
-0.47700105065624143	0.42161009471748084
-0.47694001549999143	0.4184027856238883
-0.47687898034374143	0.4116272318391884
-0.47681794518749143	0.40133837071719214
-0.47675691003124143	0.3876213256854059
-0.47669587487499143	0.37059071627160145
-0.47663483971874143	0.35038965286630486
-0.47657380456249143	0.3271885799688108
-0.47651276940624143	0.3011837413148963
-0.47645173424999143	0.2725956347009874
-0.47639069909374143	0.2416669843701888
-0.47632966393749143	0.20866080955264021
-0.47626862878124143	0.17385808428691837
-0.47620759362499143	0.13755532503185355
-0.47614655846874143	0.10006217287304903
-0.47608552331249143	0.061698548645548926
-0.47602448815624143	0.022792099619134237
-0.47596345299999143	-0.01632476326369585
-0.47590241784374143	-0.055317618220785965
-0.47584138268749143	-0.09385295437537916
-0.47578034753124143	-0.13160105225785865
-0.47571931237499143	-0.16823877402645812
-0.47565827721874143	-0.20345239773764032
-0.47559724206249143	-0.23694027306564902
-0.47553620690624143	-0.268415458881867
-0.47547517174999143	-0.29760817310029686
-0.47541413659374143	-0.32426816579138107
-0.47535310143749143	-0.34816679103479015
-0.47529206628124143	-0.3690991073715848
-0.47523103112499143	-0.3868855407593104
-0.47516999596874143	-0.4013735197983587
-0.47510896081249143	-0.41243876771763227
-0.47504792565624143	-0.4199863554314891
-0.47498689049999143	-0.4239516317496089
-0.47492585534374143	-0.42430065239814335
-0.47486482018749143	-0.4210306215401627
-0.47480378503124143	-0.4141698286689985
-0.47474274987499143	-0.40377747713764184
-0.47468171471874143	-0.38994316343056357
-0.47462067956249143	-0.37278611223339553
-0.47455964440624143	-0.3524541841931648
-0.47449860924999143	-0.3291225845845736
-0.47443757409374143	-0.30299240247918935
-0.47437653893749143	-0.2742888108352638
-0.47431550378124143	-0.24325925947466523
-0.47425446862499143	-0.21017120922937207
-0.47419343346874143	-0.17530993912097234
-0.47413239831249143	-0.13897603760971888
-0.47407136315624143	-0.101482815007776
-0.47401032799999143	-0.06315367451489864
-0.47394929284374143	-0.024319176348784846
-0.47388825768749143	0.014685628159239288
-0.47382722253124143	0.05352424415300787
-0.47376618737499143	0.0918615335292553
-0.47370515221874143	0.12936667990503958
-0.47364411706249143	0.1657160202644164
-0.47358308190624143	0.2005957997035909
-0.47352204674999143	0.2337049982141387
-0.47346101159374143	0.26475778801380956
-0.47339997643749143	0.29348616512869774
-0.47333894128124143	0.3196421470405025
-0.47327790612499143	0.34299997873820015
-0.47321687096874143	0.36335812037621046
-0.47315583581249143	0.38054092115303395
-0.47309480065624143	0.39440023461918405
-0.47303376549999143	0.4048166398638456
-0.47297273034374143	0.4117005302020331
-0.47291169518749143	0.41499288537582796
-0.47285066003124143	0.4146657825464777
-0.47278962487499143	0.4107226749479001
-0.47272858971874143	0.4031983424507154
-0.47266755456249143	0.39215863566702536
-0.47260651940624143	0.37769988545454003
-0.47254548424999143	0.3599481044473226
-0.47248444909374143	0.3390579044877805
-0.47242341393749143	0.31521113198883266
-0.47236237878124143	0.28861537476114973
-0.47230134362499143	0.2595020856820159
-0.47224030846874143	0.22812467489686689
-0.47217927331249143	0.19475624214674278
-0.47211823815624143	0.1596872432695614
-0.47205720299999143	0.12322306028512885
-0.47199616784374143	0.08568117260267354
-0.47193513268749143	0.0473886315235954
-0.47187409753124143	0.008679009047820879
-0.47181306237499143	-0.030110283619981585
-0.47175202721874143	-0.06864108020970705
-0.47169099206249143	-0.10657738981504669
-0.47162995690624143	-0.14358811863056442
-0.47156892174999143	-0.1793502807789517
-0.47150788659374143	-0.21355144533844925
-0.47144685143749143	-0.2458927655625431
-0.47138581628124143	-0.27609134952702624
-0.47132478112499143	-0.30388285476572613
-0.47126374596874143	-0.3290237986276211
-0.47120271081249143	-0.35129354896710024
-0.47114167565624143	-0.3704964550874517
-0.47108064049999143	-0.38646336254607483
-0.47101960534374143	-0.3990532633247543
-0.47095857018749143	-0.40815440076074444
-0.47089753503124143	-0.4136853674790819
-0.47083649987499143	-0.41559573935609295
-0.47077546471874143	-0.4138666003948179
-0.47071442956249143	-0.40851069033802184
-0.47065339440624143	-0.3995722982501863
-0.47059235924999143	-0.3871269561751491
-0.47053132409374143	-0.3712807097612993
-0.47047028893749143	-0.352169315647227
