Time	Frequency
-0.5000529290312556	-0.20261955940787177
-0.49999189387500564	-0.2284995805919227
-0.49993085871875564	-0.252870582085964
-0.49986982356250564	-0.27556394018613994
-0.49980878840625564	-0.2964223785034619
-0.49974775325000564	-0.31530110957877244
-0.49968671809375564	-0.3320688143828708
-0.49962568293750564	-0.34660852324026836
-0.49956464778125564	-0.3588184944392898
-0.49950361262500564	-0.36861285904479163
-0.49944257746875564	-0.37592226425032044
-0.49938154231250564	-0.38069434019477544
-0.49932050715625564	-0.3828940650291991
-0.49925947200000564	-0.38250405372323937
-0.49919843684375564	-0.37952462568419465
-0.49913740168750564	-0.3739738863562324
-0.49907636653125564	-0.3658875445198283
-0.49901533137500564	-0.35531873806610875
-0.49895429621875564	-0.3423376288427221
-0.49889326106250564	-0.32703097395945224
-0.49883222590625564	-0.3095015007650389
-0.49877119075000564	-0.2898672439242219
-0.49871015559375564	-0.2682607189351011
-0.49864912043750564	-0.24482803443216947
-0.49858808528125564	-0.2197278872932222
-0.49852705012500564	-0.19313047977265588
-0.49846601496875564	-0.1652163703035343
-0.49840497981250564	-0.136175201970349
-0.49834394465625564	-0.10620446016650455
-0.49828290950000564	-0.07550805907638992
-0.49822187434375564	-0.044294996083229045
-0.49816083918750564	-0.012777854135787999
-0.49809980403125564	0.018828566594045117
-0.49803876887500564	0.050308820311702376
-0.49797773371875564	0.08144822934267214
-0.49791669856250564	0.11203440362878248
-0.49785566340625564	0.14185866437884168
-0.49779462825000564	0.17071751133487936
-0.49773359309375564	0.19841401771405537
-0.49767255793750564	0.22475916787163513
-0.49761152278125564	0.2495732009129416
-0.49755048762500564	0.27268678877647323
-0.49748945246875564	0.29394230200587923
-0.49742841731250564	0.31319477193712664
-0.49736738215625564	0.33031303586041216
-0.49730634700000564	0.3451804981724418
-0.49724531184375564	0.35769607569909834
-0.49718427668750564	0.36777479312259553
-0.49712324153125564	0.3753484321961343
-0.49706220637500564	0.380366002485657
-0.49700117121875564	0.38279405392200433
-0.49694013606250564	0.38261699267823385
-0.49687910090625564	0.37983709272892285
-0.49681806575000564	0.3744745988245238
-0.49675703059375564	0.3665674775348927
-0.49669599543750564	0.356171265606375
-0.49663496028125564	0.3433586024311961
-0.49657392512500564	0.3282188101875745
-0.49651288996875564	0.3108572159857008
-0.49645185481250564	0.291394482671518
-0.49639081965625564	0.2699657436421
-0.49632978450000564	0.2467196892071477
-0.49626874934375564	0.2218175501749753
-0.49620771418750564	0.19543196543169272
-0.49614667903125564	0.16774582171875557
-0.49608564387500564	0.13895095576830532
-0.49602460871875564	0.10924687026934297
-0.49596357356250564	0.07883932687960303
-0.49590253840625564	0.047938952968486936
-0.49584150325000564	0.016759736079859488
-0.49578046809375564	-0.014482381547964515
-0.49571943293750564	-0.04557107683191758
-0.49565839778125564	-0.07629105624718313
-0.49559736262500564	-0.10642963288947915
-0.49553632746875564	-0.13577813824365673
-0.49547529231250564	-0.16413339586241427
-0.49541425715625564	-0.19129912216266423
-0.49535322200000564	-0.2170872684758371
-0.49529218684375564	-0.24131938522804758
-0.49523115168750564	-0.263827782069865
-0.49517011653125564	-0.2844567581565919
-0.49510908137500564	-0.30306364187729035
-0.49504804621875564	-0.31951981468151386
-0.49498701106250564	-0.3337115842868378
-0.49492597590625564	-0.3455409946286572
-0.49486494075000564	-0.3549264859031015
-0.49480390559375564	-0.3618035059062882
-0.49474287043750564	-0.3661249194906268
-0.49468183528125564	-0.3678613690961078
-0.49462080012500564	-0.36700147714385867
-0.49455976496875564	-0.36355192564695393
-0.49449872981250564	-0.3575374288729648
-0.49443769465625564	-0.34900054808344305
-0.49437665950000564	-0.3380014303493185
-0.49431562434375564	-0.3246173624181579
-0.49425458918750564	-0.3089422738638185
-0.49419355403125564	-0.2910860707692444
-0.49413251887500564	-0.2711738768772363
-0.49407148371875564	-0.2493451910874679
-0.49401044856250564	-0.22575289098123505
-0.49394941340625564	-0.20056220712432854
-0.49388837825000564	-0.173949561617873
-0.49382734309375564	-0.14610133194316155
-0.49376630793750564	-0.11721263025880219
-0.49370527278125564	-0.08748582167569277
-0.49364423762500564	-0.057129262161264203
-0.49358320246875564	-0.02635574764225607
-0.49352216731250564	0.00461891551902266
-0.49346113215625564	0.035577419306365154
-0.49340009700000564	0.06630249561251696
-0.49333906184375564	0.09657833047017252
-0.49327802668750564	0.12619224282034455
-0.49321699153125564	0.15493595003116675
-0.49315595637500564	0.18260722681361652
-0.49309492121875564	0.20901116133739647
-0.49303388606250564	0.23396159067242842
-0.49297285090625564	0.2572824189530007
-0.49291181575000564	0.27880874384711535
-0.49285078059375564	0.29838818436768066
-0.49278974543750564	0.3158817539601707
-0.49272871028125564	0.33116500093060963
-0.49266767512500564	0.34412878521092266
-0.49260663996875564	0.35468007924258266
-0.49254560481250564	0.36274264022308306
-0.49248456965625564	0.36825751237384635
-0.49242353450000564	0.3711835023731784
-0.49236249934375564	0.3714974169201021
-0.49230146418750564	0.3691942955974855
-0.49224042903125564	0.36428740709990487
-0.49217939387500564	0.35680820351182746
-0.49211835871875564	0.34680610053416905
-0.49205732356250564	0.3343481335426444
-0.49199628840625564	0.3195185350173151
-0.49193525325000564	0.30241812045841027
-0.49187421809375564	0.2831636312425876
-0.49181318293750564	0.2618869103002479
-0.49175214778125564	0.23873400558755808
-0.49169111262500564	0.21386416069494127
-0.49163007746875564	0.18744871239732347
-0.49156904231250564	0.15966991257405297
-0.49150800715625564	0.13071965772542968
-0.49144697200000564	0.10079817764451561
-0.49138593684375564	0.07011259909856411
-0.49132490168750564	0.03887559860147441
-0.49126386653125564	0.007303826808458661
-0.49120283137500564	-0.024383554460956147
-0.49114179621875564	-0.055966345867064074
-0.49108076106250564	-0.0872249643501257
-0.49101972590625564	-0.11794183083762286
-0.49095869075000564	-0.14790300008126822
-0.49089765559375564	-0.17689959440882871
-0.49083662043750564	-0.20472926248327564
-0.49077558528125564	-0.23119763825134362
-0.49071455012500564	-0.2561196155347204
-0.49065351496875564	-0.27932074137226687
-0.49059247981250564	-0.3006383636241068
-0.49053144465625564	-0.319922794490579
-0.49047040950000564	-0.337038388322208
-0.49040937434375564	-0.35186443119450295
-0.49034833918750564	-0.36429607061126157
-0.49028730403125564	-0.3742449910393792
-0.49022626887500564	-0.3816400602067439
-0.49016523371875564	-0.38642786774433785
-0.49010419856250564	-0.38857303607363153
-0.49004316340625564	-0.38805856396063465
-0.48998212825000564	-0.38488587889905984
-0.48992109309375564	-0.37907489816598056
-0.48986005793750564	-0.37066385909299304
-0.48979902278125564	-0.35970909021443054
-0.48973798762500564	-0.3462846166447194
-0.48967695246875564	-0.3304816559867568
-0.48961591731250564	-0.3124080118846131
-0.48955488215625564	-0.2921872855422381
-0.48949384700000564	-0.2699580922691433
-0.48943281184375564	-0.24587303507083164
-0.48937177668750564	-0.22009770481008498
-0.48931074153125564	-0.1928094948427039
-0.48924970637500564	-0.16419640222876777
-0.48918867121875564	-0.13445568682366593
-0.48912763606250564	-0.10379255249320925
-0.48906660090625564	-0.07241867366510006
-0.48900556575000564	-0.0405507455429209
-0.48894453059375564	-0.008408973531931192
-0.48888349543750564	0.02378444962582701
-0.48882246028125564	0.05580691108311879
-0.48876142512500564	0.0874369110561063
-0.48870038996875564	0.11845562886713645
-0.48863935481250564	0.1486484262674434
-0.48857831965625564	0.1778063420797113
-0.48851728450000564	0.20572761020137698
-0.48845624934375564	0.2322189485935497
-0.48839521418750564	0.25709708787889723
-0.48833417903125564	0.28018984551423454
-0.48827314387500564	0.30133753362672006
-0.48821210871875564	0.3203939139871631
-0.48815107356250564	0.3372273287090103
-0.48809003840625564	0.351721584473488
-0.48802900325000564	0.36377674924877296
-0.48796796809375564	0.3733099334546925
-0.48790693293750564	0.3802557424377787
-0.48784589778125564	0.38456691018068495
-0.48778486262500564	0.3862144462964553
-0.48772382746875564	0.3851880355294357
-0.48766279231250564	0.381495941138152
-0.48760175715625564	0.37516509227665146
-0.48754072200000564	0.36624080894127314
-0.48747968684375564	0.3547865393460084
-0.48741865168750564	0.34088340472891243
-0.48735761653125564	0.32462963474542195
-0.48729658137500564	0.30613990882861336
-0.48723554621875564	0.2855445043170028
-0.48717451106250564	0.2629884738472458
-0.48711347590625564	0.23863053170890955
-0.48705244075000564	0.21264206004430683
-0.48699140559375564	0.1852057895599478
-0.48693037043750564	0.156514649773174
-0.48686933528125564	0.12677030036690304
-0.48680830012500564	0.0961818225547718
-0.48674726496875564	0.06496418124494707
-0.48668622981250564	0.03333675879853086
-0.48662519465625564	0.0015218243953067864
-0.48656415950000564	-0.030257071111441543
-0.48650312434375564	-0.06177659128519121
-0.48644208918750564	-0.09281526908016485
-0.48638105403125564	-0.12315495543037946
-0.48632001887500564	-0.1525824632737691
-0.48625898371875564	-0.1808909586477429
-0.48619794856250564	-0.20788151899123597
-0.48613691340625564	-0.23336442386078476
-0.48607587825000564	-0.2571606031779238
-0.48601484309375564	-0.27910279731639404
-0.48595380793750564	-0.2990367924858803
-0.48589277278125564	-0.3168225218860698
-0.48583173762500564	-0.33233497082936675
-0.48577070246875564	-0.3454651961176494
-0.48570966731250564	-0.356120941260433
-0.48564863215625564	-0.36422744347304575
-0.48558759700000564	-0.36972782837437096
-0.48552656184375564	-0.37258363026010416
-0.48546552668750564	-0.37277498772132134
-0.48540449153125564	-0.3703008384847416
-0.48534345637500564	-0.3651789179044609
-0.48528242121875564	-0.3574456290477015
-0.48522138606250564	-0.34715583113250414
-0.48516035090625564	-0.33438240432280497
-0.48509931575000564	-0.31921581305199287
-0.48503828059375564	-0.3017634025036462
-0.48497724543750564	-0.2821487188644372
-0.48491621028125564	-0.26051059477486305
-0.48485517512500564	-0.23700220703967917
-0.48479413996875564	-0.2117899892267023
-0.48473310481250564	-0.18505247681596895
-0.48467206965625564	-0.15697904121703474
-0.48461103450000564	-0.12776857755519466
-0.48454999934375564	-0.09762808836672184
-0.48448896418750564	-0.06677124042288153
-0.48442792903125564	-0.035416866219218406
-0.48436689387500564	-0.003787399886240223
-0.48430585871875564	0.027892647495524902
-0.48424482356250564	0.059398325124940296
-0.48418378840625564	0.09050576812403167
-0.48412275325000564	0.12099382842546551
-0.48406171809375564	0.1506456163274293
-0.48400068293750564	0.1792500049157537
-0.48393964778125564	0.20660318856968535
-0.48387861262500564	0.2325100482255456
-0.48381757746875564	0.25678559276723445
-0.48375654231250564	0.27925625206536714
-0.48369550715625564	0.29976107101881594
-0.48363447200000564	0.31815293234537684
-0.48357343684375564	0.33429951696516624
-0.48351240168750564	0.3480843105831258
-0.48345136653125564	0.35940740408912614
-0.48339033137500564	0.3681862078117401
-0.48332929621875564	0.374356079129946
-0.48326826106250564	0.3778707301060967
-0.48320722590625564	0.3787026412408372
-0.48314619075000564	0.37684319050175863
-0.48308515559375564	0.3723027948098577
-0.48302412043750564	0.3651107983444175
-0.48296308528125564	0.3553153070661826
-0.48290205012500564	0.34298285435480974
-0.48284101496875564	0.3281979346071081
-0.48277997981250564	0.31106243911133663
-0.48271894465625564	0.2916949269408392
-0.48265790950000564	0.2702298134949185
-0.48259687434375564	0.24681642357172406
-0.48253583918750564	0.2216179658309186
-0.48247480403125564	0.19481036283796935
-0.48241376887500564	0.16658103680999015
-0.48235273371875564	0.13712760334354696
-0.48229169856250564	0.10665645180490775
-0.48223066340625564	0.07538131787378807
-0.48216962825000564	0.043521806594798595
-0.48210859309375564	0.011301761970506656
-0.48204755793750564	-0.02105219356164103
-0.48198652278125564	-0.05331237866248541
-0.48192548762500564	-0.08525154134465458
-0.48186445246875564	-0.1166445592188547
-0.48180341731250564	-0.14726999191475187
-0.48174238215625564	-0.17691160215870494
-0.48168134700000564	-0.20535998719395684
-0.48162031184375564	-0.23241394593328163
-0.48155927668750564	-0.25788201331533545
-0.48149824153125564	-0.2815837129923137
-0.48143720637500564	-0.30335093567841476
-0.48137617121875564	-0.323029055303906
-0.48131513606250564	-0.34047808661183215
-0.48125410090625564	-0.35557363362152355
-0.48119306575000564	-0.3682078177689535
-0.48113203059375564	-0.3782900431370626
-0.48107099543750564	-0.38574759391162394
-0.48100996028125564	-0.39052626858300193
-0.48094892512500564	-0.39259063432293734
-0.48088788996875564	-0.3919244242262325
-0.48082685481250564	-0.3885305552354061
-0.48076581965625564	-0.3824311890266469
-0.48070478450000564	-0.3736675560147701
-0.48064374934375564	-0.3622996708719257
-0.48058271418750564	-0.3484059519027363
-0.48052167903125564	-0.3320826225981679
-0.48046064387500564	-0.313443119406178
-0.48039960871875564	-0.2926172004193125
-0.48033857356250564	-0.2697501504953913
-0.48027753840625564	-0.24500165413809652
-0.48021650325000564	-0.21854477036425968
-0.48015546809375564	-0.19056463762154943
-0.48009443293750564	-0.1612572258120473
-0.48003339778125564	-0.13082795778272446
-0.47997236262500564	-0.09949018447211151
-0.47991132746875564	-0.06746381906171593
-0.47985029231250564	-0.03497364146521541
-0.47978925715625564	-0.0022478141799069963
-0.47972822200000564	0.030483773785606984
-0.47966718684375564	0.06299112564240877
-0.47960615168750564	0.09504576757525211
-0.47954511653125564	0.1264223252067248
-0.47948408137500564	0.15690020231349305
-0.47942304621875564	0.18626503684993398
-0.47936201106250564	0.2143103142779693
-0.47930097590625564	0.24083878483839152
-0.47923994075000564	0.26566384662989556
-0.47917890559375564	0.28861093250104963
-0.47911787043750564	0.3095186664824078
-0.47905683528125564	0.32824011673150066
-0.47899580012500564	0.3446437043301443
-0.47893476496875564	0.3586143021581762
-0.47887372981250564	0.3700538945700598
-0.47881269465625564	0.3788824162912946
-0.47875165950000564	0.3850382283518743
-0.47869062434375564	0.3884786057937959
-0.47862958918750564	0.38918006002357775
-0.47856855403125564	0.3871384544817707
-0.47850751887500564	0.3823691235538869
-0.47844648371875564	0.374906676907757
-0.47838544856250564	0.36480485727484924
-0.47832441340625564	0.3521360724302479
-0.47826337825000564	0.33699097188081184
-0.47820234309375564	0.3194777451328163
-0.47814130793750564	0.2997213971121048
-0.47808027278125564	0.2778628503985169
-0.47801923762500564	0.25405796840616285
-0.47795820246875564	0.2284764198971568
-0.47789716731250564	0.20130051735394547
-0.47783613215625564	0.17272390005750957
-0.47777509700000564	0.142950172952431
-0.47771406184375564	0.11219146341493282
-0.47765302668750564	0.08066692031899451
-0.47759199153125564	0.04860114185134228
-0.47753095637500564	0.01622259029593561
-0.47746992121875564	-0.016237993142663755
-0.47740888606250564	-0.04854932115176606
-0.47734785090625564	-0.08048108665716866
-0.47728681575000564	-0.11180571028427325
-0.47722578059375564	-0.1422998782832012
-0.47716474543750564	-0.17174618655434878
-0.47710371028125564	-0.1999346607109192
-0.47704267512500564	-0.22666425746707652
-0.47698163996875564	-0.2517443239210349
-0.47692060481250564	-0.2749958995995593
-0.47685956965625564	-0.2962530849436457
-0.47679853450000564	-0.3153641259304105
-0.47673749934375564	-0.33219259088314584
-0.47667646418750564	-0.3466182789889186
-0.47661542903125564	-0.35853813150931957
-0.47655439387500564	-0.36786694729427355
-0.47649335871875564	-0.37453799263216786
-0.47643232356250564	-0.37850352156295075
-0.47637128840625564	-0.3797350631699616
-0.47631025325000564	-0.3782236993892721
-0.47624921809375564	-0.3739800764311846
-0.47618818293750564	-0.36703438882667794
-0.47612714778125564	-0.3574361267085822
-0.47606611262500564	-0.3452537740223977
-0.47600507746875564	-0.33057428778649944
-0.47594404231250564	-0.313502516898544
-0.47588300715625564	-0.29416045075398295
-0.47582197200000564	-0.27268634937256586
-0.47576093684375564	-0.2492337761863072
-0.47569990168750564	-0.22397049749772993
-0.47563886653125564	-0.19707731780054233
-0.47557783137500564	-0.1687467339472118
-0.47551679621875564	-0.1391816584159524
-0.47545576106250564	-0.10859388060873278
-0.47539472590625564	-0.07720263967341817
-0.47533369075000564	-0.04523299152629158
-0.47527265559375564	-0.012914259483679538
-0.47521162043750564	0.019521616937989775
-0.47515058528125564	0.051841788082584224
-0.47508955012500564	0.08381403706963715
-0.47502851496875564	0.11520859915453488
-0.47496747981250564	0.14579965485985208
-0.47490644465625564	0.17536705401851596
-0.47484540950000564	0.20369783006450984
-0.47478437434375564	0.23058775790293198
-0.47472333918750564	0.2558428001074497
-0.47466230403125564	0.2792805053714621
-0.47460126887500564	0.3007313438783394
-0.47454023371875564	0.3200398683682643
-0.47447919856250564	0.3370659113014522
-0.47441816340625564	0.35168550816296706
-0.47435712825000564	0.36379189665260414
-0.47429609309375564	0.3732961716468439
-0.47423505793750564	0.3801280596892251
-0.47417402278125564	0.3842363082147002
-0.47411298762500564	0.38558916642276103
-0.47405195246875564	0.38417456353502305
-0.47399091731250564	0.38000021944715745
-0.47392988215625564	0.37309363398284234
-0.47386884700000564	0.36350183749326903
-0.47380781184375564	0.35129115266867195
-0.47374677668750564	0.33654664153482994
-0.47368574153125564	0.31937158913226604
-0.47362470637500564	0.29988671706042364
-0.47356367121875564	0.2782293768332775
-0.47350263606250564	0.25455252751348395
-0.47344160090625564	0.22902372158002876
-0.47338056575000564	0.2018238241454851
-0.47331953059375564	0.1731458371755919
-0.47325849543750564	0.14319341371498265
-0.47319746028125564	0.11217950105799376
-0.47313642512500564	0.08032476604524513
-0.47307538996875564	0.047856045075368135
-0.47301435481250564	0.015004737990095437
-0.47295331965625564	-0.017994910392773934
-0.47289228450000564	-0.050907362496713925
-0.47283124934375564	-0.0834976265487062
-0.47277021418750564	-0.11553277474572059
-0.47270917903125564	-0.1467837688252491
-0.47264814387500564	-0.17702696416117153
-0.47258710871875564	-0.20604582080477196
-0.47252607356250564	-0.23363237556662617
-0.47246503840625564	-0.2595888021783096
-0.47240400325000564	-0.28372878020203607
-0.47234296809375564	-0.30587885608813514
-0.47228193293750564	-0.32587973194125236
-0.47222089778125564	-0.34358730195623527
-0.47215986262500564	-0.35887386375108615
-0.47209882746875564	-0.3716288458744573
-0.47203779231250564	-0.3817598001291125
-0.47197675715625564	-0.38919290516744603
-0.47191572200000564	-0.39387364479513526
-0.47185468684375564	-0.3957671165980184
-0.47179365168750564	-0.3948583216470799
-0.47173261653125564	-0.3911523231132976
-0.47167158137500564	-0.3846741275405126
-0.47161054621875564	-0.3754686448988711
-0.47154951106250564	-0.36360023622811405
-0.47148847590625564	-0.34915240032439077
-0.47142744075000564	-0.3322270687167889
-0.47136640559375564	-0.3129439776930096
-0.47130537043750564	-0.2914397618416726
-0.47124433528125564	-0.2678669922991314
-0.47118330012500564	-0.24239313887918287
-0.47112226496875564	-0.21519929869843574
-0.47106122981250564	-0.18647898953255457
-0.47100019465625564	-0.15643669624070655
-0.47093915950000564	-0.12528646202358446
-0.47087812434375564	-0.09325033581010493
-0.47081708918750564	-0.06055678592009173
-0.47075605403125564	-0.027439070933748887
-0.47069501887500564	0.005866429274859799
-0.47063398371875564	0.03912191662766374
-0.47057294856250564	0.07208988064921436
-0.47051191340625564	0.10453476877121004
