Time	Frequency
-0.5000053286250079	-0.01306363588235437
-0.4999442934687579	-0.03358756062920142
-0.4998832583125079	-0.05402041850551936
-0.4998222231562579	-0.0743183238954389
-0.4997611880000079	-0.09443766445422494
-0.4997001528437579	-0.1143351565398463
-0.4996391176875079	-0.13396808475722524
-0.4995780825312579	-0.1532942125133533
-0.4995170473750079	-0.1722720385441996
-0.4994560122187579	-0.1908606121391915
-0.4993949770625079	-0.20902003637171127
-0.4993339419062579	-0.22671137911181602
-0.4992729067500079	-0.24389627673797792
-0.4992118715937579	-0.260537857167051
-0.4991508364375079	-0.27660050980310696
-0.4990898012812579	-0.2920493597121396
-0.4990287661250079	-0.30685115088681053
-0.4989677309687579	-0.32097425174706884
-0.4989066958125079	-0.3343879954570686
-0.4988456606562579	-0.3470634723984364
-0.4987846255000079	-0.35897356977390754
-0.4987235903437579	-0.3700923909220855
-0.4986625551875079	-0.380395999280387
-0.4986015200312579	-0.38986229461952127
-0.4985404848750079	-0.3984706980726352
-0.4984794497187579	-0.4062026852186824
-0.4984184145625079	-0.4130416101527766
-0.4983573794062579	-0.4189726009542823
-0.4982963442500079	-0.42398290830430596
-0.4982353090937579	-0.42806173243948537
-0.4981742739375079	-0.43120015005950285
-0.4981132387812579	-0.43339141080125787
-0.4980522036250079	-0.43463080978093016
-0.4979911684687579	-0.4349156001021421
-0.4979301333125079	-0.43424512566402856
-0.4978690981562579	-0.43262084015765323
-0.4978080630000079	-0.43004627406530854
-0.4977470278437579	-0.42652689190719273
-0.4976859926875079	-0.4220702865742349
-0.4976249575312579	-0.41668617588181245
-0.4975639223750079	-0.4103860735376415
-0.4975028872187579	-0.40318356946729117
-0.4974418520625079	-0.3950943563353744
-0.4973808169062579	-0.38613583202147506
-0.4973197817500079	-0.37632731794980834
-0.4972587465937579	-0.36569015771108115
-0.4971977114375079	-0.35424728770700237
-0.4971366762812579	-0.34202344071229973
-0.4970756411250079	-0.3290452423535079
-0.4970146059687579	-0.31534063422185704
-0.4969535708125079	-0.3009392680069731
-0.4968925356562579	-0.28587267843723196
-0.4968315005000079	-0.2701732465841983
-0.4967704653437579	-0.25387482242096365
-0.4967094301875079	-0.23701333838649813
-0.4966483950312579	-0.21962510659542278
-0.4965873598750079	-0.2017474760731763
-0.4965263247187579	-0.1834198542603086
-0.4964652895625079	-0.16468193133581366
-0.4964042544062579	-0.14557410758495473
-0.4963432192500079	-0.12613815277667875
-0.4962821840937579	-0.10641640396073423
-0.4962211489375079	-0.0864516638712398
-0.4961601137812579	-0.06628720093832512
-0.4960990786250079	-0.045967217095366504
-0.4960380434687579	-0.025535931289324635
-0.4959770083125079	-0.005037530962627324
-0.4959159731562579	0.015482879707758185
-0.4958549380000079	0.03598076083278805
-0.4957939028437579	0.05641155392075509
-0.4957328676875079	0.07673018122975363
-0.4956718325312579	0.09689268872256039
-0.4956107973750079	0.11685509652697161
-0.4955497622187579	0.1365732100604269
-0.4954887270625079	0.15600429070889088
-0.4954276919062579	0.17510600662959538
-0.4953666567500079	0.1938360270754379
-0.4953056215937579	0.21215342709712479
-0.4952445864375079	0.23001825038987048
-0.4951835512812579	0.24739113204089844
-0.4951225161250079	0.26423381221272335
-0.4950614809687579	0.2805092457636979
-0.4950004458125079	0.2961817623649223
-0.4949394106562579	0.31121670257952705
-0.4948783755000079	0.3255807624374483
-0.4948173403437579	0.33924238660247286
-0.4947563051875079	0.35217123235162634
-0.4946952700312579	0.364338626339662
-0.4946342348750079	0.37571758203852607
-0.4945731997187579	0.3862826102948363
-0.4945121645625079	0.3960102993338756
-0.4944511294062579	0.4048788621777328
-0.4943900942500079	0.41286813157530544
-0.4943290590937579	0.4199602447605333
-0.4942680239375079	0.42613915078260445
-0.4942069887812579	0.43139054415255645
-0.4941459536250079	0.4357023610073189
-0.4940849184687579	0.4390645338636032
-0.4940238833125079	0.4414689770951035
-0.4939628481562579	0.44290969815417774
-0.4939018130000079	0.4433828060428789
-0.4938407778437579	0.442886551744139
-0.4937797426875079	0.4414211804568146
-0.4937187075312579	0.43898910431826405
-0.4936576723750079	0.4355948740251836
-0.4935966372187579	0.4312450030860152
-0.4935356020625079	0.42594822482927996
-0.4934745669062579	0.41971526195456055
-0.4934135317500079	0.4125587806383062
-0.4933524965937579	0.4044936747582497
-0.4932914614375079	0.39553666768178114
-0.4932304262812579	0.38570635482981264
-0.4931693911250079	0.3750234176359346
-0.4931083559687579	0.3635103685566112
-0.4930473208125079	0.35119136699195325
-0.4929862856562579	0.3380924126338629
-0.4929252505000079	0.3242414431056038
-0.4928642153437579	0.3096677216890138
-0.4928031801875079	0.2944020956448432
-0.4927421450312579	0.27847727106958775
-0.4926811098750079	0.2619271124013547
-0.4926200747187579	0.24478686558725737
-0.4925590395625079	0.2270932153460495
-0.4924980044062579	0.20888394342053904
-0.4924369692500079	0.19019809880079894
-0.4923759340937579	0.17107571374830613
-0.4923148989375079	0.151557626817929
-0.4922538637812579	0.13168589350390217
-0.4921928286250079	0.11150328739818285
-0.4921317934687579	0.09105282500117205
-0.4920707583125079	0.0703787584594036
-0.4920097231562579	0.049525748331701154
-0.4919486880000079	0.0285381717755074
-0.4918876528437579	0.007461628305607525
-0.4918266176875079	-0.013658209387828526
-0.4917655825312579	-0.034776386870183786
-0.4917045473750079	-0.055846989300275075
-0.4916435122187579	-0.07682420517396414
-0.4915824770625079	-0.09766323663897129
-0.4915214419062579	-0.11831883664057594
-0.4914604067500079	-0.13874601482755666
-0.4913993715937579	-0.15890083906514166
-0.4913383364375079	-0.17873973582790023
-0.4912773012812579	-0.19821948532117056
-0.4912162661250079	-0.2172977601250893
-0.4911552309687579	-0.235933450138991
-0.4910941958125079	-0.2540859640750988
-0.4910331606562579	-0.27171569319796995
-0.4909721255000079	-0.28878455816930054
-0.4909110903437579	-0.3052552436534061
-0.4908500551875079	-0.32109194567608024
-0.4907890200312579	-0.3362602031689794
-0.4907279848750079	-0.3507267394529414
-0.4906669497187579	-0.36446026432397827
-0.4906059145625079	-0.3774305636068605
-0.4905448794062579	-0.38960918943757616
-0.4904838442500079	-0.4009697779737167
-0.4904228090937579	-0.41148712686509087
-0.4903617739375079	-0.42113817129188136
-0.4903007387812579	-0.42990186247585843
-0.4902397036250079	-0.4377586873813616
-0.4901786684687579	-0.44469126433896544
-0.4901176333125079	-0.4506843214583753
-0.4900565981562579	-0.4557245134137111
-0.4899955630000079	-0.4598004465570366
-0.4899345278437579	-0.4629029127027226
-0.4898734926875079	-0.4650249077976329
-0.4898124575312579	-0.4661613813599282
-0.4897514223750079	-0.4663094478190324
-0.4896903872187579	-0.46546845337877746
-0.4896293520625079	-0.4636397876417645
-0.4895683169062579	-0.46082702829416716
-0.4895072817500079	-0.4570358926061812
-0.4894462465937579	-0.45227417570976575
-0.4893852114375079	-0.44655183375848717
-0.4893241762812579	-0.43988087113142144
-0.4892631411250079	-0.4322753679105892
-0.4892021059687579	-0.4237514262586919
-0.4891410708125079	-0.41432717143277
-0.4890800356562579	-0.4040226508642867
-0.4890190005000079	-0.3928598048327687
-0.4889579653437579	-0.3808625977610342
-0.4888969301875079	-0.36805659505995114
-0.4888358950312579	-0.35446916918098825
-0.4887748598750079	-0.3401296747655581
-0.4887138247187579	-0.3250687337211301
-0.4886527895625079	-0.3093185613515087
-0.4885917544062579	-0.2929133166211158
-0.4885307192500079	-0.27588816593463233
-0.4884696840937579	-0.25827958469963325
-0.4884086489375079	-0.2401257379842212
-0.4883476137812579	-0.2214656770509309
-0.4882865786250079	-0.20233949527894354
-0.4882255434687579	-0.18278858152740654
-0.4881645083125079	-0.1628552311070409
-0.4881034731562579	-0.14258218347775095
-0.4880424380000079	-0.12201329764455952
-0.4879814028437579	-0.10119332471650225
-0.4879203676875079	-0.0801668789876994
-0.4878593325312579	-0.05897946535192274
-0.4877982973750079	-0.037677134983053036
-0.4877372622187579	-0.016305722925562344
-0.4876762270625079	0.005088500682551866
-0.4876151919062579	0.02645908490682552
-0.4875541567500079	0.047759894659375135
-0.4874931215937579	0.06894491036474032
-0.4874320864375079	0.08996805038928202
-0.4873710512812579	0.11078382778727644
-0.4873100161250079	0.13134735651704232
-0.4872489809687579	0.15161385903452743
-0.4871879458125079	0.17153941421510907
-0.4871269106562579	0.19108107395583646
-0.4870658755000079	0.2101962775169362
-0.4870048403437579	0.22884361539613968
-0.4869438051875079	0.24698276703681135
-0.4868827700312579	0.2645743091668381
-0.4868217348750079	0.28158022534632143
-0.4867606997187579	0.2979635041067347
-0.4866996645625079	0.3136887180209153
-0.4866386294062579	0.32872188210180137
-0.4865775942500079	0.34303018421869774
-0.4865165590937579	0.3565827823663044
-0.4864555239375079	0.36935036198476323
-0.4863944887812579	0.3813051549371901
-0.4863334536250079	0.3924212934552694
-0.4862724184687579	0.402674786853114
-0.4862113833125079	0.412043500198227
-0.4861503481562579	0.4205070539604401
-0.4860893130000079	0.428047259227293
-0.4860282778437579	0.434647944737346
-0.4859672426875079	0.4402947744386843
-0.4859062075312579	0.44497569940191384
-0.4858451723750079	0.44868073774341016
-0.4857841372187579	0.4514019767605566
-0.4857231020625079	0.4531337351439719
-0.4856620669062579	0.453872429300731
-0.4856010317500079	0.45361668991254067
-0.4855399965937579	0.4523673346194716
-0.4854789614375079	0.4501273296659607
-0.4854179262812579	0.4469017976521047
-0.4853568911250079	0.4426980569807186
-0.4852958559687579	0.4375256146935327
-0.4852348208125079	0.4313959702174328
-0.4851737856562579	0.42432279455394784
-0.4851127505000079	0.41632194254566424
-0.4850517153437579	0.40741111414098347
-0.4849906801875079	0.397610096052223
-0.4849296450312579	0.38694067940453897
-0.4848686098750079	0.3754264520856706
-0.4848075747187579	0.3630930263810238
-0.4847465395625079	0.3499676602330858
-0.4846855044062579	0.33607933675106816
-0.4846244692500079	0.3214589348189661
-0.4845634340937579	0.30613879243250225
-0.4845023989375079	0.2901527222419078
-0.4844413637812579	0.2735360823763917
-0.4843803286250079	0.2563258094939383
-0.4843192934687579	0.23855989436771374
-0.4842582583125079	0.22027745263330678
-0.4841972231562579	0.20151919912311334
-0.4841361880000079	0.1823266146884954
-0.4840751528437579	0.16274201374104358
-0.4840141176875079	0.14280875507909652
-0.4839530825312579	0.12257111776329645
-0.4838920473750079	0.10207389834673797
-0.4838310122187579	0.08136213971531585
-0.4837699770625079	0.06048207589145719
-0.4837089419062579	0.0394799677402056
-0.4836479067500079	0.018401954708332932
-0.4835868715937579	-0.002704932572647914
-0.4835258364375079	-0.023793902008792504
-0.4834648012812579	-0.0448183765304259
-0.4834037661250079	-0.06573174691473474
-0.4833427309687579	-0.08648743799852289
-0.4832816958125079	-0.10703943438326059
-0.4832206606562579	-0.12734242332843237
-0.4831596255000079	-0.14735094469637172
-0.4830985903437579	-0.16702061467363377
-0.4830375551875079	-0.1863080839969944
-0.4829765200312579	-0.20517009586004795
-0.4829154848750079	-0.2235647439853329
-0.4828544497187579	-0.24145133813180436
-0.4827934145625079	-0.2587898818075486
-0.4827323794062579	-0.2755417770362584
-0.4826713442500079	-0.2916697259623454
-0.4826103090937579	-0.3071377287563589
-0.4825492739375079	-0.32191128853855794
-0.4824882387812579	-0.33595743170931697
-0.4824272036250079	-0.349244753050196
-0.4823661684687579	-0.36174339925772453
-0.4823051333125079	-0.3734255363636252
-0.4822440981562579	-0.3842649884357557
-0.4821830630000079	-0.3942371449677683
-0.4821220278437579	-0.40331980088955643
-0.4820609926875079	-0.4114925285637445
-0.4819999575312579	-0.4187365793066331
-0.4819389223750079	-0.4250357163189618
-0.4818778872187579	-0.43037565320178095
-0.4818168520625079	-0.4347439829530135
-0.4817558169062579	-0.4381307409256095
-0.4816947817500079	-0.44052802516365386
-0.4816337465937579	-0.4419300214635302
-0.4815727114375079	-0.4423332888835852
-0.4815116762812579	-0.441736503824342
-0.4814506411250079	-0.4401405043253933
-0.4813896059687579	-0.4375484582071126
-0.4813285708125079	-0.4339656904416007
-0.4812675356562579	-0.42939966470009905
-0.4812065005000079	-0.42386010594608364
-0.4811454653437579	-0.41735889679038035
-0.4810844301875079	-0.4099099949645717
-0.4810233950312579	-0.40152948275662076
-0.4809623598750079	-0.3922355681279539
-0.4809013247187579	-0.38204845701810847
-0.4808402895625079	-0.37099029108796744
-0.4807792544062579	-0.3590852502431535
-0.4807182192500079	-0.34635932500331157
-0.4806571840937579	-0.3328403195962389
-0.4805961489375079	-0.31855802624946616
-0.4805351137812579	-0.3035436277355997
-0.4804740786250079	-0.28782998678184024
-0.4804130434687579	-0.27145190023719973
-0.4803520083125079	-0.25444532024350297
-0.4802909731562579	-0.2368475306092729
-0.4802299380000079	-0.21869733615501796
-0.4801689028437579	-0.20003492864054825
-0.4801078676875079	-0.1809014185017164
-0.4800468325312579	-0.16133880851706056
-0.4799857973750079	-0.14139055190922284
-0.4799247622187579	-0.12110075379724139
-0.4798637270625079	-0.10051412735795885
-0.4798026919062579	-0.07967632819192982
-0.4797416567500079	-0.05863346678369809
-0.4796806215937579	-0.037432236646427315
-0.4796195864375079	-0.01611947619371096
-0.4795585512812579	0.0052574849977311865
-0.4794975161250079	0.026650871382667102
-0.4794364809687579	0.04801372636410565
-0.4793754458125079	0.06929844363334407
-0.4793144106562579	0.09045716843107439
-0.4792533755000079	0.11144344838821989
-0.4791923403437579	0.13221048576977185
-0.4791313051875079	0.15271160811102769
-0.4790702700312579	0.17290147962879646
-0.4790092348750079	0.1927350185529346
-0.4789481997187579	0.212167757808798
-0.4788871645625079	0.2311564562080837
-0.4788261294062579	0.249658620395013
-0.4787650942500079	0.267632743755598
-0.4787040590937579	0.2850386041167884
-0.4786430239375079	0.3018372024249324
-0.4785819887812579	0.3179908389020504
-0.4785209536250079	0.3334630845703913
-0.4784599184687579	0.34821914566290435
-0.4783988833125079	0.3622259473369136
-0.4783378481562579	0.3754516425158042
-0.4782768130000079	0.387866230842822
-0.4782157778437579	0.3994419353735688
-0.4781547426875079	0.4101522836711037
-0.4780937075312579	0.419972624876971
-0.4780326723750079	0.4288808423298149
-0.4779716372187579	0.4368564712166768
-0.4779106020625079	0.44388090774781014
-0.4778495669062579	0.4499380290016106
-0.4777885317500079	0.4550136627503726
-0.4777274965937579	0.4590957087589352
-0.4776664614375079	0.4621744553203146
-0.4776054262812579	0.464242288749097
-0.4775443911250079	0.4652937866021355
-0.4774833559687579	0.46532588176997497
-0.4774223208125079	0.4643377294036657
-0.4773612856562579	0.4623306774275314
-0.4773002505000079	0.45930837217132175
-0.4772392153437579	0.45527675671366963
-0.4771781801875079	0.45024394357178826
-0.4771171450312579	0.44422024617100636
-0.4770561098750079	0.43721826979654765
-0.4769950747187579	0.42925274920842676
-0.4769340395625079	0.4203404770245024
-0.4768730044062579	0.41050045325033646
-0.4768119692500079	0.3997537847098808
-0.4767509340937579	0.38812342208295864
-0.4766898989375079	0.37563436858438864
-0.4766288637812579	0.36231369671258673
-0.4765678286250079	0.34819007743496916
-0.4765067934687579	0.33329405157831526
-0.4764457583125079	0.3176580551635458
-0.4763847231562579	0.30131600328995817
-0.4763236880000079	0.2843033759132611
-0.4762626528437579	0.26665720846067437
-0.4762016176875079	0.24841610673406608
-0.4761405825312579	0.229619809273903
-0.4760795473750079	0.21030919909129897
-0.4760185122187579	0.1905267138880002
-0.4759574770625079	0.17031560283816724
-0.4758964419062579	0.1497199537744638
-0.4758354067500079	0.12878504816209174
-0.4757743715937579	0.10755672248693686
-0.4757133364375079	0.08608149770929034
-0.4756523012812579	0.06440666551496656
-0.4755912661250079	0.042579624169543515
-0.4755302309687579	0.02064841646711473
-0.4754691958125079	-0.0013385704798914736
-0.4754081606562579	-0.023333337080664554
-0.4753471255000079	-0.04528718610077114
-0.4752860903437579	-0.06715173312599346
-0.4752250551875079	-0.08887925510175726
-0.4751640200312579	-0.11042140890108693
-0.4751029848750079	-0.13173074752190375
-0.4750419497187579	-0.15276070751318735
-0.4749809145625079	-0.1734644765657172
-0.4749198794062579	-0.1937963158866735
-0.4748588442500079	-0.2137117149566218
-0.4747978090937579	-0.23316648779647556
-0.4747367739375079	-0.25211751483282224
-0.4746757387812579	-0.2705230626302651
-0.4746147036250079	-0.28834248349078523
-0.4745536684687579	-0.305536329414092
-0.4744926333125079	-0.3220664031867317
-0.4744315981562579	-0.33789629387218073
-0.4743705630000079	-0.35299103504582197
-0.4743095278437579	-0.36731692402241606
-0.4742484926875079	-0.3808423914199494
-0.4741874575312579	-0.39353753870150116
-0.4741264223750079	-0.40537405122106507
-0.4740653872187579	-0.4163257613668022
-0.4740043520625079	-0.4263683738679595
-0.4739433169062579	-0.4354795981683379
-0.4738822817500079	-0.4436392040783764
-0.4738212465937579	-0.45082900895999084
-0.4737602114375079	-0.45703312532999973
-0.4736991762812579	-0.4622377190343962
-0.4736381411250079	-0.466431135468536
-0.4735771059687579	-0.46960413324720773
-0.4735160708125079	-0.4717496089691393
-0.4734550356562579	-0.47286269375281303
-0.4733940005000079	-0.47294094590008184
-0.4733329653437579	-0.47198414201343497
-0.4732719301875079	-0.469994328340411
-0.4732108950312579	-0.4669759520311895
-0.4731498598750079	-0.46293562441928077
-0.4730888247187579	-0.45788228598905745
-0.4730277895625079	-0.45182721812143306
-0.4729667544062579	-0.44478372325483734
-0.4729057192500079	-0.4367674964756407
-0.4728446840937579	-0.42779638622563115
-0.4727836489375079	-0.41789016099401033
-0.4727226137812579	-0.40707097972428485
-0.4726615786250079	-0.3953628602477014
-0.4726005434687579	-0.38279170963575443
-0.4725395083125079	-0.3693856558203788
-0.4724784731562579	-0.3551744256594717
-0.4724174380000079	-0.34018962610525205
-0.4723564028437579	-0.3244647217776545
-0.4722953676875079	-0.3080345396236995
-0.4722343325312579	-0.29093578590328856
-0.4721732973750079	-0.27320666173185965
-0.4721122622187579	-0.25488641077864954
-0.4720512270625079	-0.236015930804414
-0.4719901919062579	-0.2166374722215422
-0.4719291567500079	-0.19679409340214826
-0.4718681215937579	-0.1765299343604232
-0.4718070864375079	-0.15589040654348046
-0.4717460512812579	-0.13492147736470977
-0.4716850161250079	-0.11366977963275526
-0.4716239809687579	-0.09218308964427455
-0.4715629458125079	-0.07050910457078129
-0.4715019106562579	-0.048696037448247305
-0.4714408755000079	-0.02679315411476408
-0.4713798403437579	-0.0048490964453435864
-0.4713188051875079	0.017087454637988796
-0.4712577700312579	0.03896702964832259
-0.4711967348750079	0.060740631198934365
-0.4711356997187579	0.08236002770062081
-0.4710746645625079	0.103776806730173
-0.4710136294062579	0.12494265109919528
-0.4709525942500079	0.14581051430990039
-0.4708915590937579	0.166333918720546
-0.4708305239375079	0.18646661250568983
-0.4707694887812579	0.20616351156810148
-0.4707084536250079	0.22538074198913774
-0.4706474184687579	0.24407532702394902
-0.4705863833125079	0.2622050732324435
-0.4705253481562579	0.2797294916189237
-0.4704643130000079	0.29660969795885955
-0.4704032778437579	0.3128073728589117
-0.4703422426875079	0.32828623748885355
-0.4702812075312579	0.3430120791609807
-0.4702201723750079	0.35695145048251486
-0.4701591372187579	0.3700730599680853
-0.4700981020625079	0.3823478153373971
-0.4700370669062579	0.39374792658689867
-0.4699760317500079	0.40424781517400765
-0.4699149965937579	0.4138240709871398
-0.4698539614375079	0.4224550830846745
-0.4697929262812579	0.43012145444094346
-0.4697318911250079	0.43680605597113265
-0.4696708559687579	0.44249386528212
