Time	Frequency
-0.5000006719062497	-3.008280731929893e-24
-0.49993963674999975	-3.044224637216058e-24
-0.49987860159374975	-3.0744865034674134e-24
-0.49981756643749975	-3.0990107924066285e-24
-0.49975653128124975	-3.1177520721173484e-24
-0.49969549612499975	-3.1306761589635067e-24
-0.49963446096874975	-3.137759607691106e-24
-0.49957342581249975	-3.1389894312430075e-24
-0.49951239065624975	-3.1343633333913298e-24
-0.49945135549999975	-3.1238900169498734e-24
-0.49939032034374975	-3.1075889258931826e-24
-0.49932928518749975	-3.085490144318663e-24
-0.49926825003124975	-3.0576344126993143e-24
-0.49920721487499975	-3.0240732130434748e-24
-0.49914617971874975	-2.984868357210119e-24
-0.49908514456249975	-2.940092238847774e-24
-0.49902410940624975	-2.8898276232121597e-24
-0.49896307424999975	-2.8341668650587417e-24
-0.49890203909374975	-2.7732130429073246e-24
-0.49884100393749975	-2.7070786708524862e-24
-0.49877996878124975	-2.6358851538200795e-24
-0.49871893362499975	-2.559765015484271e-24
-0.49865789846874975	-2.4788583221311335e-24
-0.49859686331249975	-2.3933134848836427e-24
-0.49853582815624975	-2.3032902953948872e-24
-0.49847479299999975	-2.2089546253477593e-24
-0.49841375784374975	-2.110479300005942e-24
-0.49835272268749975	-2.0080476988523188e-24
-0.49829168753124975	-1.901850367446876e-24
-0.49823065237499975	-1.7920812267296492e-24
-0.49816961721874975	-1.6789435192437906e-24
-0.49810858206249975	-1.5626497437882626e-24
-0.49804754690624975	-1.4434122598796519e-24
-0.49798651174999975	-1.3214506855801249e-24
-0.49792547659374975	-1.19699479363317e-24
-0.49786444143749975	-1.0702737605369877e-24
-0.49780340628124975	-9.415188465489144e-25
-0.49774237112499975	-8.109728948832043e-25
-0.49768133596874975	-6.7887908675705135e-25
-0.49762030081249975	-5.454767183520267e-25
-0.49755926565624975	-4.1101693786925613e-25
-0.49749823049999975	-2.7575181554051762e-25
-0.49743719534374975	-1.3992778094047383e-25
-0.49737616018749975	-3.7982586732634984e-27
-0.49731512503124975	1.3238126486972296e-25
-0.49725408987499975	2.683588889380203e-25
-0.49719305471874975	4.0388346118588902e-25
-0.49713201956249975	5.387014913138304e-25
-0.49707098440624975	6.725600777207783e-25
-0.49700994924999975	8.05212537794368e-25
-0.49694891409374975	9.364121715748527e-25
-0.49688787893749975	1.0659111986146597e-24
-0.49682684378124975	1.193469826375244e-24
-0.49676580862499975	1.318851304155998e-24
-0.49670477346874975	1.4418188782384534e-24
-0.49664373831249975	1.5621437644552575e-24
-0.49658270315624975	1.6796020891076118e-24
-0.49652166799999975	1.7939715547085926e-24
-0.49646063284374975	1.9050391633538245e-24
-0.49639959768749975	2.0125983041920157e-24
-0.49633856253124975	2.1164438497586992e-24
-0.49627752737499975	2.2163818124922836e-24
-0.49621649221874975	2.312226451094635e-24
-0.49615545706249975	2.4037946520091333e-24
-0.49609442190624975	2.490913539022075e-24
-0.49603338674999975	2.5734204155323847e-24
-0.49597235159374975	2.651158973740963e-24
-0.49591131643749975	2.7239800795411772e-24
-0.49585028128124975	2.791746205368191e-24
-0.49578924612499975	2.854329690733612e-24
-0.49572821096874975	2.911609323026073e-24
-0.49566717581249975	2.96347549104657e-24
-0.49560614065624975	3.0098289264407898e-24
-0.49554510549999975	3.050579674377479e-24
-0.49548407034374975	3.085648524365825e-24
-0.49542303518749975	3.11496592187948e-24
-0.49536200003124975	3.1384741812158903e-24
-0.49530096487499975	3.156125771242768e-24
-0.49523992971874975	3.1678832464914615e-24
-0.49517889456249975	3.173721221138721e-24
-0.49511785940624975	3.173624652164533e-24
-0.49505682424999975	3.167589367659881e-24
-0.49499578909374975	3.1556224865897532e-24
-0.49493475393749975	3.1377418112062825e-24
-0.49487371878124975	3.11397648651224e-24
-0.49481268362499975	3.0843662197662933e-24
-0.49475164846874975	3.048961273260951e-24
-0.49469061331249975	3.007823780707454e-24
-0.49462957815624975	2.9610254457329862e-24
-0.49456854299999975	2.9086481155229528e-24
-0.49450750784374975	2.8507859525541802e-24
-0.49444647268749975	2.7875415525161834e-24
-0.49438543753124975	2.7190272434656972e-24
-0.49432440237499975	2.645367322233682e-24
-0.49426336721874975	2.566693606328469e-24
-0.49420233206249975	2.483147654332202e-24
-0.49414129690624975	2.3948815483105793e-24
-0.49408026174999975	2.302053911205523e-24
-0.49401922659374975	2.2048333949277142e-24
-0.49395819143749975	2.1033976016344746e-24
-0.49389715628124975	1.9979296232332937e-24
-0.49383612112499975	1.8886216522885767e-24
-0.49377508596874975	1.7756739444493976e-24
-0.49371405081249975	1.6592919764137527e-24
-0.49365301565624975	1.5396880631403971e-24
-0.49359198049999975	1.4170810422676942e-24
-0.49353094534374975	1.2916954141085965e-24
-0.49346991018749975	1.163761143054919e-24
-0.49340887503124975	1.0335122612852417e-24
-0.49334783987499975	9.011868612091872e-25
-0.49328680471874975	7.670293791836576e-25
-0.49322576956249975	6.312862206768532e-25
-0.49316473440624975	4.942045556966003e-25
-0.49310369924999975	3.5603912891106233e-25
-0.49304266409374975	2.1704367452783446e-25
-0.49298162893749975	7.747231613285029e-26
-0.49292059378124975	-6.2415141027896e-26
-0.49285955862499975	-2.0236244549279266e-25
-0.49279852346874975	-3.421115391259208e-25
-0.49273748831249975	-4.814028787787717e-25
-0.49267645315624975	-6.199807151623097e-25
-0.49261541799999975	-7.575890414675786e-25
-0.49255438284374975	-8.939720479379176e-25
-0.49249334768749975	-1.0288777364705134e-24
-0.49243231253124975	-1.1620576712863365e-24
-0.49237127737499975	-1.2932643268383172e-24
-0.49231024221874975	-1.422253182004428e-24
-0.49224920706249975	-1.5487863818008852e-24
-0.49218817190624975	-1.6726300695706184e-24
-0.49212713674999975	-1.7935515817327888e-24
-0.49206610159374975	-1.911327395573241e-24
-0.49200506643749975	-2.0257399202348916e-24
-0.49194403128124975	-2.1365735781475812e-24
-0.49188299612499975	-2.243623190763059e-24
-0.49182196096874975	-2.3466896730372302e-24
-0.49176092581249975	-2.4455795744265825e-24
-0.49169989065624975	-2.540108622339748e-24
-0.49163885549999975	-2.630099973253214e-24
-0.49157782034374975	-2.7153853326438857e-24
-0.49151678518749975	-2.7958044495544144e-24
-0.49145575003124975	-2.8712062373009717e-24
-0.49139471487499975	-2.9414495787496573e-24
-0.49133367971874975	-3.006401479851584e-24
-0.49127264456249975	-3.0659390523161133e-24
-0.49121160940624975	-3.119950690600874e-24
-0.49115057424999975	-3.1683329157376667e-24
-0.49108953909374975	-3.210993367495467e-24
-0.49102850393749975	-3.2478515146045075e-24
-0.49096746878124975	-3.2788352513966596e-24
-0.49090643362499975	-3.303884606664115e-24
-0.49084539846874975	-3.322951036059957e-24
-0.49078436331249975	-3.335995572534396e-24
-0.49072332815624975	-3.342991356763439e-24
-0.49066229299999975	-3.343922712962288e-24
-0.49060125784374975	-3.338784692602268e-24
-0.49054022268749975	-3.327583790319875e-24
-0.49047918753124975	-3.310337809299328e-24
-0.49041815237499975	-3.2870756855524525e-24
-0.49035711721874975	-3.257837348413522e-24
-0.49029608206249975	-3.2226739340456522e-24
-0.49023504690624975	-3.181647423348215e-24
-0.49017401174999975	-3.1348311296842875e-24
-0.49011297659374975	-3.082308523466915e-24
-0.49005194143749975	-3.0241731677646227e-24
-0.48999090628124975	-2.9605311953964096e-24
-0.48992987112499975	-2.8914970415146793e-24
-0.48986883596874975	-2.817194112702107e-24
-0.48980780081249975	-2.7377593435984892e-24
-0.48974676565624975	-2.653336734750835e-24
-0.48968573049999975	-2.5640779055327415e-24
-0.48962469534374975	-2.470147378551824e-24
-0.48956366018749975	-2.3717166820791582e-24
-0.48950262503124975	-2.2689637852262398e-24
-0.48944158987499975	-2.162077355221722e-24
-0.48938055471874975	-2.051253856149749e-24
-0.48931951956249975	-1.936694802411635e-24
-0.48925848440624975	-1.8186097195424497e-24
-0.48919744924999975	-1.697217078728977e-24
-0.48913641409374975	-1.572738017733404e-24
-0.48907537893749975	-1.4454001661619975e-24
-0.48901434378124975	-1.3154398301712703e-24
-0.48895330862499975	-1.1830937250339413e-24
-0.48889227346874975	-1.0486057309798814e-24
-0.48883123831249975	-9.122241810778823e-25
-0.48877020315624975	-7.7419717485124585e-25
-0.48870916799999975	-6.347818946443086e-25
-0.48864813284374975	-4.942349264237602e-25
-0.48858709768749975	-3.5281174536463257e-25
-0.48852606253124975	-2.1077548951846934e-25
-0.48846502737499975	-6.838940287368312e-26
-0.48840399221874975	7.408629589553085e-26
-0.48834295706249975	2.163899073202825e-25
-0.48828192190624975	3.582558790460791e-25
-0.48822088674999975	4.994224876987225e-25
-0.48815985159374975	6.396325467146029e-25
-0.48809881643749975	7.7862476867499175e-25
-0.48803778128124975	9.161409682847538e-25
-0.48797674612499975	1.0519299460608886e-24
-0.48791571096874975	1.1857404404402514e-24
-0.48785467581249975	1.3173232474222773e-24
-0.48779364065624975	1.4464360742268353e-24
-0.48773260549999975	1.5728418889139021e-24
-0.48767157034374975	1.6963044262008456e-24
-0.48761053518749975	1.8165958423024035e-24
-0.48754950003124975	1.933496319001023e-24
-0.48748846487499975	2.0467858259144255e-24
-0.48742742971874975	2.1562564270654812e-24
-0.48736639456249975	2.261707256728705e-24
-0.48730535940624975	2.362939754220785e-24
-0.48724432424999975	2.4597694408120647e-24
-0.48718328909374975	2.552016576349526e-24
-0.48712225393749975	2.639508750709454e-24
-0.48706121878124975	2.7220865756212604e-24
-0.48700018362499975	2.7995957535348047e-24
-0.48693914846874975	2.87189307723261e-24
-0.48687811331249975	2.938845669796924e-24
-0.48681707815624975	3.0003282968313193e-24
-0.48675604299999975	3.0562288588090054e-24
-0.48669500784374975	3.106443799327322e-24
-0.48663397268749975	3.150879068959941e-24
-0.48657293753124975	3.1894545511056735e-24
-0.48651190237499975	3.2220988960246402e-24
-0.48645086721874975	3.2487509635993256e-24
-0.48638983206249975	3.2693630351577275e-24
-0.48632879690624975	3.283897584790397e-24
-0.48626776174999975	3.292327783611472e-24
-0.48620672659374975	3.294639174390403e-24
-0.48614569143749975	3.2908283610944795e-24
-0.48608465628124975	3.280903110810136e-24
-0.48602362112499975	3.2648831185172627e-24
-0.48596258596874975	3.2427990914533648e-24
-0.48590155081249975	3.2146928784808065e-24
-0.48584051565624975	3.1806183626240464e-24
-0.48577948049999975	3.1406400417372933e-24
-0.48571844534374975	3.0948327905126053e-24
-0.48565741018749975	3.0432838597130764e-24
-0.48559637503124975	2.9860907797456323e-24
-0.48553533987499975	2.9233603383921594e-24
-0.48547430471874975	2.855211156009583e-24
-0.48541326956249975	2.781772288017289e-24
-0.48535223440624975	2.703181342470587e-24
-0.48529119924999975	2.6195858354557014e-24
-0.48523016409374975	2.5311441132412542e-24
-0.48516912893749975	2.438022291459257e-24
-0.48510809378124975	2.3403951668755594e-24
-0.48504705862499975	2.2384468302145048e-24
-0.48498602346874975	2.1323687049561886e-24
-0.48492498831249975	2.022361704242966e-24
-0.48486395315624975	1.9086314101814272e-24
-0.48480291799999975	1.791391298296551e-24
-0.48474188284374975	1.6708646919297533e-24
-0.48468084768749975	1.5472764022106593e-24
-0.48461981253124975	1.4208585972958114e-24
-0.48455877737499975	1.2918508908157658e-24
-0.48449774221874975	1.1604958271971933e-24
-0.48443670706249975	1.0270400024972909e-24
-0.48437567190624975	8.917346716393976e-25
-0.48431463674999975	7.54836298110109e-25
-0.48425360159374975	6.166015697101654e-25
-0.48419256643749975	4.772903471968818e-25
-0.48413153128124975	3.37166709049006e-25
-0.48407049612499975	1.9649450469148164e-25
-0.48400946096874975	5.553815330249152e-26
-0.48394842581249975	-8.543675003487603e-26
-0.48388739065624975	-2.2616221315627825e-25
-0.48382635549999975	-3.663740872410511e-25
-0.48376532034374975	-5.058094796537035e-25
-0.48370428518749975	-6.442016842255422e-25
-0.48364325003124975	-7.812907635077198e-25
-0.48358221487499975	-9.168201040103323e-25
-0.48352117971874975	-1.0505301984577656e-24
-0.48346014456249975	-1.1821690646183726e-24
-0.48339910940624975	-1.3114905196105991e-24
-0.48333807424999975	-1.4382471007399107e-24
-0.48327703909374975	-1.5621987303549857e-24
-0.48321600393749975	-1.683113581688708e-24
-0.48315496878124975	-1.800761288888808e-24
-0.48309393362499975	-1.914917351566843e-24
-0.48303289846874975	-2.025367701469247e-24
-0.48297186331249975	-2.131903072627952e-24
-0.48291082815624975	-2.234319195933891e-24
-0.48284979299999975	-2.3324234355173283e-24
-0.48278875784374975	-2.4260297856467494e-24
-0.48272772268749975	-2.514958651099465e-24
-0.48266668753124975	-2.599042215972828e-24
-0.48260565237499975	-2.678120802700285e-24
-0.48254461721874975	-2.7520424033149838e-24
-0.48248358206249975	-2.820666853215146e-24
-0.48242254690624975	-2.8838639351350296e-24
-0.48236151174999975	-2.9415112499719447e-24
-0.48230047659374975	-2.9934991734279495e-24
-0.48223944143749975	-3.0397289257137052e-24
-0.48217840628124975	-3.080110038566522e-24
-0.48211737112499975	-3.1145653333415916e-24
-0.48205633596874975	-3.1430286895440322e-24
-0.48199530081249975	-3.165443773652903e-24
-0.48193426565624975	-3.181766933567338e-24
-0.48187323049999975	-3.1919659267513367e-24
-0.48181219534374975	-3.1960194910116283e-24
-0.48175116018749975	-3.193918255079964e-24
-0.48169012503124975	-3.18566461037923e-24
-0.48162908987499975	-3.1712725643052772e-24
-0.48156805471874975	-3.1507674548462513e-24
-0.48150701956249975	-3.1241862269529755e-24
-0.48144598440624975	-3.0915778585813892e-24
-0.48138494924999975	-3.0530021732671533e-24
-0.48132391409374975	-3.0085300417629545e-24
-0.48126287893749975	-2.958244581788342e-24
-0.48120184378124975	-2.9022391828932734e-24
-0.48114080862499975	-2.8406175428758176e-24
-0.48107977346874975	-2.7734955049041924e-24
-0.48101873831249975	-2.7009984311784214e-24
-0.48095770315624975	-2.6232612886198837e-24
-0.48089666799999975	-2.5404304034861912e-24
-0.48083563284374975	-2.4526614404324367e-24
-0.48077459768749975	-2.360118480794027e-24
-0.48071356253124975	-2.262975232947456e-24
-0.48065252737499975	-2.1614153425306275e-24
-0.48059149221874975	-2.055629702277426e-24
-0.48053045706249975	-1.9458164700034442e-24
-0.48046942190624975	-1.8321834141304095e-24
-0.48040838674999975	-1.7149454201875783e-24
-0.48034735159374975	-1.5943222915629258e-24
-0.48028631643749975	-1.4705420699183726e-24
-0.48022528128124975	-1.3438395737039603e-24
-0.48016424612499975	-1.2144529227389878e-24
-0.48010321096874975	-1.0826273882611033e-24
-0.48004217581249975	-9.486123903079454e-25
-0.47998114065624975	-8.126604877415263e-25
-0.47992010549999975	-6.750312177110983e-25
-0.47985907034374975	-5.359839883551125e-25
-0.47979803518749975	-3.9578071517127247e-25
-0.47973700003124975	-2.546907446861328e-25
-0.47967596487499975	-1.129803794060412e-25
-0.47961492971874975	2.908386432109574e-26
-0.47955389456249975	1.712283675582367e-25
-0.47949285940624975	3.131843563967892e-25
-0.47943182424999975	4.546839783367785e-25
-0.47937078909374975	5.9545487716080965e-25
-0.47930975393749975	7.352305191536817e-25
-0.47924871878124975	8.737456141167878e-25
-0.47918768362499975	1.0107347142154922e-24
-0.47912664846874975	1.1459366988900111e-24
-0.47906561331249975	1.2790948347098379e-24
-0.47900457815624975	1.4099541433480838e-24
-0.47894354299999975	1.5382628317657075e-24
-0.47888250784374975	1.6637787854207423e-24
-0.47882147268749975	1.786260611058293e-24
-0.47876043753124975	1.9054710484790007e-24
-0.47869940237499975	2.0211850543959294e-24
-0.47863836721874975	2.13318003340788e-24
-0.47857733206249975	2.2412388095555004e-24
-0.47851629690624975	2.3451549228550246e-24
-0.47845526174999975	2.444728832164898e-24
-0.47839422659374975	2.5397676959790964e-24
-0.47833319143749975	2.630087875114144e-24
-0.47827215628124975	2.7155153321679946e-24
-0.47821112112499975	2.7958841848172753e-24
-0.47815008596874975	2.8710384217626404e-24
-0.47808905081249975	2.9408320544233073e-24
-0.47802801565624975	3.0051282776710847e-24
-0.47796698049999975	3.0638018331534966e-24
-0.47790594534374975	3.1167375326806926e-24
-0.47784491018749975	3.1638299934398342e-24
-0.47778387503124975	3.204986609054714e-24
-0.47772283987499975	3.2401250119077464e-24
-0.47766180471874975	3.2691735031211105e-24
-0.47760076956249975	3.2920734317510798e-24
-0.47753973440624975	3.308776677428707e-24
-0.47747869924999975	3.3192467193427525e-24
-0.47741766409374975	3.3234596780469816e-24
-0.47735662893749975	3.321402795404411e-24
-0.47729559378124975	3.3130752844592255e-24
-0.47723455862499975	3.2984884462477902e-24
-0.47717352346874975	3.2776652823308995e-24
-0.47711248831249975	3.2506407814183313e-24
-0.47705145315624975	3.2174613417777626e-24
-0.47699041799999975	3.1781851976863198e-24
-0.47692938284374975	3.1328827753336313e-24
-0.47686834768749975	3.081634875621265e-24
-0.47680731253124975	3.0245339294231037e-24
-0.47674627737499975	2.9616844479237476e-24
-0.47668524221874975	2.893200719502251e-24
-0.47662420706249975	2.8192079251502126e-24
-0.47656317190624975	2.7398422269341575e-24
-0.47650213674999975	2.6552502622571556e-24
-0.47644110159374975	2.5655876218049657e-24
-0.47638006643749975	2.4710197366543364e-24
-0.47631903128124975	2.3717232271394464e-24
-0.47625799612499975	2.267881654915282e-24
-0.47619696096874975	2.159686969184177e-24
-0.47613592581249975	2.0473419580206477e-24
-0.47607489065624975	1.9310564804384106e-24
-0.47601385549999975	1.811045020703002e-24
-0.47595282034374975	1.6875329081133616e-24
-0.47589178518749975	1.5607530456434717e-24
-0.47583075003124975	1.4309388343863408e-24
-0.47576971487499975	1.2983348884622127e-24
-0.47570867971874975	1.1631916061479475e-24
-0.47564764456249975	1.0257592386514434e-24
-0.47558660940624975	8.862967647340192e-25
-0.47552557424999975	7.450671125319939e-25
-0.47546453909374975	6.023345638848646e-25
-0.47540350393749975	4.583667540840445e-25
-0.47534246878124975	3.1343585675205885e-25
-0.47528143362499975	1.6781473220735856e-25
-0.47522039846874975	2.1775256125236394e-26
-0.47515936331249975	-1.2440480451337981e-25
-0.47509832815624975	-2.704501796829891e-25
-0.47503729299999975	-4.16088130740313e-25
-0.47497625784374975	-5.610404673243046e-25
-0.47491522268749975	-7.0503454535198e-25
-0.47485418753124975	-8.47800495764642e-25
-0.47479315237499975	-9.890656525775028e-25
-0.47473211721874975	-1.1285640592841976e-24
-0.47467108206249975	-1.2660326845793583e-24
-0.47461004690624975	-1.4012103747514741e-24
-0.47454901174999975	-1.5338415371572183e-24
-0.47448797659374975	-1.6636742168144372e-24
-0.47442694143749975	-1.790463962366987e-24
-0.47436590628124975	-1.9139697632477016e-24
-0.47430487112499975	-2.0339555651254823e-24
-0.47424383596874975	-2.15019597225625e-24
-0.47418280081249975	-2.2624699665432414e-24
-0.47412176565624975	-2.3705627349258413e-24
-0.47406073049999975	-2.4742697221850613e-24
-0.47399969534374975	-2.5733942875290314e-24
-0.47393866018749975	-2.667746602254651e-24
-0.47387762503124975	-2.75714729103215e-24
-0.47381658987499975	-2.8414267227862627e-24
-0.47375555471874975	-2.9204227933661076e-24
-0.47369451956249975	-2.9939856182288e-24
-0.47363348440624975	-3.061974810804054e-24
-0.47357244924999975	-3.1242592876823907e-24
-0.47351141409374975	-3.180720454765631e-24
-0.47345037893749975	-3.231249943378548e-24
-0.47338934378124975	-3.2757506452015937e-24
-0.47332830862499975	-3.314136654549992e-24
-0.47326727346874975	-3.346333794696059e-24
-0.47320623831249975	-3.372280023818855e-24
-0.47314520315624975	-3.3919244396563884e-24
-0.47308416799999975	-3.405228376896133e-24
-0.47302313284374975	-3.4121653454757804e-24
-0.47296209768749975	-3.4127207515589654e-24
-0.47290106253124975	-3.40689209061121e-24
-0.47284002737499975	-3.394689065859713e-24
-0.47277899221874975	-3.376133514290763e-24
-0.47271795706249975	-3.3512592506122076e-24
-0.47265692190624975	-3.32011204379523e-24
-0.47259588674999975	-3.2827498896412215e-24
-0.47253485159374975	-3.2392423682975427e-24
-0.47247381643749975	-3.1896705117590217e-24
-0.47241278128124975	-3.134127733623712e-24
