Time	Frequency
-0.5000147815937481	-0.20495734498337792
-0.4999537464374981	-0.21804905012038223
-0.4998927112812481	-0.23078370256387004
-0.4998316761249981	-0.24314132891510448
-0.4997706409687481	-0.2551019917823921
-0.4997096058124981	-0.2666468593355122
-0.4996485706562481	-0.2777577624664541
-0.4995875354999981	-0.28841671821106907
-0.4995265003437481	-0.29860689979806343
-0.4994654651874981	-0.3083123298936611
-0.4994044300312481	-0.3175173936613166
-0.4993433948749981	-0.3262073615661864
-0.4992823597187481	-0.33436875277278594
-0.4992213245624981	-0.3419884253523169
-0.4991602894062481	-0.34905410830356653
-0.4990992542499981	-0.35555496741920595
-0.4990382190937481	-0.36148046728505195
-0.4989771839374981	-0.3668210827136039
-0.4989161487812481	-0.371568651168118
-0.4988551136249981	-0.3757155001609821
-0.4987940784687481	-0.3792549741549354
-0.4987330433124981	-0.3821816703387395
-0.4986720081562481	-0.3844909232862512
-0.4986109729999981	-0.38617901308743635
-0.4985499378437481	-0.38724341848332483
-0.4984889026874981	-0.38768251314788443
-0.4984278675312481	-0.3874955935903213
-0.4983668323749981	-0.3866830748058279
-0.4983057972187481	-0.38524635080796416
-0.4982447620624981	-0.383187772993201
-0.4981837269062481	-0.3805107083103471
-0.4981226917499981	-0.3772195208689502
-0.4980616565937481	-0.3733196145805092
-0.4980006214374981	-0.3688172453378939
-0.4979395862812481	-0.36371969640738505
-0.4978785511249981	-0.3580353480876298
-0.4978175159687481	-0.35177324339134114
-0.4977564808124981	-0.3449435459973394
-0.4976954456562481	-0.3375574040930316
-0.4976344104999981	-0.3296265519347303
-0.4975733753437481	-0.3211639655193905
-0.4975123401874981	-0.3121833076647459
-0.4974513050312481	-0.30269885475719194
-0.4973902698749981	-0.2927262387084201
-0.4973292347187481	-0.28228146095029183
-0.4972681995624981	-0.2713811287159323
-0.4972071644062481	-0.2600431779010654
-0.4971461292499981	-0.24828593096002713
-0.4970850940937481	-0.23612805928525102
-0.4970240589374981	-0.22358929143041886
-0.4969630237812481	-0.2106902761736126
-0.4969019886249981	-0.19745149057811312
-0.4968409534687481	-0.1838940264327193
-0.4967799183124981	-0.17004057023184566
-0.4967188831562481	-0.15591317433326654
-0.4966578479999981	-0.14153409351138446
-0.4965968128437481	-0.1269275430613105
-0.4965357776874981	-0.11211680888991417
-0.4964747425312481	-0.0971252286630576
-0.4964137073749981	-0.08197806440558147
-0.4963526722187481	-0.06669936966340177
-0.4962916370624981	-0.05131340739953882
-0.4962306019062481	-0.03584611875130783
-0.4961695667499981	-0.020321911400292627
-0.4961085315937481	-0.004765580144356499
-0.4960474964374981	0.010796574221677948
-0.4959864612812481	0.02634001588639201
-0.4959254261249981	0.041839933500768325
-0.4958643909687481	0.05727014483485009
-0.4958033558124981	0.07260612316032634
-0.4957423206562481	0.08782333193630222
-0.4956812854999981	0.10289638808781222
-0.4956202503437481	0.1178010542340527
-0.4955592151874981	0.132513204377195
-0.4954981800312481	0.14700876507652474
-0.4954371448749981	0.1612641336784761
-0.4953761097187481	0.1752560718224299
-0.4953150745624981	0.18896197031763876
-0.4952540394062481	0.20235915915491537
-0.4951930042499981	0.21542592756871842
-0.4951319690937481	0.22814115268447702
-0.4950709339374981	0.24048358975926576
-0.4950098987812481	0.2524334018606629
-0.4949488636249981	0.26397099663322493
-0.4948878284687481	0.2750772041311232
-0.4948267933124981	0.28573422947216187
-0.4947657581562481	0.2959241827310032
-0.4947047229999981	0.305630356068896
-0.4946436878437481	0.31483719800431004
-0.4945826526874981	0.32352897918444073
-0.4945216175312481	0.33169146190290233
-0.4944605823749981	0.3393114795232075
-0.4943995472187481	0.34637607505271384
-0.4943385120624981	0.3528734946329206
-0.4942774769062481	0.3587930128599431
-0.4942164417499981	0.36412475873159983
-0.4941554065937481	0.36885966307374707
-0.4940943714374981	0.3729896913766754
-0.4940333362812481	0.37650797820597476
-0.4939723011249981	0.3794083248073345
-0.4939112659687481	0.3816857123057244
-0.4938502308124981	0.38333617157967625
-0.4937891956562481	0.384356548187696
-0.4937281604999981	0.38474490380948817
-0.4936671253437481	0.3845002245784808
-0.4936060901874981	0.3836225050981027
-0.4935450550312481	0.38211281879635467
-0.4934840198749981	0.37997321092289066
-0.4934229847187481	0.37720680055836253
-0.4933619495624981	0.373817654973767
-0.4933009144062481	0.36981086759075643
-0.4932398792499981	0.36519263881818426
-0.4931788440937481	0.35996996459139124
-0.4931178089374981	0.3541509297130042
-0.4930567737812481	0.34774473549077783
-0.4929957386249981	0.3407611820834087
-0.4929347034687481	0.3332112840332356
-0.4928736683124981	0.3251070465372593
-0.4928126331562481	0.31646099067519273
-0.4927515979999981	0.3072869200718341
-0.4926905628437481	0.2975993936215746
-0.4926295276874981	0.2874135315820605
-0.4925684925312481	0.276745759792115
-0.4925074573749981	0.265612934594757
-0.4924464222187481	0.2540325474904382
-0.4923853870624981	0.24202346315269868
-0.4923243519062481	0.22960457281716282
-0.4922633167499981	0.216795494157389
-0.4922022815937481	0.20361721222464874
-0.4921412464374981	0.19009046960864867
-0.4920802112812481	0.17623671775955546
-0.4920191761249981	0.16207860789952908
-0.4919581409687481	0.14763863427412963
-0.4918971058124981	0.132939720867496
-0.4918360706562481	0.11800578203397862
-0.4917750354999981	0.10286080681294534
-0.4917140003437481	0.0875288243907699
-0.4916529651874981	0.0720347337219117
-0.4915919300312481	0.05640357991069725
-0.4915308948749981	0.040660207724150334
-0.4914698597187481	0.02483019437483912
-0.4914088245624981	0.008939115226681631
-0.4913477894062481	-0.006987598638947879
-0.4912867542499981	-0.022924069647364185
-0.4912257190937481	-0.038844563351008735
-0.4911646839374981	-0.0547234744700891
-0.4911036487812481	-0.07053507835301419
-0.4910426136249981	-0.08625360037298446
-0.4909815784687481	-0.1018538555550987
-0.4909205433124981	-0.1173106106258119
-0.4908595081562481	-0.13259834522144004
-0.4907984729999981	-0.147692757842498
-0.4907374378437481	-0.16256935619219684
-0.4906764026874981	-0.17720339585658895
-0.4906153675312481	-0.1915716819347074
-0.4905543323749981	-0.2056508420342126
-0.4904932972187481	-0.21941742325883348
-0.4904322620624981	-0.2328494737882493
-0.4903712269062481	-0.24592505193596365
-0.4903101917499981	-0.2586226005354497
-0.4902491565937481	-0.2709215916278499
-0.4901881214374981	-0.282801751114266
-0.4901270862812481	-0.2942437690511343
-0.4900660511249981	-0.3052288961862676
-0.4900050159687481	-0.3157389811338896
-0.4899439808124981	-0.3257568577091266
-0.4898829456562481	-0.33526607352753096
-0.4898219104999981	-0.34425096538178535
-0.4897608753437481	-0.35269653060520795
-0.4896998401874981	-0.36058900619424455
-0.4896388050312481	-0.3679153447126518
-0.4895777698749981	-0.3746630850674389
-0.4895167347187481	-0.3808212466536642
-0.4894556995624981	-0.3863795323039628
-0.4893946644062481	-0.3913283599065621
-0.4893336292499981	-0.39565958639217447
-0.4892725940937481	-0.39936587676542773
-0.4892115589374981	-0.40244066246278426
-0.4891505237812481	-0.40487870689158845
-0.4890894886249981	-0.40667578996336917
-0.4890284534687481	-0.40782847845429676
-0.4889674183124981	-0.4083345347327718
-0.4889063831562481	-0.408192850116864
-0.4888453479999981	-0.4074031821687109
-0.4887843128437481	-0.40596643083387146
-0.4887232776874981	-0.40388454701172455
-0.4886622425312481	-0.4011604695400772
-0.4886012073749981	-0.3977982723105789
-0.4885401722187481	-0.39380291118070815
-0.4884791370624981	-0.3891805061010907
-0.4884181019062481	-0.38393822031214986
-0.4883570667499981	-0.37808394491168773
-0.4882960315937481	-0.37162690096650475
-0.4882349964374981	-0.36457726282347863
-0.4881739612812481	-0.3569457532967307
-0.4881129261249981	-0.3487444887067436
-0.4880518909687481	-0.3399865733627381
-0.4879908558124981	-0.3306854624759799
-0.4879298206562481	-0.32085589872674547
-0.4878687854999981	-0.3105137173483262
-0.4878077503437481	-0.29967503529744494
-0.4877467151874981	-0.2883569480018012
-0.4876856800312481	-0.2765777086830319
-0.4876246448749981	-0.26435596979509673
-0.4875636097187481	-0.2517109731665288
-0.4875025745624981	-0.23866301116294564
-0.4874415394062481	-0.22523301381673727
-0.4873805042499981	-0.21144216841935956
-0.4873194690937481	-0.19731255356255178
-0.4872584339374981	-0.18286693369224616
-0.4871973987812481	-0.16812810417774898
-0.4871363636249981	-0.15311984881131474
-0.4870753284687481	-0.13786630039432587
-0.4870142933124981	-0.12239144975665539
-0.4869532581562481	-0.10672052789765686
-0.4868922229999981	-0.09087871627223779
-0.4868311878437481	-0.0748908472113069
-0.4867701526874981	-0.05878310788499775
-0.4867091175312481	-0.042581476550907695
-0.4866480823749981	-0.026311344174327483
-0.4865870472187481	-0.00999926816198606
-0.4865260120624981	0.0063282258548890274
-0.4864649769062481	0.02264555077013733
-0.4864039417499981	0.03892620993415226
-0.4863429065937481	0.055143475285220754
-0.4862818714374981	0.07127207468113556
-0.4862208362812481	0.08728568851893195
-0.4861598011249981	0.10315799626635266
-0.4860987659687481	0.11886444256431851
-0.4860377308124981	0.13437903497324813
-0.4859766956562481	0.14967650330978646
-0.4859156604999981	0.1647331463749484
-0.4858546253437481	0.17952384774018498
-0.4857935901874981	0.19402477259505121
-0.4857325550312481	0.20821315566960122
-0.4856715198749981	0.2220654498189112
-0.4856104847187481	0.2355594257872242
-0.4855494495624981	0.2486736593938861
-0.4854884144062481	0.26138652258491396
-0.4854273792499981	0.2736775575677004
-0.4853663440937481	0.2855272483494142
-0.4853053089374981	0.2969160308278603
-0.4852442737812481	0.30782560335644416
-0.4851832386249981	0.3182386217048392
-0.4851222034687481	0.3281377907445051
-0.4850611683124981	0.33750738406867525
-0.4850001331562481	0.3463324202563279
-0.4849390979999981	0.35459811145469167
-0.4848780628437481	0.36229152155740907
-0.4848170276874981	0.36940027269932885
-0.4847559925312481	0.3759123989723696
-0.4846949573749981	0.3818178370031835
-0.4846339222187481	0.38710695379454596
-0.4845728870624981	0.3917709322038051
-0.4845118519062481	0.39580262377348624
-0.4844508167499981	0.39919533836499876
-0.4843897815937481	0.4019435175578359
-0.4843287464374981	0.4040429885683513
-0.4842677112812481	0.4054902287959878
-0.4842066761249981	0.4062829118163541
-0.4841456409687481	0.4064199443858447
-0.4840846058124981	0.40590104978449887
-0.4840235706562481	0.404727125063667
-0.4839625354999981	0.40290022111424395
-0.4839015003437481	0.40042328276166655
-0.4838404651874981	0.3973004293586118
-0.4837794300312481	0.3935368554969968
-0.4837183948749981	0.38913865876615505
-0.4836573597187481	0.3841131133477237
-0.4835963245624981	0.37846852842065576
-0.4835352894062481	0.37221405139061137
-0.4834742542499981	0.365359970719716
-0.4834132190937481	0.35791765659977093
-0.4833521839374981	0.34989912928596223
-0.4832911487812481	0.34131755357087945
-0.4832301136249981	0.3321872045523146
-0.4831690784687481	0.322522796799904
-0.4831080433124981	0.3123402333653574
-0.4830470081562481	0.3016563425631904
-0.4829859729999981	0.2904884771873185
-0.4829249378437481	0.27885502546749563
-0.4828639026874981	0.26677501068692655
-0.4828028675312481	0.2542683017584223
-0.4827418323749981	0.24135538742457557
-0.4826807972187481	0.22805738652684868
-0.4826197620624981	0.21439620620442273
-0.4825587269062481	0.20039414640104147
-0.4824976917499981	0.1860743588835076
-0.4824366565937481	0.17146014962348768
-0.4823756214374981	0.15657546650937396
-0.4823145862812481	0.14144514986554096
-0.4822535511249981	0.12609358450701283
-0.4821925159687481	0.1105459654882211
-0.4821314808124981	0.09482836206035845
-0.4820704456562481	0.07896614217092333
-0.4820094104999981	0.06298518879532036
-0.4819483753437481	0.046912379302503346
-0.4818873401874981	0.03077381844247562
-0.4818263050312481	0.014595673437575495
-0.4817652698749981	-0.0015947993279846946
-0.4817042347187481	-0.01777119417517615
-0.4816431995624981	-0.03390733757270265
-0.4815821644062481	-0.04997599815468383
-0.4815211292499981	-0.06595101506661877
-0.4814600940937481	-0.08180640088021861
-0.4813990589374981	-0.09751545627576776
-0.4813380237812481	-0.11305259579260908
-0.4812769886249981	-0.12839243804908398
-0.4812159534687481	-0.14350935328644795
-0.4811549183124981	-0.15837834369548098
-0.4810938831562481	-0.17297529278183923
-0.4810328479999981	-0.187275984293174
-0.4809718128437481	-0.20125642923115977
-0.4809107776874981	-0.21489398015152766
-0.4808497425312481	-0.22816608845744832
-0.4807887073749981	-0.24105060246542254
-0.4807276722187481	-0.2535262678870048
-0.4806666370624981	-0.26557258521727223
-0.4806056019062481	-0.27716967820625465
-0.4805445667499981	-0.28829803358177425
-0.4804835315937481	-0.29893942793694417
-0.4804224964374981	-0.30907637547482064
-0.4803614612812481	-0.31869181873967467
-0.4803004261249981	-0.32776981730254884
-0.4802393909687481	-0.33629542871995766
-0.4801783558124981	-0.3442545057720805
-0.4801173206562481	-0.3516336368093316
-0.4800562854999981	-0.35842059565225365
-0.4799952503437481	-0.36460420436823465
-0.4799342151874981	-0.37017399867755113
-0.4798731800312481	-0.37512063453447403
-0.4798121448749981	-0.3794359498996661
-0.4797511097187481	-0.3831126318133301
-0.4796900745624981	-0.386144412423228
-0.4796290394062481	-0.38852626433723386
-0.4795680042499981	-0.39025406438451316
-0.4795069690937481	-0.3913247796382408
-0.4794459339374981	-0.3917365888009583
-0.4793848987812481	-0.3914886164099568
-0.4793238636249981	-0.39058111634461984
-0.4792628284687481	-0.3890154918821723
-0.4792017933124981	-0.38679415963552577
-0.4791407581562481	-0.38392063258151826
-0.4790797229999981	-0.38039954143339283
-0.4790186878437481	-0.37623657545181666
-0.4789576526874981	-0.3714384058655077
-0.4788966175312481	-0.36601288158970874
-0.4788355823749981	-0.3599688913651613
-0.4787745472187481	-0.3533160974591803
-0.4787135120624981	-0.34606552976996435
-0.4786524769062481	-0.3382291360344375
-0.4785914417499981	-0.3298194003470363
-0.4785304065937481	-0.32085039125602943
-0.4784693714374981	-0.31133691228212046
-0.4784083362812481	-0.3012942112798921
-0.4783473011249981	-0.2907390410951507
-0.4782862659687481	-0.2796888497855583
-0.4782252308124981	-0.26816158088689107
-0.4781641956562481	-0.25617628066882103
-0.4781031604999981	-0.24375286212771646
-0.4780421253437481	-0.23091161212249098
-0.4779810901874981	-0.21767370266046288
-0.4779200550312481	-0.20406119139074255
-0.4778590198749981	-0.19009631530827129
-0.4777979847187481	-0.1758022337530343
-0.4777369495624981	-0.1612026326400028
-0.4776759144062481	-0.14632153154798203
-0.4776148792499981	-0.13118365536369236
-0.4775538440937481	-0.11581393816494484
-0.4774928089374981	-0.10023797044059875
-0.4774317737812481	-0.08448149967695631
-0.4773707386249981	-0.06857044621449165
-0.4773097034687481	-0.052531605476340386
-0.4772486683124981	-0.036391303998844785
-0.4771876331562481	-0.020176052292428637
-0.4771265979999981	-0.003913570252303507
-0.4770655628437481	0.012369706670811869
-0.4770045276874981	0.028647142896425497
-0.4769434925312481	0.04489042273134251
-0.4768824573749981	0.06107329850423406
-0.4768214222187481	0.077169462946402
-0.4767603870624981	0.09315074783599235
-0.4766993519062481	0.10899103701467182
-0.4766383167499981	0.1246647155315058
-0.4765772815937481	0.14014461202450637
-0.4765162464374981	0.1554049576259572
-0.4764552112812481	0.17042099008425793
-0.4763941761249981	0.18516702291103687
-0.4763331409687481	0.199618298020655
-0.4762721058124981	0.21375101622269602
-0.4762110706562481	0.22754131379485468
-0.4761500354999981	0.24096598194084665
-0.4760890003437481	0.25400252925631966
-0.4760279651874981	0.266629164480818
-0.4759669300312481	0.2788245286923438
-0.4759058948749981	0.2905680631357682
-0.4758448597187481	0.30184011901831653
-0.4757838245624981	0.3126214692780811
-0.4757227894062481	0.32289402344100365
-0.4756617542499981	0.3326404405854667
-0.4756007190937481	0.3418439343443319
-0.4755396839374981	0.3504890779833919
-0.4754786487812481	0.3585611877077265
-0.4754176136249981	0.36604624113769996
-0.4753565784687481	0.3729315798761389
-0.4752955433124981	0.37920539951654075
-0.4752345081562481	0.3848567244888022
-0.4751734729999981	0.3898758687838741
-0.4751124378437481	0.39425403222111116
-0.4750514026874981	0.3979834672821145
-0.4749903675312481	0.40105759918770273
-0.4749293323749981	0.40347082816275004
-0.4748682972187481	0.40521870296243095
-0.4748072620624981	0.4062978555604964
-0.4747462269062481	0.40670601879157214
-0.4746851917499981	0.40644206021126145
-0.4746241565937481	0.4055059213670012
-0.4745631214374981	0.4038986799320188
-0.4745020862812481	0.40162255605182146
-0.4744410511249981	0.3986807794842179
-0.4743800159687481	0.3950777976985939
-0.4743189808124981	0.39081916941329264
-0.4742579456562481	0.38591130393099826
-0.4741969104999981	0.380362012612342
-0.4741358753437481	0.374180099582892
-0.4740748401874981	0.36737509598899476
-0.4740138050312481	0.3599579937890474
-0.4739527698749981	0.35194074090948646
-0.4738917347187481	0.3433359626956117
-0.4738306995624981	0.3341575188241352
-0.4737696644062481	0.324420360848579
-0.4737086292499981	0.3141401093612428
-0.4736475940937481	0.3033332469172813
-0.4735865589374981	0.29201747388877275
-0.4735255237812481	0.28021116884584524
-0.4734644886249981	0.2679332946901474
-0.4734034534687481	0.2552040075860023
-0.4733424183124981	0.24204405288280087
-0.4732813831562481	0.2284747226697126
-0.4732203479999981	0.2145183582071375
-0.4731593128437481	0.20019763336689067
-0.4730982776874981	0.18553596746445983
-0.4730372425312481	0.17055750560690552
-0.4729762073749981	0.15528653177572446
-0.4729151722187481	0.13974828724581245
-0.4728541370624981	0.12396822497219455
-0.4727931019062481	0.10797206376632841
-0.4727320667499981	0.091786380389109
-0.4726710315937481	0.0754375610278457
-0.4726099964374981	0.05895245600655728
-0.4725489612812481	0.042358433816235795
-0.4724879261249981	0.025682600165827976
-0.4724268909687481	0.008952431299874008
-0.4723658558124981	-0.007804324801492661
-0.4723048206562481	-0.024560201288866233
-0.4722437854999981	-0.04128754326123365
-0.4721827503437481	-0.05795855239177114
-0.4721217151874981	-0.07454591440153331
-0.4720606800312481	-0.09102219445860683
-0.4719996448749981	-0.10735994951469555
-0.4719386097187481	-0.12353234559401058
-0.4718775745624981	-0.13951258521069446
-0.4718165394062481	-0.15527420669216924
-0.4717555042499981	-0.17079105962250085
-0.4716944690937481	-0.1860373374258963
-0.4716334339374981	-0.20098809096354067
-0.4715723987812481	-0.2156181719358018
-0.4715113636249981	-0.2299032534298042
-0.4714503284687481	-0.24382013787372386
-0.4713892933124981	-0.2573450986451223
-0.4713282581562481	-0.27045575380791076
-0.4712672229999981	-0.2831308139120329
-0.4712061878437481	-0.295348530267923
-0.4711451526874981	-0.3070887334692276
-0.4710841175312481	-0.31833222845718656
-0.4710230823749981	-0.32905979410795366
-0.4709620472187481	-0.3392536437836437
-0.4709010120624981	-0.34889699468176955
-0.4708399769062481	-0.35797346058194573
-0.4707789417499981	-0.36646786337113185
-0.4707179065937481	-0.37436616666362477
-0.4706568714374981	-0.38165497180806707
-0.4705958362812481	-0.38832203337753274
-0.4705348011249981	-0.3943562080186183
-0.4704737659687481	-0.39974729240341395
-0.4704127308124981	-0.40448621990257844
-0.4703516956562481	-0.408564880531848
-0.4702906604999981	-0.4119763944453359
-0.4702296253437481	-0.4147149965788671
-0.4701685901874981	-0.41677585622829216
-0.4701075550312481	-0.41815542782079335
-0.4700465198749981	-0.4188513131380625
-0.4699854847187481	-0.4188621062078741
-0.4699244495624981	-0.4181876522151034
-0.4698634144062481	-0.416828927697616
-0.4698023792499981	-0.4147879591409198
-0.4697413440937481	-0.41206805366161253
-0.4696803089374981	-0.4086735158641143
