Time	Frequency
-0.5000147820312577	0.2887316344716915
-0.4999537468750077	0.30900958521844174
-0.4998927117187577	0.3284788458384086
-0.4998316765625077	0.34708625445893637
-0.4997706414062577	0.36478191259460574
-0.4997096062500077	0.3815178322060968
-0.4996485710937577	0.3972480932996091
-0.4995875359375077	0.41193039273423376
-0.4995265007812577	0.42552502437499906
-0.4994654656250077	0.4379943313676846
-0.4994044304687577	0.44930464378677315
-0.4993433953125077	0.459425426373935
-0.4992823601562577	0.4683284497999429
-0.4992213250000077	0.4759894645522917
-0.4991602898437577	0.4823876260542276
-0.4990992546875077	0.48750498875161496
-0.4990382195312577	0.4913273626461828
-0.4989771843750077	0.4938441098182845
-0.4989161492187577	0.4950478995311998
-0.4988551140625077	0.49493504790279796
-0.4987940789062577	0.4935054640496111
-0.4987330437500077	0.4907624773424754
-0.4986720085937577	0.48671308481503617
-0.4986109734375077	0.4813677888683079
-0.4985499382812577	0.4747404556950438
-0.4984889031250077	0.4668486747173066
-0.4984278679687577	0.45771323581692935
-0.4983668328125077	0.4473582333724501
-0.4983057976562577	0.4358114567132199
-0.4982447625000077	0.4231034941284867
-0.4981837273437577	0.4092681129011319
-0.4981226921875077	0.3943425577555349
-0.4980616570312577	0.3783665430643165
-0.4980006218750077	0.3613827177576329
-0.4979395867187577	0.3434368999401827
-0.4978785515625077	0.32457694061448844
-0.4978175164062577	0.3048533167034614
-0.4977564812500077	0.28431927017796726
-0.4976954460937577	0.26302982269347563
-0.4976344109375077	0.24104205563759953
-0.4975733757812577	0.218415141808232
-0.4975123406250077	0.1952099162774512
-0.4974513054687577	0.17148887886040773
-0.4973902703125077	0.14731588046661273
-0.4973292351562577	0.12275566930118632
-0.4972682000000077	0.09787477730139217
-0.4972071648437577	0.0727402590238517
-0.4971461296875077	0.04741935544155843
-0.4970850945312577	0.021980781001169382
-0.4970240593750077	-0.003506933484346063
-0.4969630242187577	-0.02897530211161354
-0.4969019890625077	-0.05435541404721698
-0.4968409539062577	-0.07957879476927847
-0.4967799187500077	-0.10457747696324209
-0.4967188835937577	-0.12928393047726738
-0.4966578484375077	-0.1536314541612442
-0.4965968132812577	-0.17755421948334532
-0.4965357781250077	-0.20098776015481307
-0.4964747429687577	-0.22386883583228728
-0.4964137078125077	-0.24613522440939223
-0.4963526726562577	-0.2677272225974013
-0.4962916375000077	-0.2885863951993504
-0.4962306023437577	-0.3086560385228245
-0.4961695671875077	-0.3278823485030851
-0.4961085320312577	-0.3462130906981569
-0.4960474968750077	-0.3635987072790233
-0.4959864617187577	-0.379992387592855
-0.4959254265625077	-0.3953496409012142
-0.4958643914062577	-0.40962907968320394
-0.4958033562500077	-0.4227919980243434
-0.4957423210937577	-0.4348028565284106
-0.4956812859375077	-0.4456293819466745
-0.4956202507812577	-0.45524204646903793
-0.4955592156250077	-0.4636150973346967
-0.4954981804687577	-0.47072602510305916
-0.4954371453125077	-0.4765553853655259
-0.4953761101562577	-0.48108775174230045
-0.4953150750000077	-0.4843110040309496
-0.4952540398437577	-0.4862163352951994
-0.4951930046875077	-0.4867988400571498
-0.4951319695312577	-0.4860571941593754
-0.4950709343750077	-0.4839934658752428
-0.4950098992187577	-0.48061346002436606
-0.4949488640625077	-0.4759266298344545
-0.4948878289062577	-0.4699458089014908
-0.4948267937500077	-0.4626874648475063
-0.4947657585937577	-0.45417165722775493
-0.4947047234375077	-0.44442164536268025
-0.4946436882812577	-0.43346406539407467
-0.4945826531250077	-0.42132918033937666
-0.4945216179687577	-0.4080502344536163
-0.4944605828125077	-0.39366328163281095
-0.4943995476562577	-0.37820795254104317
-0.4943385125000077	-0.3617267830579181
-0.4942774773437577	-0.3442645137957925
-0.4942164421875077	-0.3258690313044769
-0.4941554070312577	-0.3065909897739711
-0.4940943718750077	-0.28648299266188476
-0.4940333367187577	-0.26559992327700055
-0.4939723015625077	-0.2439992803040031
-0.4939112664062577	-0.22174036148117834
-0.4938502312500077	-0.19888354618527465
-0.4937891960937577	-0.17549182576339886
-0.4937281609375077	-0.15162983832316607
-0.4936671257812577	-0.1273620848172354
-0.4936060906250077	-0.10275520263411392
-0.4935450554687577	-0.07787752913473663
-0.4934840203125077	-0.0527967024511097
-0.4934229851562577	-0.02758103605075776
-0.4933619500000077	-0.00230046820300651
-0.4933009148437577	0.022975293921370495
-0.4932398796875077	0.048177995736383684
-0.4931788445312577	0.07323797128254611
-0.4931178093750077	0.09808542144362288
-0.4930567742187577	0.12265336622529033
-0.4929957390625077	0.14687386583641557
-0.4929347039062577	0.17067980030265992
-0.4928736687500077	0.19400632224586525
-0.4928126335937577	0.21678879895600434
-0.4927515984375077	0.23896474159796144
-0.4926905632812577	0.26047304820609596
-0.4926295281250077	0.2812542009410817
-0.4925684929687577	0.3012510824928651
-0.4925074578125077	0.3204084382797772
-0.4924464226562577	0.3386735400066017
-0.4923853875000077	0.35599565283400814
-0.4923243523437577	0.3723268351981709
-0.4922633171875077	0.3876222348210866
-0.4922022820312577	0.40183917222384474
-0.4921412468750077	0.4149382004101259
-0.4920802117187577	0.4268830385619185
-0.4920191765625077	0.4376403114481534
-0.4919581414062577	0.4471802075844989
-0.4918971062500077	0.4554758998462511
-0.4918360710937577	0.46250399140077836
-0.4917750359375077	0.46824496483202255
-0.4917140007812577	0.4726824066909951
-0.4916529656250077	0.47580347198409123
-0.4915919304687577	0.47759921544260225
-0.4915308953125077	0.47806412178041136
-0.4914698601562577	0.4771963000066912
-0.4914088250000077	0.47499763116107846
-0.4913477898437577	0.47147358139261863
-0.4912867546875077	0.4666332727236443
-0.4912257195312577	0.4604894261851147
-0.4911646843750077	0.45305836541655486
-0.4911036492187577	0.44435998703565344
-0.4910426140625077	0.43441757169272394
-0.4909815789062577	0.4232579229394976
-0.4909205437500077	0.4109112100167244
-0.4908595085937577	0.3974108414153234
-0.4907984734375077	0.3827932891563962
-0.4907374382812577	0.3670981737409067
-0.4906764031250077	0.35036855589032384
-0.4906153679687577	0.33264965643534816
-0.4905543328125077	0.3139892986737841
-0.4904932976562577	0.2944390873986152
-0.4904322625000077	0.27405229592071306
-0.4903712273437577	0.25288390259568694
-0.4903101921875077	0.23099215524200162
-0.4902491570312577	0.20843720264713672
-0.4901881218750077	0.18528036290288646
-0.4901270867187577	0.16158496403555578
-0.4900660515625077	0.13741621784783767
-0.4900050164062577	0.11284006011742469
-0.4899439812500077	0.08792406015232972
-0.4898829460937577	0.06273688270571384
-0.4898219109375077	0.037346722821033504
-0.4897608757812577	0.011824185982758575
-0.4896998406250077	-0.013760290297116718
-0.4896388054687577	-0.03933782790220173
-0.4895777703125077	-0.06483666588489755
-0.4895167351562577	-0.09018661151986407
-0.4894557000000077	-0.11531910343762168
-0.4893946648437577	-0.140163649117204
-0.4893336296875077	-0.16465187418934032
-0.4892725945312577	-0.1887167788183885
-0.4892115593750077	-0.21229148155266028
-0.4891505242187577	-0.23531084369355362
-0.4890894890625077	-0.25771113959015735
-0.4890284539062577	-0.2794305662074448
-0.4889674187500077	-0.30040903568097704
-0.4889063835937577	-0.3205879201023476
-0.4888453484375077	-0.33991136225132995
-0.4887843132812577	-0.3583260876776615
-0.4887232781250077	-0.3757804745111429
-0.4886622429687577	-0.39222564542947613
-0.4886012078125077	-0.4076162560013973
-0.4885401726562577	-0.42190913954697
-0.4884791375000077	-0.435063838056223
-0.4884181023437577	-0.4470438773168055
-0.4883570671875077	-0.4578154927082977
-0.4882960320312577	-0.46734794533689283
-0.4882349968750077	-0.47561438816083706
-0.4881739617187577	-0.4825912626342347
-0.4881129265625077	-0.48825840030845513
-0.4880518914062577	-0.49259928595852825
-0.4879908562500077	-0.49560115180052283
-0.4879298210937577	-0.49725477702225623
-0.4878687859375077	-0.49755459247876566
-0.4878077507812577	-0.4964989031646369
-0.4877467156250077	-0.49408959520080914
-0.4876856804687577	-0.49033228914862104
-0.4876246453125077	-0.4852363860531096
-0.4875636101562577	-0.47881486821487995
-0.4875025750000077	-0.47108443372203
-0.4874415398437577	-0.4620653284913241
-0.4873805046875077	-0.4517813737439292
-0.4873194695312577	-0.44025987135265265
-0.4872584343750077	-0.42753150023321396
-0.4871973992187577	-0.4136304675402547
-0.4871363640625077	-0.3985937573707021
-0.4870753289062577	-0.3824618442515974
-0.4870142937500077	-0.36527855309576585
-0.4869532585937577	-0.34708971444923087
-0.4868922234375077	-0.32794457227353024
-0.4868311882812577	-0.3078951940069244
-0.4867701531250077	-0.28699551111763744
-0.4867091179687577	-0.26530228562738656
-0.4866480828125077	-0.24287453616984267
-0.4865870476562577	-0.21977289321715285
-0.4865260125000077	-0.19606007841387524
-0.4864649773437577	-0.17180102126265087
-0.4864039421875077	-0.147061355494598
-0.4863429070312577	-0.12190819829441628
-0.4862818718750077	-0.09641080171718236
-0.4862208367187577	-0.07063822522102696
-0.4861598015625077	-0.044660328190958984
-0.4860987664062577	-0.01854879025681267
-0.4860377312500077	0.0076251920012130004
-0.4859766960937577	0.03379089105845524
-0.4859156609375077	0.05987633760805479
-0.4858546257812577	0.08580968494571234
-0.4857935906250077	0.11152094556636796
-0.4857325554687577	0.13693957302099813
-0.4856715203125077	0.16199528775338798
-0.4856104851562577	0.18662046177343258
-0.4855494500000077	0.210747274232854
-0.4854884148437577	0.23430920621135967
-0.4854273796875077	0.25724246335438267
-0.4853663445312577	0.2794837033989283
-0.4853053093750077	0.3009719400882422
-0.4852442742187577	0.32164858286996906
-0.4851832390625077	0.3414563423865382
-0.4851222039062577	0.36034128826873846
-0.4850611687500077	0.3782517525445255
-0.4850001335937577	0.39513787874800005
-0.4849390984375077	0.41095372645718825
-0.4848780632812577	0.42565595073007
-0.4848170281250077	0.4392038620899429
-0.4847559929687577	0.4515603502017313
-0.4846949578125077	0.46269130075399445
-0.4846339226562577	0.4725662662702927
-0.4845728875000077	0.4811581032135654
-0.4845118523437577	0.48844284885848
-0.4844508171875077	0.49440067020688433
-0.4843897820312577	0.4990152825577028
-0.4843287468750077	0.502273644310898
-0.4842677117187577	0.5041668888832863
-0.4842066765625077	0.5046899181782534
-0.4841456414062577	0.5038410637009281
-0.4840846062500077	0.5016227017612713
-0.4840235710937577	0.49804098614495546
-0.4839625359375077	0.4931056686566485
-0.4839015007812577	0.4868303438842468
-0.4838404656250077	0.4792323175846013
-0.4837794304687577	0.47033248170277614
-0.4837183953125077	0.46015533648807405
-0.4836573601562577	0.4487289354607844
-0.4835963250000077	0.4360848357323064
-0.4835352898437577	0.4222577708324789
-0.4834742546875077	0.4072858961220835
-0.4834132195312577	0.391210712038833
-0.4833521843750077	0.3740762749245561
-0.4832911492187577	0.35592995916960946
-0.4832301140625077	0.33682207284972493
-0.4831690789062577	0.3168050521403094
-0.4831080437500077	0.29593430979360064
-0.4830470085937577	0.27426757549566144
-0.4829859734375077	0.25186455986188105
-0.4829249382812577	0.228787293901733
-0.4828639031250077	0.205099398287975
-0.4828028679687577	0.18086640679794863
-0.4827418328125077	0.15615553428550094
-0.4826807976562577	0.13103484880665645
-0.4826197625000077	0.10557375034057666
-0.4825587273437577	0.07984300044140621
-0.4824976921875077	0.05391368826761136
-0.4824366570312577	0.027857277530198832
-0.4823756218750077	0.001746264447730997
-0.4823145867187577	-0.024347193878107944
-0.4822535515625077	-0.050350989394898224
-0.4821925164062577	-0.0761928660433394
-0.4821314812500077	-0.10180144355633237
-0.4820704460937577	-0.12710570640672245
-0.4820094109375077	-0.15203542672785886
-0.4819483757812577	-0.17652168178105815
-0.4818873406250077	-0.20049669131452583
-0.4818263054687577	-0.22389356305267447
-0.4817652703125077	-0.24664767604364335
-0.4817042351562577	-0.2686963438677528
-0.4816432000000077	-0.2899776285808709
-0.4815821648437577	-0.31043271009033613
-0.4815211296875077	-0.330005462316464
-0.4814600945312577	-0.3486408424487258
-0.4813990593750077	-0.36628713316268874
-0.4813380242187577	-0.38289586656244473
-0.4812769890625077	-0.3984205186738473
-0.4812159539062577	-0.41281807841442203
-0.4811549187500077	-0.4260485767680018
-0.4810938835937577	-0.43807505790739615
-0.4810328484375077	-0.4488644964038701
-0.4809718132812577	-0.4583867040444373
-0.4809107781250077	-0.4666149632952945
-0.4808497429687577	-0.4735267555301763
-0.4807887078125077	-0.47910288540459206
-0.4807276726562577	-0.4833275360154396
-0.4806666375000077	-0.4861891299283617
-0.4806056023437577	-0.4876798749103469
-0.4805445671875077	-0.48779539053511267
-0.4804835320312577	-0.4865354033649665
-0.4804224968750077	-0.4839035945257843
-0.4803614617187577	-0.4799072268209906
-0.4803004265625077	-0.4745573024353358
-0.4802393914062577	-0.46786891906543565
-0.4801783562500077	-0.4598608500022621
-0.4801173210937577	-0.45055505333927337
-0.4800562859375077	-0.4399777608489169
-0.4799952507812577	-0.42815865812733916
-0.4799342156250077	-0.4151302215926054
-0.4798731804687577	-0.40092935070346447
-0.4798121453125077	-0.38559552740298186
-0.4797511101562577	-0.3691711569326617
-0.4796900750000077	-0.35170299059463317
-0.4796290398437577	-0.33323923575871983
-0.4795680046875077	-0.3138312283105926
-0.4795069695312577	-0.2935340905176573
-0.4794459343750077	-0.2724040400696333
-0.4793848992187577	-0.25050002494029167
-0.4793238640625077	-0.22788369657831603
-0.4792628289062577	-0.20461831921745005
-0.4792017937500077	-0.1807688770137549
-0.4791407585937577	-0.15640202903663006
-0.4790797234375077	-0.1315865229238123
-0.4790186882812577	-0.10639146806662415
-0.4789576531250077	-0.080887453576105
-0.4788966179687577	-0.05514659059727691
-0.4788355828125077	-0.0292402801710197
-0.4787745476562577	-0.0032416088168911073
-0.4787135125000077	0.022776085728435046
-0.4786524773437577	0.048740301106264906
-0.4785914421875077	0.07457796904831575
-0.4785304070312577	0.10021626533530176
-0.4784693718750077	0.12558293127366368
-0.4784083367187577	0.15060713523793767
-0.4783473015625077	0.17521814980935804
-0.4782862664062577	0.1993462167816673
-0.4782252312500077	0.2229240790329298
-0.4781641960937577	0.24588488873272346
-0.4781031609375077	0.2681635487534458
-0.4780421257812577	0.289697624561989
-0.4779810906250077	0.31042602530456476
-0.4779200554687577	0.3302899734456049
-0.4778590203125077	0.3492333285357665
-0.4777979851562577	0.36720246649558264
-0.4777369500000077	0.38414629010978346
-0.4776759148437577	0.400016420514444
-0.4776148796875077	0.4147678850946812
-0.4775538445312577	0.4283586954207336
-0.4774928093750077	0.44074977286644834
-0.4774317742187577	0.4519055217903961
-0.4773707390625077	0.46179405678714436
-0.4773097039062577	0.47038681580039976
-0.4772486687500077	0.4776586593847974
-0.4771876335937577	0.48358842316367556
-0.4771265984375077	0.48815861913979497
-0.4770655632812577	0.4913554150390274
-0.4770045281250077	0.4931689691149196
-0.4769434929687577	0.4935932780747788
-0.4768824578125077	0.49262609833107285
-0.4768214226562577	0.49026920613484015
-0.4767603875000077	0.48652830463995994
-0.4766993523437577	0.48141277814125244
-0.4766383171875077	0.4749360305907638
-0.4765772820312577	0.4671153424626842
-0.4765162468750077	0.457971409701769
-0.4764552117187577	0.44752905678907867
-0.4763941765625077	0.4358167051750049
-0.4763331414062577	0.4228659379707486
-0.4762721062500077	0.40871221327451984
-0.4762110710937577	0.393394365280296
-0.4761500359375077	0.3769544965426018
-0.4760890007812577	0.35943746725882386
-0.4760279656250077	0.34089151726024347
-0.4759669304687577	0.32136835789140566
-0.4759058953125077	0.30092131278317774
-0.4758448601562577	0.27960671721956254
-0.4757838250000077	0.25748417495902126
-0.4757227898437577	0.23461469009997007
-0.4756617546875077	0.21106137304895328
-0.4756007195312577	0.1868898154162798
-0.4755396843750077	0.16216721616203003
-0.4754786492187577	0.136962035041481
-0.4754176140625077	0.11134439337543167
-0.4753565789062577	0.08538579138472174
-0.4752955437500077	0.05915815628954332
-0.4752345085937577	0.03273470736612562
-0.4751734734375077	0.00618930472413401
-0.4751124382812577	-0.020404520331947992
-0.4750514031250077	-0.0469720855043831
-0.4749903679687577	-0.07343921498871307
-0.4749293328125077	-0.09973251559525993
-0.4748682976562577	-0.12577782730993442
-0.4748072625000077	-0.15150251054036068
-0.4747462273437577	-0.17683489287566898
-0.4746851921875077	-0.20170346794274532
-0.4746241570312577	-0.22603902376417798
-0.4745631218750077	-0.24977320257391264
-0.4745020867187577	-0.272839059428878
-0.4744410515625077	-0.29517253579748287
-0.4743800164062577	-0.3167103709795071
-0.4743189812500077	-0.3373917839002011
-0.4742579460937577	-0.35715938433997063
-0.4741969109375077	-0.3759570348456383
-0.4741358757812577	-0.3937313087398378
-0.4740748406250077	-0.41043278033399544
-0.4740138054687577	-0.4260141979544153
-0.4739527703125077	-0.44043088987779916
-0.4738917351562577	-0.453642484115595
-0.4738307000000077	-0.4656115933195601
-0.4737696648437577	-0.4763037726957689
-0.4737086296875077	-0.48568876116372944
-0.4736475945312577	-0.4937397908986289
-0.4735865593750077	-0.5004336080692633
-0.4735255242187577	-0.5057508586996604
-0.4734644890625077	-0.5096760591074235
-0.4734034539062577	-0.5121976747262932
-0.4733424187500077	-0.5133079248915063
-0.4732813835937577	-0.5130030361912254
-0.4732203484375077	-0.511283267529442
-0.4731593132812577	-0.5081527580224298
-0.4730982781250077	-0.5036196153498766
-0.4730372429687577	-0.4976958552922541
-0.4729762078125077	-0.4903974716100171
-0.4729151726562577	-0.481744163354231
-0.4728541375000077	-0.4717595491876352
-0.4727931023437577	-0.4604710109840402
-0.4727320671875077	-0.44790943639843134
-0.4726710320312577	-0.4341094709855372
-0.4726099968750077	-0.41910900014807
-0.4725489617187577	-0.4029495687501569
-0.4724879265625077	-0.3856759926981913
-0.4724268914062577	-0.3673357175763561
-0.4723658562500077	-0.3479796961322639
-0.4723048210937577	-0.32766189834377474
-0.4722437859375077	-0.30643840279768314
-0.4721827507812577	-0.2843680586243182
-0.4721217156250077	-0.2615125911605638
-0.4720606804687577	-0.23793546639245972
-0.4719996453125077	-0.21370188717389219
-0.4719386101562577	-0.18887974944026323
-0.4718775750000077	-0.1635384280056392
-0.4718165398437577	-0.13774778399419715
-0.4717555046875077	-0.11158016410059528
-0.4716944695312577	-0.08510894843853466
-0.4716334343750077	-0.05840729070623545
-0.4715723992187577	-0.03154998930352026
-0.4715113640625077	-0.004612324146972445
-0.4714503289062577	0.02233084811011707
-0.4713892937500077	0.049204178382218106
-0.4713282585937577	0.07593217805411463
-0.4712672234375077	0.10244054785800008
-0.4712061882812577	0.12865534578849946
-0.4711451531250077	0.15450250643288532
-0.4710841179687577	0.17991005526218454
-0.4710230828125077	0.20480744195935882
-0.4709620476562577	0.22912418264354867
-0.4709010125000077	0.2527923435182143
-0.4708399773437577	0.2757462011910554
-0.4707789421875077	0.29792093552546633
-0.4707179070312577	0.3192544032867447
-0.4706568718750077	0.3396871292139688
-0.4705958367187577	0.3591618802122835
-0.4705348015625077	0.37762379797011547
-0.4704737664062577	0.39502122582111704
-0.4704127312500077	0.4113056699581906
-0.4703516960937577	0.42643114077584776
-0.4702906609375077	0.44035540532593903
-0.4702296257812577	0.45303954764455523
-0.4701685906250077	0.4644477817743415
-0.4701075554687577	0.47454834031677234
-0.4700465203125077	0.4833129154452825
-0.4699854851562577	0.49071688488830406
-0.4699244500000077	0.49673959298000886
-0.4698634148437577	0.5013642536859263
-0.4698023796875077	0.5045780062742522
-0.4697413445312577	0.5063718320332342
-0.4696803093750077	0.506740844348153
-0.4696192742187577	0.505684262923938
