Time	Frequency
-0.5000162123749874	-0.5138435038257093
-0.4999551772187374	-0.5194045234033403
-0.4998941420624874	-0.5232936755726011
-0.4998331069062374	-0.5254992412750467
-0.4997720717499874	-0.526014850900907
-0.4997110365937374	-0.5248397839591841
-0.4996500014374874	-0.5219788198898584
-0.4995889662812374	-0.5174420973481203
-0.4995279311249874	-0.5112453454665176
-0.4994668959687374	-0.5034097116371818
-0.4994058608124874	-0.4939615370112422
-0.4993448256562374	-0.48293259920862336
-0.4992837904999874	-0.47035982917238633
-0.4992227553437374	-0.4562849696294732
-0.4991617201874874	-0.4407548648628004
-0.4991006850312374	-0.42382118944972014
-0.4990396498749874	-0.4055399983914984
-0.4989786147187374	-0.3859717596740997
-0.4989175795624874	-0.36518122741238285
-0.4988565444062374	-0.3432373407169989
-0.4987955092499874	-0.32021245114782865
-0.4987344740937374	-0.29618225984849567
-0.4986734389374874	-0.27122666854164945
-0.4986124037812374	-0.2454280639267217
-0.4985513686249874	-0.21887072290726556
-0.4984903334687374	-0.19164267144200703
-0.4984292983124874	-0.16383439947893974
-0.4983682631562374	-0.13553672606158162
-0.4983072279999874	-0.10684260171977245
-0.4982461928437374	-0.07784761997319921
-0.4981851576874874	-0.048647013624666606
-0.4981241225312374	-0.019336325846404157
-0.4980630873749874	0.009987205853255148
-0.4980020522187374	0.039226836366442405
-0.4979410170624874	0.06828678176510902
-0.4978799819062374	0.09707118288416307
-0.4978189467499874	0.12548484633243204
-0.4977579115937374	0.15343429404732217
-0.4976968764374874	0.18082767715737777
-0.4976358412812374	0.20757468181596503
-0.4975748061249874	0.23358697223227076
-0.4975137709687374	0.2587788567459364
-0.4974527358124874	0.2830675564401608
-0.4973917006562374	0.30637294377151975
-0.4973306654999874	0.32861804439090236
-0.4972696303437374	0.3497297678076847
-0.4972085951874874	0.3696385387939998
-0.4971475600312374	0.38827848445404706
-0.4970865248749874	0.4055884343400469
-0.4970254897187374	0.421511381609533
-0.4969644545624874	0.4359945847735663
-0.4969034194062374	0.4489904860146685
-0.4968423842499874	0.46045627497999836
-0.4967813490937374	0.47035414465994474
-0.4967203139374874	0.47865147536730884
-0.4966592787812374	0.4853209049874642
-0.4965982436249874	0.490340631343951
-0.4965372084687374	0.4936940500452069
-0.4964761733124874	0.49537014552380193
-0.4964151381562374	0.4953636008161495
-0.4963541029999874	0.4936744187910233
-0.4962930678437374	0.49030829943009
-0.4962320326874874	0.4852765771555715
-0.4961709975312374	0.4785958592542668
-0.4961099623749874	0.47028841037625874
-0.4960489272187374	0.46038191701531017
-0.4959878920624874	0.4489091276779544
-0.4959268569062374	0.4359082546013054
-0.4958658217499874	0.42142242334914964
-0.4958047865937374	0.4054996740786729
-0.4957437514374874	0.38819309999643964
-0.4956827162812374	0.3695598934495114
-0.4956216811249874	0.34966204454313454
-0.4955606459687374	0.32856587525194064
-0.4954996108124874	0.3063411940246013
-0.4954385756562374	0.28306203409014336
-0.4953775404999874	0.25880564873871736
-0.4953165053437374	0.23365296188454354
-0.4952554701874874	0.20768765130760156
-0.4951944350312374	0.18099543062313794
-0.4951333998749874	0.15366623218768646
-0.4950723647187374	0.12579072504634212
-0.4950113295624874	0.0974608019947911
-0.4949502944062374	0.06877236136343462
-0.4948892592499874	0.039820568915886125
-0.4948282240937374	0.010701195420424378
-0.4947671889374874	-0.018487405501286226
-0.4947061537812374	-0.0476481352249161
-0.4946451186249874	-0.07668406925217426
-0.4945840834687374	-0.10549734965902792
-0.4945230483124874	-0.13399176709283359
-0.4944620131562374	-0.1620723456807951
-0.4944009779999874	-0.18964446397444504
-0.4943399428437374	-0.2166157062738815
-0.4942789076874874	-0.24289572583133026
-0.4942178725312374	-0.2683960751451064
-0.4941568373749874	-0.2930310030969197
-0.4940958022187374	-0.31671734129599444
-0.4940347670624874	-0.339375346267716
-0.4939737319062374	-0.36092857469722234
-0.4939126967499874	-0.3813037684510058
-0.4938516615937374	-0.40043186587378427
-0.4937906264374874	-0.41824817749028376
-0.4937295912812374	-0.43469173046735166
-0.4936685561249874	-0.4497059965509799
-0.4936075209687374	-0.46323996230820513
-0.4935464858124874	-0.4752468581671018
-0.4934854506562374	-0.48568459201240266
-0.4934244154999874	-0.4945169999683663
-0.4933633803437374	-0.5017129489423543
-0.4933023451874874	-0.5072464004919249
-0.4932413100312374	-0.511097026403017
-0.4931802748749874	-0.5132500925340264
-0.4931192397187374	-0.5136964024732238
-0.4930582045624874	-0.5124323668132323
-0.4929971694062374	-0.5094600636628938
-0.4929361342499874	-0.5047872285751983
-0.4928750990937374	-0.49842727526504277
-0.4928140639374874	-0.49039915466033096
-0.4927530287812374	-0.48072726193985804
-0.4926919936249874	-0.4694415765867312
-0.4926309584687374	-0.4565774686498344
-0.4925699233124874	-0.4421753921891033
-0.4925088881562374	-0.42628091749078234
-0.4924478529999874	-0.40894476853184386
-0.4923868178437374	-0.39022235637144265
-0.4923257826874874	-0.37017361085486694
-0.4922647475312374	-0.3488631248457691
-0.4922037123749874	-0.32635947265451076
-0.4921426772187374	-0.3027352437216646
-0.4920816420624874	-0.278067108313403
-0.4920206069062374	-0.2524348903523191
-0.4919595717499874	-0.22592157707826413
-0.4918985365937374	-0.19861353319422076
-0.4918375014374874	-0.17059962116178237
-0.4917764662812374	-0.14197081387440594
-0.4917154311249874	-0.11282079406705589
-0.4916543959687374	-0.08324454845255738
-0.4915933608124874	-0.053338264588989104
-0.4915323256562374	-0.02320046628607979
-0.4914712904999874	0.00707046719605406
-0.4914102553437374	0.037376105689573245
-0.4913492201874874	0.06761640004174141
-0.4912881850312374	0.0976919796711654
-0.4912271498749874	0.12750490895101516
-0.4911661147187374	0.15695714436912372
-0.4911050795624874	0.1859512362019299
-0.4910440444062374	0.2143922497514912
-0.4909830092499874	0.24218699475123315
-0.4909219740937374	0.2692433715708616
-0.4908609389374874	0.2954720786766077
-0.4907999037812374	0.32078719953209134
-0.4907388686249874	0.3451050732194809
-0.4906778334687374	0.368344731857448
-0.4906167983124874	0.39042984156799143
-0.4905557631562374	0.411287633970758
-0.4904947279999874	0.4308482969528152
-0.4904336928437374	0.4490472346326505
-0.4903726576874874	0.46582431803785634
-0.4903116225312374	0.4811233482779611
-0.4902505873749874	0.494893500782525
-0.4901895522187374	0.5070888880009684
-0.4901285170624874	0.517668609730299
-0.4900674819062374	0.5265972222667603
-0.4900064467499874	0.5338445340094137
-0.4899454115937374	0.5393859796804191
-0.4898843764374874	0.5432026479848329
-0.4898233412812374	0.5452811264610572
-0.4897623061249874	0.5456137987158604
-0.4897012709687374	0.5441988315465542
-0.4896402358124874	0.5410400662979898
-0.4895792006562374	0.5361471281322941
-0.4895181654999874	0.5295353067936629
-0.4894571303437374	0.5212255948415637
-0.4893960951874874	0.5112446366248824
-0.4893350600312374	0.49962438278059296
-0.4892740248749874	0.4864023797367948
-0.4892129897187374	0.4716215428743338
-0.4891519545624874	0.45532957043062344
-0.4890909194062374	0.43757946342335124
-0.4890298842499874	0.41842907250795763
-0.4889688490937374	0.3979405667860502
-0.4889078139374874	0.37618088630762575
-0.4888467787812374	0.3532209220312679
-0.4887857436249874	0.3291355641885324
-0.4887247084687374	0.30400385585796796
-0.4886636733124874	0.2779076396341651
-0.4886026381562374	0.2509320699634137
-0.4885416029999874	0.2231659518374041
-0.4884805678437374	0.19470005836211685
-0.4884195326874874	0.16562719215345037
-0.4883584975312374	0.13604290730192228
-0.4882974623749874	0.10604433683576425
-0.4882364272187374	0.07572948095924477
-0.4881753920624874	0.0451977496542315
-0.4881143569062374	0.014549559833831079
-0.4880533217499874	-0.016114882102622807
-0.4879922865937374	-0.04669497739292517
-0.4879312514374874	-0.07709004203950838
-0.4878702162812374	-0.10720085566788565
-0.4878091811249874	-0.13692847325316573
-0.4877481459687374	-0.16617502460920497
-0.4876871108124874	-0.1948450806473505
-0.4876260756562374	-0.22284430362541802
-0.4875650404999874	-0.2500807949491687
-0.4875040053437374	-0.27646563028642257
-0.4874429701874874	-0.3019118636362981
-0.4873819350312374	-0.32633616803578963
-0.4873208998749874	-0.34965890969737445
-0.4872598647187374	-0.37180334210237326
-0.4871988295624874	-0.39269696252341185
-0.4871377944062374	-0.4122717999257551
-0.4870767592499874	-0.4304636477666183
-0.4870157240937374	-0.4472130557449016
-0.4869546889374874	-0.4624657214577511
-0.4868936537812374	-0.47617182163478
-0.4868326186249874	-0.4882868487168353
-0.4867715834687374	-0.49877180318213865
-0.4867105483124874	-0.5075927174361244
-0.4866495131562374	-0.5147213019051774
-0.4865884779999874	-0.5201350700074069
-0.4865274428437374	-0.5238170090902027
-0.4864664076874874	-0.5257558758688751
-0.4864053725312374	-0.5259463568762311
-0.4863443373749874	-0.524388867911603
-0.4862833022187374	-0.5210896434420274
-0.4862222670624874	-0.5160607037788572
-0.4861612319062374	-0.5093198687114969
-0.4861001967499874	-0.5008907245111608
-0.4860391615937374	-0.4908021720871939
-0.4859781264374874	-0.4790890008333386
-0.4859170912812374	-0.4657914968209699
-0.4858560561249874	-0.4509545576547988
-0.4857950209687374	-0.43462884599978047
-0.4857339858124874	-0.41687007883246396
-0.4856729506562374	-0.39773812996068214
-0.4856119154999874	-0.3772979088768076
-0.4855508803437374	-0.35561864301163637
-0.4854898451874874	-0.33277361924453686
-0.4854288100312374	-0.30884009576043475
-0.4853677748749874	-0.28389879721742495
-0.4853067397187374	-0.2580341064748835
-0.4852457045624874	-0.231333162309008
-0.4851846694062374	-0.20388602213979484
-0.4851236342499874	-0.17578572852984403
-0.4850625990937374	-0.14712663599402626
-0.4850015639374874	-0.11800518339041109
-0.4849405287812374	-0.08852029497814581
-0.4848794936249874	-0.05877112936707212
-0.4848184584687374	-0.02885746334355432
-0.4847574233124874	0.0011191078086178518
-0.4846963881562374	0.031057471390788238
-0.4846353529999874	0.06085741061006491
-0.4845743178437374	0.0904177405897124
-0.4845132826874874	0.11963851924575396
-0.4844522475312374	0.14842201655467546
-0.4843912123749874	0.17667048492482068
-0.4843301772187374	0.2042882289328417
-0.4842691420624874	0.23118294861966168
-0.4842081069062374	0.25726327894192136
-0.4841470717499874	0.28244055323922995
-0.4840860365937374	0.3066306052943851
-0.4840250014374874	0.3297514720516993
-0.4839639662812374	0.35172431024463446
-0.4839029311249874	0.37247514174596363
-0.4838418959687374	0.3919339262769094
-0.4837808608124874	0.4100344891437557
-0.4837198256562374	0.4267151990321937
-0.4836587904999874	0.4419196623488365
-0.4835977553437374	0.45559635611837124
-0.4835367201874874	0.46769842439328024
-0.4834756850312374	0.4781846579299697
-0.4834146498749874	0.48701932497444866
-0.4833536147187374	0.49417205220645216
-0.4832925795624874	0.49961822208033035
-0.4832315444062374	0.5033389263827918
-0.4831705092499874	0.5053210540689557
-0.4831094740937374	0.5055573884821088
-0.4830484389374874	0.5040465459130975
-0.4829874037812374	0.5007930065292397
-0.4829263686249874	0.49580722863256493
-0.4828653334687374	0.4891054263546021
-0.4828042983124874	0.4807095541042959
-0.4827432631562374	0.4706474205686979
-0.4826822279999874	0.45895238704487645
-0.4826211928437374	0.44566328301336355
-0.4825601576874874	0.4308244155498576
-0.4824991225312374	0.414485363905468
-0.4824380873749874	0.39670061831854975
-0.4823770522187374	0.37752968479738697
-0.4823160170624874	0.3570369048510067
-0.4822549819062374	0.33529081908787595
-0.4821939467499874	0.31236443279480686
-0.4821329115937374	0.2883347420521301
-0.4820718764374874	0.26328241234541666
-0.4820108412812374	0.2372917838667443
-0.4819498061249874	0.21045015593344463
-0.4818887709687374	0.1828479933936458
-0.4818277358124874	0.154578240229695
-0.4817667006562374	0.12573610306751898
-0.4817056654999874	0.09641909190633854
-0.4816446303437374	0.06672572117209291
-0.4815835951874874	0.03675654535550292
-0.4815225600312374	0.00661316866066854
-0.4814615248749874	-0.023603400170195993
-0.4814004897187374	-0.05379041677261191
-0.4813394545624874	-0.08384521748459986
-0.4812784194062374	-0.11366686888721103
-0.4812173842499874	-0.1431538106991815
-0.4811563490937374	-0.17220586504522292
-0.4810953139374874	-0.20072493786376217
-0.4810342787812374	-0.22861337494815084
-0.4809732436249874	-0.25577655785551073
-0.4809122084687374	-0.2821226247200213
-0.4808511733124874	-0.3075609233536716
-0.4807901381562374	-0.3320047160178979
-0.4807291029999874	-0.35537099991763565
-0.4806680678437374	-0.37757945194227877
-0.4806070326874874	-0.3985538743526006
-0.4805459975312374	-0.4182222872627208
-0.4804849623749874	-0.43651707715807014
-0.4804239272187374	-0.45337513904755794
-0.4803628920624874	-0.46873789193789217
-0.4803018569062374	-0.48255213505412553
-0.4802408217499874	-0.494769790773137
-0.4801797865937374	-0.5053477904588114
-0.4801187514374874	-0.5142487651171235
-0.4800577162812374	-0.5214410946711775
-0.4799966811249874	-0.5268986702037946
-0.4799356459687374	-0.5306011336105199
-0.4798746108124874	-0.5325342350510514
-0.4798135756562374	-0.5326895767707704
-0.4797525404999874	-0.531064615936282
-0.4796915053437374	-0.5276629167610203
-0.4796304701874874	-0.5224939786129583
-0.4795694350312374	-0.5155732118124611
-0.4795083998749874	-0.5069219919028577
-0.4794473647187374	-0.49656743190542596
-0.4793863295624874	-0.48454243426536014
-0.4793252944062374	-0.47088557115858143
-0.4792642592499874	-0.4556408175021698
-0.4792032240937374	-0.4388576850064811
-0.4791421889374874	-0.42059061662285524
-0.4790811537812374	-0.40089922732456107
-0.4790201186249874	-0.3798483263808846
-0.4789590834687374	-0.35750649798221756
-0.4788980483124874	-0.3339471413213473
-0.4788370131562374	-0.30924841277663173
-0.4787759779999874	-0.28349134210689003
-0.4787149428437374	-0.2567607300528794
-0.4786539076874874	-0.22914535085143797
-0.4785928725312374	-0.20073660618451977
-0.4785318373749874	-0.17162849051626758
-0.4784708022187374	-0.1419174656450728
-0.4784097670624874	-0.11170204123461254
-0.4783487319062374	-0.08108302907750617
-0.4782876967499874	-0.05016211906928551
-0.4782266615937374	-0.019041513121237537
-0.4781656264374874	0.012174574080066246
-0.4781045912812374	0.04338186602564335
-0.4780435561249874	0.0744771115922179
-0.4779825209687374	0.1053564367349526
-0.4779214858124874	0.13591632825311933
-0.4778604506562374	0.16605510182405633
-0.4777994154999874	0.19567220462674656
-0.4777383803437374	0.22466845998683949
-0.4776773451874874	0.25294698495558654
-0.4776163100312374	0.2804130899961492
-0.4775552748749874	0.3069749464353499
-0.4774942397187374	0.33254375719586615
-0.4774332045624874	0.35703356258258767
-0.4773721694062374	0.380362402333613
-0.4773111342499874	0.40245220723995623
-0.4772500990937374	0.42322866308091167
-0.4771890639374874	0.4426221513943179
-0.4771280287812374	0.4605674573508836
-0.4770669936249874	0.477004228201713
-0.4770059584687374	0.4918774624829862
-0.4769449233124874	0.5051368368350767
-0.4768838881562374	0.516737627002503
-0.4768228529999874	0.526641023845563
-0.4767618178437374	0.5348134019150856
-0.4767007826874874	0.5412270645526862
-0.4766397475312374	0.5458603881356969
-0.4765787123749874	0.5486975223780621
-0.4765176772187374	0.5497287120579232
-0.4764566420624874	0.5489502589825417
-0.4763956069062374	0.546364527357167
-0.4763345717499874	0.5419799460712306
-0.4762735365937374	0.5358110078356991
-0.4762125014374874	0.5278781787681047
-0.4761514662812374	0.5182078338795824
-0.4760904311249874	0.5068323285567471
-0.4760293959687374	0.4937895004539936
-0.4759683608124874	0.4791229889324875
-0.4759073256562374	0.4628820399595372
-0.4758462904999874	0.44512067762968205
-0.4757852553437374	0.42589865909415486
-0.4757242201874874	0.4052804838226964
-0.4756631850312374	0.38333482852778994
-0.4756021498749874	0.36013575380732454
-0.4755411147187374	0.33576105363122694
-0.4754800795624874	0.31029216091817713
-0.4754190444062374	0.2838149602774241
-0.4753580092499874	0.25641829531414057
-0.4752969740937374	0.22819400343436227
-0.4752359389374874	0.1992371490705341
-0.4751749037812374	0.1696448796802522
-0.4751138686249874	0.1395166404328048
-0.4750528334687374	0.10895394153778844
-0.4749917983124874	0.07805923206989629
-0.4749307631562374	0.04693659503680463
-0.4748697279999874	0.01569086942320919
-0.4748086928437374	-0.015573403632729636
-0.4747476576874874	-0.04675060104658286
-0.4746866225312374	-0.07773552404214237
-0.4746255873749874	-0.10842469449001467
-0.4745645522187374	-0.1387145651991067
-0.4745035170624874	-0.16850267688074114
-0.4744424819062374	-0.19768939425490115
-0.4743814467499874	-0.2261765185577382
-0.4743204115937374	-0.2538676051683847
-0.4742593764374874	-0.28066992958004305
-0.4741983412812374	-0.3064935243053966
-0.4741373061249874	-0.3312507524902394
-0.4740762709687374	-0.3548587448945607
-0.4740152358124874	-0.3772386346904809
-0.4739542006562374	-0.39831424906482626
-0.4738931654999874	-0.4180148982559398
-0.4738321303437374	-0.43627518005552873
-0.4737710951874874	-0.45303307998532377
-0.4737100600312374	-0.4682321640788794
-0.4736490248749874	-0.4818221201134037
-0.4735879897187374	-0.4937571866475184
-0.4735269545624874	-0.5039972246006936
-0.4734659194062374	-0.5125083724642623
-0.4734048842499874	-0.5192622523897722
-0.4733438490937374	-0.5242364454957806
-0.4732828139374874	-0.5274147833612861
-0.4732217787812374	-0.5287869881568619
-0.4731607436249874	-0.5283489759569902
-0.4730997084687374	-0.5261028986601614
-0.4730386733124874	-0.5220569013313312
-0.4729776381562374	-0.5162253226508854
-0.4729166029999874	-0.5086286730871115
-0.4728555678437374	-0.4992932395552414
-0.4727945326874874	-0.4882512660726112
-0.4727334975312374	-0.47554117443645233
-0.4726724623749874	-0.461206631253672
-0.4726114272187374	-0.4452966657850717
-0.4725503920624874	-0.4278664748988159
-0.4724893569062374	-0.4089758534517748
-0.4724283217499874	-0.38868921584379007
-0.4723672865937374	-0.3670767792066399
-0.4723062514374874	-0.344212580828547
-0.4722452162812374	-0.3201745408288782
-0.4721841811249874	-0.2950457707230794
-0.4721231459687374	-0.26891234746731535
-0.4720621108124874	-0.24186332245489522
-0.4720010756562374	-0.21399209942824843
-0.4719400404999874	-0.18539419901055798
-0.4718790053437374	-0.15616712414709114
-0.4718179701874874	-0.12641161867560607
-0.4717569350312374	-0.09622995710835454
-0.4716958998749874	-0.06572516100057504
-0.4716348647187374	-0.03500186445238021
-0.4715738295624874	-0.004166045134044667
-0.4715127944062374	0.02667659614355548
-0.4714517592499874	0.05742064771112882
-0.4713907240937374	0.08796013909027363
-0.4713296889374874	0.11818992099947077
-0.4712686537812374	0.1480064840237961
-0.4712076186249874	0.17730737390573809
-0.4711465834687374	0.20599152839349855
-0.4710855483124874	0.23396019914624472
-0.4710245131562374	0.2611174344999646
-0.4709634779999874	0.28736969638504767
-0.4709024428437374	0.3126260990536745
-0.4708414076874874	0.33679974961300246
-0.4707803725312374	0.3598075122088571
-0.4707193373749874	0.3815695233851024
-0.4706583022187374	0.40201062727193065
-0.4705972670624874	0.4210603959162304
-0.4705362319062374	0.43865235653009954
-0.4704751967499874	0.4547255733317367
-0.4704141615937374	0.46922465570326344
-0.4703531264374874	0.48209853179283857
-0.4702920912812374	0.49330216273432603
-0.4702310561249874	0.5027968578961741
-0.4701700209687374	0.5105488704650392
-0.4701089858124874	0.5165304648931801
-0.4700479506562374	0.5207205173082479
-0.4699869154999874	0.5231037236031822
-0.4699258803437374	0.5236707919325647
-0.4698648451874874	0.5224188472441826
-0.4698038100312374	0.5193512483566621
-0.4697427748749874	0.5144774525759125
-0.4696817397187374	0.5078132183465749
-0.4696207045624874	0.4993804338923497
-0.4695596694062374	0.4892068968573771
