Time	Frequency
-0.5000181774999959	-4.913037092667973e-25
-0.4999571423437459	-6.296966053002628e-25
-0.4998961071874959	-7.669675662792576e-25
-0.4998350720312459	-9.028766977253212e-25
-0.4997740368749959	-1.037195791172101e-24
-0.4997130017187459	-1.1696904663639072e-24
-0.4996519665624959	-1.3001296281595554e-24
-0.4995909314062459	-1.4282910838960485e-24
-0.4995298962499959	-1.5539531571459393e-24
-0.4994688610937459	-1.6768965061895773e-24
-0.4994078259374959	-1.796909595682963e-24
-0.4993467907812459	-1.913786220608256e-24
-0.4992857556249959	-2.027321236589218e-24
-0.4992247204687459	-2.137318696630029e-24
-0.4991636853124959	-2.2435905574192413e-24
-0.4991026501562459	-2.3459475492594103e-24
-0.4990416149999959	-2.444214784064648e-24
-0.4989805798437459	-2.5382238434605826e-24
-0.4989195446874959	-2.627804420983953e-24
-0.4988585095312459	-2.7128058826432468e-24
-0.4987974743749959	-2.7930806785172845e-24
-0.4987364392187459	-2.86848267840311e-24
-0.4986754040624959	-2.9388853703450157e-24
-0.4986143689062459	-3.0041653734537986e-24
-0.4985533337499959	-3.0642038463643417e-24
-0.4984922985937459	-3.1188982127225645e-24
-0.4984312634374959	-3.1681536024114834e-24
-0.4983702282812459	-3.211878989518144e-24
-0.4983091931249959	-3.249997630501904e-24
-0.4982481579687459	-3.2824445485859762e-24
-0.4981871228124959	-3.309157664699514e-24
-0.4981260876562459	-3.33008891839358e-24
-0.4980650524999959	-3.345202213985251e-24
-0.4980040173437459	-3.3544661995541015e-24
-0.4979429821874959	-3.35786286931201e-24
-0.4978819470312459	-3.355384840901226e-24
-0.4978209118749959	-3.347032401223707e-24
-0.4977598767187459	-3.332817547501987e-24
-0.4976988415624959	-3.312762411792117e-24
-0.4976378064062459	-3.2868985255667924e-24
-0.4975767712499959	-3.2552673924688586e-24
-0.4975157360937459	-3.217921264832887e-24
-0.4974547009374959	-3.174921906766849e-24
-0.4973936657812459	-3.126339571058508e-24
-0.4973326306249959	-3.0722563914632985e-24
-0.4972715954687459	-3.0127630055270166e-24
-0.4972105603124959	-2.947957720121546e-24
-0.4971495251562459	-2.8779510839400613e-24
-0.4970884899999959	-2.802861170759357e-24
-0.4970274548437459	-2.72281351162389e-24
-0.4969664196874959	-2.6379444070765234e-24
-0.4969053845312459	-2.548398067444706e-24
-0.4968443493749959	-2.454325853642003e-24
-0.4967833142187459	-2.355887263759934e-24
-0.4967222790624959	-2.2532502013705545e-24
-0.4966612439062459	-2.1465894248572816e-24
-0.4966002087499959	-2.036086201080079e-24
-0.4965391735937459	-1.9219294218665327e-24
-0.4964781384374959	-1.804313430517634e-24
-0.4964171032812459	-1.6834387881006354e-24
-0.4963560681249959	-1.5595136851130202e-24
-0.4962950329687459	-1.4327484354087584e-24
-0.4962339978124959	-1.3033592909558563e-24
-0.4961729626562459	-1.1715706014777208e-24
-0.4961119274999959	-1.0376060886540664e-24
-0.4960508923437459	-9.016947361124254e-25
-0.4959898571874959	-7.640715940377891e-25
-0.4959288220312459	-6.249723166837715e-25
-0.4958677868749959	-4.846353558929084e-25
-0.4958067517187459	-3.4330075227223304e-25
-0.4957457165624959	-2.0121359800643804e-25
-0.4956846814062459	-5.861849930458434e-26
-0.4956236462499959	8.424214603790342e-26
-0.4955626110937459	2.271206094891475e-25
-0.4955015759374959	3.697690025714538e-25
-0.4954405407812459	5.119433403836097e-25
-0.4953795056249959	6.533997909463765e-25
-0.4953184704687459	7.938912216635699e-25
-0.4952574353124959	9.331763973580937e-25
-0.4951964001562459	1.0710156518253088e-24
-0.4951353649999959	1.2071682746388877e-24
-0.4950743298437459	1.3414022840989435e-24
-0.4950132946874959	1.473482585916337e-24
-0.4949522595312459	1.6031794533550653e-24
-0.4948912243749959	1.73027299553151e-24
-0.4948301892187459	1.854538476384048e-24
-0.4947691540624959	1.975759957581326e-24
-0.4947081189062459	2.093730811721839e-24
-0.4946470837499959	2.2082428950929786e-24
-0.4945860485937459	2.319096903773412e-24
-0.4945250134374959	2.4261017031899774e-24
-0.4944639782812459	2.5290697396819184e-24
-0.4944029431249959	2.6278209209455964e-24
-0.4943419079687459	2.7221831822118977e-24
-0.4942808728124959	2.811992726452489e-24
-0.4942198376562459	2.8970901778171488e-24
-0.4941588024999959	2.9773267827705128e-24
-0.4940977673437459	3.0525638678301685e-24
-0.4940367321874959	3.122665852583884e-24
-0.4939756970312459	3.187510386133925e-24
-0.4939146618749959	3.2469838882296134e-24
-0.4938536267187459	3.3009789883492397e-24
-0.4937925915624959	3.349400869204597e-24
-0.4937315564062459	3.392162490207805e-24
-0.4936705212499959	3.429186861279617e-24
-0.4936094860937459	3.4604075104847385e-24
-0.4935484509374959	3.485766705270291e-24
-0.4934874157812459	3.5052177526734346e-24
-0.4934263806249959	3.518723940254482e-24
-0.4933653454687459	3.526258265294976e-24
-0.4933043103124959	3.527804456559258e-24
-0.4932432751562459	3.52335678421987e-24
-0.4931822399999959	3.5129189585301015e-24
-0.4931212048437459	3.496505555608472e-24
-0.4930601696874959	3.474142095081394e-24
-0.4929991345312459	3.445862944346014e-24
-0.4929380993749959	3.4117134094549316e-24
-0.4928770642187459	3.371749551810752e-24
-0.4928160290624959	3.326036386019191e-24
-0.4927549939062459	3.27464910857514e-24
-0.4926939587499959	3.2176734539824296e-24
-0.4926329235937459	3.1552040238694146e-24
-0.4925718884374959	3.0873448911301492e-24
-0.4925108532812459	3.0142107310379383e-24
-0.4924498181249959	2.9359231092525192e-24
-0.4923887829687459	2.8526142384998095e-24
-0.4923277478124959	2.764425929321179e-24
-0.4922667126562459	2.671504993414151e-24
-0.4922056774999959	2.5740095894032618e-24
-0.4921446423437459	2.4721052821490713e-24
-0.4920836071874959	2.3659646675658536e-24
-0.4920225720312459	2.255767289010991e-24
-0.4919615368749959	2.141699970280562e-24
-0.4919005017187459	2.023959650996072e-24
-0.4918394665624959	1.9027432317339593e-24
-0.4917784314062459	1.7782573194558392e-24
-0.4917173962499959	1.6507179755117922e-24
-0.4916563610937459	1.5203391179099756e-24
-0.4915953259374959	1.387342984597325e-24
-0.4915342907812459	1.2519591748105688e-24
-0.4914732556249959	1.1144185377589638e-24
-0.4914122204687459	9.749545764212983e-25
-0.4913511853124959	8.338061799545967e-25
-0.4912901501562459	6.912171872926522e-25
-0.4912291149999959	5.474299159959432e-25
-0.4911680798437459	4.026891479668033e-25
-0.4911070446874959	2.572467416944695e-25
-0.4910460095312459	1.1134975577954322e-25
-0.4909849743749959	-3.475320088442681e-26
-0.4909239392187459	-1.808072761392197e-25
-0.4908629040624959	-3.265649714314211e-25
-0.4908018689062459	-4.717758736647137e-25
-0.4907408337499959	-6.161884235946216e-25
-0.4906797985937459	-7.595567685000222e-25
-0.4906187634374959	-9.016334297278044e-25
-0.4905577282812459	-1.0421743423111806e-24
-0.4904966931249959	-1.1809373856834559e-24
-0.4904356579687459	-1.3176841298863848e-24
-0.4903746228124959	-1.4521804740514666e-24
-0.4903135876562459	-1.5841925932539417e-24
-0.4902525524999959	-1.7134939845251307e-24
-0.4901915173437459	-1.839863671665991e-24
-0.4901304821874959	-1.9630820283152276e-24
-0.4900694470312459	-2.0829365100720063e-24
-0.4900084118749959	-2.199222157024665e-24
-0.4899473767187459	-2.3117377348634433e-24
-0.4898863415624959	-2.420288603319867e-24
-0.4898253064062459	-2.5246880160692115e-24
-0.4897642712499959	-2.624756287991476e-24
-0.4897032360937459	-2.720320496201183e-24
-0.4896422009374959	-2.811214627785311e-24
-0.4895811657812459	-2.8972833726021342e-24
-0.4895201306249959	-2.978378195983653e-24
-0.4894590954687459	-3.0543564839353794e-24
-0.4893980603124959	-3.125089758205605e-24
-0.4893370251562459	-3.190456115833594e-24
-0.4892759899999959	-3.2503391082696828e-24
-0.4892149548437459	-3.3046386644740607e-24
-0.4891539196874959	-3.3532609482620604e-24
-0.4890928845312459	-3.3961186940425644e-24
-0.4890318493749959	-3.4331410874555275e-24
-0.4889708142187459	-3.464263825428828e-24
-0.4889097790624959	-3.489430833533402e-24
-0.4888487439062459	-3.5086008923012425e-24
-0.4887877087499959	-3.521740637787199e-24
-0.4887266735937459	-3.528826332858891e-24
-0.4886656384374959	-3.529846853966092e-24
-0.4886046032812459	-3.524800219372056e-24
-0.4885435681249959	-3.513695459114121e-24
-0.4884825329687459	-3.496551773671164e-24
-0.4884214978124959	-3.4733990048117275e-24
-0.4883604626562459	-3.444278339041013e-24
-0.4882994274999959	-3.409239074021032e-24
-0.4882383923437459	-3.368343059906313e-24
-0.4881773571874959	-3.3216620934876504e-24
-0.4881163220312459	-3.2692756820321616e-24
-0.4880552868749959	-3.2112763161771675e-24
-0.4879942517187459	-3.1477653051321174e-24
-0.4879332165624959	-3.0788516000779905e-24
-0.4878721814062459	-3.0046561471995186e-24
-0.4878111462499959	-2.9253090732575666e-24
-0.4877501110937459	-2.8409464284003514e-24
-0.4876890759374959	-2.751716272682737e-24
-0.4876280407812459	-2.6577752131504508e-24
-0.4875670056249959	-2.5592841455110185e-24
-0.4875059704687459	-2.4564170340282482e-24
-0.4874449353124959	-2.349352936451284e-24
-0.4873839001562459	-2.2382758759386904e-24
-0.4873228649999959	-2.1233836571918024e-24
-0.4872618298437459	-2.0048744432219642e-24
-0.4872007946874959	-1.8829521220876774e-24
-0.4871397595312459	-1.7578351985096355e-24
-0.4870787243749959	-1.6297395308432341e-24
-0.4870176892187459	-1.4988841658854923e-24
-0.4869566540624959	-1.3655041794906695e-24
-0.4868956189062459	-1.2298319031619704e-24
-0.4868345837499959	-1.0920974849256901e-24
-0.4867735485937459	-9.525475015145177e-25
-0.4867125134374959	-8.114276879859656e-25
-0.4866514782812459	-6.689776230606689e-25
-0.4865904431249959	-5.254500283281915e-25
-0.4865294079687459	-3.810985298123116e-25
-0.4864683728124959	-2.361708990194243e-25
-0.4864073376562459	-9.092241177274938e-26
-0.4863463024999959	5.439139657147468e-26
-0.4862852673437459	1.995186385175109e-25
-0.4862242321874959	3.442029520355251e-25
-0.4861631970312459	4.8819255676310765e-25
-0.4861021618749959	6.312359886038773e-25
-0.4860411267187459	7.730785154107698e-25
-0.4859800915624959	9.134766928915914e-25
-0.4859190564062459	1.0521829191431258e-24
-0.4858580212499959	1.1889499165939449e-24
-0.4857969860937459	1.323543382726295e-24
-0.4857359509374959	1.4557253114846736e-24
-0.4856749157812459	1.5852609584189016e-24
-0.4856138806249959	1.7119257558807888e-24
-0.4855528454687459	1.8354978965400668e-24
-0.4854918103124959	1.9557570044271014e-24
-0.4854307751562459	2.072492763886596e-24
-0.4853697399999959	2.1855030936468216e-24
-0.4853087048437459	2.2945844910144172e-24
-0.4852476696874959	2.3995458347154296e-24
-0.4851866345312459	2.5002061527793608e-24
-0.4851255993749959	2.596383314900585e-24
-0.4850645642187459	2.687908381614211e-24
-0.4850035290624959	2.7746234661850484e-24
-0.4849424939062459	2.8563715230352925e-24
-0.4848814587499959	2.9330082868311724e-24
-0.4848204235937459	3.004401143451918e-24
-0.4847593884374959	3.0704209924254177e-24
-0.4846983532812459	3.1309508215920255e-24
-0.4846373181249959	3.185884704528121e-24
-0.4845762829687459	3.2351237920010585e-24
-0.4845152478124959	3.278580343015825e-24
-0.4844542126562459	3.3161771109213016e-24
-0.4843931774999959	3.347846620663068e-24
-0.4843321423437459	3.3735316154796704e-24
-0.4842711071874959	3.393185673800651e-24
-0.4842100720312459	3.406772992874327e-24
-0.4841490368749959	3.414267944868529e-24
-0.4840880017187459	3.4156560978914146e-24
-0.4840269665624959	3.410933329548915e-24
-0.4839659314062459	3.400106438650189e-24
-0.4839048962499959	3.383193304738931e-24
-0.4838438610937459	3.360221448480379e-24
-0.4837828259374959	3.331230064912485e-24
-0.4837217907812459	3.296269016717068e-24
-0.4836607556249959	3.2553973194794563e-24
-0.4835997204687459	3.2086859164971304e-24
-0.4835386853124959	3.1562156427827577e-24
-0.4834776501562459	3.0980764466172205e-24
-0.4834166149999959	3.0343698660956672e-24
-0.4833555798437459	2.965206452485632e-24
-0.4832945446874959	2.8907057507217007e-24
-0.4832335095312459	2.810998131550147e-24
-0.4831724743749959	2.7262223466908997e-24
-0.4831114392187459	2.6365259872650463e-24
-0.4830504040624959	2.542065630793641e-24
-0.4829893689062459	2.4430063501492478e-24
-0.4829283337499959	2.3395220261341046e-24
-0.4828672985937459	2.2317917328096342e-24
-0.4828062634374959	2.120005755069651e-24
-0.4827452282812459	2.0043606604529062e-24
-0.4826841931249959	1.8850552944512806e-24
-0.4826231579687459	1.7623028061507886e-24
-0.4825621228124959	1.6363178787239163e-24
-0.4825010876562459	1.5073186146902263e-24
-0.4824400524999959	1.3755353996522504e-24
-0.4823790173437459	1.241197740883647e-24
-0.4823179821874959	1.1045410798067338e-24
-0.4822569470312459	9.65808523658974e-25
-0.4821959118749959	8.252413139906646e-25
-0.4821348767187459	6.830869061055576e-25
-0.4820738415624959	5.395988430850017e-25
-0.4820128064062459	3.950270882858537e-25
-0.4819517712499959	2.496256942469183e-25
-0.4818907360937459	1.0365405162652165e-25
-0.4818297009374959	-4.2631761800096515e-26
-0.4817686657812459	-1.8897433365581622e-25
-0.4817076306249959	-3.3511385945987154e-25
-0.4816465954687459	-4.807929844389064e-25
-0.4815855603124959	-6.257537647761753e-25
-0.4815245251562459	-7.697390750321968e-25
-0.4814634899999959	-9.124962125586142e-25
-0.4814024548437459	-1.0537702381241417e-24
-0.4813414196874959	-1.1933105512912282e-24
-0.4812803845312459	-1.3308734743303672e-24
-0.4812193493749959	-1.4662101889186542e-24
-0.4811583142187459	-1.599081363509617e-24
-0.4810972790624959	-1.729256079616555e-24
-0.4810362439062459	-1.8564964886166096e-24
-0.4809752087499959	-1.9805769844515745e-24
-0.4809141735937459	-2.1012816614211446e-24
-0.4808531384374959	-2.218391508742992e-24
-0.4807921032812459	-2.331696188708239e-24
-0.4807310681249959	-2.4409965490585156e-24
-0.4806700329687459	-2.5460979493579954e-24
-0.4806089978124959	-2.6468082178128774e-24
-0.4805479626562459	-2.7429488303478982e-24
-0.4804869274999959	-2.834350743341345e-24
-0.4804258923437459	-2.9208444589455797e-24
-0.4803648571874959	-3.0022754220751872e-24
-0.4803038220312459	-3.0785009902305076e-24
-0.4802427868749959	-3.1493787776971914e-24
-0.4801817517187459	-3.214780364062435e-24
-0.4801207165624959	-3.274590933469477e-24
-0.4800596814062459	-3.32869818867726e-24
-0.4799986462499959	-3.377002521487069e-24
-0.4799376110937459	-3.419417562196399e-24
-0.4798765759374959	-3.455863371000367e-24
-0.4798155407812459	-3.486271356065649e-24
-0.4797545056249959	-3.510584562711496e-24
-0.4796934704687459	-3.5287563947016726e-24
-0.4796324353124959	-3.5407505545338276e-24
-0.4795714001562459	-3.546541502234748e-24
-0.4795103649999959	-3.5461154035873436e-24
-0.4794493298437459	-3.539469025768682e-24
-0.4793882946874959	-3.52660976262482e-24
-0.4793272595312459	-3.507555912211457e-24
-0.4792662243749959	-3.482337469537531e-24
-0.4792051892187459	-3.4509948959792955e-24
-0.4791441540624959	-3.413578523787124e-24
-0.4790831189062459	-3.3701509836257694e-24
-0.4790220837499959	-3.3207849408188674e-24
-0.4789610485937459	-3.2655625595367105e-24
-0.4789000134374959	-3.2045779168109227e-24
-0.4788389782812459	-3.1379346237216082e-24
-0.4787779431249959	-3.0657455985126745e-24
-0.4787169079687459	-2.9881350400425408e-24
-0.4786558728124959	-2.9052355789145295e-24
-0.4785948376562459	-2.817189396606992e-24
-0.4785338024999959	-2.7241491707385022e-24
-0.4784727673437459	-2.626273680232638e-24
-0.4784117321874959	-2.5237327861412477e-24
-0.4783506970312459	-2.4167052343739187e-24
-0.4782896618749959	-2.3053735182642916e-24
-0.4782286267187459	-2.1899324910156377e-24
-0.4781675915624959	-2.0705831977067886e-24
-0.4781065564062459	-1.9475304961853644e-24
-0.4780455212499959	-1.820991003970137e-24
-0.4779844860937459	-1.69118415727096e-24
-0.4779234509374959	-1.558333656267658e-24
-0.4778624157812459	-1.4226750942087989e-24
-0.4778013806249959	-1.2844442193205089e-24
-0.4777403454687459	-1.143877759635989e-24
-0.4776793103124959	-1.0012269784276018e-24
-0.4776182751562459	-8.567410429426434e-25
-0.4775572399999959	-7.106665667046763e-25
-0.4774962048437459	-5.632651688169639e-25
-0.4774351696874959	-4.147948467765714e-25
-0.4773741345312459	-2.655108088366789e-25
-0.4773130993749959	-1.1567871502781014e-25
-0.4772520642187459	3.4437781814639674e-26
-0.4771910290624959	1.8457936616956082e-25
-0.4771299939062459	3.344804925302866e-25
-0.4770689587499959	4.838752807721315e-25
-0.4770079235937459	6.325054623559963e-25
-0.4769468884374959	7.801087205463732e-25
-0.4768858532812459	9.26422978531091e-25
-0.4768248181249959	1.0711932222282487e-24
-0.4767637829687459	1.214164804312725e-24
-0.4767027478124959	1.355084643854223e-24
-0.4766417126562459	1.4937048694256303e-24
-0.4765806774999959	1.6297818618213282e-24
-0.4765196423437459	1.7630747067401777e-24
-0.4764586071874959	1.89334931568925e-24
-0.4763975720312459	2.0203752941246452e-24
-0.4763365368749959	2.143927535446407e-24
-0.4762755017187459	2.263789497870502e-24
-0.4762144665624959	2.379748149807051e-24
-0.4761534314062459	2.49159880186369e-24
-0.4760923962499959	2.599143983076428e-24
-0.4760313610937459	2.702191824426173e-24
-0.4759703259374959	2.800562190735235e-24
-0.4759092907812459	2.89407977842425e-24
-0.4758482556249959	2.9825767239163544e-24
-0.4757872204687459	3.0658996520647667e-24
-0.4757261853124959	3.1438988207080532e-24
-0.4756651501562459	3.2164340470595306e-24
-0.4756041149999959	3.2833794410842078e-24
-0.4755430798437459	3.3446141091998644e-24
-0.4754820446874959	3.400028403131099e-24
-0.4754210095312459	3.449524771590332e-24
-0.4753599743749959	3.493013813731186e-24
-0.4752989392187459	3.5304180966203276e-24
-0.4752379040624959	3.5616702756076496e-24
-0.4751768689062459	3.586713577629446e-24
-0.4751158337499959	3.605503653205391e-24
-0.4750547985937459	3.6180054145207664e-24
-0.4749937634374959	3.6241954429760144e-24
-0.4749327282812459	3.624062444566433e-24
-0.4748716931249959	3.617604911045389e-24
-0.4748106579687459	3.604833260493222e-24
-0.4747496228124959	3.585769214499431e-24
-0.4746885876562459	3.560444803800903e-24
-0.4746275524999959	3.528904294448283e-24
-0.4745665173437459	3.491202481006389e-24
-0.4745054821874959	3.447403849957651e-24
-0.4744444470312459	3.397586224667905e-24
-0.4743834118749959	3.341836659223136e-24
-0.4743223767187459	3.280251046942192e-24
-0.4742613415624959	3.2129393838553113e-24
-0.4742003064062459	3.1400198296160933e-24
-0.4741392712499959	3.0616188421336035e-24
-0.4740782360937459	2.9778751937039358e-24
-0.4740172009374959	2.888937776989935e-24
-0.4739561657812459	2.794961747345222e-24
-0.4738951306249959	2.6961111594451148e-24
-0.4738340954687459	2.5925646478374176e-24
-0.4737730603124959	2.4845024264875906e-24
-0.4737120251562459	2.372112597024598e-24
-0.4736509899999959	2.255599954464533e-24
-0.4735899548437459	2.135166114841434e-24
-0.4735289196874959	2.01102253327182e-24
-0.4734678845312459	1.8833945073470092e-24
-0.4734068493749959	1.7525028552294243e-24
-0.4733458142187459	1.6185801128188687e-24
-0.4732847790624959	1.4818662191404486e-24
-0.4732237439062459	1.3425997379554167e-24
-0.4731627087499959	1.2010299016241571e-24
-0.4731016735937459	1.0574065550145962e-24
-0.4730406384374959	9.119841340937554e-25
-0.4729796032812459	7.650223366898264e-25
-0.4729185681249959	6.167793761889867e-25
-0.4728575329687459	4.675202169091814e-25
-0.4727964978124959	3.1750877761310827e-25
-0.4727354626562459	1.6701235382361067e-25
-0.4726744274999959	1.6298768461288235e-26
-0.4726133923437459	-1.3436796293842566e-25
-0.4725523571874959	-2.8471493830011662e-25
-0.4724913220312459	-4.344757047106392e-25
-0.4724302868749959	-5.833891677493702e-25
-0.4723692517187459	-7.311844538057568e-25
-0.4723082165624959	-8.775990017782128e-25
-0.4722471814062459	-1.02237691088816e-24
-0.4721861462499959	-1.1652558998359486e-24
-0.4721251110937459	-1.3059825176546225e-24
-0.4720640759374959	-1.4443072172359618e-24
-0.4720030407812459	-1.5799819885316694e-24
-0.4719420056249959	-1.7127671310233756e-24
-0.4718809704687459	-1.8424226622456546e-24
-0.4718199353124959	-1.968719333911593e-24
-0.4717589001562459	-2.0914338331426955e-24
-0.4716978649999959	-2.2103417054478267e-24
