Time	Frequency
-0.5000081060312596	1.4063265337874157e-24
-0.49994707087500956	1.470741582122884e-24
-0.49988603571875956	1.5305547371800676e-24
-0.49982500056250956	1.5855805577922485e-24
-0.49976396540625956	1.6356473067071375e-24
-0.49970293025000956	1.6805976485688693e-24
-0.49964189509375956	1.7202918671897912e-24
-0.49958085993750956	1.7546067314492765e-24
-0.49951982478125956	1.7834347923386762e-24
-0.49945878962500956	1.80668620623775e-24
-0.49939775446875956	1.824289494531136e-24
-0.49933671931250956	1.8361900136602722e-24
-0.49927568415625956	1.842351016486869e-24
-0.49921464900000956	1.8427543035893408e-24
-0.49915361384375956	1.8373996143624135e-24
-0.49909257868750956	1.8263048348667706e-24
-0.49903154353125956	1.8095053752152022e-24
-0.49897050837500956	1.787055257514583e-24
-0.49890947321875956	1.7590267078362893e-24
-0.49884843806250956	1.7255079474618437e-24
-0.49878740290625956	1.686605548503695e-24
-0.49872636775000956	1.6424440316898885e-24
-0.49866533259375956	1.5931622923309355e-24
-0.49860429743750956	1.5389165333074134e-24
-0.49854326228125956	1.479879732761036e-24
-0.49848222712500956	1.4162375445019126e-24
-0.49842119196875956	1.3481916228440564e-24
-0.49836015681250956	1.2759587544323885e-24
-0.49829912165625956	1.1997662428793592e-24
-0.49823808650000956	1.1198548676522367e-24
-0.49817705134375956	1.0364790238126071e-24
-0.49811601618750956	9.499019793354587e-25
-0.49805498103125956	8.603970700126917e-25
-0.49799394587500956	7.682485431267593e-25
-0.49793291071875956	6.737476665327173e-25
-0.49787187556250956	5.771933138797868e-25
-0.49781084040625956	4.788918687033846e-25
-0.49774980525000956	3.791539760052573e-25
-0.49768877009375956	2.7829526564828484e-25
-0.49762773493750956	1.7663572107282569e-25
-0.49756669978125956	7.449706812487868e-26
-0.49750566462500956	-2.779759699553187e-26
-0.49744462946875956	-1.2992398047790238e-25
-0.49738359431250956	-2.3155818330228948e-25
-0.49732255915625956	-3.323786369220855e-25
-0.49726152400000956	-4.32066171560051e-25
-0.49720048884375956	-5.303042113365027e-25
-0.49713945368750956	-6.267812574310154e-25
-0.49707841853125956	-7.211923666755987e-25
-0.49701738337500956	-8.132379555740008e-25
-0.49695634821875956	-9.026250927813885e-25
-0.49689531306250956	-9.890713755452632e-25
-0.49683427790625956	-1.0723029464308592e-24
-0.49677324275000956	-1.1520543841373362e-24
-0.49671220759375956	-1.2280735995996698e-24
-0.49665117243750956	-1.3001194884381506e-24
-0.49659013728125956	-1.3679624803563294e-24
-0.49652910212500956	-1.431388119270167e-24
-0.49646806696875956	-1.4901945825606634e-24
-0.49640703181250956	-1.5441948696835812e-24
-0.49634599665625956	-1.5932181725376987e-24
-0.49628496150000956	-1.6371080622917293e-24
-0.49622392634375956	-1.6757251669275476e-24
-0.49616289118750956	-1.7089472644533554e-24
-0.49610185603125956	-1.7366680996431745e-24
-0.49604082087500956	-1.7587994920709354e-24
-0.49597978571875956	-1.775271694082805e-24
-0.49591875056250956	-1.78603183914493e-24
-0.49585771540625956	-1.7910452741261287e-24
-0.49579668025000956	-1.7902965723926917e-24
-0.49573564509375956	-1.783787985897301e-24
-0.49567460993750956	-1.7715397891682154e-24
-0.49561357478125956	-1.7535911208305446e-24
-0.49555253962500956	-1.7299991769046264e-24
-0.49549150446875956	-1.7008387609101276e-24
-0.49543046931250956	-1.666202599172859e-24
-0.49536943415625956	-1.6262012211687975e-24
-0.49530839900000956	-1.580962025074561e-24
-0.49524736384375956	-1.5306286768953267e-24
-0.49518632868750956	-1.4753615709819708e-24
-0.49512529353125956	-1.415337448796566e-24
-0.49506425837500956	-1.3507473988686618e-24
-0.49500322321875956	-1.2817963350202926e-24
-0.49494218806250956	-1.2087053208214967e-24
-0.49488115290625956	-1.1317081748811424e-24
-0.49482011775000956	-1.051048406837737e-24
-0.49475908259375956	-9.669847790067006e-25
-0.49469804743750956	-8.797866796793725e-25
-0.49463701228125956	-7.89730527541271e-25
-0.49457597712500956	-6.971052843199848e-25
-0.49451494196875956	-6.02207485912514e-25
-0.49445390681250956	-5.053389028475434e-25
-0.49439287165625956	-4.0681009590230536e-25
-0.49433183650000956	-3.069374126442954e-25
-0.49427080134375956	-2.060390077571004e-25
-0.49420976618750956	-1.0443763942459954e-25
-0.49414873103125956	-2.4602253822624e-27
-0.49408769587500956	9.956739952307915e-26
-0.49402666071875956	2.013183237266744e-25
-0.49396562556250956	3.024656095563563e-25
-0.49390459040625956	4.0268564368002985e-25
-0.49384355525000956	5.016559924317434e-25
-0.49378252009375956	5.9905814978838485e-25
-0.49372148493750956	6.945809074319473e-25
-0.49366044978125956	7.879162808436664e-25
-0.49359941462500956	8.787623864765328e-25
-0.49353837946875956	9.668287752401211e-25
-0.49347734431250956	1.0518314542067758e-24
-0.49341630915625956	1.1334948264103647e-24
-0.49335527400000956	1.2115562452335407e-24
-0.49329423884375956	1.2857634586982116e-24
-0.49323320368750956	1.3558759440483771e-24
-0.49317216853125956	1.4216670091905789e-24
-0.49311113337500956	1.482922850001305e-24
-0.49305009821875956	1.5394439450123719e-24
-0.49298906306250956	1.5910470315823006e-24
-0.49292802790625956	1.6375633356124249e-24
-0.49286699275000956	1.678839845772548e-24
-0.49280595759375956	1.7147415874754656e-24
-0.49274492243750956	1.745149754829915e-24
-0.49268388728125956	1.7699629808587103e-24
-0.49262285212500956	1.789098059621803e-24
-0.49256181696875956	1.802489583770643e-24
-0.49250078181250956	1.8100908962269916e-24
-0.49243974665625956	1.8118731965183693e-24
-0.49237871150000956	1.8078264248342298e-24
-0.49231767634375956	1.7979597236540432e-24
-0.49225664118750956	1.7822999846843093e-24
-0.49219560603125956	1.7608927251950338e-24
-0.49213457087500956	1.7338027176384763e-24
-0.49207353571875956	1.7011120721691565e-24
-0.49201250056250956	1.6629203853443225e-24
-0.49195146540625956	1.6193462375284065e-24
-0.49189043025000956	1.5705251832937328e-24
-0.49182939509375956	1.5166079771558764e-24
-0.49176835993750956	1.4577631042653642e-24
-0.49170732478125956	1.3941763762999962e-24
-0.49164628962500956	1.3260457855720231e-24
-0.49158525446875956	1.2535842377674799e-24
-0.49152421931250956	1.1770224781040908e-24
-0.49146318415625956	1.0966010480930278e-24
-0.49140214900000956	1.012571195413516e-24
-0.49134111384375956	9.252006300843739e-25
-0.49128007868750956	8.347664049567215e-25
-0.49121904353125956	7.415524666725155e-25
-0.49115800837500956	6.458544976297056e-25
-0.49109697321875956	5.479771074905102e-25
-0.49103593806250956	4.482302028035302e-25
-0.49097490290625956	3.469296626631924e-25
-0.49091386775000956	2.443981924370579e-25
-0.49085283259375956	1.4096243250528264e-25
-0.49079179743750956	3.694951701048862e-26
-0.49073076228125956	-6.730837843973957e-26
-0.49066972712500956	-1.7147776314130042e-25
-0.49060869196875956	-2.752292049237212e-25
-0.49054765681250956	-3.782300660936264e-25
-0.49048662165625956	-4.801510015542473e-25
-0.49042558650000956	-5.806692178496701e-25
-0.49036455134375956	-6.794606349163123e-25
-0.49030351618750956	-7.762092509595299e-25
-0.49024248103125956	-8.706081254095714e-25
-0.49018144587500956	-9.623529304093025e-25
-0.49012041071875956	-1.0511491545689408e-24
-0.49005937556250956	-1.1367126257891995e-24
-0.48999834040625956	-1.2187688856384419e-24
-0.48993730525000956	-1.2970543569404176e-24
-0.48987627009375956	-1.3713158620202445e-24
-0.48981523493750956	-1.4413150609065392e-24
-0.48975419978125956	-1.5068266000251395e-24
-0.48969316462500956	-1.5676380179399176e-24
-0.48963212946875956	-1.623552967572912e-24
-0.48957109431250956	-1.6743900647968977e-24
-0.48951005915625956	-1.7199843199478544e-24
-0.48944902400000956	-1.7601870642959608e-24
-0.48938798884375956	-1.7948663595041747e-24
-0.48932695368750956	-1.823908916046615e-24
-0.48926591853125956	-1.8472185886882553e-24
-0.48920488337500956	-1.8647169549808685e-24
-0.48914384821875956	-1.8763451173928904e-24
-0.48908281306250956	-1.882062571215724e-24
-0.48902177790625956	-1.8818468955808386e-24
-0.48896074275000956	-1.8756952545030234e-24
-0.48889970759375956	-1.8636240074078724e-24
-0.48883867243750956	-1.845667537453876e-24
-0.48877763728125956	-1.8218793016440794e-24
-0.48871660212500956	-1.792332032978957e-24
-0.48865556696875956	-1.7571158641003275e-24
-0.48859453181250956	-1.7163393553863226e-24
-0.48853349665625956	-1.6701297965525753e-24
-0.48847246150000956	-1.6186302142583855e-24
-0.48841142634375956	-1.5620012506130399e-24
-0.48835039118750956	-1.500421166279885e-24
-0.48828935603125956	-1.4340823094077932e-24
-0.48822832087500956	-1.3631927088804231e-24
-0.48816728571875956	-1.28797581340599e-24
-0.48810625056250956	-1.2086686128631792e-24
-0.48804521540625956	-1.1255208225921655e-24
-0.48798418025000956	-1.0387944500576544e-24
-0.48792314509375956	-9.48763564451112e-25
-0.48786210993750956	-8.557131631904615e-25
-0.48780107478125956	-7.599375844722724e-25
-0.48774003962500956	-6.61738586817461e-25
-0.48767900446875956	-5.614276874216686e-25
-0.48761796931250956	-4.593241594365011e-25
-0.48755693415625956	-3.5575014676824863e-25
-0.48749589900000956	-2.510334278255451e-25
-0.48743486384375956	-1.45507733919199e-25
-0.48737382868750956	-3.950798440928294e-26
-0.48731279353125956	6.663040189981179e-26
-0.48725175837500956	1.7257011705133175e-25
-0.48719072321875956	2.7797369100213015e-25
-0.48712968806250956	3.82506161497372e-25
-0.48706865290625956	4.858364401142031e-25
-0.48700761775000956	5.87635176379022e-25
-0.48694658259375956	6.875775005579825e-25
-0.48688554743750956	7.853472230905808e-25
-0.48682451228125956	8.806325124714914e-25
-0.48676347712500956	9.731288062586953e-25
-0.48670244196875956	1.062543604599928e-24
-0.48664140681250956	1.148591299258069e-24
-0.48658037165625956	1.2309967001816957e-24
-0.48651933650000956	1.3094992242253456e-24
-0.48645830134375956	1.3838478663130953e-24
-0.48639726618750956	1.4538050843973433e-24
-0.48633623103125956	1.5191490265444914e-24
-0.48627519587500956	1.5796709405278728e-24
-0.48621416071875956	1.6351779998511662e-24
-0.48615312556250956	1.685493233465003e-24
-0.48609209040625956	1.730456332570409e-24
-0.48603105525000956	1.7699245909734164e-24
-0.48597002009375956	1.8037715238286725e-24
-0.48590898493750956	1.8318894850332874e-24
-0.48584794978125956	1.8541898172252696e-24
-0.48578691462500956	1.8706010050590587e-24
-0.48572587946875956	1.881071006508898e-24
-0.48566484431250956	1.885567395958377e-24
-0.48560380915625956	1.8840758588046234e-24
-0.48554277400000956	1.876601687377688e-24
-0.48548173884375956	1.863169783948901e-24
-0.48542070368750956	1.843823443838094e-24
-0.48535966853125956	1.8186249861964017e-24
-0.48529863337500956	1.7876560871078366e-24
-0.48523759821875956	1.7510165106753844e-24
-0.48517656306250956	1.7088239606203107e-24
-0.48511552790625956	1.6612146654028717e-24
-0.48505449275000956	1.6083413954518063e-24
-0.48499345759375956	1.5503744891864388e-24
-0.48493242243750956	1.4875011039645714e-24
-0.48487138728125956	1.4199221257971458e-24
-0.48481035212500956	1.3478555790487916e-24
-0.48474931696875956	1.2715344063896755e-24
-0.48468828181250956	1.1912024984050062e-24
-0.48462724665625956	1.1071182712006454e-24
-0.48456621150000956	1.0195540739324718e-24
-0.48450517634375956	9.28790414040751e-25
-0.48444414118750956	8.351180836914388e-25
-0.48438310603125956	7.388407321475049e-25
-0.48432207087500956	6.402678492817324e-25
-0.48426103571875956	5.397151790492065e-25
-0.48420000056250956	4.375074258450752e-25
-0.48413896540625956	3.339739843413653e-25
-0.48407793025000956	2.2944740913740914e-25
-0.48401689509375956	1.2426453464998323e-25
-0.48395585993750956	1.8764433646066036e-26
-0.48389482478125956	-8.671396969666136e-26
-0.48383378962500956	-1.9183016025489609e-25
-0.48377275446875956	-2.962458160221763e-25
-0.48371171931250956	-3.996247477637126e-25
-0.48365068415625956	-5.01633012193319e-25
-0.48358964900000956	-6.019435668433268e-25
-0.48352861384375956	-7.002317290072842e-25
-0.48346757868750956	-7.961805522114309e-25
-0.48340654353125956	-8.894824409552414e-25
-0.48334550837500956	-9.798346702620025e-25
-0.48328447321875956	-1.0669469650909566e-24
-0.48322343806250956	-1.1505389973688592e-24
-0.48316240290625956	-1.2303395603373256e-24
-0.48310136775000956	-1.3060926895565643e-24
-0.48304033259375956	-1.3775540417794767e-24
-0.48297929743750956	-1.4444920284125735e-24
-0.48291826228125956	-1.506692059046528e-24
-0.48285722712500956	-1.5639532515757522e-24
-0.48279619196875956	-1.616089851231235e-24
-0.48273515681250956	-1.6629348500592926e-24
-0.48267412165625956	-1.704337216420553e-24
-0.48261308650000956	-1.7401627966434625e-24
-0.48255205134375956	-1.770296409474696e-24
-0.48249101618750956	-1.7946410093766016e-24
-0.48242998103125956	-1.8131183814947824e-24
-0.48236894587500956	-1.825668986386159e-24
-0.48230791071875956	-1.832252440117685e-24
-0.48224687556250956	-1.832848150221325e-24
-0.48218584040625956	-1.827454542750706e-24
-0.48212480525000956	-1.8160892433360815e-24
-0.48206377009375956	-1.798789682807525e-24
-0.48200273493750956	-1.775612377613828e-24
-0.48194169978125956	-1.7466326958512872e-24
-0.48188066462500956	-1.7119449727865017e-24
-0.48181962946875956	-1.6716619587539145e-24
-0.48175859431250956	-1.6259149976740018e-24
-0.48169755915625956	-1.5748526421478124e-24
-0.48163652400000956	-1.5186407581048422e-24
-0.48157548884375956	-1.4574624316610941e-24
-0.48151445368750956	-1.3915161558151549e-24
-0.48145341853125956	-1.3210168116294764e-24
-0.48139238337500956	-1.2461939436711878e-24
-0.48133134821875956	-1.1672899009598078e-24
-0.48127031306250956	-1.0845615786479458e-24
-0.48120927790625956	-9.98279281734723e-25
-0.48114824275000956	-9.087232591856883e-25
-0.48108720759375956	-8.1618374564824945e-25
-0.48102617243750956	-7.209628776401184e-25
-0.48096513728125956	-6.233720685820183e-25
-0.48090410212500956	-5.237276627340929e-25
-0.48084306696875956	-4.223532284171863e-25
-0.48078203181250956	-3.1958146998863477e-25
-0.48072099665625956	-2.1574720915103764e-25
-0.48065996150000956	-1.1118702515016106e-25
-0.48059892634375956	-6.2431592122864946e-27
-0.48053789118750956	9.874135901217315e-26
-0.48047685603125956	2.034243381357862e-25
-0.48041582087500956	3.0746418409707806e-25
-0.48035478571875956	4.1052157455526545e-25
-0.48029375056250956	5.122581852796748e-25
-0.48023271540625956	6.123415237167034e-25
-0.48017168025000956	7.104465408299466e-25
-0.48011064509375956	8.062494921921483e-25
-0.48004960993750956	8.99436572509075e-25
-0.47998857478125956	9.897050563042174e-25
-0.47992753962500956	1.076756373573229e-24
-0.47986650446875956	1.160305223528629e-24
-0.47980546931250956	1.2400784778286817e-24
-0.47974443415625956	1.3158125793396568e-24
-0.47968339900000956	1.3872587518955945e-24
-0.47962236384375956	1.4541816840579436e-24
-0.47956132868750956	1.5163602091757798e-24
-0.47950029353125956	1.5735892848473403e-24
-0.47943925837500956	1.6256794256333773e-24
-0.47937822321875956	1.672457231277701e-24
-0.47931718806250956	1.713767482127663e-24
-0.47925615290625956	1.749472647830981e-24
-0.47919511775000956	1.7794522431639e-24
-0.47913408259375956	1.8036052124978314e-24
-0.47907304743750956	1.8218498448986904e-24
-0.47901201228125956	1.834122586095004e-24
-0.47895097712500956	1.840379621532876e-24
-0.47888994196875956	1.840597186411869e-24
-0.47882890681250956	1.834770720584558e-24
-0.47876787165625956	1.8229152760896765e-24
-0.47870683650000956	1.805065692883594e-24
-0.47864580134375956	1.7812762515017372e-24
-0.47858476618750956	1.7516210014533293e-24
-0.47852373103125956	1.716192603981275e-24
-0.47846269587500956	1.675102095907874e-24
-0.47840166071875956	1.6284807065485739e-24
-0.47834062556250956	1.5764765530540056e-24
-0.47827959040625956	1.5192543821035196e-24
-0.47821855525000956	1.4569981339227495e-24
-0.47815752009375956	1.3899077206063813e-24
-0.47809648493750956	1.3181971390454312e-24
-0.47803544978125956	1.2420968797913983e-24
-0.47797441462500956	1.161853562246845e-24
-0.47791337946875956	1.0777244416126078e-24
-0.47785234431250956	9.89979738691131e-25
-0.47779130915625956	8.989047486307804e-25
-0.47773027400000956	8.047933567366873e-25
-0.47766923884375956	7.079485817139428e-25
-0.47760820368750956	6.086846999821519e-25
-0.47754716853125956	5.073236250049292e-25
-0.47748613337500956	4.041933668480621e-25
-0.47742509821875956	2.996283576874778e-25
-0.47736406306250956	1.9396770090194995e-25
-0.47730302790625956	8.755501137597124e-26
-0.47724199275000956	-1.9263446312377508e-26
-0.47718095759375956	-1.2614157334601121e-25
-0.47711992243750956	-2.327312233539996e-25
-0.47705888728125956	-3.386843887401295e-25
-0.47699785212500956	-4.436570516092821e-25
-0.47693681696875956	-5.473068133860816e-25
-0.47687578181250956	-6.492946149509987e-25
-0.47681474665625956	-7.492887770412081e-25
-0.47675371150000956	-8.469621931472631e-25
-0.47669267634375956	-9.419945917662868e-25
-0.47663164118750956	-1.0340764382189597e-24
-0.47657060603125956	-1.1229057575037012e-24
-0.47650957087500956	-1.2081906614397029e-24
-0.47644853571875956	-1.2896521677172987e-24
-0.47638750056250956	-1.3670225134285977e-24
-0.47632646540625956	-1.4400470505208865e-24
-0.47626543025000956	-1.508485575001391e-24
-0.47620439509375956	-1.5721123330446048e-24
-0.47614335993750956	-1.6307170133552756e-24
-0.47608232478125956	-1.6841057446608686e-24
-0.47602128962500956	-1.7321015877187143e-24
-0.47596025446875956	-1.7745444625983256e-24
-0.47589921931250956	-1.811292564588271e-24
-0.47583818415625956	-1.8422230279338563e-24
-0.47577714900000956	-1.8672312723922495e-24
-0.47571611384375956	-1.8862315662997155e-24
-0.47565507868750956	-1.899158245091366e-24
-0.47559404353125956	-1.905965602946965e-24
-0.47553300837500956	-1.906627173767166e-24
-0.47547197321875956	-1.9011364258458014e-24
-0.47541093806250956	-1.8895073436123348e-24
-0.47534990290625956	-1.8717737387788475e-24
-0.47528886775000956	-1.8479889517870084e-24
-0.47522783259375956	-1.8182262651806184e-24
-0.47516679743750956	-1.7825784697248506e-24
-0.47510576228125956	-1.7411576617230543e-24
-0.47504472712500956	-1.6940944865363773e-24
-0.47498369196875956	-1.6415377409172867e-24
-0.47492265681250956	-1.583655131604035e-24
-0.47486162165625956	-1.5206313424605354e-24
-0.47480058650000956	-1.4526668866619994e-24
-0.47473955134375956	-1.379979586288938e-24
-0.47467851618750956	-1.3028032881573454e-24
-0.47461748103125956	-1.221384787352772e-24
-0.47455644587500956	-1.1359855193388384e-24
-0.47449541071875956	-1.0468814043892946e-24
-0.47443437556250956	-9.543582630009077e-25
-0.47437334040625956	-8.587142213390964e-25
-0.47431230525000956	-7.602592092543106e-25
-0.47425127009375956	-6.593093663275585e-25
-0.47419023493750956	-5.561905464206402e-25
-0.47412919978125956	-4.512381626022839e-25
-0.47406816462500956	-3.4478995766967183e-25
-0.47400712946875956	-2.371891973717057e-25
-0.47394609431250956	-1.2878672832052795e-25
-0.47388505915625956	-1.9933258613104696e-26
-0.47382402400000956	8.902105700757254e-26
-0.47376298884375956	1.9772141806848518e-25
-0.47370195368750956	3.058131279070869e-25
-0.47364091853125956	4.1294877978612866e-25
-0.47357988337500956	5.187807327857872e-25
-0.47351884821875956	6.229620631004079e-25
-0.47345781306250956	7.2515706110031665e-25
-0.47339677790625956	8.250342221344084e-25
-0.47333574275000956	9.222663231835452e-25
-0.47327470759375956	1.0165386876705745e-24
-0.47321367243750956	1.1075456777963566e-24
-0.47315263728125956	1.1949896412125846e-24
-0.47309160212500956	1.2785859662582956e-24
-0.47303056696875956	1.3580633082802648e-24
-0.47296953181250956	1.4331624807185196e-24
-0.47290849665625956	1.5036390011419215e-24
-0.47284746150000956	1.569262661804202e-24
-0.47278642634375956	1.6298192482507298e-24
-0.47272539118750956	1.68511228768732e-24
-0.47266435603125956	1.734960902051172e-24
-0.47260332087500956	1.7792018451130868e-24
-0.47254228571875956	1.8176909130890683e-24
-0.47248125056250956	1.8503024620773647e-24
-0.47242021540625956	1.876929828989232e-24
-0.47235918025000956	1.8974856008021068e-24
