Time	Frequency
-0.5000429153750048	7.036462808650782e-25
-0.4999818802187548	8.356483843579627e-25
-0.4999208450625048	9.662662849616968e-25
-0.4998598099062548	1.0952499050732388e-24
-0.4997987747500048	1.2223581725371964e-24
-0.4997377395937548	1.3473481360171822e-24
-0.4996767044375048	1.4699817555930999e-24
-0.4996156692812548	1.5900281034537747e-24
-0.4995546341250048	1.7072574991303554e-24
-0.4994935989687548	1.8214468700895506e-24
-0.4994325638125048	1.932379065937633e-24
-0.4993715286562548	2.039842594998165e-24
-0.4993104935000048	2.1436322760789898e-24
-0.4992494583437548	2.243549408051995e-24
-0.4991884231875048	2.3394037193833933e-24
-0.4991273880312548	2.431010707374604e-24
-0.4990663528750048	2.5181951059037416e-24
-0.4990053177187548	2.60079012008542e-24
-0.4989442825625048	2.6786352847931862e-24
-0.4988832474062548	2.7515815854388468e-24
-0.4988222122500048	2.8194887642734783e-24
-0.4987611770937548	2.882223677485475e-24
-0.4987001419375048	2.9396651353242234e-24
-0.4986391067812548	2.991702352760726e-24
-0.4985780716250048	3.0382320789167737e-24
-0.4985170364687548	3.0791628026968e-24
-0.4984560013125048	3.1144146865020666e-24
-0.4983949661562548	3.143916687045232e-24
-0.4983339310000048	3.1676090480084237e-24
-0.4982728958437548	3.185443465956516e-24
-0.4982118606875048	3.1973822506375924e-24
-0.4981508255312548	3.2033989612399972e-24
-0.4980897903750048	3.203478007692522e-24
-0.4980287552187548	3.1976152080322127e-24
-0.4979677200625048	3.185817683199726e-24
-0.4979066849062548	3.168103514430055e-24
-0.4978456497500048	3.144501989768052e-24
-0.4977846145937548	3.1150535556619454e-24
-0.4977235794375048	3.0798096838327138e-24
-0.4976625442812548	3.0388328747804924e-24
-0.4976015091250048	2.99219633728447e-24
-0.4975404739687548	2.9399836152397694e-24
-0.4974794388125048	2.882290015198352e-24
-0.4974184036562548	2.819220166270567e-24
-0.4973573685000048	2.7508880679902742e-24
-0.4972963333437548	2.6774202774935274e-24
-0.4972352981875048	2.5989512062982857e-24
-0.4971742630312548	2.515624114132067e-24
-0.4971132278750048	2.4275936262428334e-24
-0.4970521927187548	2.335021680295725e-24
-0.4969911575625048	2.2380792607136424e-24
-0.4969301224062548	2.136946433891483e-24
-0.4968690872500048	2.0318094912448504e-24
-0.4968080520937548	1.9228637376863747e-24
-0.4967470169375048	1.8103126073103583e-24
-0.4966859817812548	1.6943639322650625e-24
-0.4966249466250048	1.5752329029099217e-24
-0.4965639114687548	1.4531428838416155e-24
-0.4965028763125048	1.3283211871083258e-24
-0.4964418411562548	1.2009986862425977e-24
-0.4963808060000048	1.071413565991008e-24
-0.4963197708437548	9.398094136456872e-25
-0.4962587356875048	8.064306701061015e-25
-0.4961977005312548	6.715251711754694e-25
-0.4961366653750048	5.3534659893736945e-25
-0.4960756302187548	3.98151156891228e-25
-0.4960145950625048	2.6019259155710493e-25
-0.4959535599062548	1.2172904960250044e-25
-0.4958925247500048	-1.6976197340688655e-26
-0.4958314895937548	-1.5566681570132898e-25
-0.4957704544375048	-2.940842762259301e-25
-0.4957094192812548	-4.319642545416978e-25
-0.4956483841250048	-5.690508207954222e-25
-0.4955873489687548	-7.05089387712122e-25
-0.4955263138125048	-8.398204572589444e-25
-0.4954652786562548	-9.729917296054376e-25
-0.4954042435000048	-1.104356649396308e-24
-0.4953432083437548	-1.2336661987101e-24
-0.4952821731875048	-1.3606750105093989e-24
-0.4952211380312548	-1.485148626852996e-24
-0.4951601028750048	-1.606853717619733e-24
-0.4950990677187548	-1.7255557815246535e-24
-0.4950380325625048	-1.8410357510230922e-24
-0.4949769974062548	-1.9530796065133206e-24
-0.4949159622500048	-2.0614699753344793e-24
-0.4948549270937548	-2.16600587432766e-24
-0.4947938919375048	-2.2664940082869384e-24
-0.4947328567812548	-2.3627402539460482e-24
-0.4946718216250048	-2.4545659576931135e-24
-0.4946107864687548	-2.5417998750110672e-24
-0.4945497513125048	-2.6242747926728138e-24
-0.4944887161562548	-2.7018379338052667e-24
-0.4944276810000048	-2.7743432469710445e-24
-0.4943666458437548	-2.841653165888987e-24
-0.4943056106875048	-2.9036427213943004e-24
-0.4942445755312548	-2.960194830897339e-24
-0.4941835403750048	-3.011202812359666e-24
-0.4941225052187548	-3.0565720380691917e-24
-0.4940614700625048	-3.096217103100635e-24
-0.4940004349062548	-3.130063026789412e-24
-0.4939393997500048	-3.158047776255671e-24
-0.4938783645937548	-3.180118920571324e-24
-0.4938173294375048	-3.19623481041475e-24
-0.4937562942812548	-3.2063666336875634e-24
-0.4936952591250048	-3.2104959970115113e-24
-0.4936342239687548	-3.2086157364600998e-24
-0.4935731888125048	-3.2007303924682804e-24
-0.4935121536562548	-3.186856062019933e-24
-0.4934511185000048	-3.16702000479633e-24
-0.4933900833437548	-3.141260532865648e-24
-0.4933290481875048	-3.1096279125868788e-24
-0.4932680130312548	-3.0721828829929615e-24
-0.4932069778750048	-3.0289974380839503e-24
-0.4931459427187548	-2.9801552048323254e-24
-0.4930849075625048	-2.925749013681112e-24
-0.4930238724062548	-2.865883626294095e-24
-0.4929628372500048	-2.800674547586176e-24
-0.4929018020937548	-2.7302453353838843e-24
-0.4928407669375048	-2.6547315233891763e-24
-0.4927797317812548	-2.5742784169901203e-24
-0.4927186966250048	-2.4890387223346475e-24
-0.4926576614687548	-2.3991761743513812e-24
-0.4925966263125048	-2.3048633516112944e-24
-0.4925355911562548	-2.2062793421829707e-24
-0.4924745560000048	-2.1036138231971753e-24
-0.4924135208437548	-1.9970637164563887e-24
-0.4923524856875048	-1.8868307002331544e-24
-0.4922914505312548	-1.773127878456211e-24
-0.4922304153750048	-1.656173053697546e-24
-0.4921693802187548	-1.5361868039249459e-24
-0.4921083450625048	-1.4134023071576377e-24
-0.4920473099062548	-1.2880542824145816e-24
-0.4919862747500048	-1.1603789164919713e-24
-0.4919252395937548	-1.0306245473636383e-24
-0.4918642044375048	-8.99039666917713e-25
-0.4918031692812548	-7.658727106034491e-25
-0.4917421341250048	-6.313805418099324e-25
-0.4916810989687548	-4.958228814137145e-25
-0.4916200638125048	-3.594567794240158e-25
-0.4915590286562548	-2.2254211085011e-25
-0.4914979935000048	-8.534485975185645e-26
-0.4914369583437548	5.18730092285585e-26
-0.4913759231875048	1.8885153913315197e-25
-0.4913148880312548	3.2532534251169137e-25
-0.4912538528750048	4.61032204777163e-25
-0.4911928177187548	5.957145366707176e-25
-0.4911317825625048	7.291128030153624e-25
-0.4910707474062548	8.609703115713937e-25
-0.4910097122500048	9.910350003201654e-25
-0.4909486770937548	1.1190576170089658e-24
-0.4908876419375048	1.2447921322059995e-24
-0.4908266067812548	1.3679964150567175e-24
-0.4907655716250048	1.488435086008741e-24
-0.4907045364687548	1.6058764491370894e-24
-0.4906435013125048	1.7200946207173936e-24
-0.4905824661562548	1.830870832780056e-24
-0.4905214310000048	1.9379912352170714e-24
-0.4904603958437548	2.041250723889899e-24
-0.4903993606875048	2.140450879932175e-24
-0.4903383255312548	2.2353999152774195e-24
-0.4902772903750048	2.3259161940055353e-24
-0.4902162552187548	2.4118254865678674e-24
-0.4901552200625048	2.492961150867129e-24
-0.4900941849062548	2.5691683788759054e-24
-0.4900331497500048	2.640300550886531e-24
-0.4899721145937548	2.706218887642659e-24
-0.4899110794375048	2.7667973221292635e-24
-0.4898500442812548	2.8219195158136773e-24
-0.4897890091250048	2.8714784685780504e-24
-0.4897279739687548	2.915378156171691e-24
-0.4896669388125048	2.9535338947694186e-24
-0.4896059036562548	2.9858726231164585e-24
-0.4895448685000048	3.0123307619603306e-24
-0.4894838333437548	3.0328569149135546e-24
-0.4894227981875048	3.0474119211451657e-24
-0.4893617630312548	3.0559666039076252e-24
-0.4893007278750048	3.058504189965799e-24
-0.4892396927187548	3.055019562836743e-24
-0.4891786575625048	3.045518652200956e-24
-0.4891176224062548	3.0300194234407053e-24
-0.4890565872500048	3.008551356369198e-24
-0.4889955520937548	2.9811553114990068e-24
-0.4889345169375048	2.9478834192549417e-24
-0.4888734817812548	2.908799575142514e-24
-0.4888124466250048	2.863978951796301e-24
-0.4887514114687548	2.813506861244906e-24
-0.4886903763125048	2.7574805629544677e-24
-0.4886293411562548	2.6960081487995973e-24
-0.4885683060000048	2.629207062747807e-24
-0.4885072708437548	2.5572062079354127e-24
-0.4884462356875048	2.4801442582486055e-24
-0.4883852005312548	2.3981693510102926e-24
-0.4883241653750048	2.311439850808577e-24
-0.4882631302187548	2.220122292786082e-24
-0.4882020950625048	2.124393172017809e-24
-0.4881410599062548	2.024437893556819e-24
-0.4880800247500048	1.9204475226133846e-24
-0.4880189895937548	1.8126241862542233e-24
-0.4879579544375048	1.7011768621107178e-24
-0.4878969192812548	1.5863185776145199e-24
-0.4878358841250048	1.4682733350072956e-24
-0.4877748489687548	1.3472687446915908e-24
-0.4877138138125048	1.2235386743302768e-24
-0.4876527786562548	1.0973234099044765e-24
-0.4875917435000048	9.688652809300082e-25
-0.4875307083437548	8.384159178952219e-25
-0.4874696731875048	7.062265143037946e-25
-0.4874086380312548	5.725519280418986e-25
-0.4873476028750048	4.3765481277858915e-25
-0.4872865677187548	3.0179406510656387e-25
-0.4872255325625048	1.6523365588130347e-25
-0.4871644974062548	2.8240666287360156e-26
-0.4871034622500048	-1.0892084041636115e-25
-0.4870424270937548	-2.4598367183459505e-25
-0.4869813919375048	-3.826804399233209e-25
-0.4869203567812548	-5.187461015207658e-25
-0.4868593216250048	-6.539156617062522e-25
-0.4867982864687548	-7.879254379615522e-25
-0.4867372513125048	-9.205145431713526e-25
-0.4866762161562548	-1.0514239363844696e-24
-0.4866151810000048	-1.1803987987985933e-24
-0.4865541458437548	-1.3071874295261962e-24
-0.4864931106875048	-1.431540407792985e-24
-0.4864320755312548	-1.5532158004098619e-24
-0.4863710403750048	-1.671976500903173e-24
-0.4863100052187548	-1.787587528014158e-24
-0.4862489700625048	-1.8998227380220275e-24
-0.4861879349062548	-2.008463445740797e-24
-0.4861268997500048	-2.1132944639397956e-24
-0.4860658645937548	-2.214109548256542e-24
-0.4860048294375048	-2.3107110617654727e-24
-0.4859437942812548	-2.4029076950124683e-24
-0.4858827591250048	-2.4905172420999624e-24
-0.4858217239687548	-2.5733664665716316e-24
-0.4857606888125048	-2.651291092812148e-24
-0.4856996536562548	-2.724135843775926e-24
-0.4856386185000048	-2.79175546593005e-24
-0.4855775833437548	-2.854015472770752e-24
-0.4855165481875048	-2.910790035267028e-24
-0.4854555130312548	-2.9619649612221165e-24
-0.4853944778750048	-3.007437249819906e-24
-0.4853334427187548	-3.0471131985201957e-24
-0.4852724075625048	-3.080911655602973e-24
-0.4852113724062548	-3.1087627417956697e-24
-0.4851503372500048	-3.1306070377008144e-24
-0.4850893020937548	-3.146397415464319e-24
-0.4850282669375048	-3.1560985124508968e-24
-0.4849672317812548	-3.159686261176547e-24
-0.4849061966250048	-3.1571486792828054e-24
-0.4848451614687548	-3.1484854842492503e-24
-0.4847841263125048	-3.1337081435113185e-24
-0.4847230911562548	-3.1128403947519207e-24
-0.4846620560000048	-3.0859171526746403e-24
-0.4846010208437548	-3.0529850095651303e-24
-0.4845399856875048	-3.0141032646527318e-24
-0.4844789505312548	-2.9693416759102892e-24
-0.4844179153750048	-2.9187806824102828e-24
-0.4843568802187548	-2.8625144314301247e-24
-0.4842958450625048	-2.800646730678099e-24
-0.4842348099062548	-2.733290243378843e-24
-0.4841737747500048	-2.66057214709758e-24
-0.4841127395937548	-2.582628556301861e-24
-0.4840517044375048	-2.4996032487323913e-24
-0.4839906692812548	-2.411653624156888e-24
-0.4839296341250048	-2.3189454980775735e-24
-0.4838685989687548	-2.2216520866066008e-24
-0.4838075638125048	-2.119957735331198e-24
-0.4837465286562548	-2.01405559119705e-24
-0.4836854935000048	-1.9041448800536688e-24
-0.4836244583437548	-1.790434334381155e-24
-0.4835634231875048	-1.6731405751640606e-24
-0.4835023880312548	-1.552485303568867e-24
-0.4834413528750048	-1.4286990923058078e-24
-0.4833803177187548	-1.3020168031685385e-24
-0.4833192825625048	-1.17268046937772e-24
-0.4832582474062548	-1.040937096817589e-24
-0.4831972122500048	-9.070361216375779e-25
-0.4831361770937548	-7.712365202183933e-25
-0.4830751419375048	-6.3379652509702035e-25
-0.4830141067812548	-4.949768861925743e-25
-0.4829530716250048	-3.550467965871094e-25
-0.4828920364687548	-2.1427394872154604e-25
-0.4828310013125048	-7.292571437479347e-26
-0.4827699661562548	6.87261005729824e-26
-0.4827089310000048	2.104063938565769e-25
-0.4826478958437548	3.518457584962453e-25
-0.4825868606875048	4.927749334882936e-25
-0.4825258255312548	6.329171290633979e-25
-0.4824647903750048	7.720053287201038e-25
-0.4824037552187548	9.09775351612591e-25
-0.4823427200625048	1.0459562900056047e-24
-0.4822816849062548	1.1802873360808502e-24
-0.4822206497500048	1.3125124837138647e-24
-0.4821596145937548	1.4423734348137967e-24
-0.4820985794375048	1.5696195887878198e-24
-0.4820375442812548	1.6940072463501622e-24
-0.4819765091250048	1.8152944266992402e-24
-0.4819154739687548	1.933246368996948e-24
-0.4818544388125048	2.0476366662338268e-24
-0.4817934036562548	2.1582418068148552e-24
-0.4817323685000048	2.264847403021453e-24
-0.4816713333437548	2.3672497170165084e-24
-0.4816102981875048	2.4652470347083837e-24
-0.4815492630312548	2.5586486007781434e-24
-0.4814882278750048	2.6472764799259706e-24
-0.4814271927187548	2.7309550779010855e-24
-0.4813661575625048	2.8095215303139575e-24
-0.4813051224062548	2.8828253013052278e-24
-0.4812440872500048	2.9507204035771195e-24
-0.4811830520937548	3.013074611379395e-24
-0.4811220169375048	3.0697679177202813e-24
-0.4810609817812548	3.120687213446879e-24
-0.4809999466250048	3.1657317219094142e-24
-0.4809389114687548	3.204814381322799e-24
-0.4808778763125048	3.2378574360865604e-24
-0.4808168411562548	3.264793926331693e-24
-0.4807558060000048	3.285570779732937e-24
-0.4806947708437548	3.3001460638290578e-24
-0.4806337356875048	3.3084888273888324e-24
-0.4805727005312548	3.3105813582384836e-24
-0.4805116653750048	3.3064176550746775e-24
-0.4804506302187548	3.296003164195292e-24
-0.4803895950625048	3.279356409094078e-24
-0.4803285599062548	3.2565074231127758e-24
-0.4802675247500048	3.2274979131406843e-24
-0.4802064895937548	3.1923820828460794e-24
-0.4801454544375048	3.1512259547986633e-24
-0.4800844192812548	3.10410690314795e-24
-0.4800233841250048	3.051113331798742e-24
-0.4799623489687548	2.9923466392224124e-24
-0.4799013138125048	2.9279183350471374e-24
-0.4798402786562548	2.8579499789102352e-24
-0.4797792435000048	2.7825761145967012e-24
-0.4797182083437548	2.701940205780063e-24
-0.4796571731875048	2.6161960837181312e-24
-0.4795961380312548	2.525508125461842e-24
-0.4795351028750048	2.430049514481343e-24
-0.4794740677187548	2.3300036781008393e-24
-0.4794130325625048	2.2255621635579272e-24
-0.4793519974062548	2.116925403219908e-24
-0.4792909622500048	2.00430169190179e-24
-0.4792299270937548	1.8879081543751782e-24
-0.4791688919375048	1.767968294703388e-24
-0.4791078567812548	1.6447114234475316e-24
-0.4790468216250048	1.5183769227659175e-24
-0.4789857864687548	1.3892067112715605e-24
-0.4789247513125048	1.25744904603744e-24
-0.4788637161562548	1.123359220023223e-24
-0.4788026810000048	9.871943181295939e-25
-0.4787416458437548	8.492172570400804e-25
-0.4786806106875048	7.096947108856755e-25
-0.4786195755312548	5.688953875304665e-25
-0.4785585403750048	4.2709010410732515e-25
-0.4784975052187548	2.8455371590651504e-25
-0.4784364700625048	1.4156237873557022e-25
-0.4783754349062548	-1.610320845396779e-27
-0.4783143997500048	-1.4468724298551058e-25
-0.4782533645937548	-2.8738893066187166e-25
-0.4781923294375048	-4.294426187217129e-25
-0.4781312942812548	-5.705745245278621e-25
-0.4780702591250048	-7.105081809392246e-25
-0.4780092239687548	-8.489752091258386e-25
-0.4779481888125048	-9.857086277726424e-25
-0.4778871536562548	-1.1204417880156274e-24
-0.4778261185000048	-1.2529150122257773e-24
-0.4777650833437548	-1.3828726989396593e-24
-0.4777040481875048	-1.5100619124803876e-24
-0.4776430130312548	-1.6342368308803192e-24
-0.4775819778750048	-1.7551582013271507e-24
-0.4775209427187548	-1.8725906290704453e-24
-0.4774599075625048	-1.986306863778365e-24
-0.4773988724062548	-2.0960868223019898e-24
-0.4773378372500048	-2.201718981170347e-24
-0.4772768020937548	-2.302998076722685e-24
-0.4772157669375048	-2.3997256532815613e-24
-0.4771547317812548	-2.491718611162527e-24
-0.4770936966250048	-2.5787975776404176e-24
-0.4770326614687548	-2.6607902821249218e-24
-0.4769716263125048	-2.73754289525856e-24
-0.4769105911562548	-2.8089058278748474e-24
-0.4768495560000048	-2.8747378965075138e-24
-0.4767885208437548	-2.9349154252573707e-24
-0.4767274856875048	-2.9893210964460475e-24
-0.4766664505312548	-3.0378485166333225e-24
-0.4766054153750048	-3.0804060812884245e-24
-0.4765443802187548	-3.116910358462437e-24
-0.4764833450625048	-3.1472914118545854e-24
-0.4764223099062548	-3.171492050641424e-24
-0.4763612747500048	-3.18946474422788e-24
-0.4763002395937548	-3.201175817213466e-24
-0.4762392044375048	-3.2066041456755738e-24
-0.4761781692812548	-3.205739491053334e-24
-0.4761171341250048	-3.1985845163407663e-24
-0.4760560989687548	-3.185154944206017e-24
-0.4759950638125048	-3.1654775913589232e-24
-0.4759340286562548	-3.1395916580807887e-24
-0.4758729935000048	-3.1075498099655206e-24
-0.4758119583437548	-3.069415087348489e-24
-0.4757509231875048	-3.0252627682661336e-24
-0.4756898880312548	-2.9751814023057773e-24
-0.4756288528750048	-2.9192692836409796e-24
-0.4755678177187548	-2.857636736786035e-24
-0.4755067825625048	-2.7904064854035897e-24
-0.4754457474062548	-2.7177101337358566e-24
-0.4753847122500048	-2.639691191084058e-24
-0.4753236770937548	-2.5565051233112362e-24
-0.4752626419375048	-2.4683142069551718e-24
-0.4752016067812548	-2.3752919878986144e-24
-0.4751405716250048	-2.2776243008989593e-24
-0.4750795364687548	-2.175502206089888e-24
-0.4750185013125048	-2.069125771780482e-24
-0.4749574661562548	-1.9587067624525626e-24
-0.4748964310000048	-1.844462968959879e-24
-0.4748353958437548	-1.726617692298177e-24
-0.4747743606875048	-1.6054042017152557e-24
-0.4747133255312548	-1.4810633883611648e-24
-0.4746522903750048	-1.3538376527998744e-24
-0.4745912552187548	-1.2239784864438307e-24
-0.4745302200625048	-1.09174495393627e-24
-0.4744691849062548	-9.573943436139833e-25
-0.4744081497500048	-8.2119271991015665e-25
-0.4743471145937548	-6.834112536437489e-25
-0.4742860794375048	-5.4431909981787e-25
-0.4742250442812548	-4.0419192971291353e-25
-0.4741640091250048	-2.633071393827111e-25
-0.4741029739687548	-1.2194247041144575e-25
-0.4740419388125048	1.9622482492876606e-26
-0.4739809036562548	1.6110808539247433e-25
-0.4739198685000048	3.022344990036165e-25
-0.4738588333437548	4.427227956010943e-25
-0.4737977981875048	5.822933148163584e-25
-0.4737367630312548	7.206724686081426e-25
-0.4736757278750048	8.575862501614728e-25
-0.4736146927187548	9.927587860880855e-25
-0.4735536575625048	1.1259275557793425e-24
-0.4734926224062548	1.2568287616353564e-24
-0.4734315872500048	1.3851969122358358e-24
-0.4733705520937548	1.5107826117637835e-24
-0.4733095169375048	1.6333367180915913e-24
-0.4732484817812548	1.7526113320418404e-24
-0.4731874466250048	1.868374217442813e-24
-0.4731264114687548	1.980392870422401e-24
-0.4730653763125048	2.088442709424963e-24
-0.4730043411562548	2.1923138644812984e-24
-0.4729433060000048	2.291794178652205e-24
-0.4728822708437548	2.3866855513576087e-24
-0.4728212356875048	2.4768032397086138e-24
-0.4727602005312548	2.561962170954649e-24
-0.4726991653750048	2.6419930333051305e-24
-0.4726381302187548	2.716737957886221e-24
-0.4725770950625048	2.7860439542058803e-24
-0.4725160599062548	2.8497729289050457e-24
-0.4724550247500048	2.9077972513590806e-24
-0.4723939895937548	2.9599983814897967e-24
-0.4723329544375048	3.0062712758231763e-24
-0.4722719192812548	3.0465221398468032e-24
-0.4722108841250048	3.0806682887217702e-24
-0.4721498489687548	3.108639508920632e-24
-0.4720888138125048	3.1303780920805577e-24
-0.4720277786562548	3.1458380870408804e-24
-0.4719667435000048	3.1549859727701797e-24
-0.4719057083437548	3.1578010040103117e-24
-0.4718446731875048	3.154274605917831e-24
-0.4717836380312548	3.144410990461091e-24
-0.4717226028750048	3.128226515565285e-24
