Time	Frequency
-0.5000006719062497	-0.39132617446656504
-0.49993963674999975	-0.3960018654024969
-0.49987860159374975	-0.3999384196697461
-0.49981756643749975	-0.4031286126827299
-0.49975653128124975	-0.4055665345215936
-0.49969549612499975	-0.4072477384764976
-0.49963446096874975	-0.4081691747185285
-0.49957342581249975	-0.4083291538523667
-0.49951239065624975	-0.40772737717780644
-0.49945135549999975	-0.4063649767829523
-0.49939032034374975	-0.4042444819982938
-0.49932928518749975	-0.40136980625339413
-0.49926825003124975	-0.39774624919109397
-0.49920721487499975	-0.3933805077453473
-0.49914617971874975	-0.38828062258804075
-0.49908514456249975	-0.38245601090196407
-0.49902410940624975	-0.3759174390396572
-0.49896307424999975	-0.36867692078452996
-0.49890203909374975	-0.36074786489940075
-0.49884100393749975	-0.3521449075549361
-0.49877996878124975	-0.34288384146778317
-0.49871893362499975	-0.3329819057146966
-0.49865789846874975	-0.3224573205379961
-0.49859686331249975	-0.31132939170139784
-0.49853582815624975	-0.29961890538208646
-0.49847479299999975	-0.28734743866574713
-0.49841375784374975	-0.27453747318069693
-0.49835272268749975	-0.2612128634797211
-0.49829168753124975	-0.2473983963003936
-0.49823065237499975	-0.23311929745984186
-0.49816961721874975	-0.2184020053572673
-0.49810858206249975	-0.2032741624733717
-0.49804754690624975	-0.18776339317058754
-0.49798651174999975	-0.17189826602471253
-0.49792547659374975	-0.15570867056292792
-0.49786444143749975	-0.1392244187510409
-0.49780340628124975	-0.12247559361649289
-0.49774237112499975	-0.10549378493247893
-0.49768133596874975	-0.0883106264406296
-0.49762030081249975	-0.0709572465054972
-0.49755926565624975	-0.05346631523786209
-0.49749823049999975	-0.035870622689015405
-0.49743719534374975	-0.018202225156664312
-0.49737616018749975	-0.0004940888729162472
-0.49731512503124975	0.017220551726656062
-0.49725408987499975	0.03490892863739855
-0.49719305471874975	0.0525383712093869
-0.49713201956249975	0.07007590466466394
-0.49707098440624975	0.08748863080492941
-0.49700994924999975	0.10474446041657394
-0.49694891409374975	0.12181130202938922
-0.49688787893749975	0.138656923620071
-0.49682684378124975	0.15525013225646436
-0.49676580862499975	0.17156013069781026
-0.49670477346874975	0.18755612131077798
-0.49664373831249975	0.20320834316513314
-0.49658270315624975	0.2184876740991084
-0.49652166799999975	0.23336519698930266
-0.49646063284374975	0.24781320442988647
-0.49639959768749975	0.26180481986203985
-0.49633856253124975	0.2753133596903475
-0.49627752737499975	0.28831358943134955
-0.49621649221874975	0.3007813473002533
-0.49615545706249975	0.31269281333675886
-0.49609442190624975	0.324025499284818
-0.49603338674999975	0.3347582410829054
-0.49597235159374975	0.3448707057440058
-0.49591131643749975	0.35434349345652194
-0.49585028128124975	0.36315871422260176
-0.49578924612499975	0.3712997615832726
-0.49572821096874975	0.378750867838732
-0.49566717581249975	0.3854977744356709
-0.49560614065624975	0.3915275682490186
-0.49554510549999975	0.39682854768469955
-0.49548407034374975	0.4013904088046478
-0.49542303518749975	0.40520410374759736
-0.49536200003124975	0.4082621285844562
-0.49530096487499975	0.4105583003230687
-0.49523992971874975	0.41208774794463565
-0.49517889456249975	0.4128471691851787
-0.49511785940624975	0.4128346072035655
-0.49505682424999975	0.41204951930536593
-0.49499578909374975	0.41049283154688404
-0.49493475393749975	0.40816685969843713
-0.49487371878124975	0.4050753950293435
-0.49481268362499975	0.4012236027788265
-0.49475164846874975	0.39661802121654927
-0.49469061331249975	0.39126673288190617
-0.49462957815624975	0.3851790651976418
-0.49456854299999975	0.3783656650909583
-0.49450750784374975	0.3708387814990788
-0.49444647268749975	0.36261176037680976
-0.49438543753124975	0.353699213694457
-0.49432440237499975	0.3441173103563524
-0.49426336721874975	0.33388319757908264
-0.49420233206249975	0.3230152897273133
-0.49414129690624975	0.31153337009199245
-0.49408026174999975	0.2994580728208531
-0.49401922659374975	0.2868113366599452
-0.49395819143749975	0.2736162646302283
-0.49389715628124975	0.2598966738758183
-0.49383612112499975	0.2456775653815599
-0.49377508596874975	0.23098498900251993
-0.49371405081249975	0.2158456737634587
-0.49365301565624975	0.2002872382305929
-0.49359198049999975	0.18433814945985316
-0.49353094534374975	0.1680276111248529
-0.49346991018749975	0.1513855376829616
-0.49340887503124975	0.1344423727414444
-0.49334783987499975	0.11722908807459073
-0.49328680471874975	0.0997774806963665
-0.49322576956249975	0.08211960376863763
-0.49316473440624975	0.06428760990687606
-0.49310369924999975	0.04631463706107423
-0.49304266409374975	0.02823369173748541
-0.49298162893749975	0.010077831093864162
-0.49292059378124975	-0.008119148624664497
-0.49285955862499975	-0.02632391345989994
-0.49279852346874975	-0.044502894436032794
-0.49273748831249975	-0.06262232940236473
-0.49267645315624975	-0.08064894972480903
-0.49261541799999975	-0.09854945327031545
-0.49255438284374975	-0.11629056353898683
-0.49249334768749975	-0.13383949986228308
-0.49243231253124975	-0.15116394496942062
-0.49237127737499975	-0.1682316999953182
-0.49231024221874975	-0.18501095689950883
-0.49224920706249975	-0.2014707747927671
-0.49218817190624975	-0.2175807329001901
-0.49212713674999975	-0.23331056564580974
-0.49206610159374975	-0.24863119652499663
-0.49200506643749975	-0.2635143206668672
-0.49194403128124975	-0.27793189509493277
-0.49188299612499975	-0.2918572295686433
-0.49182196096874975	-0.305264426508736
-0.49176092581249975	-0.31812832128867513
-0.49169989065624975	-0.3304249431774488
-0.49163885549999975	-0.34213128783945673
-0.49157782034374975	-0.3532254630186959
-0.49151678518749975	-0.3636866227903061
-0.49145575003124975	-0.3734951133455965
-0.49139471487499975	-0.3826325777448132
-0.49133367971874975	-0.3910817157234484
-0.49127264456249975	-0.3988265416043175
-0.49121160940624975	-0.405852537403948
-0.49115057424999975	-0.4121462422679935
-0.49108953909374975	-0.4176956417007668
-0.49102850393749975	-0.42249025995331685
-0.49096746878124975	-0.4265207173042082
-0.49090643362499975	-0.4297792125189742
-0.49084539846874975	-0.43225943080346374
-0.49078436331249975	-0.43395630320704215
-0.49072332815624975	-0.43486633578833883
-0.49066229299999975	-0.43498748939428133
-0.49060125784374975	-0.43431912030542685
-0.49054022268749975	-0.43286207336355703
-0.49047918753124975	-0.4306186644602375
-0.49041815237499975	-0.4275926576786177
-0.49035711721874975	-0.42378924714618216
-0.49029608206249975	-0.41921508480830244
-0.49023504690624975	-0.4138782333261468
-0.49017401174999975	-0.40778822952172933
-0.49011297659374975	-0.4009559314765685
-0.49005194143749975	-0.39339351015505897
-0.48999090628124975	-0.385114771632413
-0.48992987112499975	-0.3761346019762568
-0.48986883596874975	-0.3664690542847572
-0.48980780081249975	-0.3561359414262995
-0.48974676565624975	-0.34515399542365793
-0.48968573049999975	-0.3335429393794058
-0.48962469534374975	-0.3213241748874726
-0.48956366018749975	-0.3085200148594894
-0.48950262503124975	-0.2951536100509143
-0.48944158987499975	-0.2812495028603515
-0.48938055471874975	-0.26683324992473734
-0.48931951956249975	-0.25193106484140304
-0.48925848440624975	-0.23657020331997122
-0.48919744924999975	-0.22077908474725227
-0.48913641409374975	-0.20458647538617786
-0.48907537893749975	-0.18802198597821537
-0.48901434378124975	-0.17111635593649552
-0.48895330862499975	-0.15390037789321093
-0.48889227346874975	-0.1364057765196568
-0.48883123831249975	-0.11866485572576155
-0.48877020315624975	-0.10070988904115603
-0.48870916799999975	-0.08257433151605577
-0.48864813284374975	-0.06429156062208431
-0.48858709768749975	-0.04589480933575776
-0.48852606253124975	-0.027418307443537012
-0.48846502737499975	-0.008896298512468327
-0.48840399221874975	0.009637367432344127
-0.48834295706249975	0.028148647739583862
-0.48828192190624975	0.046602998563026736
-0.48822088674999975	0.06496637414168147
-0.48815985159374975	0.0832053188764761
-0.48809881643749975	0.1012858437168136
-0.48803778128124975	0.11917436314563214
-0.48797674612499975	0.1368382003812514
-0.48791571096874975	0.15424467056642044
-0.48785467581249975	0.171361356497795
-0.48779364065624975	0.18815674000430002
-0.48773260549999975	0.20459998726071038
-0.48767157034374975	0.22066036417089274
-0.48761053518749975	0.2363082321323343
-0.48754950003124975	0.25151499653242465
-0.48748846487499975	0.2662520351595294
-0.48742742971874975	0.28049229907848716
-0.48736639456249975	0.29420965907366275
-0.48730535940624975	0.30737828577621673
-0.48724432424999975	0.3199741816400488
-0.48718328909374975	0.33197396552731107
-0.48712225393749975	0.34335520981233747
-0.48706121878124975	0.3540971807911481
-0.48700018362499975	0.36417980697593805
-0.48693914846874975	0.37358445954261665
-0.48687811331249975	0.3822938534634441
-0.48681707815624975	0.3902916978727624
-0.48675604299999975	0.3975634105281254
-0.48669500784374975	0.40409552050228115
-0.48663397268749975	0.40987579356395404
-0.48657293753124975	0.4148938079055241
-0.48651190237499975	0.4191402821389683
-0.48645086721874975	0.4226072629745422
-0.48638983206249975	0.42528854302436175
-0.48632879690624975	0.4271792408056479
-0.48626776174999975	0.4282758663365124
-0.48620672659374975	0.42857653897707243
-0.48614569143749975	0.4280808169612138
-0.48608465628124975	0.4267897106548202
-0.48602362112499975	0.4247057820399086
-0.48596258596874975	0.421833025605974
-0.48590155081249975	0.4181768851784685
-0.48584051565624975	0.4137443700227196
-0.48577948049999975	0.4085438702129251
-0.48571844534374975	0.40258512567345306
-0.48565741018749975	0.39587948624508734
-0.48559637503124975	0.388439638975493
-0.48553533987499975	0.3802794751394177
-0.48547430471874975	0.3714144252284368
-0.48541326956249975	0.36186127715832794
-0.48535223440624975	0.351637931397385
-0.48529119924999975	0.34076357728026035
-0.48523016409374975	0.32925881296419474
-0.48516912893749975	0.3171452472685059
-0.48510809378124975	0.30444561828042205
-0.48504705862499975	0.2911838730731494
-0.48498602346874975	0.27738491258674125
-0.48492498831249975	0.26307487220496156
-0.48486395315624975	0.24828049466443583
-0.48480291799999975	0.233029549501313
-0.48474188284374975	0.21735108728522193
-0.48468084768749975	0.20127435212174094
-0.48461981253124975	0.18482954514056124
-0.48455877737499975	0.16804783600095008
-0.48449774221874975	0.1509607756089183
-0.48443670706249975	0.13360044191872036
-0.48437567190624975	0.11599951892388236
-0.48431463674999975	0.09819136816344985
-0.48425360159374975	0.08020938035592474
-0.48419256643749975	0.062087358967511205
-0.48413153128124975	0.04385965611825914
-0.48407049612499975	0.025560594132213895
-0.48400946096874975	0.007224569448629132
-0.48394842581249975	-0.011113868528007314
-0.48388739065624975	-0.029419858573692812
-0.48382635549999975	-0.04765903941808963
-0.48376532034374975	-0.06579721319919314
-0.48370428518749975	-0.0837996859791688
-0.48364325003124975	-0.10163264431554818
-0.48358221487499975	-0.11926270715640544
-0.48352117971874975	-0.13665611701749603
-0.48346014456249975	-0.15378009529484946
-0.48339910940624975	-0.1706026177813376
-0.48333807424999975	-0.18709149378792436
-0.48327703909374975	-0.2032154932941299
-0.48321600393749975	-0.2189444595792231
-0.48315496878124975	-0.23424842596265388
-0.48309393362499975	-0.24909818876098885
-0.48303289846874975	-0.26346590133416825
-0.48297186331249975	-0.2773243417378231
-0.48291082815624975	-0.29064693803398073
-0.48284979299999975	-0.303408631571309
-0.48278875784374975	-0.3155852261667292
-0.48272772268749975	-0.3271533595353653
-0.48266668753124975	-0.338091201681599
-0.48260565237499975	-0.3483779812689639
-0.48254461721874975	-0.35799392464551105
-0.48248358206249975	-0.36692079877971967
-0.48242254690624975	-0.375141664619356
-0.48236151174999975	-0.38264060012227
-0.48230047659374975	-0.38940334503120333
-0.48223944143749975	-0.39541704977508124
-0.48217840628124975	-0.40066994597112854
-0.48211737112499975	-0.40515199398989743
-0.48205633596874975	-0.40885459267922747
-0.48199530081249975	-0.41177041400586356
-0.48193426565624975	-0.41389377957368506
-0.48187323049999975	-0.4152204951769671
-0.48181219534374975	-0.41574779496587866
-0.48175116018749975	-0.41547445989775705
-0.48169012503124975	-0.4144008010560589
-0.48162908987499975	-0.41252864056482186
-0.48156805471874975	-0.40986127446549064
-0.48150701956249975	-0.4064035086680052
-0.48144598440624975	-0.4021617143716783
-0.48138494924999975	-0.3971436736013403
-0.48132391409374975	-0.391358605436925
-0.48126287893749975	-0.38481732208052355
-0.48120184378124975	-0.37753197192471494
-0.48114080862499975	-0.36951604428989016
-0.48107977346874975	-0.3607846084025929
-0.48101873831249975	-0.35135397175355654
-0.48095770315624975	-0.34124169124445675
-0.48089666799999975	-0.3304668014334739
-0.48083563284374975	-0.31904955164552284
-0.48077459768749975	-0.30701128607252176
-0.48071356253124975	-0.294374601220749
-0.48065252737499975	-0.28116338626523296
-0.48059149221874975	-0.2674024731049691
-0.48053045706249975	-0.25311763870255694
-0.48046942190624975	-0.23833591019704828
-0.48040838674999975	-0.22308524054217463
-0.48034735159374975	-0.2073942224214708
-0.48028631643749975	-0.1912925201778393
-0.48022528128124975	-0.1748106796990941
-0.48016424612499975	-0.1579796763250567
-0.48010321096874975	-0.14083141567348287
-0.48004217581249975	-0.1233983430504665
-0.47998114065624975	-0.10571331206978456
-0.47992010549999975	-0.08781008410173412
-0.47985907034374975	-0.06972240373450074
-0.47979803518749975	-0.05148434172107723
-0.47973700003124975	-0.03313093546496257
-0.47967596487499975	-0.014696826394383121
-0.47961492971874975	0.0037833162452837552
-0.47955389456249975	0.022273899282577992
-0.47949285940624975	0.040739959801861396
-0.47943182424999975	0.059146654747090154
-0.47937078909374975	0.07745855520515947
-0.47930975393749975	0.09564098967150252
-0.47924871878124975	0.11365944840191886
-0.47918768362499975	0.13147940114644013
-0.47912664846874975	0.14906688055998074
-0.47906561331249975	0.16638848998838168
-0.47900457815624975	0.1834110610866229
-0.47894354299999975	0.20010183986147514
-0.47888250784374975	0.21642933132761877
-0.47882147268749975	0.23236213432691735
-0.47876043753124975	0.2478693853414876
-0.47869940237499975	0.2629218100660326
-0.47863836721874975	0.27749045262356886
-0.47857733206249975	0.29154706211435255
-0.47851629690624975	0.3050647816048635
-0.47845526174999975	0.31801765418531475
-0.47839422659374975	0.3303805944545897
-0.47833319143749975	0.3421297140772719
-0.47827215628124975	0.3532423737464527
-0.47821112112499975	0.3636969949923008
-0.47815008596874975	0.3734732833973776
-0.47808905081249975	0.3825522483295171
-0.47802801565624975	0.39091609376759234
-0.47796698049999975	0.39854852572967026
-0.47790594534374975	0.40543456019075613
-0.47784491018749975	0.4115604886386869
-0.47778387503124975	0.4169142645584724
-0.47772283987499975	0.421485173323533
-0.47766180471874975	0.4252638881289355
-0.47760076956249975	0.4282427794841229
-0.47753973440624975	0.43041558774726946
-0.47747869924999975	0.43177756218178304
-0.47741766409374975	0.4323255964777228
-0.47735662893749975	0.43205803101838913
-0.47729559378124975	0.430974763434211
-0.47723455862499975	0.42907726379787164
-0.47717352346874975	0.426368524221343
-0.47711248831249975	0.4228530961408664
-0.47705145315624975	0.4185370151821728
-0.47699041799999975	0.4134278566345791
-0.47692938284374975	0.4075347817479234
-0.47686834768749975	0.40086830134567036
-0.47680731253124975	0.393440439112942
-0.47674627737499975	0.38526479017788734
-0.47668524221874975	0.3763562215154153
-0.47662420706249975	0.36673101704412353
-0.47656317190624975	0.3564068891337503
-0.47650213674999975	0.3454029128172098
-0.47644110159374975	0.33373932779726534
-0.47638006643749975	0.3214376538442343
-0.47631903128124975	0.3085208662605786
-0.47625799612499975	0.2950128432965765
-0.47619696096874975	0.28093855427980546
-0.47613592581249975	0.266324378490825
-0.47607489065624975	0.2511976150191593
-0.47601385549999975	0.235586164620953
-0.47595282034374975	0.21951933880680174
-0.47589178518749975	0.20302743429365167
-0.47583075003124975	0.1861408125952652
-0.47576971487499975	0.16889129384959625
-0.47570867971874975	0.15131145061502935
-0.47564764456249975	0.1334338363187778
-0.47558660940624975	0.11529213969436257
-0.47552557424999975	0.09692056322184202
-0.47546453909374975	0.07835348547504162
-0.47540350393749975	0.05962572125486439
-0.47534246878124975	0.04077267572192721
-0.47528143362499975	0.021829843364310878
-0.47522039846874975	0.002832590584762551
-0.47515936331249975	-0.016182949855275037
-0.47509832815624975	-0.035180970005805424
-0.47503729299999975	-0.05412599120661889
-0.47497625784374975	-0.07298182562171769
-0.47491522268749975	-0.0917130068915788
-0.47485418753124975	-0.11028442964015601
-0.47479315237499975	-0.12866062465887404
-0.47473211721874975	-0.14680699552822085
-0.47467108206249975	-0.16468932634759909
-0.47461004690624975	-0.18227364545944733
-0.47454901174999975	-0.19952670460662225
-0.47448797659374975	-0.21641572872984868
-0.47442694143749975	-0.23290891886401424
-0.47436590628124975	-0.24897492363215032
-0.47430487112499975	-0.2645830363793314
-0.47424383596874975	-0.2797039369515789
-0.47418280081249975	-0.2943088746523984
-0.47412176565624975	-0.3083699059549954
-0.47406073049999975	-0.3218604217033606
-0.47399969534374975	-0.33475484227388735
-0.47393866018749975	-0.34702847417989446
-0.47387762503124975	-0.358657983740836
-0.47381658987499975	-0.3696213048379983
-0.47375555471874975	-0.379897350477552
-0.47369451956249975	-0.38946662322890274
-0.47363348440624975	-0.39831086118620107
-0.47357244924999975	-0.4064130126266401
-0.47351141409374975	-0.41375765047446106
-0.47345037893749975	-0.4203306778075716
-0.47338934378124975	-0.42611946248469773
-0.47332830862499975	-0.43111282963687453
-0.47326727346874975	-0.4353011301330322
-0.47320623831249975	-0.438676293387142
-0.47314520315624975	-0.44123169788039235
-0.47308416799999975	-0.4429623139130366
-0.47302313284374975	-0.44386469557836966
-0.47296209768749975	-0.4439369444664147
-0.47290106253124975	-0.4431787347798197
-0.47284002737499975	-0.441591328743462
-0.47277899221874975	-0.4391775669779713
-0.47271795706249975	-0.4359418482018991
-0.47265692190624975	-0.43189012618020217
-0.47259588674999975	-0.42702994518055903
-0.47253485159374975	-0.4213703563970942
-0.47247381643749975	-0.41492190071457585
-0.47241278128124975	-0.40769672965383164
-0.47235174612499975	-0.3997083675959942
-0.47229071096874975	-0.3909717880656355
-0.47222967581249975	-0.3815035389693833
-0.47216864065624975	-0.3713213933305164
-0.47210760549999975	-0.36044454198764053
-0.47204657034374975	-0.34889358194414183
-0.47198553518749975	-0.3366902708451656
-0.47192450003124975	-0.3238577282149489
-0.47186346487499975	-0.3104202258970559
-0.47180242971874975	-0.29640312100320915
-0.47174139456249975	-0.2818330621714205
-0.47168035940624975	-0.2667376384217103
-0.47161932424999975	-0.2511453594122538
-0.47155828909374975	-0.23508591040420435
-0.47149725393749975	-0.21858974738355139
-0.47143621878124975	-0.2016881089473517
-0.47137518362499975	-0.1844131172848373
-0.47131414846874975	-0.16679762176151278
-0.47125311331249975	-0.14887508226520405
-0.47119207815624975	-0.13067944868817266
-0.47113104299999975	-0.1122454777761998
-0.47107000784374975	-0.09360820027968797
-0.47100897268749975	-0.074802898417864
-0.47094793753124975	-0.05586558504698319
-0.47088690237499975	-0.036832224324884234
-0.47082586721874975	-0.017738935716542094
-0.47076483206249975	0.0013776991971796988
-0.47070379690624975	0.020481399652931453
-0.47064276174999975	0.03953580171695425
-0.47058172659374975	0.05850440307712218
-0.47052069143749975	0.077351236030744
-0.47045965628124975	0.09604028254863906
-0.47039862112499975	0.1145357796624055
