Time	Frequency
-0.500035285249993	0.40368696754632627
-0.49997425009374297	0.4049413265115876
-0.49991321493749297	0.4054508910782971
-0.49985217978124297	0.4052142324105122
-0.49979114462499297	0.40423128394624935
-0.49973010946874297	0.4025032894947997
-0.49966907431249297	0.4000328643368266
-0.49960803915624297	0.3968239681908978
-0.49954700399999297	0.39288190114202004
-0.49948596884374297	0.3882132962876629
-0.49942493368749297	0.3828261329334193
-0.49936389853124297	0.37672964900650074
-0.49930286337499297	0.36993438108229854
-0.49924182821874297	0.36245221989712223
-0.49918079306249297	0.35429621775070846
-0.49911975790624297	0.34548064265770273
-0.49905872274999297	0.33602104279629635
-0.49899768759374297	0.3259341845689835
-0.49893665243749297	0.31523780340173013
-0.49887561728124297	0.3039508142284239
-0.49881458212499297	0.29209344043195407
-0.49875354696874297	0.2796866767389476
-0.49869251181249297	0.2667524821879221
-0.49863147665624297	0.25331406862864725
-0.49857044149999297	0.23939552889715784
-0.49850940634374297	0.22502147711831585
-0.49844837118749297	0.21021771032915698
-0.49838733603124297	0.1950110332857228
-0.49832630087499297	0.17942824695072387
-0.49826526571874297	0.16349748873741868
-0.49820423056249297	0.147247765548475
-0.49814319540624297	0.13070752066303984
-0.49808216024999297	0.11390693110627308
-0.49802112509374297	0.09687668443394697
-0.49796008993749297	0.07964639015267545
-0.49789905478124297	0.06224778965088763
-0.49783801962499297	0.04471268108880071
-0.49777698446874297	0.027071594719200735
-0.49771594931249297	0.00935705090576914
-0.49765491415624297	-0.00839856342922673
-0.49759387899999297	-0.02616394845397314
-0.49753284384374297	-0.04390671725409402
-0.49747180868749297	-0.0615942402134232
-0.49741077353124297	-0.079194954295625
-0.49734973837499297	-0.09667723670412663
-0.49728870321874297	-0.11400857290336712
-0.49722766806249297	-0.13115790771417393
-0.49716663290624297	-0.14809456910596977
-0.49710559774999297	-0.16478690170522922
-0.49704456259374297	-0.1812050133400569
-0.49698352743749297	-0.19731929228091202
-0.49692249228124297	-0.21309973413431527
-0.49686145712499297	-0.2285180038355037
-0.49680042196874297	-0.2435461064618869
-0.49673938681249297	-0.25815616945399095
-0.49667835165624297	-0.27232172598884863
-0.49661731649999297	-0.28601708195918535
-0.49655628134374297	-0.2992168165106528
-0.49649524618749297	-0.31189681574143174
-0.49643421103124297	-0.3240340750142441
-0.49637317587499297	-0.3356060196702893
-0.49631214071874297	-0.3465914514906537
-0.49625110556249297	-0.35697022969478054
-0.49619007040624297	-0.366723032500844
-0.49612903524999297	-0.3758320494583461
-0.49606800009374297	-0.38428028383826124
-0.49600696493749297	-0.3920519585847219
-0.49594592978124297	-0.3991328722127591
-0.49588489462499297	-0.40550959783576945
-0.49582385946874297	-0.41117015984064903
-0.49576282431249297	-0.41610408103727176
-0.49570178915624297	-0.42030182464172033
-0.49564075399999297	-0.42375538377594807
-0.49557971884374297	-0.426458196395882
-0.49551868368749297	-0.42840479535216475
-0.49545764853124297	-0.42959122337562683
-0.49539661337499297	-0.4300149893095886
-0.49533557821874297	-0.4296747996543266
-0.49527454306249297	-0.42857080416128174
-0.49521350790624297	-0.42670461865918624
-0.49515247274999297	-0.42407914798492474
-0.49509143759374297	-0.4206986711085309
-0.49503040243749297	-0.4165689052620889
-0.49496936728124297	-0.4116968917991375
-0.49490833212499297	-0.4060909286836983
-0.49484729696874297	-0.3997608447323099
-0.49478626181249297	-0.39271767622595954
-0.49472522665624297	-0.38497351868220864
-0.49466419149999297	-0.3765422997059319
-0.49460315634374297	-0.36743879882785896
-0.49454212118749297	-0.35767873209601697
-0.49448108603124297	-0.34727988922611486
-0.49442005087499297	-0.3362605275392272
-0.49435901571874297	-0.3246399005384377
-0.49429798056249297	-0.3124391392398525
-0.49423694540624297	-0.29967982048586694
-0.49417591024999297	-0.2863844390156532
-0.49411487509374297	-0.27257701983548266
-0.49405383993749297	-0.25828229392333046
-0.49399280478124297	-0.24352541812244982
-0.49393176962499297	-0.22833305277849122
-0.49387073446874297	-0.21273266915201136
-0.49380969931249297	-0.19675170833347227
-0.49374866415624297	-0.18041897367483734
-0.49368762899999297	-0.1637641097359145
-0.49362659384374297	-0.1468167377443671
-0.49356555868749297	-0.1296070968957858
-0.49350452353124297	-0.11216651572162406
-0.49344348837499297	-0.09452633002695388
-0.49338245321874297	-0.07671774881022911
-0.49332141806249297	-0.058773423318552696
-0.49326038290624297	-0.040725589768519296
-0.49319934774999297	-0.022606197942337206
-0.49313831259374297	-0.004448509395090635
-0.49307727743749297	0.01371495939092173
-0.49301624228124297	0.03185158486508325
-0.49295520712499297	0.04992844832181935
-0.49289417196874297	0.06791326006631902
-0.49283313681249297	0.08577321790438319
-0.49277210165624297	0.1034761459033602
-0.49271106649999297	0.12099040150489418
-0.49265003134374297	0.13828408253576227
-0.49258899618749297	0.15532590790797
-0.49252796103124297	0.17208522706718998
-0.49246692587499297	0.18853186119349752
-0.49240589071874297	0.20463589780970382
-0.49234485556249297	0.2203681826760488
-0.49228382040624297	0.23570055014177724
-0.49222278524999297	0.25060513972162196
-0.49216175009374297	0.2650549456747881
-0.49210071493749297	0.2790238459546179
-0.49203967978124297	0.29248669149756285
-0.49197864462499297	0.3054192303603294
-0.49191760946874297	0.3177977133397556
-0.49185657431249297	0.3296000435262507
-0.49179553915624297	0.340804997015913
-0.49173450399999297	0.3513919411928807
-0.49167346884374297	0.36134206215463516
-0.49161243368749297	0.3706373501742908
-0.49155139853124297	0.37926076317334506
-0.49149036337499297	0.38719707204820497
-0.49142932821874297	0.394431852398704
-0.49136829306249297	0.4009518288012249
-0.49130725790624297	0.4067455795019525
-0.49124622274999297	0.4118026243476571
-0.49118518759374297	0.4161136780457632
-0.49112415243749297	0.4196712172375299
-0.49106311728124297	0.422468898878004
-0.49100208212499297	0.4245016440791232
-0.49094104696874297	0.42576596077413276
-0.49088001181249297	0.4262597139752891
-0.49081897665624297	0.4259820860734809
-0.49075794149999297	0.424933746816915
-0.49069690634374297	0.4231167832436053
-0.49063587118749297	0.4205346474266391
-0.49057483603124297	0.4171921881998822
-0.49051380087499297	0.41309564642803215
-0.49045276571874297	0.4082527311449137
-0.49039173056249297	0.40267236986644683
-0.49033069540624297	0.39636488315199914
-0.49026966024999297	0.38934209262267605
-0.49020862509374297	0.38161683015975467
-0.49014758993749297	0.3732034637431819
-0.49008655478124297	0.3641175669896986
-0.49002551962499297	0.35437574117891996
-0.48996448446874297	0.34399622246059736
-0.48990344931249297	0.33299800719971684
-0.48984241415624297	0.3214012846647878
-0.48978137899999297	0.30922767941382123
-0.48972034384374297	0.29649950666189445
-0.48965930868749297	0.2832401739286639
-0.48959827353124297	0.26947424803236963
-0.48953723837499297	0.25522705867831913
-0.48947620321874297	0.2405247810524775
-0.48941516806249297	0.22539471885447895
-0.48935413290624297	0.20986460825490297
-0.48929309774999297	0.19396298418676722
-0.48923206259374297	0.17771950664365482
-0.48917102743749297	0.1611638167513262
-0.48910999228124297	0.14432642822784653
-0.48904895712499297	0.12723871516652083
-0.48898792196874297	0.10993184901945358
-0.48892688681249297	0.09243784074652811
-0.48886585165624297	0.0747891919143647
-0.48880481649999297	0.05701809788947577
-0.48874378134374297	0.039157480266815356
-0.48868274618749297	0.021240646117768273
-0.48862171103124297	0.0033001751876055472
-0.48856067587499297	-0.014630792521997501
-0.48849964071874297	-0.032518617228952065
-0.48843860556249297	-0.050330726795155635
-0.48837757040624297	-0.06803431787565174
-0.48831653524999297	-0.08559622847436994
-0.48825550009374297	-0.10298425766991247
-0.48819446493749297	-0.12016644128118421
-0.48813342978124297	-0.13711070302207803
-0.48807239462499297	-0.15378577106959673
-0.48801135946874297	-0.17016099592340878
-0.48795032431249297	-0.1862059120025747
-0.48788928915624297	-0.20189083268232766
-0.48782825399999297	-0.21718679527818296
-0.48776721884374297	-0.23206540082697455
-0.48770618368749297	-0.24649912815304004
-0.48764514853124297	-0.26046127446462597
-0.48758411337499297	-0.2739258616523314
-0.48752307821874297	-0.28686796454165503
-0.48746204306249297	-0.2992636521034124
-0.48740100790624297	-0.3110897859109789
-0.48733997274999297	-0.3223244934356365
-0.48727893759374297	-0.332946920008079
-0.48721790243749297	-0.34293719273376505
-0.48715686728124297	-0.35227693820500083
-0.48709583212499297	-0.3609486341388895
-0.48703479696874297	-0.3689360322110075
-0.48697376181249297	-0.3762245345966138
-0.48691272665624297	-0.3828003075089204
-0.48685169149999297	-0.3886510427307577
-0.48679065634374297	-0.39376599682883945
-0.48672962118749297	-0.3981353916165608
-0.48666858603124297	-0.401751052941783
-0.48660755087499297	-0.4046062403131049
-0.48654651571874297	-0.4066954539515971
-0.48648548056249297	-0.4080147082470621
-0.48642444540624297	-0.4085614624943621
-0.48636341024999297	-0.40833454735219354
-0.48630237509374297	-0.407334247520158
-0.48624133993749297	-0.40556231486350885
-0.48618030478124297	-0.4030218558095669
-0.48611926962499297	-0.39971746560022514
-0.48605823446874297	-0.3956551867536722
-0.48599719931249297	-0.3908423386788261
-0.48593616415624297	-0.3852877332921261
-0.48587512899999297	-0.37900161175287195
-0.48581409384374297	-0.3719954830395427
-0.48575305868749297	-0.3642821072857252
-0.48569202353124297	-0.35587576641414986
-0.48563098837499297	-0.34679210692396745
-0.48556995321874297	-0.33704752564649304
-0.48550891806249297	-0.32666012289799873
-0.48544788290624297	-0.31564937534482657
-0.48538684774999297	-0.3040351908849724
-0.48532581259374297	-0.29183913831077263
-0.48526477743749297	-0.27908407956052206
-0.48520374228124297	-0.2657932777717126
-0.48514270712499297	-0.2519913388816076
-0.48508167196874297	-0.23770413212810348
-0.48502063681249297	-0.2229579104382693
-0.48495960165624297	-0.20777992483367377
-0.48489856649999297	-0.1921985938658866
-0.48483753134374297	-0.17624270500830255
-0.48477649618749297	-0.1599417816228871
-0.48471546103124297	-0.14332633238018425
-0.48465442587499297	-0.12642708196509625
-0.48459339071874297	-0.10927540070897777
-0.48453235556249297	-0.09190343642640575
-0.48447132040624297	-0.07434325659508409
-0.48441028524999297	-0.0566277032428007
-0.48434925009374297	-0.03878983053059439
-0.48428821493749297	-0.020862579568973028
-0.48422717978124297	-0.002879871083603463
-0.48416614462499297	0.015125065196557885
-0.48410510946874297	0.0331188514526532
-0.48404407431249297	0.051067220097160713
-0.48398303915624297	0.06893710524162619
-0.48392200399999297	0.08669521719244595
-0.48386096884374297	0.10430788752154767
-0.48379993368749297	0.12174235833887576
-0.48373889853124297	0.13896609678926355
-0.48367786337499297	0.15594671488117798
-0.48361682821874297	0.17265223664522467
-0.48355579306249297	0.18905146692891983
-0.48349475790624297	0.2051135919582379
-0.48343372274999297	0.22080829685367617
-0.48337268759374297	0.23610619058830273
-0.48331165243749297	0.250978326830229
-0.48325061728124297	0.26539671119194075
-0.48318958212499297	0.2793342385239884
-0.48312854696874297	0.29276439288167844
-0.48306751181249297	0.3056618450001897
-0.48300647665624297	0.31800220978975935
-0.48294544149999297	0.3297619950890178
-0.48288440634374297	0.340918885717254
-0.48282337118749297	0.35145157896420204
-0.48276233603124297	0.36134007358228587
-0.48270130087499297	0.3705654514290924
-0.48264026571874297	0.37910980704721386
-0.48257923056249297	0.3869569336409674
-0.48251819540624297	0.3940917243232221
-0.48245716024999297	0.40050001086459525
-0.48239612509374297	0.4061695240631781
-0.48233508993749297	0.41108921562805123
-0.48227405478124297	0.41524904284413006
-0.48221301962499297	0.41864085325737593
-0.48215198446874297	0.42125773695300683
-0.48209094931249297	0.42309403567074433
-0.48202991415624297	0.424145842607869
-0.48196887899999297	0.4244105315906473
-0.48190784384374297	0.4238869061877657
-0.48184680868749297	0.42257534564190335
-0.48178577353124297	0.4204776328168818
-0.48172473837499297	0.4175970052239812
-0.48166370321874297	0.4139381479989663
-0.48160266806249297	0.4095072374402509
-0.48154163290624297	0.4043118671164158
-0.48148059774999297	0.39836101546440467
-0.48141956259374297	0.3916651165166536
-0.48135852743749297	0.38423596896700396
-0.48129749228124297	0.37608678279280827
-0.48123645712499297	0.3672320379394875
-0.48117542196874297	0.3576875336875666
-0.48111438681249297	0.34747052383402804
-0.48105335165624297	0.33659929151414925
-0.48099231649999297	0.32509340929676306
-0.48093128134374297	0.3129738238843491
-0.48087024618749297	0.3002623658014551
-0.48080921103124297	0.2869821181655291
-0.48074817587499297	0.2731572549280018
-0.48068714071874297	0.25881288090073756
-0.48062610556249297	0.24397520843539378
-0.48056507040624297	0.2286711964152668
-0.48050403524999297	0.2129288768160693
-0.48044300009374297	0.19677703574162964
-0.48038196493749297	0.1802451323033395
-0.48032092978124297	0.1633636275751004
-0.48025989462499297	0.14616323564377567
-0.48019885946874297	0.12867560978913992
-0.48013782431249297	0.1109330784871057
-0.48007678915624297	0.09296782022242878
-0.48001575399999297	0.07481313707629043
-0.47995471884374297	0.05650250386129339
-0.47989368368749297	0.03806931624681984
-0.47983264853124297	0.019547860979807555
-0.47977161337499297	0.0009721226123281605
-0.47971057821874297	-0.017623713813917058
-0.47964954306249297	-0.0362050980163103
-0.47958850790624297	-0.05473793416054156
-0.47952747274999297	-0.07318798774055758
-0.47946643759374297	-0.09152085402881832
-0.47940540243749297	-0.10970295127844751
-0.47934436728124297	-0.1277007528812847
-0.47928333212499297	-0.14548026326718258
-0.47922229696874297	-0.16300915904435032
-0.47916126181249297	-0.18025515074966858
-0.47910022665624297	-0.1971853270946764
-0.47903919149999297	-0.2137689599898446
-0.47897815634374297	-0.22997551849985357
-0.47891712118749297	-0.245774122508302
-0.47885608603124297	-0.26113578871079285
-0.47879505087499297	-0.27603221102109027
-0.47873401571874297	-0.29043528250760325
-0.47867298056249297	-0.30431824502573446
-0.47861194540624297	-0.31765543446010813
-0.47855091024999297	-0.330421826376266
-0.47848987509374297	-0.34259350938948974
-0.47842883993749297	-0.3541480302150133
-0.47836780478124297	-0.36506363638747413
-0.47830676962499297	-0.3753197281698802
-0.47824573446874297	-0.3848974342523059
-0.47818469931249297	-0.39377868194221827
-0.47812366415624297	-0.4019466382532382
-0.47806262899999297	-0.4093861261738034
-0.47800159384374297	-0.4160831180632334
-0.47794055868749297	-0.42202490771035894
-0.47787952353124297	-0.4272002796223616
-0.47781848837499297	-0.4315994455853344
-0.47775745321874297	-0.43521398304894776
-0.47769641806249297	-0.43803695322816877
-0.47763538290624297	-0.44006291999622194
-0.47757434774999297	-0.4412878711005517
-0.47751331259374297	-0.44170931049207707
-0.47745227743749297	-0.44132623111152813
-0.47739124228124297	-0.44013911120942073
-0.47733020712499297	-0.4381499210723335
-0.47726917196874297	-0.4353621426731964
-0.47720813681249297	-0.43178073275462425
-0.47714710165624297	-0.4274120966861367
-0.47708606649999297	-0.42226413056452966
-0.47702503134374297	-0.41634621929798576
-0.47696399618749297	-0.409669135655358
-0.47690296103124297	-0.4022449999293678
-0.47684192587499297	-0.3940875082225783
-0.47678089071874297	-0.3852115883175385
-0.47671985556249297	-0.37563345698483314
-0.47665882040624297	-0.36537087942373386
-0.47659778524999297	-0.3544426344039653
-0.47653675009374297	-0.34286882525227064
-0.47647571493749297	-0.33067094430506594
-0.47641467978124297	-0.3178714070294283
-0.47635364462499297	-0.30449380757385486
-0.47629260946874297	-0.2905629339968609
-0.47623157431249297	-0.2761046203543638
-0.47617053915624297	-0.2611454794609473
-0.47610950399999297	-0.2457131674928467
-0.47604846884374297	-0.2298365449411722
-0.47598743368749297	-0.21354476363068955
-0.47592639853124297	-0.1968679868596252
-0.47586536337499297	-0.17983742752418616
-0.47580432821874297	-0.16248446760605686
-0.47574329306249297	-0.14484128486708797
-0.47568225790624297	-0.1269407409569508
-0.47562122274999297	-0.10881610074246609
-0.47556018759374297	-0.09050086065972354
-0.47549915243749297	-0.07202921877822063
-0.47543811728124297	-0.05343557995014116
-0.47537708212499297	-0.034754155896095526
-0.47531604696874297	-0.016020082752333815
-0.47525501181249297	0.002731891241911803
-0.47519397665624297	0.021467072985524627
-0.47513294149999297	0.04015028320435354
-0.47507190634374297	0.058747080835348776
-0.47501087118749297	0.0772225242301517
-0.47494983603124297	0.09554219427773934
-0.47488880087499297	0.1136724874777728
-0.47482776571874297	0.13157896974114866
-0.47476673056249297	0.14922842006227013
-0.47470569540624297	0.16658839407879797
-0.47464466024999297	0.1836259930176949
-0.47458362509374297	0.20030956862856128
-0.47452258993749297	0.21660828361595227
-0.47446155478124297	0.2324914889831811
-0.47440051962499297	0.2479294964310575
-0.47433948446874297	0.2628936797862204
-0.47427844931249297	0.2773561825217704
-0.47421741415624297	0.29128978552840784
-0.47415637899999297	0.3046684811368689
-0.47409534384374297	0.317467642827461
-0.47403430868749297	0.32966311598972176
-0.47397327353124297	0.3412320189088798
-0.47391223837499297	0.35215309176541926
-0.47385120321874297	0.36240577050587636
-0.47379016806249297	0.37197088345031715
-0.47372913290624297	0.38083070339241776
-0.47366809774999297	0.3889686549958599
-0.47360706259374297	0.3963695237433841
-0.47354602743749297	0.40301956877910244
-0.47348499228124297	0.40890644424808453
-0.47342395712499297	0.4140190732660669
-0.47336292196874297	0.41834803543590204
-0.47330188681249297	0.4218853299921407
-0.47324085165624297	0.42462432014693396
-0.47317981649999297	0.4265600045653937
-0.47311878134374297	0.4276888565020979
-0.47305774618749297	0.4280088367137103
-0.47299671103124297	0.42751942903390033
-0.47293567587499297	0.4262216814612659
-0.47287464071874297	0.42411811993357057
-0.47281360556249297	0.42121278832890635
-0.47275257040624297	0.4175112990820158
-0.47269153524999297	0.4130206629159077
-0.47263050009374297	0.4077494697186196
-0.47256946493749297	0.40170776233059313
-0.47250842978124297	0.3949069436687993
-0.47244739462499297	0.3873600247691401
-0.47238635946874297	0.37908130208524415
-0.47232532431249297	0.37008637916010145
-0.47226428915624297	0.3603924466769338
-0.47220325399999297	0.35001788197683203
-0.47214221884374297	0.33898219769683025
-0.47208118368749297	0.32730645755887117
-0.47202014853124297	0.31501280933882886
-0.47195911337499297	0.30212442712648485
-0.47189807821874297	0.28866585597489014
-0.47183704306249297	0.2746624953187829
-0.47177600790624297	0.2601410486012751
-0.47171497274999297	0.2451290212646186
-0.47165393759374297	0.22965455727994993
-0.47159290243749297	0.2137475012135702
-0.47153186728124297	0.19743786275765685
-0.47147083212499297	0.18075620306112408
-0.47140979696874297	0.16373469143315847
-0.47134876181249297	0.1464054858519055
-0.47128772665624297	0.1288012247137
-0.47122669149999297	0.11095560517062941
-0.47116565634374297	0.09290249896221014
-0.47110462118749297	0.07467606843606549
-0.47104358603124297	0.05631092893932986
-0.47098255087499297	0.03784218417996524
-0.47092151571874297	0.019304853936482298
-0.47086048056249297	0.0007338971092202537
-0.47079944540624297	-0.017834914441377928
-0.47073841024999297	-0.03636633028564594
-0.47067737509374297	-0.054825539259171455
-0.47061633993749297	-0.07317686600498859
-0.47055530478124297	-0.09138541045955387
-0.47049426962499297	-0.10941687492590131
-0.47043323446874297	-0.12723655857038743
