Time	Frequency
-0.5000548360625032	-5.924252233159298e-25
-0.4999938009062532	-4.875344473688318e-25
-0.4999327657500032	-3.812306828387149e-25
-0.4998717305937532	-2.738106316054387e-25
-0.4998106954375032	-1.6557841327913856e-25
-0.4997496602812532	-5.68383231268998e-26
-0.4996886251250032	5.210756062092006e-26
-0.4996275899687532	1.609503233116878e-25
-0.4995665548125032	2.693821487851947e-25
-0.4995055196562532	3.771017852289495e-25
-0.4994444845000032	4.838048337433129e-25
-0.4993834493437532	5.891883053710182e-25
-0.4993224141875032	6.929576762116426e-25
-0.4992613790312532	7.948207277152401e-25
-0.4992003438750032	8.944878720512387e-25
-0.4991393087187532	9.916792248835039e-25
-0.4990782735625032	1.086121034402055e-24
-0.4990172384062532	1.177544396059889e-24
-0.4989562032500032	1.2656921673657098e-24
-0.4988951680937532	1.3503148137440656e-24
-0.4988341329375032	1.4311711898772479e-24
-0.4987730977812532	1.5080340114460928e-24
-0.4987120626250032	1.5806841654025183e-24
-0.4986510274687532	1.6489142931933337e-24
-0.4985899923125032	1.712531802315671e-24
-0.4985289571562532	1.7713546230090796e-24
-0.4984679220000032	1.8252145201442935e-24
-0.4984068868437532	1.8739579688273882e-24
-0.4983458516875032	1.9174450054243037e-24
-0.4982848165312532	1.9555502701529685e-24
-0.4982237813750032	1.988163777233985e-24
-0.4981627462187532	2.015191052756682e-24
-0.4981017110625032	2.036552650237584e-24
-0.4980406759062532	2.052185500616214e-24
-0.4979796407500032	2.06204263149522e-24
-0.4979186055937532	2.0660926398564503e-24
-0.4978575704375032	2.064320995207062e-24
-0.4977965352812532	2.056729575397621e-24
-0.4977355001250032	2.043336091033166e-24
-0.4976744649687532	2.024174687014922e-24
-0.4976134298125032	1.999296240485461e-24
-0.4975523946562532	1.9687671150854384e-24
-0.4974913595000032	1.9326695195221486e-24
-0.4974303243437532	1.891102095764141e-24
-0.4973692891875032	1.8441778533153373e-24
-0.4973082540312532	1.7920259000135517e-24
-0.4972472188750032	1.7347896322952238e-24
-0.4971861837187532	1.672625616315067e-24
-0.4971251485625032	1.605707570587412e-24
-0.4970641134062532	1.534219511783588e-24
-0.4970030782500032	1.4583578762074276e-24
-0.4969420430937532	1.3783363383539477e-24
-0.4968810079375032	1.2943752426224523e-24
-0.4968199727812532	1.206706639966421e-24
-0.4967589376250032	1.1155774629817708e-24
-0.4966979024687532	1.0212395207794982e-24
-0.4966368673125032	9.239553012182487e-25
-0.4965758321562532	8.239982253090866e-25
-0.4965147970000032	7.216450356778006e-25
-0.4964537618437532	6.171822328521034e-25
-0.4963927266875032	5.109032647107276e-25
-0.4963316915312532	4.0310257121003487e-25
-0.4962706563750032	2.9408344748713863e-25
-0.4962096212187532	1.8415171319839134e-25
-0.4961485860625032	7.361319914507466e-26
-0.4960875509062532	-3.7220719134756115e-26
-0.4960265157500032	-1.4804047725455484e-25
-0.4959654805937532	-2.585339789338998e-25
-0.4959044454375032	-3.683906271335252e-25
-0.4958434102812532	-4.773057160335353e-25
-0.4957823751250032	-5.849694099482106e-25
-0.4957213399687532	-6.910784046400153e-25
-0.4956603048125032	-7.953386767994718e-25
-0.4955992696562532	-8.974539645686316e-25
-0.4955382345000032	-9.971357267695238e-25
-0.4954771993437532	-1.0941056984887098e-24
-0.4954161641875032	-1.1880893109221767e-24
-0.4953551290312532	-1.2788216217135637e-24
-0.4952940938750032	-1.3660466156938612e-24
-0.4952330587187532	-1.4495169601564586e-24
-0.4951720235625032	-1.528998974311071e-24
-0.4951109884062532	-1.604266578117267e-24
-0.4950499532500032	-1.6751051495220068e-24
-0.4949889180937532	-1.741316592093674e-24
-0.4949278829375032	-1.802712113379897e-24
-0.4948668477812532	-1.8591160938118084e-24
-0.4948058126250032	-1.91036965446048e-24
-0.4947447774687532	-1.956326142841419e-24
-0.4946837423125032	-1.996853927721999e-24
-0.4946227071562532	-2.031837700272945e-24
-0.4945616720000032	-2.0611762127797262e-24
-0.4945006368437532	-2.08478497869278e-24
-0.4944396016875032	-2.1025958226985145e-24
-0.4943785665312532	-2.114555644424446e-24
-0.4943175313750032	-2.1206287198708662e-24
-0.4942564962187532	-2.120795877822447e-24
-0.4941954610625032	-2.1150539240563868e-24
-0.4941344259062532	-2.1034167724083705e-24
-0.4940733907500032	-2.085914858451244e-24
-0.4940123555937532	-2.0625947074446026e-24
-0.4939513204375032	-2.033519797833659e-24
-0.4938902852812532	-1.9987697329834822e-24
-0.4938292501250032	-1.9584393643022116e-24
-0.4937682149687532	-1.9126401691008952e-24
-0.4937071798125032	-1.8614990960082138e-24
-0.4936461446562532	-1.8051569703136513e-24
-0.4935851095000032	-1.743770407229439e-24
-0.4935240743437532	-1.6775108476159645e-24
-0.4934630391875032	-1.6065614832172287e-24
-0.4934020040312532	-1.5311198028473837e-24
-0.4933409688750032	-1.4513973600353125e-24
-0.4932799337187532	-1.3676162127119436e-24
-0.4932188985625032	-1.2800094810131194e-24
-0.4931578634062532	-1.1888219045315277e-24
-0.4930968282500032	-1.094310187254116e-24
-0.4930357930937532	-9.967380230140415e-25
-0.4929747579375032	-8.963762088546549e-25
-0.4929137227812532	-7.935086085649331e-25
-0.4928526876250032	-6.884239757862337e-25
-0.4927916524687532	-5.814138318128653e-25
-0.4927306173125032	-4.7277984172570675e-25
-0.4926695821562532	-3.628278197150717e-25
-0.4926085470000032	-2.5186475364424596e-25
-0.4925475118437532	-1.4020293684069898e-25
-0.4924864766875032	-2.8155792577356876e-26
-0.4924254415312532	8.396250158524759e-26
-0.4923644063750032	1.958357961350045e-25
-0.4923033712187532	3.071501372440976e-25
-0.4922423360625032	4.175925575217484e-25
-0.4921813009062532	5.268525481882699e-25
-0.4921202657500032	6.3462330058979e-25
-0.4920592305937532	7.405999510214497e-25
-0.4919981954375032	8.444847472355391e-25
-0.4919371602812532	9.459866860220544e-25
-0.4918761251250032	1.0448188562324576e-24
-0.4918150899687532	1.1407019411500674e-24
-0.4917540548125032	1.233366703259323e-24
-0.4916930196562532	1.3225531260780898e-24
-0.4916319845000032	1.4080082498209134e-24
-0.4915709493437532	1.489490735949816e-24
-0.4915099141875032	1.5667727754704945e-24
-0.4914488790312532	1.639635611726283e-24
-0.4913878438750032	1.7078726072851915e-24
-0.4913268087187532	1.7712924436596265e-24
-0.4912657735625032	1.829716295347891e-24
-0.4912047384062532	1.8829784266785845e-24
-0.4911437032500032	1.930929213258364e-24
-0.4910826680937532	1.9734331843443372e-24
-0.4910216329375032	2.010369656766114e-24
-0.4909605977812532	2.0416355016752314e-24
-0.4908995626250032	2.0671420990198272e-24
-0.4908385274687532	2.086816627091167e-24
-0.4907774923125032	2.1006045789942817e-24
-0.4907164571562532	2.1084670269759747e-24
-0.4906554220000032	2.110381222441752e-24
-0.4905943868437532	2.1063423791455323e-24
-0.4905333516875032	2.096362252443453e-24
-0.4904723165312532	2.080468761204648e-24
-0.4904112813750032	2.0587072202140052e-24
-0.4903502462187532	2.0311397607222847e-24
-0.4902892110625032	1.9978444813057854e-24
-0.4902281759062532	1.9589155078891904e-24
-0.4901671407500032	1.914463373811285e-24
-0.4901061055937532	1.8646151598062517e-24
-0.4900450704375032	1.809511728666346e-24
-0.4899840352812532	1.749308530471322e-24
-0.4899230001250032	1.6841779309427347e-24
-0.4898619649687532	1.6143048168703731e-24
-0.4898009298125032	1.539886822059049e-24
-0.4897398946562532	1.4611353225374955e-24
-0.4896788595000032	1.3782742760826703e-24
-0.4896178243437532	1.2915401363200007e-24
-0.4895567891875032	1.2011778156300708e-24
-0.4894957540312532	1.1074441249053986e-24
-0.4894347188750032	1.010607280544585e-24
-0.4893736837187532	9.109410867921154e-25
-0.4893126485625032	8.087288984419826e-25
-0.4892516134062532	7.042626025076584e-25
-0.4891905782500032	5.978386013447481e-25
-0.4891295430937532	4.897595835210132e-25
-0.4890685079375032	3.803338708716675e-25
-0.4890074727812532	2.6987243227353882e-25
-0.4889464376250032	1.586894823525566e-25
-0.4888854024687532	4.710282636016407e-26
-0.4888243673125032	-6.457008756810265e-26
-0.4887633321562532	-1.7601232553530665e-25
-0.4887022970000032	-2.8690454155365877e-25
-0.4886412618437532	-3.969308175407724e-25
-0.4885802266875032	-5.0577893626715145e-25
-0.4885191915312532	-6.131361294331148e-25
-0.4884581563750032	-7.186975962413459e-25
-0.4883971212187532	-8.221625782005376e-25
-0.4883360860625032	-9.23232907899389e-25
-0.4882750509062532	-1.0216231421938605e-24
-0.4882140157500032	-1.1170514543306232e-24
-0.4881529805937532	-1.2092422176617063e-24
-0.4880919454375032	-1.2979355082998e-24
-0.4880309102812532	-1.3828771944583438e-24
-0.4879698751250032	-1.4638213225486046e-24
-0.4879088399687532	-1.5405387515382144e-24
-0.4878478048125032	-1.6128099413369908e-24
-0.4877867696562532	-1.6804254778951238e-24
-0.4877257345000032	-1.7431935626442306e-24
-0.4876646993437532	-1.8009338692236666e-24
-0.4876036641875032	-1.8534785211676866e-24
-0.4875426290312532	-1.900678720594986e-24
-0.4874815938750032	-1.9423984758060682e-24
-0.4874205587187532	-1.9785154897115154e-24
-0.4873595235625032	-2.0089270353998867e-24
-0.4872984884062532	-2.033545441991308e-24
-0.4872374532500032	-2.0522978732063325e-24
-0.4871764180937532	-2.06513003040894e-24
-0.4871153829375032	-2.0720042404141436e-24
-0.4870543477812532	-2.0728992510746233e-24
-0.4869933126250032	-2.0678113051218897e-24
-0.4869322774687532	-2.056753610249809e-24
-0.4868712423125032	-2.039756499788879e-24
-0.4868102071562532	-2.0168671125608868e-24
-0.4867491720000032	-1.9881497314845e-24
-0.4866881368437532	-1.9536854071473853e-24
-0.4866271016875032	-1.9135706905292762e-24
-0.4865660665312532	-1.867919476421683e-24
-0.4865050313750032	-1.816861718116638e-24
-0.4864439962187532	-1.7605412344865286e-24
-0.4863829610625032	-1.6991181982960563e-24
-0.4863219259062532	-1.6327678202628255e-24
-0.4862608907500032	-1.5616782753279833e-24
-0.4861998555937532	-1.4860523450364501e-24
-0.4861388204375032	-1.4061055272234498e-24
-0.4860777852812532	-1.3220646921445878e-24
-0.4860167501250032	-1.234171054357497e-24
-0.4859557149687532	-1.1426756357895859e-24
-0.4858946798125032	-1.0478374538094851e-24
-0.4858336446562532	-9.499292422678292e-25
-0.4857726095000032	-8.492318304007437e-25
-0.4857115743437532	-7.460306373720096e-25
-0.4856505391875032	-6.40621893196024e-25
-0.4855895040312532	-5.333091740431133e-25
-0.4855284688750032	-4.2439744322100835e-25
-0.4854674337187532	-3.141984568492225e-25
-0.4854063985625032	-2.0303072214833304e-25
-0.4853453634062532	-9.121155451196457e-26
-0.4852843282500032	2.0940114050023144e-26
-0.4852232930937532	1.3309945873095393e-25
-0.4851622579375032	2.4494451932412925e-25
-0.4851012227812532	3.5615689387283624e-25
-0.4850401876250032	4.664143736677894e-25
-0.4849791524687532	5.753993111643787e-25
-0.4849181173125032	6.8280031888462325e-25
-0.4848570821562532	7.883068026978138e-25
-0.4847960470000032	8.916147827977994e-25
-0.4847350118437532	9.924268782516034e-25
-0.4846739766875032	1.0904512118727432e-24
-0.4846129415312532	1.1854059749313702e-24
-0.4845519063750032	1.2770170503032293e-24
-0.4844908712187532	1.3650175344098647e-24
-0.4844298360625032	1.449153881253141e-24
-0.4843688009062532	1.529183528503881e-24
-0.4843077657500032	1.6048722011720722e-24
-0.4842467305937532	1.676000284698024e-24
-0.4841856954375032	1.7423624895707264e-24
-0.4841246602812532	1.8037642420016293e-24
-0.4840636251250032	1.8600256889970484e-24
-0.4840025899687532	1.9109832704528146e-24
-0.4839415548125032	1.9564873226022332e-24
-0.4838805196562532	1.996403088176661e-24
-0.4838194845000032	2.0306129038259298e-24
-0.4837584493437532	2.0590153085407612e-24
-0.4836974141875032	2.0815246202392766e-24
-0.4836363790312532	2.09807246841073e-24
-0.4835753438750032	2.108607601208303e-24
-0.4835143087187532	2.1130959281330525e-24
-0.4834532735625032	2.111520672862447e-24
-0.4833922384062532	2.1038819043816867e-24
-0.4833312032500032	2.0901978470877967e-24
-0.4832701680937532	2.0705039834098533e-24
-0.4832091329375032	2.0448518441964685e-24
-0.4831480977812532	2.0133117723501576e-24
-0.4830870626250032	1.9759704045100694e-24
-0.4830260274687532	1.9329294144361787e-24
-0.4829649923125032	1.8843099475332058e-24
-0.4829039571562532	1.830247306046266e-24
-0.4828429220000032	1.770890852911985e-24
-0.4827818868437532	1.7064095208504592e-24
-0.4827208516875032	1.636983842862904e-24
-0.4826598165312532	1.5628073651948874e-24
-0.4825987813750032	1.484092087604438e-24
-0.4825377462187532	1.4010594978632311e-24
-0.4824767110625032	1.313942550679241e-24
-0.4824156759062532	1.2229902738227494e-24
-0.4823546407500032	1.1284600828425378e-24
-0.4822936055937532	1.0306186127477613e-24
-0.4822325704375032	9.297451187530875e-25
-0.4821715352812532	8.261259846388442e-25
-0.4821105001250032	7.2005518167418805e-25
-0.4820494649687532	6.118358587799629e-25
-0.4819884298125032	5.017748475313833e-25
-0.4819273946562532	3.901858441050908e-25
-0.4818663595000032	2.7738873436145784e-25
-0.4818053243437532	1.6370325801679855e-25
-0.4817442891875032	4.945445378271969e-26
-0.4816832540312532	-6.503026374322241e-26
-0.4816222188750032	-1.7942535224835438e-25
-0.4815611837187532	-2.9340255259163657e-25
-0.4815001485625032	-4.066361046118477e-25
-0.4814391134062532	-5.188029453232278e-25
-0.4813780782500032	-6.295799371055333e-25
-0.4813170430937532	-7.386509180176167e-25
-0.4812560079375032	-8.457041365782439e-25
-0.4811949727812532	-9.504306163776455e-25
-0.4811339376250032	-1.0525303548631769e-24
-0.4810729024687532	-1.1517114072066696e-24
-0.4810118673125032	-1.2476879033747034e-24
-0.4809508321562532	-1.3401832789724227e-24
-0.4808897970000032	-1.4289332189711022e-24
-0.4808287618437532	-1.5136811841513386e-24
-0.4807677266875032	-1.5941819037570138e-24
-0.4807066915312532	-1.670205950827592e-24
-0.4806456563750032	-1.7415328648437013e-24
-0.4805846212187532	-1.8079553102505073e-24
-0.4805235860625032	-1.8692826792191042e-24
-0.4804625509062532	-1.925337459052086e-24
-0.4804015157500032	-1.9759571258264683e-24
-0.4803404805937532	-2.020994122350423e-24
-0.4802794454375032	-2.060317399190848e-24
-0.4802184102812532	-2.0938131875902597e-24
-0.4801573751250032	-2.121382756871951e-24
-0.4800963399687532	-2.1429447750336385e-24
-0.4800353048125032	-2.1584358951444673e-24
-0.4799742696562532	-2.167809215336017e-24
-0.4799132345000032	-2.171035674691403e-24
-0.4798521993437532	-2.1681041872678633e-24
-0.4797911641875032	-2.159020705486641e-24
-0.4797301290312532	-2.1438091752851705e-24
-0.4796690938750032	-2.122511222248045e-24
-0.4796080587187532	-2.095185620513745e-24
-0.4795470235625032	-2.0619088314844163e-24
-0.4794859884062532	-2.0227739572354788e-24
-0.4794249532500032	-1.9778913819918845e-24
-0.4793639180937532	-1.92738827829214e-24
-0.4793028829375032	-1.8714065223408194e-24
-0.4792418477812532	-1.8101055910409497e-24
-0.4791808126250032	-1.7436600176118182e-24
-0.4791197774687532	-1.672257022454136e-24
-0.4790587423125032	-1.5961011652330639e-24
-0.4789977071562532	-1.5154093682390725e-24
-0.4789366720000032	-1.4304103560047072e-24
-0.4788756368437532	-1.341347689327437e-24
-0.4788146016875032	-1.2484749820423568e-24
-0.4787535665312532	-1.152057797336377e-24
-0.4786925313750032	-1.0523717417716178e-24
-0.4786314962187532	-9.497004571456825e-25
-0.4785704610625032	-8.443388466287396e-25
-0.4785094259062532	-7.365888695886396e-25
-0.4784483907500032	-6.267573064483051e-25
-0.4783873555937532	-5.151586713725451e-25
-0.4783263204375032	-4.0211441310198876e-25
-0.4782652852812532	-2.8794733922772266e-25
-0.4782042501250032	-1.7298330084746248e-25
-0.4781432149687532	-5.755414759470015e-26
-0.4780821798125032	5.8009522305686e-26
-0.4780211446562532	1.7337832910235156e-25
-0.4779601095000032	2.882190466842394e-25
-0.4778990743437532	4.0220159715745163e-25
-0.4778380391875032	5.150014657832084e-25
-0.4777770040312532	6.262929509071638e-25
-0.4777159688750032	7.357555841159028e-25
-0.4776549337187532	8.430771895441205e-25
-0.4775938985625032	9.47947966874157e-25
-0.4775328634062532	1.05006616748644e-24
-0.4774718282500032	1.149139657191489e-24
-0.4774107930937532	1.2448826309171712e-24
-0.4773497579375032	1.3370199424574613e-24
-0.4772887227812532	1.425286906499407e-24
-0.4772276876250032	1.5094291048683413e-24
-0.4771666524687532	1.5892055932272481e-24
-0.4771056173125032	1.66438582492433e-24
-0.4770445821562532	1.7347531459921217e-24
-0.4769835470000032	1.800107023573657e-24
-0.4769225118437532	1.8602577912883445e-24
-0.4768614766875032	1.9150320970690648e-24
-0.4768004415312532	1.9642739306710635e-24
-0.4767394063750032	2.0078405795875597e-24
-0.4766783712187532	2.0456065529257818e-24
-0.4766173360625032	2.07746390471035e-24
-0.4765563009062532	2.1033209216927178e-24
-0.4764952657500032	2.123103263588169e-24
-0.4764342305937532	2.1367541538259546e-24
-0.4763731954375032	2.1442348105919932e-24
-0.4763121602812532	2.1455240799502783e-24
-0.4762511251250032	2.1406185492015003e-24
-0.4761900899687532	2.1295330187131832e-24
-0.4761290548125032	2.1122997588839195e-24
-0.4760680196562532	2.088969261398121e-24
-0.4760069845000032	2.0596098206118576e-24
-0.4759459493437532	2.0243059503991166e-24
-0.4758849141875032	1.9831607458767023e-24
-0.4758238790312532	1.9362945893625236e-24
-0.4757628438750032	1.8838421933256233e-24
-0.4757018087187532	1.825956207825713e-24
-0.4756407735625032	1.7628058893638938e-24
-0.4755797384062532	1.694573546146618e-24
-0.4755187032500032	1.6214572301332211e-24
-0.4754576680937532	1.5436698991338498e-24
-0.4753966329375032	1.4614370527782228e-24
-0.4753355977812532	1.3749979531163497e-24
-0.4752745626250032	1.2846035793961673e-24
-0.4752135274687532	1.1905156326013112e-24
-0.4751524923125032	1.0930087388648181e-24
-0.4750914571562532	9.923662651326575e-25
-0.4750304220000032	8.888795641199699e-25
-0.4749693868437532	7.8285057565883915e-25
-0.4749083516875032	6.7458700959208995e-25
-0.4748473165312532	5.644036969100092e-25
-0.4747862813750032	4.526221562223706e-25
-0.4747252462187532	3.3956604026059473e-25
-0.4746642110625032	2.2556490797461113e-25
-0.4746031759062532	1.109512422167951e-25
-0.4745421407500032	-3.9418675812457414e-27
-0.4744811055937532	-1.1877960100460046e-25
-0.4744200704375032	-2.3322879266662977e-25
-0.4743590352812532	-3.469540532283906e-25
-0.4742980001250032	-4.596232787410729e-25
-0.4742369649687532	-5.709123440821275e-25
-0.4741759298125032	-6.804932604386059e-25
-0.4741148946562532	-7.880441587642159e-25
-0.4740538595000032	-8.932572961016262e-25
-0.4739928243437532	-9.958227304401106e-25
-0.4739317891875032	-1.0954370798378977e-24
-0.4738707540312532	-1.1918152732826584e-24
-0.4738097188750032	-1.2846745348578688e-24
-0.4737486837187532	-1.373739048956365e-24
-0.4736876485625032	-1.4587525700887378e-24
-0.4736266134062532	-1.5394661814794647e-24
-0.4735655782500032	-1.6156407887974564e-24
-0.4735045430937532	-1.687055075166887e-24
-0.4734435079375032	-1.753499673532443e-24
-0.4733824727812532	-1.814778770679894e-24
-0.4733214376250032	-1.8707125156118346e-24
-0.4732604024687532	-1.9211368341106297e-24
-0.4731993673125032	-1.9659028065257347e-24
-0.4731383321562532	-2.004877987632082e-24
-0.4730772970000032	-2.0379480606244925e-24
-0.4730162618437532	-2.065014228871293e-24
-0.4729552266875032	-2.0859955919248183e-24
-0.4728941915312532	-2.1008301849632936e-24
-0.4728331563750032	-2.109472398737836e-24
-0.4727721212187532	-2.111895034364917e-24
-0.4727110860625032	-2.1080896998973343e-24
-0.4726500509062532	-2.098065620274937e-24
-0.4725890157500032	-2.0818501269297823e-24
-0.4725279805937532	-2.0594886497424313e-24
-0.4724669454375032	-2.0310449364154323e-24
-0.4724059102812532	-1.996600260249386e-24
-0.4723448751250032	-1.9562531233847227e-24
-0.4722838399687532	-1.9101195149181444e-24
-0.4722228048125032	-1.8583328476220725e-24
-0.4721617696562532	-1.8010429258443264e-24
-0.4721007345000032	-1.7384143171844012e-24
-0.4720396993437532	-1.6706288701491326e-24
-0.4719786641875032	-1.5978839565157184e-24
-0.4719176290312532	-1.5203895281492536e-24
-0.4718565938750032	-1.4383708491644652e-24
-0.4717955587187532	-1.3520661166397912e-24
