Time	Frequency
-0.5000207260312379	0.02817426176283964
-0.4999596908749879	0.00406400996510004
-0.4998986557187379	-0.020088480743566884
-0.4998376205624879	-0.04422119263820585
-0.4997765854062379	-0.06827162282259386
-0.4997155502499879	-0.09217703613485745
-0.4996545150937379	-0.11587572227342187
-0.4995934799374879	-0.13930606387883904
-0.4995324447812379	-0.16240739034968082
-0.4994714096249879	-0.18511956602751795
-0.4994103744687379	-0.20738320807739802
-0.4993493393124879	-0.22914098404607047
-0.4992883041562379	-0.2503359105908055
-0.4992272689999879	-0.2709124237680089
-0.4991662338437379	-0.2908174620629339
-0.4991051986874879	-0.30999878492012833
-0.4990441635312379	-0.32840597182434333
-0.4989831283749879	-0.34599118682038427
-0.4989220932187379	-0.36270839702721563
-0.4988610580624879	-0.378513553661759
-0.4988000229062379	-0.39336511325220275
-0.4987389877499879	-0.4072241272733825
-0.4986779525937379	-0.42005405002923973
-0.4986169174374879	-0.4318208733301283
-0.4985558822812379	-0.4424934442207282
-0.4984948471249879	-0.45204343708823436
-0.4984338119687379	-0.4604453823822628
-0.4983727768124879	-0.4676766728049413
-0.4983117416562379	-0.4737177664901958
-0.4982507064999879	-0.47855232461855535
-0.4981896713437379	-0.48216694112691805
-0.4981286361874879	-0.4845513500166058
-0.4980676010312379	-0.4856985543914209
-0.4980065658749879	-0.4856047472794896
-0.4979455307187379	-0.48426928100307925
-0.4978844955624879	-0.48169467521833914
-0.4978234604062379	-0.47788673225397127
-0.4977624252499879	-0.47285445219876915
-0.4977013900937379	-0.4666098985273999
-0.4976403549374879	-0.4591683617259667
-0.4975793197812379	-0.45054828008282016
-0.4975182846249879	-0.44077094170368303
-0.4974572494687379	-0.4298608710555179
-0.4973962143124879	-0.41784543524157153
-0.4973351791562379	-0.40475474918333043
-0.4972741439999879	-0.39062210828498095
-0.4972131088437379	-0.37548290036544174
-0.4971520736874879	-0.3593755037018656
-0.4970910385312379	-0.34234141984978994
-0.4970300033749879	-0.32442315185089676
-0.4969689682187379	-0.30566622025017426
-0.4969079330624879	-0.2861194882690858
-0.4968468979062379	-0.2658319532798235
-0.4967858627499879	-0.24485490633693777
-0.4967248275937379	-0.22324319482450358
-0.4966637924374879	-0.20105157172768529
-0.4966027572812379	-0.17833614803489845
-0.4965417221249879	-0.15515589628842794
-0.4964806869687379	-0.13157009429196515
-0.4964196518124879	-0.10763892350928819
-0.4963586166562379	-0.08342378032656785
-0.4962975814999879	-0.05898695473546162
-0.4962365463437379	-0.03439135349729034
-0.4961755111874879	-0.009699695519332044
-0.4961144760312379	0.015024363082501343
-0.4960534408749879	0.03971699702070738
-0.4959924057187379	0.06431505555180662
-0.4959313705624879	0.08875526623460453
-0.4958703354062379	0.11297449024216458
-0.4958093002499879	0.13691043247769394
-0.4957482650937379	0.16050164845423098
-0.4956872299374879	0.1836871720584152
-0.4956261947812379	0.20640737488107935
-0.4955651596249879	0.22860365090271045
-0.4955041244687379	0.2502186162502443
-0.4954430893124879	0.2711969182838497
-0.4953820541562379	0.2914841854688851
-0.4953210189999879	0.31102792041304256
-0.4952599838437379	0.3297780921669008
-0.4951989486874879	0.3476860942015387
-0.4951379135312379	0.36470557271647586
-0.4950768783749879	0.38079283879049175
-0.4950158432187379	0.39590625356851955
-0.4949548080624879	0.4100067676150796
-0.4948937729062379	0.4230579222619695
-0.4948327377499879	0.43502610213854204
-0.4947717025937379	0.44588048082062803
-0.4947106674374879	0.4555927634849858
-0.4946496322812379	0.4641380895687611
-0.4945885971249879	0.4714944030235813
-0.4945275619687379	0.4776425612919097
-0.4944665268124879	0.48256689366012223
-0.4944054916562379	0.48625464004784
-0.4943444564999879	0.48869629153754685
-0.4942834213437379	0.48988565591502786
-0.4942223861874879	0.48981973962790354
-0.4941613510312379	0.48849880810451096
-0.4941003158749879	0.48592630867417075
-0.4940392807187379	0.4821090853372858
-0.4939782455624879	0.4770571766640516
-0.4939172104062379	0.47078367706764107
-0.4938561752499879	0.46330504271479167
-0.4937951400937379	0.45464084632208424
-0.4937341049374879	0.44481363267107993
-0.4936730697812379	0.4338490356966526
-0.4936120346249879	0.4217756490420688
-0.4935509994687379	0.40862503870253836
-0.4934899643124879	0.3944314547847738
-0.4934289291562379	0.3792318298698647
-0.4933678939999879	0.36306590391177884
-0.4933068588437379	0.34597580983185666
-0.4932458236874879	0.32800614178999965
-0.4931847885312379	0.30920377123506654
-0.4931237533749879	0.28961755643123105
-0.4930627182187379	0.2692988603009739
-0.4930016830624879	0.2483007802210252
-0.4929406479062379	0.2266775887669918
-0.4928796127499879	0.20448611105478903
-0.4928185775937379	0.18178448149121015
-0.4927575424374879	0.15863133682904587
-0.4926965072812379	0.13508760620332452
-0.4926354721249879	0.11121479546121874
-0.4925744369687379	0.08707464686525236
-0.4925134018124879	0.06273097745277538
-0.4924523666562379	0.03824717723997832
-0.4923913314999879	0.01368654708481456
-0.4923302963437379	-0.010885754921789352
-0.4922692611874879	-0.03540593403838761
-0.4922082260312379	-0.05981040578892478
-0.4921471908749879	-0.08403436605834091
-0.4920861557187379	-0.1080150805833481
-0.4920251205624879	-0.13169009010248447
-0.4919640854062379	-0.1549967832056137
-0.4919030502499879	-0.17787459776114875
-0.4918420150937379	-0.2002637338161428
-0.4917809799374879	-0.22210536741488596
-0.4917199447812379	-0.2433424176071872
-0.4916589096249879	-0.26391932108870525
-0.4915978744687379	-0.283782246691115
-0.4915368393124879	-0.30287910951232416
-0.4914758041562379	-0.32115973079942944
-0.4914147689999879	-0.3385764198367474
-0.4913537338437379	-0.355083662295854
-0.4912926986874879	-0.37063783879433804
-0.4912316635312379	-0.3851982975628836
-0.4911706283749879	-0.3987271107304513
-0.4911095932187379	-0.4111884936898963
-0.4910485580624879	-0.422549704551527
-0.4909875229062379	-0.4327813010629001
-0.4909264877499879	-0.441856222291194
-0.4908654525937379	-0.4497503855924803
-0.4908044174374879	-0.4564434466710346
-0.4907433822812379	-0.4619177612054927
-0.4906823471249879	-0.4661586934933579
-0.4906213119687379	-0.46915527545499836
-0.4905602768124879	-0.470899657603776
-0.4904992416562379	-0.471387106323642
-0.4904382064999879	-0.4706163575770801
-0.4903771713437379	-0.4685894730284961
-0.4903161361874879	-0.465311705603173
-0.4902551010312379	-0.4607916376717881
-0.4901940658749879	-0.45504116320632765
-0.4901330307187379	-0.4480753672684245
-0.4900719955624879	-0.43991253617666354
-0.4900109604062379	-0.4305741637612308
-0.4899499252499879	-0.4200847203977295
-0.4898888900937379	-0.40847183337508514
-0.4898278549374879	-0.3957661735103021
-0.4897668197812379	-0.38200094275541885
-0.4897057846249879	-0.36721242782645996
-0.4896447494687379	-0.35143980707474903
-0.4895837143124879	-0.33472438836957086
-0.4895226791562379	-0.3171101573453498
-0.4894616439999879	-0.2986436956841821
-0.4894006088437379	-0.2793736702940911
-0.4893395736874879	-0.2593508880335462
-0.4892785385312379	-0.23862800536110246
-0.4892175033749879	-0.21725970446033369
-0.4891564682187379	-0.1953028124843209
-0.4890954330624879	-0.1728149872930984
-0.4890343979062379	-0.1498551513083655
-0.4889733627499879	-0.12648469997964726
-0.4889123275937379	-0.10276546641887699
-0.4888512924374879	-0.07875939826012815
-0.4887902572812379	-0.05453029130992448
-0.4887292221249879	-0.03014277516657437
-0.4886681869687379	-0.00566095556441217
-0.4886071518124879	0.01885065861775358
-0.4885461166562379	0.04332648962774073
-0.4884850814999879	0.06770185483841358
-0.4884240463437379	0.09191258702727693
-0.4883630111874879	0.11589367368278551
-0.4883019760312379	0.13958191981615306
-0.4882409408749879	0.16291485278238427
-0.4881799057187379	0.1858293697850255
-0.4881188705624879	0.20826511143301701
-0.4880578354062379	0.2301629828768635
-0.4879968002499879	0.25146372446898224
-0.4879357650937379	0.2721107193915886
-0.4878747299374879	0.2920494633450906
-0.4878136947812379	0.3112263129428142
-0.4877526596249879	0.32958987568258885
-0.4876916244687379	0.34709138003648915
-0.4876305893124879	0.36368384222251854
-0.4875695541562379	0.3793224727144801
-0.4875085189999879	0.39396550366760413
-0.4874474838437379	0.4075736746438035
-0.4873864486874879	0.42010992587202733
-0.4873254135312379	0.4315404017395939
-0.4872643783749879	0.4418343453038689
-0.4872033432187379	0.4509635754562531
-0.4871423080624879	0.45890305635040585
-0.4870812729062379	0.4656310048971524
-0.4870202377499879	0.4711288090773118
-0.4869592025937379	0.4753809827204167
-0.4868981674374879	0.4783753165852676
-0.4868371322812379	0.48010307326303975
-0.4867760971249879	0.48055869389975175
-0.4867150619687379	0.4797399823483916
-0.4866540268124879	0.4776481604159272
-0.4865929916562379	0.4742878338417346
-0.4865319564999879	0.4696668798335768
-0.4864709213437379	0.4637964057479389
-0.4864098861874879	0.45669113777972886
-0.4863488510312379	0.44836885797364273
-0.4862878158749879	0.43885035536751266
-0.4862267807187379	0.4281600096953824
-0.4861657455624879	0.4163251889584634
-0.4861047104062379	0.403375962438401
-0.4860436752499879	0.38934573763616664
-0.4859826400937379	0.3742707321575498
-0.4859216049374879	0.358189678894438
-0.4858605697812379	0.3411443783037882
-0.4857995346249879	0.32317888354398744
-0.4857384994687379	0.3043396891800695
-0.4856774643124879	0.28467600720894054
-0.4856164291562379	0.26423883995869796
-0.4855553939999879	0.2430813198801391
-0.4854943588437379	0.2212587375648693
-0.4854333236874879	0.19882791594400145
-0.4853722885312379	0.175847498382053
-0.4853112533749879	0.1523775998061988
-0.4852502182187379	0.1284793594839943
-0.4851891830624879	0.10421545255130346
-0.4851281479062379	0.0796495730765265
-0.4850671127499879	0.05484590980269502
-0.4850060775937379	0.029869394818338897
-0.4849450424374879	0.004785897651093682
-0.4848840072812379	-0.020338910825017292
-0.4848229721249879	-0.045439350592034786
-0.4847619369687379	-0.07044876468723259
-0.4847009018124879	-0.09530178346950531
-0.4846398666562379	-0.11993336401819517
-0.4845788314999879	-0.1442779269351775
-0.4845177963437379	-0.168271652952032
-0.4844567611874879	-0.19185164470771932
-0.4843957260312379	-0.21495522141681953
-0.4843346908749879	-0.23752149206293982
-0.4842736557187379	-0.2594913078465373
-0.4842126205624879	-0.2808060565962559
-0.4841515854062379	-0.30140952857104264
-0.4840905502499879	-0.3212477685354733
-0.4840295150937379	-0.3402674957145431
-0.4839684799374879	-0.35841843059436834
-0.4839074447812379	-0.37565305624852796
-0.4838464096249879	-0.3919251588689703
-0.4837853744687379	-0.40719133196266244
-0.4837243393124879	-0.42141134578026745
-0.4836633041562379	-0.43454726579444686
-0.4836022689999879	-0.4465639542382425
-0.4835412338437379	-0.45742939091548895
-0.4834801986874879	-0.4671144202631448
-0.4834191635312379	-0.4755931620511021
-0.4833581283749879	-0.4828427745835195
-0.4832970932187379	-0.48884360445947467
-0.4832360580624879	-0.49357944497179657
-0.4831750229062379	-0.4970372164402651
-0.4831139877499879	-0.4992073658095286
-0.4830529525937379	-0.5000837067241759
-0.4829919174374879	-0.4996633034823421
-0.4829308822812379	-0.4979468128802296
-0.4828698471249879	-0.49493829290924896
-0.4828088119687379	-0.490645109931441
-0.4827477768124879	-0.48507807075800274
-0.4826867416562379	-0.47825139137197525
-0.4826257064999879	-0.47018253676553357
-0.4825646713437379	-0.46089232170589783
-0.4825036361874879	-0.45040474380668666
-0.4824426010312379	-0.4387469907377727
-0.4823815658749879	-0.4259493426523141
-0.4823205307187379	-0.41204504032198414
-0.4822594955624879	-0.3970705211556046
-0.4821984604062379	-0.381064537991549
-0.4821374252499879	-0.36406902368349053
-0.4820763900937379	-0.34612877805101644
-0.4820153549374879	-0.32729001057425466
-0.4819543197812379	-0.30760245776505885
-0.4818932846249879	-0.2871181380747252
-0.4818322494687379	-0.26588987502054595
-0.4817712143124879	-0.24397372631508707
-0.4817101791562379	-0.22142775779475224
-0.4816491439999879	-0.19831035442345127
-0.4815881088437379	-0.17468244264386126
-0.4815270736874879	-0.15060672865074357
-0.4814660385312379	-0.12614579527441294
-0.4814050033749879	-0.10136413475093455
-0.4813439682187379	-0.0763273608406207
-0.4812829330624879	-0.051100917705326675
-0.4812218979062379	-0.02575140861245393
-0.4811608627499879	-0.0003456106709125072
-0.4810998275937379	0.02504953310500495
-0.4810387924374879	0.05036713023939415
-0.4809777572812379	0.07554064666556724
-0.4809167221249879	0.10050310423933129
-0.4808556869687379	0.12518925160114192
-0.4807946518124879	0.149534141307531
-0.4807336166562379	0.17347259456651104
-0.4806725814999879	0.196942231569394
-0.4806115463437379	0.2198811816228476
-0.4805505111874879	0.24222823823013898
-0.4804894760312379	0.26392496290976575
-0.4804284408749879	0.2849138546363529
-0.4803674057187379	0.3051392718980523
-0.4803063705624879	0.3245483377067492
-0.4802453354062379	0.34308932057986463
-0.4801843002499879	0.3607131379042784
-0.4801232650937379	0.3773738008351812
-0.4800622299374879	0.3930268278427377
-0.4800011947812379	0.4076307810097803
-0.4799401596249879	0.4211475780425388
-0.4798791244687379	0.4335411230956739
-0.4798180893124879	0.44477862423820763
-0.4797570541562379	0.45483074586123956
-0.4796960189999879	0.4636707559689202
-0.4796349838437379	0.47127531254055904
-0.4795739486874879	0.47762441776771125
-0.4795129135312379	0.4827013947102661
-0.4794518783749879	0.4864929393032754
-0.4793908432187379	0.48898901093042596
-0.4793298080624879	0.4901832058583568
-0.4792687729062379	0.4900725473097222
-0.4792077377499879	0.48865740522237466
-0.4791467025937379	0.48594175987854343
-0.4790856674374879	0.48193295124670654
-0.4790246322812379	0.47664178051972544
-0.4789635971249879	0.47008263325726946
-0.4789025619687379	0.46227292389584784
-0.4788415268124879	0.4532336186595183
-0.4787804916562379	0.44298918445342506
-0.4787194564999879	0.4315668146971658
-0.4786584213437379	0.4189970888445849
-0.4785973861874879	0.4053138048675794
-0.4785363510312379	0.3905534770233645
-0.4784753158749879	0.3747556942091128
-0.4784142807187379	0.35796264134722694
-0.4783532455624879	0.3402191624555374
-0.4782922104062379	0.3215730010244855
-0.4782311752499879	0.3020738869040136
-0.4781701400937379	0.2817739573150733
-0.4781091049374879	0.260727656945125
-0.4780480697812379	0.23899124656533505
-0.4779870346249879	0.21662299515190142
-0.4779259994687379	0.19368265303622625
-0.4778649643124879	0.17023181056220152
-0.4778039291562379	0.14633326627032306
-0.4777428939999879	0.12205084990722939
-0.4776818588437379	0.0974498387905285
-0.4776208236874879	0.07259608217258132
-0.4775597885312379	0.047556197481455266
-0.4774987533749879	0.022397403712793754
-0.4774377182187379	-0.002813075276192532
-0.4773766830624879	-0.02800740267036127
-0.4773156479062379	-0.053117656715873436
-0.4772546127499879	-0.0780771971695504
-0.4771935775937379	-0.10281875737308568
-0.4771325424374879	-0.12727506168964348
-0.4770715072812379	-0.15138151030839544
-0.4770104721249879	-0.17507320366364632
-0.4769494369687379	-0.19828548702311943
-0.4768884018124879	-0.22095676402294986
-0.4768273666562379	-0.24302616017967166
-0.4767663314999879	-0.2644337062996195
-0.4767052963437379	-0.2851218343235704
-0.4766442611874879	-0.30503512874350214
-0.4765832260312379	-0.3241197788746916
-0.4765221908749879	-0.34232400212719344
-0.4764611557187379	-0.3595990795851171
-0.4764001205624879	-0.3758980886105588
-0.4763390854062379	-0.3911768318499849
-0.4762780502499879	-0.4053943540938365
-0.4762170150937379	-0.4185118413502316
-0.4761559799374879	-0.4304936699892481
-0.4760949447812379	-0.4413073916933411
-0.4760339096249879	-0.45092360881680105
-0.4759728744687379	-0.45931602579430686
-0.4759118393124879	-0.4664615644539381
-0.4758508041562379	-0.4723407625457476
-0.4757897689999879	-0.47693734599121373
-0.4757287338437379	-0.4802384019869738
-0.4756676986874879	-0.48223467378923757
-0.4756066635312379	-0.4829203336147972
-0.4755456283749879	-0.48229301385009593
-0.4754845932187379	-0.4803538933348913
-0.4754235580624879	-0.47710772643233146
-0.4753625229062379	-0.47256276037459194
-0.4753014877499879	-0.4667306366948307
-0.4752404525937379	-0.4596265232626618
-0.4751794174374879	-0.4512691390837576
-0.4751183822812379	-0.44168036960928386
-0.4750573471249879	-0.4308853823475825
-0.4749963119687379	-0.4189129438547187
-0.4749352768124879	-0.4057946141548053
-0.4748742416562379	-0.39156512722775955
-0.4748132064999879	-0.3762625213506422
-0.4747521713437379	-0.3599272722086268
-0.4746911361874879	-0.34260285253787975
-0.4746301010312379	-0.3243355900649302
-0.4745690658749879	-0.305174273253239
-0.4745080307187379	-0.2851696734936796
-0.4744469955624879	-0.2643754121684394
-0.4743859604062379	-0.24284750848267198
-0.4743249252499879	-0.22064283481251443
-0.4742638900937379	-0.19782101062136115
-0.4742028549374879	-0.17444358455300563
-0.4741418197812379	-0.15057283760903045
-0.4740807846249879	-0.1262726852599149
-0.4740197494687379	-0.10160837420082681
-0.4739587143124879	-0.07664628658206683
-0.4738976791562379	-0.0514534913163532
-0.4738366439999879	-0.02609720455173338
-0.4737756088437379	-0.0006457828060189902
-0.4737145736874879	0.024831712346704497
-0.4736535385312379	0.05026753018119017
-0.4735925033749879	0.07559327225268668
-0.4735314682187379	0.10073974978740728
-0.4734704330624879	0.12563987942317653
-0.4734093979062379	0.15022685684524206
-0.4733483627499879	0.1744335237778042
-0.4732873275937379	0.19819484355074965
-0.4732262924374879	0.22144692428263654
-0.4731652572812379	0.24412652827038722
-0.4731042221249879	0.2661723526427032
-0.4730431869687379	0.28752483743275803
-0.4729821518124879	0.3081260079976146
-0.4729211166562379	0.3279200974278816
-0.4728600814999879	0.34685334463567014
-0.4727990463437379	0.36487399937274323
-0.4727380111874879	0.381933474657562
-0.4726769760312379	0.3979852956998579
-0.4726159408749879	0.41298515216620624
-0.4725549057187379	0.4268924607842229
-0.4724938705624879	0.4396692353426262
-0.4724328354062379	0.4512801186783305
-0.4723718002499879	0.4616933080435959
-0.4723107650937379	0.47088008529346487
-0.4722497299374879	0.4788149179927704
-0.4721886947812379	0.48547572459426624
-0.4721276596249879	0.4908438013517154
-0.4720666244687379	0.4949038785990201
-0.4720055893124879	0.49764425577819377
-0.4719445541562379	0.49905673588392846
-0.4718835189999879	0.4991366503538116
-0.4718224838437379	0.49788296073730853
-0.4717614486874879	0.49529823942649925
-0.4717004135312379	0.4913885810275234
-0.4716393783749879	0.4861635380003656
-0.4715783432187379	0.4796364954642437
-0.4715173080624879	0.4718241936740001
-0.4714562729062379	0.46274650794811734
-0.4713952377499879	0.45242731875719266
-0.4713342025937379	0.44089367906971133
-0.4712731674374879	0.42817537044478127
-0.4712121322812379	0.4143061135366861
-0.4711510971249879	0.3993225546801431
-0.4710900619687379	0.38326382418075305
-0.4710290268124879	0.3661728413537461
-0.4709679916562379	0.3480946704142462
-0.4709069564999879	0.3290767966100136
-0.4708459213437379	0.30917060550769887
-0.4707848861874879	0.2884285114783511
-0.4707238510312379	0.26690513130251775
-0.4706628158749879	0.24465877569220756
-0.4706017807187379	0.22174821976881354
-0.4705407455624879	0.19823426964006588
-0.4704797104062379	0.17418024509771188
-0.4704186752499879	0.14964992963580995
-0.4703576400937379	0.12470891892887281
-0.4702966049374879	0.09942415261401391
-0.4702355697812379	0.07386299611298072
-0.4701745346249879	0.04809367960222455
-0.4701134994687379	0.022185643633738508
-0.4700524643124879	-0.003791805155444871
-0.4699914291562379	-0.029769663127115768
-0.4699303939999879	-0.05567747861762659
-0.4698693588437379	-0.08144598638835078
-0.4698083236874879	-0.10700654112534028
-0.4697472885312379	-0.13228980855472505
-0.4696862533749879	-0.15722832892295188
