Time	Frequency
-0.5000262262499859	0.23756067588785712
-0.49996519109373594	0.2545829949345676
-0.49990415593748594	0.2711004417326315
-0.49984312078123594	0.2870785145922313
-0.49978208562498594	0.30248334727509946
-0.49972105046873594	0.3172823354001279
-0.49966001531248594	0.33144453608796137
-0.49959898015623594	0.3449398602511227
-0.49953794499998594	0.3577395797327116
-0.49947690984373594	0.36981686726465085
-0.49941587468748594	0.38114590020727657
-0.49935483953123594	0.3917025227440227
-0.49929380437498594	0.4014643941396032
-0.49923276921873594	0.41041050985765093
-0.49917173406248594	0.418521800257081
-0.49911069890623594	0.42578075587739245
-0.49904966374998594	0.43217164785335294
-0.49898862859373594	0.4376807511413056
-0.49892759343748594	0.4422958719178791
-0.49886655828123594	0.4460068334401293
-0.49880552312498594	0.4488053881137189
-0.49874448796873594	0.4506850369157182
-0.49868345281248594	0.45164130409488856
-0.49862241765623594	0.4516715911786132
-0.49856138249998594	0.4507752201382205
-0.49850034734373594	0.4489534858952423
-0.49843931218748594	0.4462095581355554
-0.49837827703123594	0.4425485363808497
-0.49831724187498594	0.43797749853542656
-0.49825620671873594	0.4325053537015666
-0.49819517156248594	0.4261428546716549
-0.49813413640623594	0.41890276348187355
-0.49807310124998594	0.41079954629472437
-0.49801206609373594	0.40184945108034154
-0.49795103093748594	0.3920706672940499
-0.49788999578123594	0.38148294905895525
-0.49782896062498594	0.3701077949270998
-0.49776792546873594	0.3579683842885069
-0.49770689031248594	0.34508949518841986
-0.49764585515623594	0.3314974829443059
-0.49758481999998594	0.31721999922630006
-0.49752378484373594	0.3022864705060941
-0.49746274968748594	0.2867275500000709
-0.49740171453123594	0.27057494132851906
-0.49734067937498594	0.25386213052480117
-0.49727964421873594	0.2366234483703352
-0.49721860906248594	0.218894152380636
-0.49715757390623594	0.2007109959386042
-0.49709653874998594	0.18211156405217366
-0.49703550359373594	0.16313403263532716
-0.49697446843748594	0.1438174763339116
-0.49691343328123594	0.12420209692999602
-0.49685239812498594	0.10432838209007479
-0.49679136296873594	0.08423718809274337
-0.49673032781248594	0.06397025847503623
-0.49666929265623594	0.04356950356285989
-0.49660825749998594	0.02307721230003157
-0.49654722234373594	0.002535808982065971
-0.49648618718748594	-0.018012365867060016
-0.49642515203123594	-0.038524404327809916
-0.49636411687498594	-0.058957779658113975
-0.49630308171873594	-0.07927048328895397
-0.49624204656248594	-0.09942008104292709
-0.49618101140623594	-0.11936466564267423
-0.49611997624998594	-0.13906312976690344
-0.49605894109373594	-0.15847442760683345
-0.49599790593748594	-0.17755819320034835
-0.49593687078123594	-0.1962749241901881
-0.49587583562498594	-0.21458564905760996
-0.49581480046873594	-0.23245229904228987
-0.49575376531248594	-0.2498378605557673
-0.49569273015623594	-0.26670613827480205
-0.49563169499998594	-0.2830220046062914
-0.49557065984373594	-0.2987516586743301
-0.49550962468748594	-0.31386235163144194
-0.49544858953123594	-0.3283226450752279
-0.49538755437498594	-0.3421025674530494
-0.49532651921873594	-0.35517334545346246
-0.49526548406248594	-0.3675078756488504
-0.49520444890623594	-0.3790806479043379
-0.49514341374998594	-0.38986741097500793
-0.49508237859373594	-0.39984580027847655
-0.49502134343748594	-0.4089952540148852
-0.49496030828123594	-0.4172966695421045
-0.49489927312498594	-0.42473279024307004
-0.49483823796873594	-0.43128828776933625
-0.49477720281248594	-0.4369495946269608
-0.49471616765623594	-0.44170498979395395
-0.49465513249998594	-0.4455446947623367
-0.49459409734373594	-0.44846081367994295
-0.49453306218748594	-0.45044741127127086
-0.49447202703123594	-0.4515005239763711
-0.49441099187498594	-0.451618060642907
-0.49434995671873594	-0.4507999543569639
-0.49428892156248594	-0.4490481493938697
-0.49422788640623594	-0.4463664367415102
-0.49416685124998594	-0.4427606055981403
-0.49410581609373594	-0.4382384504387984
-0.49404478093748594	-0.432809611774032
-0.49398374578123594	-0.426485660831095
-0.49392271062498594	-0.41928003210154413
-0.49386167546873594	-0.41120806807997795
-0.49380064031248594	-0.4022869459810947
-0.49373960515623594	-0.39253544351185693
-0.49367856999998594	-0.38197434875150305
-0.49361753484373594	-0.370626111049622
-0.49355649968748594	-0.35851452124625766
-0.49349546453123594	-0.3456654047584908
-0.49343442937498594	-0.33210605669793974
-0.49337339421873594	-0.31786489288968606
-0.49331235906248594	-0.30297223549915864
-0.49325132390623594	-0.28745971583624025
-0.49319028874998594	-0.27135986037799165
-0.49312925359373594	-0.2547069432495754
-0.49306821843748594	-0.23753627287383602
-0.49300718328123594	-0.21988394579254203
-0.49294614812498594	-0.20178752489601012
-0.49288511296873594	-0.1832852201185795
-0.49282407781248594	-0.16441620824659756
-0.49276304265623594	-0.14522053246886032
-0.49270200749998594	-0.1257385738505351
-0.49264097234373594	-0.1060117935619082
-0.49257993718748594	-0.08608209015469459
-0.49251890203123594	-0.06599133779353519
-0.49245786687498594	-0.045782098459215555
-0.49239683171873594	-0.025497638239926037
-0.49233579656248594	-0.005180609123530946
-0.49227476140623594	0.015126261584877976
-0.49221372624998594	0.0353792468570643
-0.49215269109373594	0.05553574642227561
-0.49209165593748594	0.07555334971609981
-0.49203062078123594	0.09538897492766364
-0.49196958562498594	0.11500090088313321
-0.49190855046873594	0.13434768847630132
-0.49184751531248594	0.1533878826548433
-0.49178648015623594	0.17208129982305675
-0.49172544499998594	0.19038829011870068
-0.49166440984373594	0.20826985632667241
-0.49160337468748594	0.2256880487591912
-0.49154233953123594	0.24260591206856827
-0.49148130437498594	0.2589874940814702
-0.49142026921873594	0.2747978389686119
-0.49135923406248594	0.29000347546050326
-0.49129819890623594	0.3045719912937817
-0.49123716374998594	0.3184723145982976
-0.49117612859373594	0.331675061718568
-0.49111509343748594	0.34415186666173686
-0.49105405828123594	0.35587615278801915
-0.49099302312498594	0.36682320579451305
-0.49093198796873594	0.3769694171067665
-0.49087095281248594	0.38629306654118883
-0.49080991765623594	0.39477444340072726
-0.49074888249998594	0.40239533841437497
-0.49068784734373594	0.4091393914908646
-0.49062681218748594	0.41499215078116924
-0.49056577703123594	0.4199410837876259
-0.49050474187498594	0.4239755541134319
-0.49044370671873594	0.4270867940108947
-0.49038267156248594	0.4292681079849961
-0.49032163640623594	0.43051470291055216
-0.49026060124998594	0.4308237538615019
-0.49019956609373594	0.43019453251287876
-0.49013853093748594	0.42862820867481405
-0.49007749578123594	0.42612792665329596
-0.49001646062498594	0.4226989419627259
-0.48995542546873594	0.4183484007493849
-0.48989439031248594	0.41308534164456256
-0.48983335515623594	0.40692092836485116
-0.48977231999998594	0.3998681652912687
-0.48971128484373594	0.3919417843674081
-0.48965024968748594	0.3831586692992121
-0.48958921453123594	0.37353747048536645
-0.48952817937498594	0.3630983182160535
-0.48946714421873594	0.35186348382181026
-0.48940610906248594	0.3398569072590804
-0.48934507390623594	0.32710382344176797
-0.48928403874998594	0.31363142460957294
-0.48922300359373594	0.2994684241285294
-0.48916196843748594	0.2846447490026404
-0.48910093328123594	0.26919202834897665
-0.48903989812498594	0.2531432151227027
-0.48897886296873594	0.23653229032380732
-0.48891782781248594	0.2193946997760415
-0.48885679265623594	0.20176711427013422
-0.48879575749998594	0.18368696419103153
-0.48873472234373594	0.1651927088175545
-0.48867368718748594	0.14632400370630963
-0.48861265203123594	0.12712114211455913
-0.48855161687498594	0.10762494572093853
-0.48849058171873594	0.08787716586228989
-0.48842954656248594	0.06792008134389643
-0.48836851140623594	0.04779629410896837
-0.48830747624998594	0.027548867051251046
-0.48824644109373594	0.007221165152666838
-0.48818540593748594	-0.01314324766240106
-0.48812437078123594	-0.033500809147924304
-0.48806333562498594	-0.05380784333563018
-0.48800230046873594	-0.07402068368190856
-0.48794126531248594	-0.09409603966382771
-0.48788023015623594	-0.11399086184785993
-0.48781919499998594	-0.13366230197296478
-0.48775815984373594	-0.15306795751287894
-0.48769712468748594	-0.17216618393019462
-0.48763608953123594	-0.19091599186471894
-0.48757505437498594	-0.20927671818619478
-0.48751401921873594	-0.22720871943911325
-0.48745298406248594	-0.24467361525731698
-0.48739194890623594	-0.26163340919713574
-0.48733091374998594	-0.27805131755206364
-0.48726987859373594	-0.2938921122074451
-0.48720884343748594	-0.309121190652836
-0.48714780828123594	-0.3237054620647364
-0.48708677312498594	-0.33761348424953147
-0.48702573796873594	-0.3508146968536279
-0.48696470281248594	-0.36328032637757407
-0.48690366765623594	-0.3749833508001791
-0.48684263249998594	-0.3858978701288501
-0.48678159734373594	-0.3959999886007798
-0.48672056218748594	-0.4052675215623854
-0.48665952703123594	-0.4136798135497248
-0.48659849187498594	-0.4212183497950088
-0.48653745671873594	-0.42786619894500666
-0.48647642156248594	-0.43360831669820576
-0.48641538640623594	-0.4384318493551688
-0.48635435124998594	-0.4423256413908436
-0.48629331609373594	-0.44528050242616546
-0.48623228093748594	-0.4472893954031992
-0.48617124578123594	-0.4483472160144133
-0.48611021062498594	-0.4484508363140813
-0.48604917546873594	-0.44759921653920043
-0.48598814031248594	-0.44579334060220555
-0.48592710515623594	-0.44303621083251626
-0.48586606999998594	-0.43933286242860925
-0.48580503484373594	-0.4346903562445839
-0.48574399968748594	-0.4291177584627337
-0.48568296453123594	-0.4226260612408993
-0.48562192937498594	-0.41522834828201777
-0.48556089421873594	-0.40693957038593226
-0.48549985906248594	-0.39777640872305475
-0.48543882390623594	-0.38775780512992924
-0.48537778874998594	-0.37690429078068477
-0.48531675359373594	-0.36523794322355174
-0.48525571843748594	-0.3527831926750277
-0.48519468328123594	-0.33956572044151634
-0.48513364812498594	-0.32561272738932645
-0.48507261296873594	-0.31095353109139184
-0.48501157781248594	-0.2956184838061244
-0.48495054265623594	-0.279639543858728
-0.48488950749998594	-0.2630502270552996
-0.48482847234373594	-0.24588502630597062
-0.48476743718748594	-0.2281800067693102
-0.48470640203123594	-0.2099722959190707
-0.48464536687498594	-0.1912999663796896
-0.48458433171873594	-0.172202340730047
-0.48452329656248594	-0.15271946845223672
-0.48446226140623594	-0.13289236990534736
-0.48440122624998594	-0.11276285090343406
-0.48434019109373594	-0.09237314098111382
-0.48427915593748594	-0.07176637663099916
-0.48421812078123594	-0.05098597412155857
-0.48415708562498594	-0.030075732413849376
-0.48409605046873594	-0.009079967967513893
-0.48403501531248594	0.011957155305746437
-0.48397398015623594	0.032991025413451384
-0.48391294499998594	0.05397707439214083
-0.48385190984373594	0.07487107276387754
-0.48379087468748594	0.09562865846396247
-0.48372983953123594	0.11620587376988525
-0.48366880437498594	0.136559031241422
-0.48360776921873594	0.1566449632651728
-0.48354673406248594	0.17642128452659708
-0.48348569890623594	0.19584572182056584
-0.48342466374998594	0.2148769421847969
-0.48336362859373594	0.23347494158901963
-0.48330259343748594	0.25159983545541903
-0.48324155828123594	0.26921291887677334
-0.48318052312498594	0.2862772140425643
-0.48311948796873594	0.3027560260494686
-0.48305845281248594	0.31861411183954486
-0.48299741765623594	0.3338180751637648
-0.48293638249998594	0.3483352643736909
-0.48287534734373594	0.36213462556019993
-0.48281431218748594	0.37518681766384576
-0.48275327703123594	0.38746390139491604
-0.48269224187498594	0.3989396377866162
-0.48263120671873594	0.4095894622683043
-0.48257017156248594	0.41939054319316155
-0.48250913640623594	0.42832183819542513
-0.48244810124998594	0.43636426030401015
-0.48238706609373594	0.44350049984667045
-0.48232603093748594	0.4497150637752211
-0.48226499578123594	0.4549946917755837
-0.48220396062498594	0.4593279515013208
-0.48214292546873594	0.46270529798096255
-0.48208189031248594	0.4651194750073409
-0.48202085515623594	0.46656513220173496
-0.48195981999998594	0.4670389317357295
-0.48189878484373594	0.46653974811234866
-0.48183774968748594	0.4650684099122856
-0.48177671453123594	0.46262785373210974
-0.48171567937498594	0.4592231438019244
-0.48165464421873594	0.4548612866842246
-0.48159360906248594	0.44955138659085114
-0.48153257390623594	0.4433046451694591
-0.48147153874998594	0.4361341632987277
-0.48141050359373594	0.42805498797243624
-0.48134946843748594	0.4190842550825603
-0.48128843328123594	0.40924092489368014
-0.48122739812498594	0.398545726900067
-0.48116636296873594	0.3870214254659608
-0.48110532781248594	0.37469240343973687
-0.48104429265623594	0.3615847208579695
-0.48098325749998594	0.3477263833436997
-0.48092222234373594	0.33314671879856433
-0.48086118718748594	0.31787657658388235
-0.48080015203123594	0.30194866579024837
-0.48073911687498594	0.28539678731618173
-0.48067808171873594	0.2682559378779375
-0.48061704656248594	0.25056289371359325
-0.48055601140623594	0.2323552930296248
-0.48049497624998594	0.21367163647451848
-0.48043394109373594	0.194552036972379
-0.48037290593748594	0.1750372140133056
-0.48031187078123594	0.1551685747191255
-0.48025083562498594	0.13498865269188368
-0.48018980046873594	0.11454047372038852
-0.48012876531248594	0.09386769315434851
-0.48006773015623594	0.07301428026507782
-0.48000669499998594	0.05202486014441964
-0.47994565984373594	0.030944477396154746
-0.47988462468748594	0.009817662581725445
-0.47982358953123594	-0.011310247813772985
-0.47976255437498594	-0.032393768182692226
-0.47970151921873594	-0.053388283031090895
-0.47964048406248594	-0.07424890911198594
-0.47957944890623594	-0.09493076655586284
-0.47951841374998594	-0.11538979464609211
-0.47945737859373594	-0.13558239411504722
-0.47939634343748594	-0.15546505407188949
-0.47933530828123594	-0.17499546225510343
-0.47927427312498594	-0.19413200427172037
-0.47921323796873594	-0.21283326951849618
-0.47915220281248594	-0.23105961303899403
-0.47909116765623594	-0.2487721133539433
-0.47903013249998594	-0.26593242820227864
-0.47896909734373594	-0.28250419523581394
-0.47890806218748594	-0.2984519854650471
-0.47884702703123594	-0.31374139950191
-0.47878599187498594	-0.32833988465034986
-0.47872495671873594	-0.3422162130712818
-0.47866392156248594	-0.35534063856185377
-0.47860288640623594	-0.36768512739949694
-0.47854185124998594	-0.37922321990654645
-0.47848081609373594	-0.38993027472215425
-0.47841978093748594	-0.39978346288301486
-0.47835874578123594	-0.40876161727732857
-0.47829771062498594	-0.4168455969626357
-0.47823667546873594	-0.4240182514652684
-0.47817564031248594	-0.4302641802323871
-0.47811460515623594	-0.43557009564873916
-0.47805356999998594	-0.43992479647331956
-0.47799253484373594	-0.443319020060355
-0.47793149968748594	-0.44574560070074554
-0.47787046453123594	-0.44719949228529626
-0.47780942937498594	-0.44767773666673255
-0.47774839421873594	-0.44717945365539596
-0.47768735906248594	-0.4457058910694684
-0.47762632390623594	-0.4432604096544128
-0.47756528874998594	-0.43984844163817116
-0.47750425359373594	-0.43547754184313636
-0.47744321843748594	-0.43015734383065346
-0.47738218328123594	-0.4238994406560949
-0.47732114812498594	-0.41671757462609943
-0.47726011296873594	-0.4086275217406373
-0.47719907781248594	-0.3996467573794414
-0.47713804265623594	-0.3897949605620806
-0.47707700749998594	-0.379093776736628
-0.47701597234373594	-0.36756624471956334
-0.47695493718748594	-0.3552375700479846
-0.47689390203123594	-0.3421348101247578
-0.47683286687498594	-0.32828622528508644
-0.47677183171873594	-0.31372207966647925
-0.47671079656248594	-0.2984741855678572
-0.47664976140623594	-0.2825755593768818
-0.47658872624998594	-0.26606098518851334
-0.47652769109373594	-0.24896636134155278
-0.47646665593748594	-0.2313288832584572
-0.47640562078123594	-0.21318706992049263
-0.47634458562498594	-0.19458032430398736
-0.47628355046873594	-0.1755493001742831
-0.47622251531248594	-0.15613540608900975
-0.47616148015623594	-0.1363809020339577
-0.47610044499998594	-0.1163290284944645
-0.47603940984373594	-0.09602336538755232
-0.47597837468748594	-0.07550819289923637
-0.47591733953123594	-0.05482836332672196
-0.47585630437498594	-0.03402894671406636
-0.47579526921873594	-0.01315538136969181
-0.47573423406248594	0.007746835039233525
-0.47567319890623594	0.028631951380290465
-0.47561216374998594	0.04945430989942077
-0.47555112859373594	0.07016860396386085
-0.47549009343748594	0.09072929149246894
-0.47542905828123594	0.11109137754166958
-0.47536802312498594	0.1312106401608262
-0.47530698796873594	0.15104273452318634
-0.47524595281248594	0.1705440849846799
-0.47518491765623594	0.18967234924988946
-0.47512388249998594	0.20838535462443422
-0.47506284734373594	0.22664192471769168
-0.47500181218748594	0.24440219712500702
-0.47494077703123594	0.2616270017840334
-0.47487974187498594	0.278278535448717
-0.47481870671873594	0.2943201508980438
-0.47475767156248594	0.30971638669933976
-0.47469663640623594	0.32443341890048016
-0.47463560124998594	0.33843880310318136
-0.47457456609373594	0.3517015078000841
-0.47451353093748594	0.3641920653506179
-0.47445249578123594	0.37588299466377545
-0.47439146062498594	0.38674836590156736
-0.47433042546873594	0.39676369297711084
-0.47426939031248594	0.4059069306611506
-0.47420835515623594	0.41415765105208807
-0.47414731999998594	0.4214970232523621
-0.47408628484373594	0.42790878705348795
-0.47402524968748594	0.4333784206579305
-0.47396421453123594	0.4378932057912161
-0.47390317937498594	0.44144286914585046
-0.47384214421873594	0.44401914242058815
-0.47378110906248594	0.44561569519396244
-0.47372007390623594	0.4462284683719281
-0.47365903874998594	0.4458555836739094
-0.47359800359373594	0.44449718705784486
-0.47353696843748594	0.44215561722612845
-0.47347593328123594	0.4388354089430272
-0.47341489812498594	0.43454313778163195
-0.47335386296873594	0.42928753462312397
-0.47329282781248594	0.42307950545197315
-0.47323179265623594	0.4159319069988878
-0.47317075749998594	0.4078596804706214
-0.47310972234373594	0.39887993160931
-0.47304868718748594	0.3890115495650398
-0.47298765203123594	0.3782754135618708
-0.47292661687498594	0.3666944978138667
-0.47286558171873594	0.35429335396849027
-0.47280454656248594	0.3410983916513817
-0.47274351140623594	0.3271380481508561
-0.47268247624998594	0.31244208789347827
-0.47262144109373594	0.29704186186100034
-0.47256040593748594	0.2809707898325719
-0.47249937078123594	0.2642632596855115
-0.47243833562498594	0.24695493978575042
-0.47237730046873594	0.2290836210087952
-0.47231626531248594	0.21068762714398445
-0.47225523015623594	0.19180630430698814
-0.47219419499998594	0.17248094682913662
-0.47213315984373594	0.1527532166530677
-0.47207212468748594	0.1326654035327444
-0.47201108953123594	0.11226130302508372
-0.47195005437498594	0.09158522420951778
-0.47188901921873594	0.0706816492604613
-0.47182798406248594	0.04959601457260471
-0.47176694890623594	0.028374219552397283
-0.47170591374998594	0.007062211329040353
-0.47164487859373594	-0.01429372510288956
-0.47158384343748594	-0.03564711959752205
-0.47152280828123594	-0.056951420990192195
-0.47146177312498594	-0.07816047480239632
-0.47140073796873594	-0.09922802328113636
-0.47133970281248594	-0.12010790950401252
-0.47127866765623594	-0.14075495787571887
-0.47121763249998594	-0.16112399508905256
-0.47115659734373594	-0.18117034235691534
-0.47109556218748594	-0.20085049778326516
-0.47103452703123594	-0.22012132333844378
-0.47097349187498594	-0.2389404921156937
-0.47091245671873594	-0.25726701423341003
-0.47085142156248594	-0.2750607414784752
-0.47079038640623594	-0.29228239166727427
-0.47072935124998594	-0.30889431722338695
-0.47066831609373594	-0.3248602043249857
-0.47060728093748594	-0.3401446111570648
-0.47054624578123594	-0.3547139113412364
-0.47048521062498594	-0.3685362771326977
-0.47042417546873594	-0.3815809671730372
