Time	Frequency
-0.5000298012500082	0.06150679849648404
-0.4999687660937582	0.08454236951142237
-0.4999077309375082	0.10737197674799348
-0.4998466957812582	0.129940744768314
-0.4997856606250082	0.15219385282244755
-0.4997246254687582	0.17407653163134199
-0.4996635903125082	0.19553601483529962
-0.4996025551562582	0.21652012541150265
-0.4995415200000082	0.23697734747325327
-0.4994804848437582	0.25685806813666573
-0.4994194496875082	0.2761140784546833
-0.4993584145312582	0.2946981816306583
-0.4992973793750082	0.3125649821366198
-0.4992363442187582	0.32967133352198114
-0.4991753090625082	0.345975323762986
-0.4991142739062582	0.36143693710684444
-0.4990532387500082	0.3760188978460128
-0.4989922035937582	0.3896855183122048
-0.4989311684375082	0.40240323353332713
-0.4988701332812582	0.41414122972558637
-0.4988090981250082	0.4248708536077532
-0.4987480629687582	0.4345659007728861
-0.4986870278125082	0.44320267536323
-0.4986259926562582	0.45076006402718677
-0.4985649575000082	0.4572198067560688
-0.4985039223437582	0.46256604494879194
-0.4984428871875082	0.4667856029421574
-0.4983818520312582	0.4698684153726511
-0.4983208168750082	0.47180694969050607
-0.4982597817187582	0.4725963653358858
-0.4981987465625082	0.4722348793528336
-0.4981377114062582	0.4707234311171643
-0.4980766762500082	0.4680657298906652
-0.4980156410937582	0.4642683463665176
-0.4979546059375082	0.4593406067860492
-0.4978935707812582	0.4532946555852013
-0.4978325356250082	0.44614538543995985
-0.4977715004687582	0.4379103254639383
-0.4977104653125082	0.4286096950734502
-0.4976494301562582	0.4182664058964871
-0.4975883950000082	0.4069058889144665
-0.4975273598437582	0.3945559945433342
-0.4974663246875082	0.3812470810593286
-0.4974052895312582	0.36701193220616224
-0.4973442543750082	0.3518855088482005
-0.4972832192187582	0.3359049520372078
-0.4972221840625082	0.3191095798132257
-0.4971611489062582	0.3015406871881725
-0.4971001137500082	0.283241561196036
-0.4970390785937582	0.26425718976706636
-0.4969780434375082	0.24463404199876235
-0.4969170082812582	0.2244206544829233
-0.4968559731250082	0.2036669801710802
-0.4967949379687582	0.18242354047638448
-0.4967339028125082	0.16074282750206872
-0.4966728676562582	0.13867874614424064
-0.4966118325000082	0.11628496941338554
-0.4965507973437582	0.09361670446052053
-0.4964897621875082	0.07073035178914193
-0.4964287270312582	0.04768177897786509
-0.4963676918750082	0.024527874079791238
-0.4963066567187582	0.0013260657670640373
-0.4962456215625082	-0.02186695101748842
-0.4961845864062582	-0.04499374711538946
-0.4961235512500082	-0.06799693812397424
-0.4960625160937582	-0.09082035165272118
-0.4960014809375082	-0.11340745209861436
-0.4959404457812582	-0.13570211792986683
-0.4958794106250082	-0.15764983336205898
-0.4958183754687582	-0.1791962178509225
-0.4957573403125082	-0.20028772293993513
-0.4956963051562582	-0.22087270593851813
-0.4956352700000082	-0.24090007702581254
-0.4955742348437582	-0.26032013541719273
-0.4955131996875082	-0.27908519401630966
-0.4954521645312582	-0.29714858409511347
-0.4953911293750082	-0.3144656085697906
-0.4953300942187582	-0.3309935178196692
-0.4952690590625082	-0.34669126813267387
-0.4952080239062582	-0.36151998843928357
-0.4951469887500082	-0.3754428532828891
-0.4950859535937582	-0.3884254091190031
-0.4950249184375082	-0.40043543685940614
-0.4949638832812582	-0.41144298668053003
-0.4949028481250082	-0.42142076402920037
-0.4948418129687582	-0.43034400992514793
-0.4947807778125082	-0.4381904043175009
-0.4947197426562582	-0.4449403398882541
-0.4946587075000082	-0.4505770635357772
-0.4945976723437582	-0.4550864242204232
-0.4945366371875082	-0.4584569972854495
-0.4944756020312582	-0.46068032060612535
-0.4944145668750082	-0.4617507451386313
-0.4943535317187582	-0.46166537829687193
-0.4942924965625082	-0.46042422138420686
-0.4942314614062582	-0.45803018126461337
-0.4941704262500082	-0.4544890257878955
-0.4941093910937582	-0.4498092878614088
-0.4940483559375082	-0.44400230355463843
-0.4939873207812582	-0.43708238880449535
-0.4939262856250082	-0.42906645863379256
-0.4938652504687582	-0.4199740273809374
-0.4938042153125082	-0.4098276544226277
-0.4937431801562582	-0.3986522784568734
-0.4936821450000082	-0.3864751500741505
-0.4936211098437582	-0.3733265615420493
-0.4935600746875082	-0.35923900282654797
-0.4934990395312582	-0.3442468802729123
-0.4934380043750082	-0.32838740995985494
-0.4933769692187582	-0.3116999940440067
-0.4933159340625082	-0.29422556753288964
-0.4932548989062582	-0.27600732113138954
-0.4931938637500082	-0.2570906676319338
-0.4931328285937582	-0.23752222424640082
-0.4930717934375082	-0.21735031823088807
-0.4930107582812582	-0.19662521499770003
-0.4929497231250082	-0.17539812669367008
-0.4928886879687582	-0.15372170097337576
-0.4928276528125082	-0.13164976834264272
-0.4927666176562582	-0.10923700152027532
-0.4927055825000082	-0.08653924396322067
-0.4926445473437582	-0.06361268642105437
-0.4925835121875082	-0.0405143329819531
-0.4925224770312582	-0.017301822623746837
-0.4924614418750082	0.005967447116956299
-0.4924004067187582	0.02923532860969492
-0.4923393715625082	0.05244381791931872
-0.4922783364062582	0.07553551097259208
-0.4922173012500082	0.09845241927789815
-0.4921562660937582	0.12113749633001346
-0.4920952309375082	0.1435344489320267
-0.4920341957812582	0.16558696250567156
-0.4919731606250082	0.187240169949276
-0.4919121254687582	0.20843999436273838
-0.4918510903125082	0.22913318983518596
-0.4917900551562582	0.2492682441957817
-0.4917290200000082	0.2687945924082517
-0.4916679848437582	0.2876631273426235
-0.4916069496875082	0.3058267980912555
-0.4915459145312582	0.3232398625992134
-0.4914848793750082	0.3398584388943093
-0.4914238442187582	0.3556408468496043
-0.4913628090625082	0.37054721688741016
-0.4913017739062582	0.38453997609313323
-0.4912407387500082	0.3975837048293852
-0.4911797035937582	0.40964535636561594
-0.4911186684375082	0.42069439319584817
-0.4910576332812582	0.43070251221664685
-0.4909965981250082	0.43964431856105946
-0.4909355629687582	0.44749686963715124
-0.4908745278125082	0.4542397399855205
-0.4908134926562582	0.45985568799699666
-0.4907524575000082	0.4643298898985767
-0.4906914223437582	0.4676503328834176
-0.4906303871875082	0.4698082163178431
-0.4905693520312582	0.4707973004624994
-0.4905083168750082	0.47061423359329885
-0.4904472817187582	0.4692587887789104
-0.4903862465625082	0.4667335249060794
-0.4903252114062582	0.46304384729572245
-0.4902641762500082	0.45819813560641637
-0.4902031410937582	0.45220765556342246
-0.4901421059375082	0.4450864749917569
-0.4900810707812582	0.4368514458459068
-0.4900200356250082	0.42752226064916354
-0.4899590004687582	0.41712136010431744
-0.4898979653125082	0.4056737601059051
-0.4898369301562582	0.3932070937145599
-0.4897758950000082	0.37975165534309224
-0.4897148598437582	0.36534014183389957
-0.4896538246875082	0.35000758370125373
-0.4895927895312582	0.3337913877923081
-0.4895317543750082	0.31673114053427653
-0.4894707192187582	0.2988685948186435
-0.4894096840625082	0.28024744638465754
-0.4893486489062582	0.2609133974266898
-0.4892876137500082	0.24091382526905675
-0.4892265785937582	0.22029770039879978
-0.4891655434375082	0.19911607716424148
-0.4891045082812582	0.17742076826722974
-0.4890434731250082	0.15526500040415733
-0.4889824379687582	0.1327038887333654
-0.4889214028125082	0.10979263147872433
-0.4888603676562582	0.08658771940947137
-0.4887993325000082	0.06314675471012048
-0.4887382973437582	0.039527292886875814
-0.4886772621875082	0.015787888742804228
-0.4886162270312582	-0.008012747434529297
-0.4885551918750082	-0.03181598868049064
-0.4884941567187582	-0.05556262174378861
-0.4884331215625082	-0.07919384323102507
-0.4883720864062582	-0.1026513518143046
-0.4883110512500082	-0.12587690542769758
-0.4882500160937582	-0.14881264857500148
-0.4881889809375082	-0.1714018253859687
-0.4881279457812582	-0.19358860157099553
-0.4880669106250082	-0.21531745063497046
-0.4880058754687582	-0.23653436860870886
-0.4879448403125082	-0.2571869795509643
-0.4878838051562582	-0.2772235524190551
-0.4878227700000082	-0.2965941047588769
-0.4877617348437582	-0.31525069636497394
-0.4877006996875082	-0.3331465699887562
-0.4876396645312582	-0.35023700970333593
-0.4875786293750082	-0.3664795899037041
-0.4875175942187582	-0.38183346720429057
-0.4874565590625082	-0.3962602425840984
-0.4873955239062582	-0.40972396127570593
-0.4873344887500082	-0.4221906543506439
-0.4872734535937582	-0.4336291156766076
-0.4872124184375082	-0.44401061210908105
-0.4871513832812582	-0.45330883388969284
-0.4870903481250082	-0.4615004473645173
-0.4870293129687582	-0.4685647015874515
-0.4869682778125082	-0.4744835046826334
-0.4869072426562582	-0.4792418375981117
-0.4868462075000082	-0.48282749768319405
-0.4867851723437582	-0.48523101734628415
-0.4867241371875082	-0.4864460287563797
-0.4866631020312582	-0.4864691395972206
-0.4866020668750082	-0.485299763193863
-0.4865410317187582	-0.4829403645118245
-0.4864799965625082	-0.4793963817910971
-0.4864189614062582	-0.4746761679828482
-0.4863579262500082	-0.46879099005191704
-0.4862968910937582	-0.46175498968952644
-0.4862358559375082	-0.45358531695894455
-0.4861748207812582	-0.4443017683998305
-0.4861137856250082	-0.4339268842802005
-0.4860527504687582	-0.4224862439809609
-0.4859917153125082	-0.4100077636937752
-0.4859306801562582	-0.3965219254361267
-0.4858696450000082	-0.3820620627103639
-0.4858086098437582	-0.3666636541895727
-0.4857475746875082	-0.3503645096432531
-0.4856865395312582	-0.3332049275286787
-0.4856255043750082	-0.315227179729077
-0.4855644692187582	-0.29647551941451783
-0.4855034340625082	-0.2769963641055242
-0.4854423989062582	-0.2568378646199809
-0.4853813637500082	-0.2360496962337854
-0.4853203285937582	-0.21468335181096532
-0.4852592934375082	-0.192791825771906
-0.4851982582812582	-0.1704291353565438
-0.4851372231250082	-0.14765061435166552
-0.4850761879687582	-0.12451288153801407
-0.4850151528125082	-0.1010732838580629
-0.4849541176562582	-0.07738973991630442
-0.4848930825000082	-0.05352100911227162
-0.4848320473437582	-0.02952657574119462
-0.4847710121875082	-0.005465768028862534
-0.4847099770312582	0.018601835042714066
-0.4846489418750082	0.042616141608546466
-0.4845879067187582	0.06651759127701863
-0.4845268715625082	0.0902470319595885
-0.4844658364062582	0.11374535897317505
-0.4844048012500082	0.1369539981198155
-0.4843437660937582	0.1598154192108051
-0.4842827309375082	0.1822728800366051
-0.4842216957812582	0.2042703856808162
-0.4841606606250082	0.22575314720898024
-0.4840996254687582	0.24666781379745442
-0.4840385903125082	0.2669624344394671
-0.4839775551562582	0.2865863592790573
-0.4839165200000082	0.30549071098911657
-0.4838554848437582	0.3236285658026391
-0.4837944496875082	0.34095476654794815
-0.4837334145312582	0.35742598789033475
-0.4836723793750082	0.3730013332514347
-0.4836113442187582	0.3876421690423871
-0.4835503090625082	0.4013117656069908
-0.4834892739062582	0.41397619218747067
-0.4834282387500082	0.4256040304888166
-0.4833672035937582	0.43616614089349487
-0.4833061684375082	0.4456363639056361
-0.4832451332812582	0.45399113453299034
-0.4831840981250082	0.46120954234975203
-0.4831230629687582	0.4672738128985809
-0.4830620278125082	0.47216886481188697
-0.4830009926562582	0.4758824269156898
-0.4829399575000082	0.4784054615732959
-0.4828789223437582	0.47973178258743454
-0.4828178871875082	0.4798580906736315
-0.4827568520312582	0.4787842578416279
-0.4826958168750082	0.47651309961057486
-0.4826347817187582	0.47305038913048963
-0.4825737465625082	0.4684049718803858
-0.4825127114062582	0.46258859544997505
-0.4824516762500082	0.45561595665099613
-0.4823906410937582	0.44750469867049125
-0.4823296059375082	0.43827524391103356
-0.4822685707812582	0.4279509074414192
-0.4822075356250082	0.4165577415262596
-0.4821465004687582	0.40412438652408905
-0.4820854653125082	0.3906822180575605
-0.4820244301562582	0.3762651781288953
-0.4819633950000082	0.3609095540849646
-0.4819023598437582	0.3446538990752588
-0.4818413246875082	0.3275393613350816
-0.4817802895312582	0.3096092080559535
-0.4817192543750082	0.2909081662257481
-0.4816582192187582	0.27148365085286175
-0.4815971840625082	0.25138495882184425
-0.4815361489062582	0.23066210104232449
-0.4814751137500082	0.20936763361357336
-0.4814140785937582	0.1875556322306869
-0.4813530434375082	0.16528050791387733
-0.4812920082812582	0.1425986210131508
-0.4812309731250082	0.11956758444558552
-0.4811699379687582	0.09624516422743021
-0.4811089028125082	0.07269007231226256
-0.4810478676562582	0.04896227691537703
-0.4809868325000082	0.025121537611417763
-0.4809257973437582	0.0012275575529917936
-0.4808647621875082	-0.02265861249322991
-0.4808037270312582	-0.04647662262746089
-0.4807426918750082	-0.0701669676758706
-0.4806816567187582	-0.09366911440976983
-0.4806206215625082	-0.11692354907429443
-0.4805595864062582	-0.1398720406269211
-0.4804985512500082	-0.16245600358752013
-0.4804375160937582	-0.1846181815706084
-0.4803764809375082	-0.20630300631124213
-0.4803154457812582	-0.22745513486098756
-0.4802544106250082	-0.24802076622424446
-0.4801933754687582	-0.26794822327609863
-0.4801323403125082	-0.2871868138702145
-0.4800713051562582	-0.3056874630713385
-0.4800102700000082	-0.32340336812852927
-0.4799492348437582	-0.3402896459112146
-0.4798881996875082	-0.35630321611225974
-0.4798271645312582	-0.3714032654507461
-0.4797661293750082	-0.3855514982976497
-0.4797050942187582	-0.3987118605517613
-0.4796440590625082	-0.4108506927192059
-0.4795830239062582	-0.4219370539505603
-0.4795219887500082	-0.43194258948165914
-0.4794609535937582	-0.4408416449008665
-0.4793999184375082	-0.44861147208217295
-0.4793388832812582	-0.4552319995182285
-0.4792778481250082	-0.460686124462918
-0.4792168129687582	-0.46495979872792
-0.4791557778125082	-0.4680417763915597
-0.4790947426562582	-0.46992391605924283
-0.4790337075000082	-0.47060113230686895
-0.4789726723437582	-0.4700713011152533
-0.4789116371875082	-0.46833544143309563
-0.4788506020312582	-0.4653975787476839
-0.4787895668750082	-0.46126474630786307
-0.4787285317187582	-0.45594711117503095
-0.4786674965625082	-0.44945774897327295
-0.4786064614062582	-0.4418127117073155
-0.4785454262500082	-0.4330310794248658
-0.4784843910937582	-0.4231346613656901
-0.4784233559375082	-0.4121482477807745
-0.4783623207812582	-0.40009939645741005
-0.4783012856250082	-0.38701811529004054
-0.4782402504687582	-0.3729374187303775
-0.4781792153125082	-0.3578927155120742
-0.4781181801562582	-0.34192162428984785
-0.4780571450000082	-0.32506454670286417
-0.4779961098437582	-0.30736385952718126
-0.4779350746875082	-0.28886422536146017
-0.4778740395312582	-0.26961236610989814
-0.4778130043750082	-0.24965660173394918
-0.4777519692187582	-0.22904770463677598
-0.4776909340625082	-0.2078376635340081
-0.4776298989062582	-0.18607983503999756
-0.4775688637500082	-0.16382960631793023
-0.4775078285937582	-0.14114318362388412
-0.4774467934375082	-0.11807796881447626
-0.4773857582812582	-0.0946924826241885
-0.4773247231250082	-0.07104601615719323
-0.4772636879687582	-0.04719847916774114
-0.4772026528125082	-0.023210353784814203
-0.4771416176562582	0.0008570679317128107
-0.4770805825000082	0.024943076680316725
-0.4770195473437582	0.04898658887363417
-0.4769585121875082	0.07292568701540322
-0.4768974770312582	0.09670003924910746
-0.4768364418750082	0.1202493340642254
-0.4767754067187582	0.14351281792962706
-0.4767143715625082	0.16643166088056185
-0.4766533364062582	0.18894762274758972
-0.4765923012500082	0.21100262537389294
-0.4765312660937582	0.23254056672246648
-0.4764702309375082	0.2535067797396096
-0.4764091957812582	0.27384713238300384
-0.4763481606250082	0.2935094387552091
-0.4762871254687582	0.3124438475042635
-0.4762260903125082	0.3306014555837001
-0.4761650551562582	0.3479353878816714
-0.4761040200000082	0.36440150605120836
-0.4760429848437582	0.37995722513126146
-0.4759819496875082	0.39456218613713695
-0.4759209145312582	0.4081789931108423
-0.4758598793750082	0.42077236343503155
-0.4757988442187582	0.4323092658635094
-0.4757378090625082	0.4427599705290105
-0.4756767739062582	0.4520973194542477
-0.4756157387500082	0.46029646902608384
-0.4755547035937582	0.4673359589249548
-0.4754936684375082	0.4731972388508632
-0.4754326332812582	0.4778644460737433
-0.4753715981250082	0.48132492543109495
-0.4753105629687582	0.4835690446473947
-0.4752495278125082	0.48459024085315144
-0.4751884926562582	0.48438507065766256
-0.4751274575000082	0.4829531174857398
-0.4750664223437582	0.4802971903720906
-0.4750053871875082	0.47642313634032607
-0.4749443520312582	0.47133980382043084
-0.4748833168750082	0.46505935974502904
-0.4748222817187582	0.45759681761371157
-0.4747612465625082	0.44897007234284525
-0.4747002114062582	0.4392003748666396
-0.4746391762500082	0.42831162458840505
-0.4745781410937582	0.416330399449716
-0.4745171059375082	0.40328647484746266
-0.4744560707812582	0.3892121296481696
-0.4743950356250082	0.3741421042081585
-0.4743340004687582	0.35811397147749985
-0.4742729653125082	0.3411676657314473
-0.4742119301562582	0.32334535097071
-0.4741508950000082	0.30469154567294
-0.4740898598437582	0.28525290235571055
-0.4740288246875082	0.2650780318933238
-0.4739677895312582	0.24421753870521037
-0.4739067543750082	0.22272370893628574
-0.4738457192187582	0.2006503096040899
-0.4737846840625082	0.1780529991532387
-0.4737236489062582	0.15498861595323443
-0.4736626137500082	0.13151489633765182
-0.4736015785937582	0.1076911178115492
-0.4735405434375082	0.08357722220734581
-0.4734795082812582	0.059233987594491874
-0.4734184731250082	0.034722970498807834
-0.4733574379687582	0.010105593949340394
-0.4732964028125082	-0.014555744345749324
-0.4732353676562582	-0.03919849952702474
-0.4731743325000082	-0.06376090155306803
-0.4731132973437582	-0.08818063078899807
-0.4730522621875082	-0.1123957493591833
-0.4729912270312582	-0.13634525858131688
-0.4729301918750082	-0.15996832187586102
-0.4728691567187582	-0.18320515915786792
-0.4728081215625082	-0.2059969638516698
-0.4727470864062582	-0.22828572399460784
-0.4726860512500082	-0.2500151059498673
-0.4726250160937582	-0.271129899978802
-0.4725639809375082	-0.2915763338839568
-0.4725029457812582	-0.3113026929809943
-0.4724419106250082	-0.33025867262085223
-0.4723808754687582	-0.3483959894725809
-0.4723198403125082	-0.3656686776671847
-0.4722588051562582	-0.3820326081777419
-0.4721977700000082	-0.3974460263023584
-0.4721367348437582	-0.41186971651699966
-0.4720756996875082	-0.4252668147231463
-0.4720146645312582	-0.4376030844616609
-0.4719536293750082	-0.4488469530416627
-0.4718925942187582	-0.4589696021843282
-0.4718315590625082	-0.4679451364625544
-0.4717705239062582	-0.4757504359600848
-0.4717094887500082	-0.4823653524704802
-0.4716484535937582	-0.4877728711297463
-0.4715874184375082	-0.4919589311449624
-0.4715263832812582	-0.4949125638512331
-0.4714653481250082	-0.4966259757243383
-0.4714043129687582	-0.4970944851298215
-0.4713432778125082	-0.4963166034786673
-0.4712822426562582	-0.4942939788439925
-0.4712212075000082	-0.49103137894437376
-0.4711601723437582	-0.486536847864321
-0.4710991371875082	-0.4808214756767232
-0.4710381020312582	-0.4738993579517969
-0.4709770668750082	-0.46578793124027584
-0.4709160317187582	-0.45650745777732504
-0.4708549965625082	-0.44608106149143656
-0.4707939614062582	-0.4345352041757249
-0.4707329262500082	-0.42189881554195036
-0.4706718910937582	-0.4082036237943025
-0.4706108559375082	-0.3934844466241027
-0.4705498207812582	-0.377778175680235
-0.4704887856250082	-0.3611246141324071
-0.4704277504687582	-0.3435660005395727
-0.4703667153125082	-0.32514637953246944
-0.4703056801562582	-0.3059127394589662
-0.4702446450000082	-0.2859137488027324
-0.4701836098437582	-0.265199782782584
-0.4701225746875082	-0.24382366032529218
-0.4700615395312582	-0.2218395229935825
-0.4700005043750082	-0.19930302833250851
-0.4699394692187582	-0.17627145261723118
-0.4698784340625082	-0.15280326573423147
-0.4698173989062582	-0.12895805253183362
-0.4697563637500082	-0.10479638514678556
-0.4696953285937582	-0.08037966178294831
-0.4696342934375082	-0.055769938026092536
