Time	Frequency
-0.5000128740937555	-0.37179924325616653
-0.4999518389375055	-0.36530042587842687
-0.4998908037812555	-0.358226830365401
-0.4998297686250055	-0.3505894504740469
-0.4997687334687555	-0.34240053593054826
-0.4997076983125055	-0.33367320552543034
-0.4996466631562555	-0.32442113667849476
-0.4995856280000055	-0.3146592228197946
-0.4995245928437555	-0.3044030087333411
-0.4994635576875055	-0.2936688032375144
-0.4994025225312555	-0.2824737845197373
-0.4993414873750055	-0.2708357448747025
-0.4992804522187555	-0.2587734559272381
-0.4992194170625055	-0.24630595342037145
-0.4991583819062555	-0.23345334164220477
-0.4990973467500055	-0.22023627955172587
-0.4990363115937555	-0.20667549350268571
-0.4989752764375055	-0.19279316669574426
-0.4989142412812555	-0.1786114317276871
-0.4988532061250055	-0.16415266598323866
-0.4987921709687555	-0.14944041190658391
-0.4987311358125055	-0.13449822280293866
-0.4986701006562555	-0.11934985743823609
-0.4986090655000055	-0.1040197388341439
-0.4985480303437555	-0.08853246765182766
-0.4984869951875055	-0.07291289249553651
-0.4984259600312555	-0.05718616282318069
-0.4983649248750055	-0.04137727277441659
-0.4983038897187555	-0.025511866941872054
-0.4982428545625055	-0.009615595737564278
-0.4981818194062555	0.0062866143691842095
-0.4981207842500055	0.022168607843749487
-0.4980597490937555	0.03800481670083946
-0.4979987139375055	0.053770535252248126
-0.4979376787812555	0.0694394400775499
-0.4978766436250055	0.08498669780482061
-0.4978156084687555	0.10038780712725992
-0.4977545733125055	0.11561704998236379
-0.4976935381562555	0.13065040341769413
-0.4976325030000055	0.14546386885698737
-0.4975714678437555	0.1600331296769214
-0.4975104326875055	0.17433480406728333
-0.4974493975312555	0.1883461251677875
-0.4973883623750055	0.2020443635816146
-0.4973273272187555	0.2154071074399788
-0.4972662920625055	0.2284133064247749
-0.4972052569062555	0.24104181459852214
-0.4971442217500055	0.25327201431682084
-0.4970831865937555	0.2650844732716388
-0.4970221514375055	0.2764600044714796
-0.4969611162812555	0.2873802658807557
-0.4969000811250055	0.297827576009054
-0.4968390459687555	0.307785113990258
-0.4967780108125055	0.31723676629807546
-0.4967169756562555	0.3261673105495884
-0.4966559405000055	0.33456227407563777
-0.4965949053437555	0.34240798717549387
-0.4965338701875055	0.3496920575593935
-0.4964728350312555	0.3564023997412741
-0.4964117998750055	0.36252823726918415
-0.4963507647187555	0.3680598889136842
-0.4962897295625055	0.37298805098016924
-0.4962286944062555	0.3773049690731433
-0.4961676592500055	0.3810037062866427
-0.4961066240937555	0.3840780494566123
-0.4960455889375055	0.3865232094448974
-0.4959845537812555	0.3883352214896739
-0.4959235186250055	0.38951103744472565
-0.4958624834687555	0.3900488357128725
-0.4958014483125055	0.38994776942293075
-0.4957404131562555	0.3892079585048873
-0.4956793780000055	0.38783059259413244
-0.4956183428437555	0.38581796748317015
-0.4955573076875055	0.38317334197585634
-0.4954962725312555	0.37990093865276037
-0.4954352373750055	0.3760061643028686
-0.4953742022187555	0.37149533740824314
-0.4953131670625055	0.36637568966136946
-0.4952521319062555	0.3606556677709658
-0.4951910967500055	0.35434453710182073
-0.4951300615937555	0.3474524331285786
-0.4950690264375055	0.33999076823662594
-0.4950079912812555	0.3319715971519336
-0.4949469561250055	0.3234077583582268
-0.4948859209687555	0.31431358865403297
-0.4948248858125055	0.30470365113789966
-0.4947638506562555	0.29459336114533785
-0.4947028155000055	0.28399975949769
-0.4946417803437555	0.27293964207255733
-0.4945807451875055	0.2614310005287825
-0.4945197100312555	0.249493029840228
-0.4944586748750055	0.23714469158810217
-0.4943976397187555	0.22440632855823964
-0.4943366045625055	0.211298908787288
-0.4942755694062555	0.1978433898875912
-0.4942145342500055	0.18406194623077154
-0.4941534990937555	0.1699773466903641
-0.4940924639375055	0.15561208202797325
-0.4940314287812555	0.14098971853972309
-0.4939703936250055	0.12613460020122955
-0.4939093584687555	0.11107052896440887
-0.4938483233125055	0.09582204712486082
-0.4937872881562555	0.08041454324218088
-0.4937262530000055	0.06487305317118884
-0.4936652178437555	0.04922259285300306
-0.4936041826875055	0.033489263062008626
-0.4935431475312555	0.017698886771389314
-0.4934821123750055	0.001876776845952426
-0.4934210772187555	-0.01395073463552674
-0.4933600420625055	-0.02975766926461295
-0.4932990069062555	-0.04551827716154141
-0.4932379717500055	-0.061206679594049976
-0.4931769365937555	-0.07679727900511801
-0.4931159014375055	-0.09226392020137482
-0.4930548662812555	-0.10758172300208353
-0.4929938311250055	-0.12272584880024638
-0.4929327959687555	-0.1376702117936698
-0.4928717608125055	-0.15239113836762297
-0.4928107256562555	-0.16686473905208637
-0.4927496905000055	-0.18106596060928734
-0.4926886553437555	-0.19497222555885946
-0.4926276201875055	-0.20856088769303946
-0.4925665850312555	-0.2218086193912838
-0.4925055498750055	-0.23469405388667633
-0.4924445147187555	-0.24719623350170983
-0.4923834795625055	-0.2592937472608223
-0.4923224444062555	-0.2709669341563683
-0.4922614092500055	-0.28219675521646875
-0.4922003740937555	-0.2929639516660317
-0.4921393389375055	-0.3032510047935885
-0.4920783037812555	-0.3130410004030572
-0.4920172686250055	-0.32231710995883084
-0.4919562334687555	-0.3310642382321305
-0.4918951983125055	-0.33926782669230526
-0.4918341631562555	-0.34691377955970687
-0.4917731280000055	-0.35398958353596394
-0.4917120928437555	-0.3604832782178951
-0.4916510576875055	-0.36638375634300846
-0.4915900225312555	-0.37168116233156057
-0.4915289873750055	-0.37636647433437026
-0.4914679522187555	-0.38043157407810674
-0.4914069170625055	-0.3838695064391263
-0.4913458819062555	-0.3866743492193126
-0.4912848467500055	-0.3888409988799313
-0.4912238115937555	-0.39036562513608764
-0.4911627764375055	-0.39124537251155495
-0.4911017412812555	-0.39147833044865277
-0.4910407061250055	-0.3910638214389019
-0.4909796709687555	-0.3900020975500831
-0.4909186358125055	-0.3882944809033786
-0.4908576006562555	-0.3859434417509232
-0.4907965655000055	-0.38295238290811245
-0.4907355303437555	-0.37932580690287276
-0.4906744951875055	-0.3750693196338644
-0.4906134600312555	-0.3701894239625995
-0.4905524248750055	-0.36469374935963444
-0.4904913897187555	-0.3585909255108641
-0.4904303545625055	-0.3518905329366152
-0.4903693194062555	-0.3446031656386018
-0.4903082842500055	-0.33674034528201313
-0.4902472490937555	-0.3283146598518009
-0.4901862139375055	-0.3193394579955021
-0.4901251787812555	-0.30982899625006705
-0.4900641436250055	-0.29979871243816686
-0.4900031084687555	-0.2892645388217302
-0.4899420733125055	-0.2782431736907252
-0.4898810381562555	-0.26675275406921445
-0.4898200030000055	-0.2548116061332271
-0.4897589678437555	-0.2424385139181153
-0.4896979326875055	-0.2296541414578484
-0.4896368975312555	-0.21647888081726555
-0.4895758623750055	-0.20293338323711296
-0.4895148272187555	-0.18904057277396205
-0.4894537920625055	-0.17482244584360787
-0.4893927569062555	-0.16030145272092505
-0.4893317217500055	-0.1455022272375446
-0.4892706865937555	-0.13044814939162447
-0.4892096514375055	-0.11516328108162209
-0.4891486162812555	-0.09967328358173605
-0.4890875811250055	-0.08400284798847132
-0.4890265459687555	-0.06817718880704458
-0.4889655108125055	-0.05222263667491405
-0.4889044756562555	-0.03616490910119047
-0.4888434405000055	-0.0200298053968479
-0.4887824053437555	-0.0038441358182642275
-0.4887213701875055	0.012365817767510725
-0.4886603350312555	0.02857402185227688
-0.4885992998750055	0.044753544512040416
-0.4885382647187555	0.06087810532232231
-0.4884772295625055	0.07692162753852395
-0.4884161944062555	0.09285743458139918
-0.4883551592500055	0.10865975350555913
-0.4882941240937555	0.12430287531350745
-0.4882330889375055	0.13976067485301852
-0.4881720537812555	0.15500826384366928
-0.4881110186250055	0.17002066497351068
-0.4880499834687555	0.18477281877549886
-0.4879889483125055	0.1992410565432015
-0.4879279131562555	0.21340129951701212
-0.4878668780000055	0.22723015608291308
-0.4878058428437555	0.24070541711562302
-0.4877448076875055	0.25380434879895836
-0.4876837725312555	0.2665055124760564
-0.4876227373750055	0.2787883771056523
-0.4875617022187555	0.29063212523315995
-0.4875006670625055	0.3020173947946696
-0.4874396319062555	0.31292572305202004
-0.4873785967500055	0.3233385816089266
-0.4873175615937555	0.3332388037738803
-0.4872565264375055	0.3426103491453877
-0.4871954912812555	0.3514373378570794
-0.4871344561250055	0.3597049971986135
-0.4870734209687555	0.3673998975765425
-0.4870123858125055	0.37450903488440046
-0.4869513506562555	0.3810203828151401
-0.4868903155000055	0.38692328004022897
-0.4868292803437555	0.3922076536431749
-0.4867682451875055	0.39686455106747126
-0.4867072100312555	0.4008862164041958
-0.4866461748750055	0.4042656671731626
-0.4865851397187555	0.4069971022708864
-0.4865241045625055	0.40907580539811433
-0.4864630694062555	0.4104980696041393
-0.4864020342500055	0.4112612469658924
-0.4863409990937555	0.4113637974783583
-0.4862799639375055	0.41080527838692243
-0.4862189287812555	0.4095862857707822
-0.4861578936250055	0.4077085297758712
-0.4860968584687555	0.40517474248380825
-0.4860358233125055	0.4019888224079448
-0.4859747881562555	0.39815569396964656
-0.4859137530000055	0.3936812453439509
-0.4858527178437555	0.3885726132189414
-0.4857916826875055	0.382837827247417
-0.4857306475312555	0.3764859503760475
-0.4856696123750055	0.3695271612002186
-0.4856085772187555	0.36197248666657145
-0.4855475420625055	0.35383414148364983
-0.4854865069062555	0.3451250752866718
-0.4854254717500055	0.3358591745824373
-0.4853644365937555	0.326051712770306
-0.4853034014375055	0.31571816071547487
-0.4852423662812555	0.30487507274225795
-0.4851813311250055	0.293540511037092
-0.4851202959687555	0.28173230986692394
-0.4850592608125055	0.2694695380986778
-0.4849982256562555	0.256772549862149
-0.4849371905000055	0.24366141967185737
-0.4848761553437555	0.23015752907342774
-0.4848151201875055	0.2162830585479858
-0.4847540850312555	0.20206022032193283
-0.4846930498750055	0.18751218822158316
-0.4846320147187555	0.17266272802929034
-0.4845709795625055	0.15753600066762485
-0.4845099444062555	0.14215643650934762
-0.4844489092500055	0.12654916992357756
-0.4843878740937555	0.11073978485072448
-0.4843268389375055	0.09475383704268997
-0.4842658037812555	0.07861738049949268
-0.4842047686250055	0.06235687444559057
-0.4841437334687555	0.04599886554617924
-0.4840826983125055	0.029569848477388756
-0.4840216631562555	0.013096740886718913
-0.4839606280000055	-0.0033933631444149656
-0.4838995928437555	-0.019873746152834496
-0.4838385576875055	-0.03631747814194818
-0.4837775225312555	-0.0526975312008378
-0.4837164873750055	-0.06898715171105116
-0.4836554522187555	-0.08515973036109323
-0.4835944170625055	-0.10118890812235688
-0.4835333819062555	-0.11704819111383778
-0.4834723467500055	-0.13271170971718918
-0.4834113115937555	-0.14815411886525914
-0.4833502764375055	-0.16334956044625434
-0.4832892412812555	-0.17827345268084033
-0.4832282061250055	-0.1929016165618134
-0.4831671709687555	-0.2072093696364403
-0.4831061358125055	-0.22117375031818276
-0.4830451006562555	-0.23477199668076668
-0.4829840655000055	-0.24798118905826744
-0.4829230303437555	-0.26078012386976585
-0.4828619951875055	-0.2731478564022136
-0.4828009600312555	-0.28506366649631887
-0.4827399248750055	-0.296508252745512
-0.4826788897187555	-0.30746296187528566
-0.4826178545625055	-0.3179095084372243
-0.4825568194062555	-0.32783074691377495
-0.4824957842500055	-0.337210668040161
-0.4824347490937555	-0.3460336418115815
-0.4823737139375055	-0.35428503288793295
-0.4823126787812555	-0.3619515700750075
-0.4822516436250055	-0.36902053852840444
-0.4821906084687555	-0.37548018897503066
-0.4821295733125055	-0.381320077249103
-0.4820685381562555	-0.38653052381138076
-0.4820075030000055	-0.3911029382995394
-0.4819464678437555	-0.39502988865493854
-0.4818854326875055	-0.398304822795985
-0.4818243975312555	-0.4009224160354643
-0.4817633623750055	-0.4028784117555055
-0.4817023272187555	-0.4041695151338487
-0.4816412920625055	-0.4047936705917913
-0.4815802569062555	-0.40474988575163706
-0.4815192217500055	-0.40403822799898614
-0.4814581865937555	-0.40265991721731836
-0.4813971514375055	-0.4006172115270009
-0.4813361162812555	-0.39791357852219306
-0.4812750811250055	-0.39455348404946683
-0.4812140459687555	-0.3905424513985741
-0.4811530108125055	-0.385887237751429
-0.4810919756562555	-0.38059548259715564
-0.4810309405000055	-0.3746760149622246
-0.4809699053437555	-0.3681386672315904
-0.4809088701875055	-0.36099414946563396
-0.4808478350312555	-0.35325452498992677
-0.4807867998750055	-0.34493255136225365
-0.4807257647187555	-0.3360418451501842
-0.4806647295625055	-0.3265974656456195
-0.4806036944062555	-0.31661498724613546
-0.4805426592500055	-0.30611074935050225
-0.4804816240937555	-0.2951025338934522
-0.4804205889375055	-0.2836084910511503
-0.4803595537812555	-0.2716474649039091
-0.4802985186250055	-0.25923975798421
-0.4802374834687555	-0.24640573410061237
-0.4801764483125055	-0.2331665381110675
-0.4801154131562555	-0.219544629871443
-0.4800543780000055	-0.20556231092803914
-0.4799933428437555	-0.19124278955930796
-0.4799323076875055	-0.1766102280884846
-0.4798712725312555	-0.16168864569748181
-0.4798102373750055	-0.14650283491329344
-0.4797492022187555	-0.13107836780288026
-0.4796881670625055	-0.1154408394187791
-0.4796271319062555	-0.09961593300889814
-0.4795660967500055	-0.08363025290576734
-0.4795050615937555	-0.06751092440878116
-0.4794440264375055	-0.05128383528389389
-0.4793829912812555	-0.034976416060799626
-0.4793219561250055	-0.018616685613572655
-0.4792609209687555	-0.0022304693465082593
-0.4791998858125055	0.014154033148262265
-0.4791388506562555	0.03050910163780861
-0.4790778155000055	0.046808594677485375
-0.4790167803437555	0.06302434553756961
-0.4789557451875055	0.07912945474298666
-0.4788947100312555	0.09509739308948796
-0.4788336748750055	0.1109010297048095
-0.4787726397187555	0.12651410832804819
-0.4787116045625055	0.14191060932638164
-0.4786505694062555	0.1570646567360787
-0.4785895342500055	0.17195070795374395
-0.4785284990937555	0.18654428007688467
-0.4784674639375055	0.2008206212036058
-0.4784064287812555	0.21475546459731631
-0.4783453936250055	0.22832630288537417
-0.4782843584687555	0.24150968480730958
-0.4782233233125055	0.2542833241862124
-0.4781622881562555	0.2666265717488985
-0.4781012530000055	0.2785179553287966
-0.4780402178437555	0.28993754705476815
-0.4779791826875055	0.3008664901728454
-0.4779181475312555	0.3112860584706703
-0.4778571123750055	0.3211787625756512
-0.4777960772187555	0.3305277885583447
-0.4777350420625055	0.33931754866598585
-0.4776740069062555	0.34753313935162705
-0.4776129717500055	0.3551602384549247
-0.4775519365937555	0.3621864481148343
-0.4774909014375055	0.36859963254865413
-0.4774298662812555	0.374388508009791
-0.4773688311250055	0.37954370648881164
-0.4773077959687555	0.3840561206092119
-0.4772467608125055	0.3879178549550651
-0.4771857256562555	0.39112253713835726
-0.4771246905000055	0.3936643224029977
-0.4770636553437555	0.39553872939744816
-0.4770026201875055	0.39674255941557757
-0.4769415850312555	0.3972733748207863
-0.4768805498750055	0.39713005369652704
-0.4768195147187555	0.39631267255069674
-0.4767584795625055	0.394822289966608
-0.4766974444062555	0.39266110950446875
-0.4766364092500055	0.3898325036208821
-0.4765753740937555	0.38634103610163784
-0.4765143389375055	0.3821921724993649
-0.4764533037812555	0.3773925503884395
-0.4763922686250055	0.37195019786202377
-0.4763312334687555	0.3658737315100174
-0.4762701983125055	0.35917298088415994
-0.4762091631562555	0.3518593213171449
-0.4761481280000055	0.34394437020419866
-0.4760870928437555	0.3354410516321275
-0.4760260576875055	0.32636390163608386
-0.4759650225312555	0.3167273441440143
-0.4759039873750055	0.30654723493607433
-0.4758429522187555	0.2958410593156431
-0.4757819170625055	0.284625857940179
-0.4757208819062555	0.2729201307338908
-0.4756598467500055	0.26074402217711845
-0.4755988115937555	0.24811708120071996
-0.4755377764375055	0.23506010941610633
-0.4754767412812555	0.22159553529744608
-0.4754157061250055	0.20774513144049608
-0.4753546709687555	0.19353187672365907
-0.4752936358125055	0.1789800013413587
-0.4752326006562555	0.16411309683648118
-0.4751715655000055	0.14895617301665784
-0.4751105303437555	0.1335347560460446
-0.4750494951875055	0.11787402363381266
-0.4749884600312555	0.10200050679964652
-0.4749274248750055	0.08594073756081701
-0.4748663897187555	0.0697210705875036
-0.4748053545625055	0.053369201410711754
-0.4747443194062555	0.03691228766982132
-0.4746832842500055	0.020377273182953883
-0.4746222490937555	0.0037928371577459724
-0.4745612139375055	-0.012813677372676724
-0.4745001787812555	-0.0294151582824478
-0.4744391436250055	-0.04598261425486378
-0.4743781084687555	-0.06248862980369192
-0.4743170733125055	-0.07890625270454595
-0.4742560381562555	-0.09520694655123232
-0.4741950030000055	-0.11136351613529108
-0.4741339678437555	-0.1273494665068927
-0.4740729326875055	-0.1431371359332728
-0.4740118975312555	-0.1587001390897828
-0.4739508623750055	-0.17401272995192402
-0.4738898272187555	-0.18904850907805937
-0.4738287920625055	-0.20378232505063912
-0.4737677569062555	-0.2181896021994086
-0.4737067217500055	-0.23224559413670395
-0.4736456865937555	-0.24592665888151338
-0.4735846514375055	-0.2592099723778754
-0.4735236162812555	-0.2720726459743917
-0.4734625811250055	-0.2844928938080115
-0.4734015459687555	-0.29645016736548
-0.4733405108125055	-0.3079235513878299
-0.4732794756562555	-0.31889368011321656
-0.4732184405000055	-0.3293423898746762
-0.4731574053437555	-0.339251121568638
-0.4730963701875055	-0.34860338182299855
-0.4730353350312555	-0.3573833630998401
-0.4729742998750055	-0.36557547612631447
-0.4729132647187555	-0.37316609942631523
-0.4728522295625055	-0.38014209489756057
-0.4727911944062555	-0.3864912164829219
-0.4727301592500055	-0.392202701562715
-0.4726691240937555	-0.39726650081153714
-0.4726080889375055	-0.40167372062508483
-0.4725470537812555	-0.4054166879169985
-0.4724860186250055	-0.4084887048257073
-0.4724249834687555	-0.4108841999644414
-0.4723639483125055	-0.4125988058316529
-0.4723029131562555	-0.4136292726852096
-0.4722418780000055	-0.41397342017237654
-0.4721808428437555	-0.41363029605906726
-0.4721198076875055	-0.41260010112940265
-0.4720587725312555	-0.4108841130777416
-0.4719977373750055	-0.4084848197757537
-0.4719367022187555	-0.40540588294589713
-0.4718756670625055	-0.40165198537554697
-0.4718146319062555	-0.39722905274970444
-0.4717535967500055	-0.3921441622745481
-0.4716925615937555	-0.38640533421504447
-0.4716315264375055	-0.3800218365070317
-0.4715704912812555	-0.3730040284446558
-0.4715094561250055	-0.3653632712293482
-0.4714484209687555	-0.3571118961672483
-0.4713873858125055	-0.34826346815261416
-0.4713263506562555	-0.3388325295384681
-0.4712653155000055	-0.3288342422558838
-0.4712042803437555	-0.31828530402998395
-0.4711432451875055	-0.30720302339635436
-0.4710822100312555	-0.29560529157523857
-0.4710211748750055	-0.28351177645332576
-0.4709601397187555	-0.27094209541252995
-0.4708991045625055	-0.2579167790543985
-0.4708380694062555	-0.24445801127021824
-0.4707770342500055	-0.23058756128160324
-0.4707159990937555	-0.21632837007806618
-0.4706549639375055	-0.20170444886762395
-0.4705939287812555	-0.186739801613758
-0.4705328936250055	-0.1714592082595664
-0.4704718584687555	-0.1558882312935605
-0.4704108233125055	-0.14005267229018092
-0.4703497881562555	-0.1239788076182937
-0.4702887530000055	-0.10769358340862181
-0.4702277178437555	-0.09122377592085448
-0.4701666826875055	-0.07459711388962255
-0.4701056475312555	-0.057841376947905754
-0.4700446123750055	-0.04098408233115544
-0.4699835772187555	-0.024053732484281363
-0.4699225420625055	-0.0070785531345432555
-0.4698615069062555	0.009913245438857844
-0.4698004717500055	0.02689324714802271
-0.4697394365937555	0.04383302043010627
