Time	Frequency
-0.5000143696875057	0.4035716417231755
-0.4999533345312557	0.4073711374515237
-0.4998922993750057	0.4104127877904155
-0.4998312642187557	0.41269107379986353
-0.4997702290625057	0.4142019159238052
-0.4997091939062557	0.4149425064607983
-0.4996481587500057	0.414911527216722
-0.4995871235937557	0.4141091605878175
-0.4995260884375057	0.41253688580118414
-0.4994650532812557	0.41019768027684067
-0.4994040181250057	0.4070959695155178
-0.4993429829687557	0.403237478266719
-0.4992819478125057	0.3986294488560193
-0.4992209126562557	0.3932804936447808
-0.4991598775000057	0.3872004957495625
-0.4990988423437557	0.38040080860471986
-0.4990378071875057	0.372894135610416
-0.4989767720312557	0.3646943385228282
-0.4989157368750057	0.3558167089385563
-0.4988547017187557	0.34627785977089764
-0.4987936665625057	0.3360953144315151
-0.4987326314062557	0.3252881288209134
-0.4986715962500057	0.3138765851428568
-0.4986105610937557	0.3018815545683394
-0.4985495259375057	0.28932544745603817
-0.4984884907812557	0.276231959653601
-0.4984274556250057	0.2626250748025064
-0.4983664204687557	0.24853004681966276
-0.4983053853125057	0.23397358677839142
-0.4982443501562557	0.21898240473314273
-0.4981833150000057	0.20358436014341708
-0.4981222798437557	0.18780856122828835
-0.4980612446875057	0.17168391632714625
-0.4980002095312557	0.15524063757626194
-0.4979391743750057	0.13850968554909363
-0.4978781392187557	0.12152172861442637
-0.4978171040625057	0.1043086461594966
-0.4977560689062557	0.08690281500533564
-0.4976950337500057	0.06933636206027041
-0.4976339985937557	0.051642138936306876
-0.4975729634375057	0.03385331048875699
-0.4975119282812557	0.016003005107773884
-0.4974508931250057	-0.0018754147589198967
-0.4973898579687557	-0.019748551887033935
-0.4973288228125057	-0.037582964330594056
-0.4972677876562557	-0.05534532301466554
-0.4972067525000057	-0.07300238398995652
-0.4971457173437557	-0.09052106657367709
-0.4970846821875057	-0.10786864708837711
-0.4970236470312557	-0.12501255193565117
-0.4969626118750057	-0.14192065928044886
-0.4969015767187557	-0.15856131885995933
-0.4968405415625057	-0.17490320989608113
-0.4967795064062557	-0.19091575929681215
-0.4967184712500057	-0.20656882574532756
-0.4966574360937557	-0.22183295038821788
-0.4965964009375057	-0.236679561038409
-0.4965353657812557	-0.25108052452363755
-0.4964743306250057	-0.26500887103522885
-0.4964132954687557	-0.27843829644742557
-0.4963522603125057	-0.2913433211273149
-0.4962912251562557	-0.30369984420617674
-0.4962301900000057	-0.3154842247604165
-0.4961691548437557	-0.3266742347560204
-0.4961081196875057	-0.3372488486366689
-0.4960470845312557	-0.34718762906132694
-0.4959860493750057	-0.3564718955859899
-0.4959250142187557	-0.3650840685846583
-0.4958639790625057	-0.3730073594640531
-0.4958029439062557	-0.3802267702940939
-0.4957419087500057	-0.3867286009451398
-0.4956808735937557	-0.39249999245075257
-0.4956198384375057	-0.39752982290468425
-0.4955588032812557	-0.40180852840314824
-0.4954977681250057	-0.4053274142890972
-0.4954367329687557	-0.408079482465997
-0.4953756978125057	-0.41005935350852823
-0.4953146626562557	-0.41126269045612146
-0.4952536275000057	-0.41168680117498524
-0.4951925923437557	-0.4113305405738286
-0.4951315571875057	-0.4101940133438068
-0.4950705220312557	-0.40827887179359673
-0.4950094868750057	-0.405588250636758
-0.4949484517187557	-0.4021266913289597
-0.4948874165625057	-0.3979001910461838
-0.4948263814062557	-0.39291609049048287
-0.4947653462500057	-0.3871833037311221
-0.4947043110937557	-0.3807120920249518
-0.4946432759375057	-0.37351388495719473
-0.4945822407812557	-0.36560182571172806
-0.4945212056250057	-0.35699022854646417
-0.4944601704687557	-0.3476945302755336
-0.4943991353125057	-0.33773182228813087
-0.4943381001562557	-0.3271201822322105
-0.4942770650000057	-0.31587892127997663
-0.4942160298437557	-0.30402872897259475
-0.4941549946875057	-0.2915911907827298
-0.4940939595312557	-0.27858913061231916
-0.4940329243750057	-0.2650464391114679
-0.4939718892187557	-0.2509880501997084
-0.4939108540625057	-0.23643977290363424
-0.4938498189062557	-0.22142828066314585
-0.4937887837500057	-0.20598152703216327
-0.4937277485937557	-0.19012781983692423
-0.4936667134375057	-0.17389630390474964
-0.4936056782812557	-0.157317309803882
-0.4935446431250057	-0.14042116381404104
-0.4934836079687557	-0.12323926354069807
-0.4934225728125057	-0.10580355787117406
-0.4933615376562557	-0.08814592759587667
-0.4933005025000057	-0.07029959291010343
-0.4932394673437557	-0.052297430989367046
-0.4931784321875057	-0.03417261913748904
-0.4931173970312557	-0.015959370508474097
-0.4930563618750057	0.002309002489789229
-0.4929953267187557	0.020598426495079616
-0.4929342915625057	0.038874485789264314
-0.4928732564062557	0.05710369568868058
-0.4928122212500057	0.07525197560473842
-0.4927511860937557	0.09328526096680771
-0.4926901509375057	0.11117011738470328
-0.4926291157812557	0.12887326948372216
-0.4925680806250057	0.14636161197646302
-0.4925070454687557	0.16360237614509648
-0.4924460103125057	0.18056349367962982
-0.4923849751562557	0.19721322587160006
-0.4923239400000057	0.2135203429074406
-0.4922629048437557	0.2294545023422924
-0.4922018696875057	0.24498570826290808
-0.4921408345312557	0.2600847763220686
-0.4920797993750057	0.2747236182116308
-0.4920187642187557	0.2888746802475722
-0.4919577290625057	0.30251122027777577
-0.4918966939062557	0.315607712454196
-0.4918356587500057	0.3281395986609061
-0.4917746235937557	0.34008314184020827
-0.4917135884375057	0.35141580068408806
-0.4916525532812557	0.36211632420937145
-0.4915915181250057	0.3721643361382973
-0.4915304829687557	0.381540794865928
-0.4914694478125057	0.3902281391208922
-0.4914084126562557	0.39820959945464784
-0.4913473775000057	0.40547000633054114
-0.4912863423437557	0.411995708205853
-0.4912253071875057	0.4177739599877152
-0.4911642720312557	0.42279371549150885
-0.4911032368750057	0.42704531943345075
-0.4910422017187557	0.43052040932897556
-0.4909811665625057	0.43321219941201816
-0.4909201314062557	0.4351152589933192
-0.4908590962500057	0.4362256883014269
-0.4907980610937557	0.43654104922731374
-0.4907370259375057	0.43606035657796277
-0.4906759907812557	0.4347841577559635
-0.4906149556250057	0.4327144269708654
-0.4905539204687557	0.4298546432744027
-0.4904928853125057	0.42620980712409606
-0.4904318501562557	0.4217862905462469
-0.4903708150000057	0.41659195694662143
-0.4903097798437557	0.4106362056078319
-0.4902487446875057	0.4039296867438495
-0.4901877095312557	0.39648455840805535
-0.4901266743750057	0.38831442287586376
-0.4900656392187557	0.37943403728255776
-0.4900046040625057	0.3698597261476867
-0.4899435689062557	0.3596089753325064
-0.4898825337500057	0.34870047166689294
-0.4898214985937557	0.33715443204381745
-0.4897604634375057	0.32499188684550745
-0.4896994282812557	0.3122352088322789
-0.4896383931250057	0.29890813365264324
-0.4895773579687557	0.2850349305717746
-0.4895163228125057	0.27064124009833884
-0.4894552876562557	0.25575388513192104
-0.4893942525000057	0.2404001018630868
-0.4893332173437557	0.224608275111509
-0.4892721821875057	0.2084078648433229
-0.4892111470312557	0.19182868433439615
-0.4891501118750057	0.17490128417338818
-0.4890890767187557	0.1576573550973865
-0.4890280415625057	0.14012881400012997
-0.4889670064062557	0.12234783421371263
-0.4889059712500057	0.10434767232848165
-0.4888449360937557	0.0861619722153681
-0.4887839009375057	0.06782409422616048
-0.4887228657812557	0.049368033002967264
-0.4886618306250057	0.030828693385050225
-0.4886007954687557	0.012240134779300525
-0.4885397603125057	-0.006363425667348519
-0.4884787251562557	-0.024946606483185155
-0.4884176900000057	-0.043475180165241954
-0.4883566548437557	-0.061915087424958354
-0.4882956196875057	-0.08023128507324674
-0.4882345845312557	-0.09838985462319956
-0.4881735493750057	-0.11635744863799176
-0.4881125142187557	-0.1341000346573029
-0.4880514790625057	-0.15158458121202256
-0.4879904439062557	-0.1687788777632859
-0.4879294087500057	-0.18565049604856285
-0.4878683735937557	-0.20216807787568425
-0.4878073384375057	-0.21830094014318907
-0.4877463032812557	-0.23401869397451588
-0.4876852681250057	-0.24929227050875674
-0.4876242329687557	-0.26409316131459937
-0.4875631978125057	-0.2783934546009917
-0.4875021626562557	-0.2921667204562096
-0.4874411275000057	-0.30538726087830964
-0.4873800923437557	-0.31803012831155175
-0.4873190571875057	-0.3300719124034405
-0.4872580220312557	-0.34149017997635966
-0.4871969868750057	-0.3522633877464162
-0.4871359517187557	-0.3623715440845865
-0.4870749165625057	-0.37179579869258306
-0.4870138814062557	-0.380518472394022
-0.4869528462500057	-0.38852334181445053
-0.4868918110937557	-0.3957953879594167
-0.4868307759375057	-0.4023210812983942
-0.4867697407812557	-0.40808831219410896
-0.4867087056250057	-0.41308621532261397
-0.4866476704687557	-0.41730551325235055
-0.4865866353125057	-0.4207384252856049
-0.4865256001562557	-0.42337850622228007
-0.4864645650000057	-0.425220892681016
-0.4864035298437557	-0.426262221684381
-0.4863424946875057	-0.42650057939190433
-0.4862814595312557	-0.42593562251771244
-0.4862204243750057	-0.4245684935608058
-0.4861593892187557	-0.42240183218416044
-0.4860983540625057	-0.419439787480558
-0.4860373189062557	-0.4156880423331136
-0.4859762837500057	-0.41115373092515384
-0.4859152485937557	-0.40584544717289983
-0.4858542134375057	-0.39977329556397817
-0.4857931782812557	-0.39294880716319214
-0.4857321431250057	-0.38538488963018963
-0.4856711079687557	-0.377095871190339
-0.4856100728125057	-0.3680975422778326
-0.4855490376562557	-0.3584068410847879
-0.4854880025000057	-0.34804215941361494
-0.4854269673437557	-0.33702324377028836
-0.4853659321875057	-0.32537074809352945
-0.4853048970312557	-0.3131068905516376
-0.4852438618750057	-0.300254979905219
-0.4851828267187557	-0.28683912827203845
-0.4851217915625057	-0.2728849288788823
-0.4850607564062557	-0.25841883715081226
-0.4849997212500057	-0.24346811477114239
-0.4849386860937557	-0.22806124772108463
-0.4848776509375057	-0.2122273863496318
-0.4848166157812557	-0.1959965331497704
-0.4847555806250057	-0.17939949715658202
-0.4846945454687557	-0.16246767797961106
-0.4846335103125057	-0.14523337552028948
-0.4845724751562557	-0.12772911498793027
-0.4845114400000057	-0.10998810944649527
-0.4844504048437557	-0.0920442264616687
-0.4843893696875057	-0.07393131460317577
-0.4843283345312557	-0.05568391143831832
-0.4842672993750057	-0.037336652466240405
-0.4842062642187557	-0.018924364125836243
-0.4841452290625057	-0.00048208236673757417
-0.4840841939062557	0.017955218296188666
-0.4840231587500057	0.036352233284046874
-0.4839621235937557	0.05467421489013169
-0.4839010884375057	0.07288630887690832
-0.4838400532812557	0.09095361523583403
-0.4837790181250057	0.10884186938668503
-0.4837179829687557	0.12651691128199466
-0.4836569478125057	0.14394528459506742
-0.4835959126562557	0.16109359133515042
-0.4835348775000057	0.17792884540226275
-0.4834738423437557	0.19441939334387076
-0.4834128071875057	0.2105336739004137
-0.4833517720312557	0.22624058684722023
-0.4832907368750057	0.2415102348439178
-0.4832297017187557	0.25631368190683346
-0.4831686665625057	0.27062241384056107
-0.4831076314062557	0.2844087310193911
-0.4830465962500057	0.29764671884980376
-0.4829855610937557	0.3103108805680113
-0.4829245259375057	0.3223764698065984
-0.4828634907812557	0.33382076792904447
-0.4828024556250057	0.34462176625271074
-0.4827414204687557	0.3547583165829335
-0.4826803853125057	0.36421107904039335
-0.4826193501562557	0.37296190457029943
-0.4825583150000057	0.38099367048831073
-0.4824972798437557	0.388290849713334
-0.4824362446875057	0.3948393384709009
-0.4823752095312557	0.4006262625993445
-0.4823141743750057	0.4056403560291516
-0.4822531392187557	0.40987178450520617
-0.4821921040625057	0.4133120512997514
-0.4821310689062557	0.4159543518933884
-0.4820700337500057	0.41779336593014954
-0.4820089985937557	0.4188251363215708
-0.4819479634375057	0.41904737553611787
-0.4818869282812557	0.4184593841156235
-0.4818258931250057	0.41706186021123975
-0.4817648579687557	0.41485705489463454
-0.4817038228125057	0.41184890689024534
-0.4816427876562557	0.4080427666492418
-0.4815817525000057	0.4034454016822311
-0.4815207173437557	0.3980652986462582
-0.4814596821875057	0.39191241619492645
-0.4813986470312557	0.38499792854283327
-0.4813376118750057	0.3773346782930449
-0.4812765767187557	0.3689371173701597
-0.4812155415625057	0.3598206384398618
-0.4811545064062557	0.35000224387861023
-0.4810934712500057	0.33950057720200594
-0.4810324360937557	0.3283350317358699
-0.4809714009375057	0.3165265199160126
-0.4809103657812557	0.30409750777164174
-0.4808493306250057	0.2910710949723324
-0.4807882954687557	0.27747176400614715
-0.4807272603125057	0.263325349518565
-0.4806662251562557	0.24865835444790468
-0.4806051900000057	0.23349847350994998
-0.4805441548437557	0.21787429401412922
-0.4804831196875057	0.20181537780509054
-0.4804220845312557	0.18535215634397526
-0.4803610493750057	0.16851555457494566
-0.4803000142187557	0.15133762553863636
-0.4802389790625057	0.13385086938615026
-0.4801779439062557	0.1160883519618077
-0.4801169087500057	0.09808386566241035
-0.4800558735937557	0.07987139548023713
-0.4799948384375057	0.06148570850661719
-0.4799338032812557	0.042961603170027264
-0.4798727681250057	0.024334236600989448
-0.4798117329687557	0.005639258580350608
-0.4797506978125057	-0.013088152689962038
-0.4796896626562557	-0.031812057190163515
-0.4796286275000057	-0.05049674585843195
-0.4795675923437557	-0.06910704445743501
-0.4795065571875057	-0.08760694623813305
-0.4794455220312557	-0.1059614881915839
-0.4793844868750057	-0.12413581428427718
-0.4793234517187557	-0.14209453558027538
-0.4792624165625057	-0.15980404881939886
-0.4792013814062557	-0.17723047413452106
-0.4791403462500057	-0.19433978436918606
-0.4790793110937557	-0.21109990040376245
-0.4790182759375057	-0.22747868307720057
-0.4789572407812557	-0.24344435459670272
-0.4788962056250057	-0.258966570667316
-0.4788351704687557	-0.2740155007244303
-0.4787741353125057	-0.28856222842283835
-0.4787131001562557	-0.30257876598744515
-0.4786520650000057	-0.3160380824812455
-0.4785910298437557	-0.32891436836505994
-0.4785299946875057	-0.34118273324453563
-0.4784689595312557	-0.3528194279645968
-0.4784079243750057	-0.3638020212499714
-0.4783468892187557	-0.3741092825430697
-0.4782858540625057	-0.38372110357428957
-0.4782248189062557	-0.392618855038101
-0.4781637837500057	-0.40078529461870155
-0.4781027485937557	-0.40820429023132554
-0.4780417134375057	-0.41486145210866193
-0.4779806782812557	-0.4207437173600685
-0.4779196431250057	-0.4258392491419387
-0.4778586079687557	-0.4301381104469037
-0.4777975728125057	-0.4336316981558983
-0.4777365376562557	-0.43631274737448433
-0.4776755025000057	-0.43817579708971893
-0.4776144673437557	-0.4392169278605526
-0.4775534321875057	-0.43943359500653867
-0.4774923970312557	-0.4388249301199486
-0.4774313618750057	-0.43739174657937635
-0.4773703267187557	-0.4351362281166682
-0.4773092915625057	-0.43206218730140866
-0.4772482564062557	-0.42817515262032285
-0.4771872212500057	-0.4234819857914515
-0.4771261860937557	-0.4179911227747393
-0.4770651509375057	-0.4117127254255713
-0.4770041157812557	-0.4046582404280641
-0.4769430806250057	-0.3968405859719415
-0.4768820454687557	-0.38827433968014713
-0.4768210103125057	-0.37897540713886796
-0.4767599751562557	-0.3689609695217656
-0.4766989400000057	-0.3582497463675841
-0.4766379048437557	-0.3468618321005132
-0.4765768696875057	-0.33481840089368065
-0.4765158345312557	-0.3221420555615448
-0.4764547993750057	-0.3088566204364453
-0.4763937642187557	-0.2949869831507297
-0.4763327290625057	-0.2805592698987697
-0.4762716939062557	-0.2656005366727963
-0.4762106587500057	-0.2501390973670463
-0.4761496235937557	-0.23420405161629196
-0.4760885884375057	-0.2178252336952627
-0.4760275532812557	-0.20103397194875455
-0.4759665181250057	-0.18386177139626778
-0.4759054829687557	-0.16634083909538586
-0.4758444478125057	-0.14850480817953765
-0.4757834126562557	-0.13038718424638687
-0.4757223775000057	-0.11202211704869555
-0.4756613423437557	-0.09344466206524496
-0.4756003071875057	-0.07468989976278545
-0.4755392720312557	-0.05579344570753241
-0.4754782368750057	-0.03679113254565937
-0.4754172017187557	-0.017718903680619513
-0.4753561665625057	0.0013867972953843083
-0.4752951314062557	0.020489756365750875
-0.4752340962500057	0.039553867049934764
-0.4751730610937557	0.05854259903392945
-0.4751120259375057	0.07741997109332868
-0.4750509907812557	0.09615015325152539
-0.4749899556250057	0.11469723670780313
-0.4749289204687557	0.1330262420039583
-0.4748678853125057	0.15110202605911457
-0.4748068501562557	0.16889008935731228
-0.4747458150000057	0.18635689589712925
-0.4746847798437557	0.20346864673182619
-0.4746237446875057	0.2201929768606153
-0.4745627095312557	0.23649818076089674
-0.4745016743750057	0.25235258394960447
-0.4744406392187557	0.2677262960019091
-0.4743796040625057	0.28259008469902763
-0.4743185689062557	0.29691508489439383
-0.4742575337500057	0.31067420889413266
-0.4741964985937557	0.3238412839012031
-0.4741354634375057	0.33639073373987954
-0.4740744282812557	0.3482987426415031
-0.4740133931250057	0.35954269031206004
-0.4739523579687557	0.37010073053512166
-0.4738913228125057	0.3799526902751431
-0.4738302876562557	0.38907990075406534
-0.4737692525000057	0.3974646476888236
-0.4737082173437557	0.40509078174647434
-0.4736471821875057	0.41194387632503054
-0.4735861470312557	0.4180106315272301
-0.4735251118750057	0.4232792863388649
-0.4734640767187557	0.4277398560528443
-0.4734030415625057	0.4313836638801102
-0.4733420064062557	0.43420360547031656
-0.4732809712500057	0.43619431822618004
-0.4732199360937557	0.4373518583475897
-0.4731589009375057	0.43767390837674275
-0.4730978657812557	0.4371598738150204
-0.4730368306250057	0.4358105903120543
-0.4729757954687557	0.43362856770856
-0.4729147603125057	0.43061800564971486
-0.4728537251562557	0.4267845110725208
-0.4727926900000057	0.4221353886188437
-0.4727316548437557	0.4166795471774528
-0.4726706196875057	0.4104273092664037
-0.4726095845312557	0.40339063208148185
-0.4725485493750057	0.3955829787230773
-0.4724875142187557	0.3870192227736336
-0.4724264790625057	0.3777157906038813
-0.4723654439062557	0.36769048198001847
-0.4723044087500057	0.3569624029214589
-0.4722433735937557	0.3455522554749455
-0.4721823384375057	0.333481807533817
-0.4721213032812557	0.32077413468087945
-0.4720602681250057	0.30745384478437654
-0.4719992329687557	0.2935461986588174
-0.4719381978125057	0.2790780950516122
-0.4718771626562557	0.2640773521903039
-0.4718161275000057	0.24857239356742078
-0.4717550923437557	0.23259363818852466
-0.4716940571875057	0.21617136887924085
-0.4716330220312557	0.1993369222851173
-0.4715719868750057	0.18212349604228048
-0.4715109517187557	0.16456347384014827
-0.4714499165625057	0.14669068650641462
-0.4713888814062557	0.12854010590490134
-0.4713278462500057	0.11014609790011527
-0.4712668110937557	0.09154426289236892
-0.4712057759375057	0.07277063679620388
-0.4711447407812557	0.05386112741555928
-0.4710837056250057	0.0348522981168346
-0.4710226704687557	0.015780968797053624
-0.4709616353125057	-0.0033163382458943746
-0.4709006001562557	-0.02240272783869343
-0.4708395650000057	-0.04144107824374262
-0.4707785298437557	-0.06039494824885374
-0.4707174946875057	-0.07922762308540361
-0.4706564595312557	-0.09790261477045528
-0.4705954243750057	-0.11638400181627971
-0.4705343892187557	-0.13463586316211998
-0.4704733540625057	-0.15262300126206496
-0.4704123189062557	-0.17031064731736623
-0.4703512837500057	-0.18766442206706174
-0.4702902485937557	-0.2046508532643587
-0.4702292134375057	-0.22123697857384053
-0.4701681782812557	-0.23739056769340977
-0.4701071431250057	-0.25308045661353656
-0.4700461079687557	-0.2682761531574108
-0.4699850728125057	-0.2829479934593619
-0.4699240376562557	-0.29706766587958255
-0.4698630025000057	-0.31060784815611714
-0.4698019673437557	-0.3235418229654095
-0.4697409321875057	-0.3358446333798652
-0.4696798970312557	-0.3474926203434224
