Time	Frequency
-0.500010490093743	-0.24552482724613664
-0.499949454937493	-0.26044797771909617
-0.499888419781243	-0.2749010236698808
-0.499827384624993	-0.28885737024638425
-0.499766349468743	-0.3022908874611885
-0.499705314312493	-0.3151771352379061
-0.499644279156243	-0.3274922173717174
-0.499583243999993	-0.3392132286039061
-0.499522208843743	-0.35031875643780325
-0.499461173687493	-0.36078816772921785
-0.499400138531243	-0.37060209664158095
-0.499339103374993	-0.3797424276368488
-0.499278068218743	-0.38819226615343744
-0.499217033062493	-0.39593600072287316
-0.499155997906243	-0.40295925337918176
-0.499094962749993	-0.4092490752670604
-0.499033927593743	-0.4147938482549692
-0.498972892437493	-0.4195832175993418
-0.498911857281243	-0.42360838974481224
-0.498850822124993	-0.42686196005222593
-0.498789786968743	-0.4293377683533498
-0.498728751812493	-0.43103130871734097
-0.498667716656243	-0.43193949832395917
-0.498606681499993	-0.4320605528343023
-0.498545646343743	-0.4313942820509546
-0.498484611187493	-0.4299419882311091
-0.498423576031243	-0.4277063015103949
-0.498362540874993	-0.4246913528790259
-0.498301505718743	-0.42090283446636795
-0.498240470562493	-0.41634771413691185
-0.498179435406243	-0.4110344241403989
-0.498118400249993	-0.4049729078246015
-0.498057365093743	-0.3981743938194851
-0.497996329937493	-0.3906514986984417
-0.497935294781243	-0.38241819769828317
-0.497874259624993	-0.3734898466442538
-0.497813224468743	-0.3638829793982121
-0.497752189312493	-0.353615469963403
-0.497691154156243	-0.34270650549642934
-0.497630118999993	-0.3311762123712745
-0.497569083843743	-0.3190461049404505
-0.497508048687493	-0.3063388763062906
-0.497447013531243	-0.29307805197445125
-0.497385978374993	-0.2792882152411109
-0.497324943218743	-0.2649952168394206
-0.497263908062493	-0.25022574480615856
-0.497202872906243	-0.2350069651437661
-0.497141837749993	-0.21936740272472988
-0.497080802593743	-0.20333645350892013
-0.497019767437493	-0.1869435965860543
-0.496958732281243	-0.17021936901448162
-0.496897697124993	-0.15319534961977127
-0.496836661968743	-0.1359030382430141
-0.496775626812493	-0.11837438957752364
-0.496714591656243	-0.10064256853017838
-0.496653556499993	-0.08274053617451328
-0.496592521343743	-0.06470129125062786
-0.496531486187493	-0.046559037385254264
-0.496470451031243	-0.028347392531489372
-0.496409415874993	-0.010100076535959068
-0.496348380718743	0.008148241084600202
-0.496287345562493	0.026364032885172126
-0.496226310406243	0.04451321429983522
-0.496165275249993	0.06256135157851497
-0.496104240093743	0.08047555746312979
-0.496043204937493	0.09822191816644242
-0.495982169781243	0.11576689326225205
-0.495921134624993	0.13307861448370678
-0.495860099468743	0.15012405215783375
-0.495799064312493	0.16687127981063188
-0.495738029156243	0.18328961413845557
-0.495676993999993	0.1993476491469312
-0.495615958843743	0.21501570924694602
-0.495554923687493	0.2302646674080162
-0.495493888531243	0.24506544903503305
-0.495432853374993	0.25939080933698067
-0.495371818218743	0.2732139282080764
-0.495310783062493	0.2865086292248761
-0.495249747906243	0.2992503009673605
-0.495188712749993	0.3114150381141368
-0.495127677593743	0.32297991287311795
-0.495066642437493	0.3339235113156408
-0.495005607281243	0.34422524706801716
-0.494944572124993	0.3538655901166028
-0.494883536968743	0.3628268401242307
-0.494822501812493	0.3710921924426011
-0.494761466656243	0.3786457805592539
-0.494700431499993	0.3854738011911212
-0.494639396343743	0.3915635382790559
-0.494578361187493	0.39690323435562486
-0.494517326031243	0.4014831129104408
-0.494456290874993	0.4052947245484659
-0.494395255718743	0.4083306592882818
-0.494334220562493	0.41058534809280917
-0.494273185406243	0.4120547544746691
-0.494212150249993	0.41273594021587523
-0.494151115093743	0.4126276791684725
-0.494090079937493	0.4117303400294946
-0.494029044781243	0.4100455353968569
-0.493968009624993	0.40757647674670544
-0.493906974468743	0.4043279086217029
-0.493845939312493	0.4003059203167758
-0.493784904156243	0.3955181247106455
-0.493723868999993	0.38997362698285554
-0.493662833843743	0.3836828644656086
-0.493601798687493	0.3766577049133759
-0.493540763531243	0.3689114680359123
-0.493479728374993	0.3604588156303974
-0.493418693218743	0.35131564002843824
-0.493357658062493	0.3414992281692339
-0.493296622906243	0.3310282947734159
-0.493235587749993	0.31992242279683447
-0.493174552593743	0.3082026539010426
-0.493113517437493	0.295891336982914
-0.493052482281243	0.28301150963119853
-0.492991447124993	0.2695876714761596
-0.492930411968743	0.2556452007368012
-0.492869376812493	0.24121045954952794
-0.492808341656243	0.2263108947750005
-0.492747306499993	0.21097445014085162
-0.492686271343743	0.19523041653658363
-0.492625236187493	0.1791086440619105
-0.492564201031243	0.16263943078670873
-0.492503165874993	0.14585422508939075
-0.492442130718743	0.128784735874488
-0.492381095562493	0.11146343724709656
-0.492320060406243	0.09392312457381137
-0.492259025249993	0.07619694001999135
-0.492197990093743	0.058319005776022385
-0.492136954937493	0.04032274623982191
-0.492075919781243	0.022242399287145317
-0.492014884624993	0.004113042165791739
-0.491953849468743	-0.014031773381126331
-0.491892814312493	-0.03215737808196349
-0.491831779156243	-0.05022842498131947
-0.491770743999993	-0.06821146006886722
-0.491709708843743	-0.08607216101933211
-0.491648673687493	-0.10377575378978574
-0.491587638531243	-0.12128913285485135
-0.491526603374993	-0.13857884578608995
-0.491465568218743	-0.15561154953292747
-0.491404533062493	-0.1723549909962133
-0.491343497906243	-0.1887770608735886
-0.491282462749993	-0.2048463630195131
-0.491221427593743	-0.2205321429888119
-0.491160392437493	-0.23580433808396295
-0.491099357281243	-0.25063372026860686
-0.491038322124993	-0.2649916811636609
-0.490977286968743	-0.2788508512795922
-0.490916251812493	-0.292184493953236
-0.490855216656243	-0.3049667461469952
-0.490794181499993	-0.3171732635187921
-0.490733146343743	-0.3287804120001574
-0.490672111187493	-0.33976553248892816
-0.490611076031243	-0.35010754239330366
-0.490550040874993	-0.3597864387471518
-0.490489005718743	-0.3687831495897053
-0.490427970562493	-0.37708022390412904
-0.490366935406243	-0.38466159553820334
-0.490305900249993	-0.39151217299575086
-0.490244865093743	-0.39761838561570517
-0.490183829937493	-0.4029683161116907
-0.490122794781243	-0.40755125665613107
-0.490061759624993	-0.4113577577260147
-0.490000724468743	-0.41438015882840123
-0.489939689312493	-0.41661225609511365
-0.489878654156243	-0.4180490731588413
-0.489817618999993	-0.41868734123646656
-0.489756583843743	-0.4185253079343777
-0.489695548687493	-0.41756263740933086
-0.489634513531243	-0.41580055842669755
-0.489573478374993	-0.4132418100506951
-0.489512443218743	-0.40989064801819963
-0.489451408062493	-0.4057527988814975
-0.489390372906243	-0.40083550177523186
-0.489329337749993	-0.39514749828888546
-0.489268302593743	-0.3886989446962576
-0.489207267437493	-0.3815014323780855
-0.489146232281243	-0.37356808136569686
-0.489085197124993	-0.3649133302296875
-0.489024161968743	-0.3555528643582022
-0.488963126812493	-0.3455040042919244
-0.488902091656243	-0.3347852765217818
-0.488841056499993	-0.32341614347340736
-0.488780021343743	-0.3114178411935609
-0.488718986187493	-0.29881267583600574
-0.488657951031243	-0.28562364128298684
-0.488596915874993	-0.27187545383834316
-0.488535880718743	-0.2575937291554334
-0.488474845562493	-0.2428049046396893
-0.488413810406243	-0.2275365043784351
-0.488352775249993	-0.21181701208892853
-0.488291740093743	-0.1956760811297023
-0.488230704937493	-0.17914342909352254
-0.488169669781243	-0.1622499333079048
-0.488108634624993	-0.14502790881006808
-0.488047599468743	-0.12750893711386196
-0.487986564312493	-0.10972573696035287
-0.487925529156243	-0.09171252047770405
-0.487864493999993	-0.073502348096297
-0.487803458843743	-0.055129435084664384
-0.487742423687493	-0.03662892272682598
-0.487681388531243	-0.018034989130238332
-0.487620353374993	0.000617115077412531
-0.487559318218743	0.019292205089127018
-0.487498283062493	0.03795528358376514
-0.487437247906243	0.05657089333604194
-0.487376212749993	0.07510413203296622
-0.487315177593743	0.0935200353937595
-0.487254142437493	0.1117836012591755
-0.487193107281243	0.12986036648653135
-0.487132072124993	0.14771640160806598
-0.487071036968743	0.16531764541133465
-0.487010001812493	0.1826306961167692
-0.486948966656243	0.19962310878512457
-0.486887931499993	0.21626236773764618
-0.486826896343743	0.23251692755637515
-0.486765861187493	0.2483561141118011
-0.486704826031243	0.26374957878251293
-0.486643790874993	0.2786682582271726
-0.486582755718743	0.2930837502498203
-0.486521720562493	0.3069683592180164
-0.486460685406243	0.3202959190415236
-0.486399650249993	0.3330409084803744
-0.486338615093743	0.34517881532604966
-0.486277579937493	0.35668672996711254
-0.486216544781243	0.36754236598248724
-0.486155509624993	0.3777249149606856
-0.486094474468743	0.3872151506372422
-0.486033439312493	0.3959944089089873
-0.485972404156243	0.4040458814082095
-0.485911368999993	0.4113542872695833
-0.485850333843743	0.4179051007819804
-0.485789298687493	0.42368569604759543
-0.485728263531243	0.42868499645629776
-0.485667228374993	0.4328929102635702
-0.485606193218743	0.4363011685538687
-0.485545158062493	0.4389031339425594
-0.485484122906243	0.4406933029776549
-0.485423087749993	0.4416679456822075
-0.485362052593743	0.4418249461433557
-0.485301017437493	0.44116350613217026
-0.485239982281243	0.43968450360761047
-0.485178947124993	0.4373903908091534
-0.485117911968743	0.4342850939665757
-0.485056876812493	0.4303740813628915
-0.484995841656243	0.4256643679416267
-0.484934806499993	0.4201645000171882
-0.484873771343743	0.4138844840125031
-0.484812736187493	0.40683580407331793
-0.484751701031243	0.3990314063916735
-0.484690665874993	0.3904857291516627
-0.484629630718743	0.38121462328803596
-0.484568595562493	0.3712350437967336
-0.484507560406243	0.36056567858033856
-0.484446525249993	0.3492265579172603
-0.484385490093743	0.33723837652206334
-0.484324454937493	0.3246236624933219
-0.484263419781243	0.3114061660687162
-0.484202384624993	0.29761032797070713
-0.484141349468743	0.28326196609774296
-0.484080314312493	0.26838798064343294
-0.484019279156243	0.25301632027498033
-0.483958243999993	0.23717569577429262
-0.483897208843743	0.22089567237155638
-0.483836173687493	0.2042070869966507
-0.483775138531243	0.18714118990216844
-0.483714103374993	0.16972975816572566
-0.483653068218743	0.15200593792533756
-0.483592033062493	0.13400289274153698
-0.483530997906243	0.1157541783556643
-0.483469962749993	0.0972947071795242
-0.483408927593743	0.07865892639955305
-0.483347892437493	0.05988168774832751
-0.483286857281243	0.0409988946443711
-0.483225822124993	0.022045858708065153
-0.483164786968743	0.0030581400034666805
-0.483103751812493	-0.015928073302967208
-0.483042716656243	-0.034877165168044164
-0.482981681499993	-0.05375352779482139
-0.482920646343743	-0.07252120056606812
-0.482859611187493	-0.09114490160569415
-0.482798576031243	-0.1095896512978529
-0.482737540874993	-0.12782029534177702
-0.482676505718743	-0.14580249468989698
-0.482615470562493	-0.16350245443443595
-0.482554435406243	-0.18088640439648834
-0.482493400249993	-0.19792170742932205
-0.482432365093743	-0.2145762250173193
-0.482371329937493	-0.23081805161921962
-0.482310294781243	-0.2466169150534357
-0.482249259624993	-0.26194287386700105
-0.482188224468743	-0.2767665741545606
-0.482127189312493	-0.2910604115945977
-0.482066154156243	-0.30479708512433723
-0.482005118999993	-0.31795065189678984
-0.481944083843743	-0.3304964006900315
-0.481883048687493	-0.3424102146827471
-0.481822013531243	-0.35366994870701435
-0.481760978374993	-0.36425415850212056
-0.481699943218743	-0.3741426412091049
-0.481638908062493	-0.3833170662368853
-0.481577872906243	-0.3917597950399095
-0.481516837749993	-0.39945492005535177
-0.481455802593743	-0.40638811339334113
-0.481394767437493	-0.4125460442214336
-0.481333732281243	-0.4179171736691046
-0.481272697124993	-0.42249151678991853
-0.481211661968743	-0.42626035729754624
-0.481150626812493	-0.42921662515377906
-0.481089591656243	-0.4313548762120817
-0.481028556499993	-0.4326711571452145
-0.480967521343743	-0.433163038479371
-0.480906486187493	-0.4328297277960393
-0.480845451031243	-0.43167200887855056
-0.480784415874993	-0.4296921965707625
-0.480723380718743	-0.4268942183842
-0.480662345562493	-0.4232835134456281
-0.480601310406243	-0.418867157563681
-0.480540275249993	-0.4136536924003615
-0.480479240093743	-0.40765314565554817
-0.480418204937493	-0.4008772691557637
-0.480357169781243	-0.3933390067108006
-0.480296134624993	-0.38505289766451634
-0.480235099468743	-0.37603508094019455
-0.480174064312493	-0.3663027296120598
-0.480113029156243	-0.35587469936587524
-0.480051993999993	-0.3447711237065268
-0.479990958843743	-0.3330132461258713
-0.479929923687493	-0.32062381875949264
-0.479868888531243	-0.3076266863819142
-0.479807853374993	-0.29404679066251055
-0.479746818218743	-0.27991031527493637
-0.479685783062493	-0.2652445896012543
-0.479624747906243	-0.25007768073281733
-0.479563712749993	-0.23443877738453558
-0.479502677593743	-0.21835818684314443
-0.479441642437493	-0.2018667709552109
-0.479380607281243	-0.18499621091220605
-0.479319572124993	-0.16777900769923496
-0.479258536968743	-0.1502485112760455
-0.479197501812493	-0.13243844174415811
-0.479136466656243	-0.11438283357195077
-0.479075431499993	-0.0961167359851305
-0.479014396343743	-0.0776755900835822
-0.478953361187493	-0.05909450468303207
-0.478892326031243	-0.04040931142413961
-0.478831290874993	-0.021656508360179256
-0.478770255718743	-0.0028720887799257772
-0.478709220562493	0.015908084645087316
-0.478648185406243	0.03464750025782565
-0.478587150249993	0.05330951210150798
-0.478526115093743	0.07185873042643982
-0.478465079937493	0.09025942690069226
-0.478404044781243	0.10847525060527861
-0.478343009624993	0.12647151791550237
-0.478281974468743	0.1442137140866778
-0.478220939312493	0.16166686613354855
-0.478159904156243	0.17879752834409726
-0.478098868999993	0.1955727755263947
-0.478037833843743	0.21195961852595435
-0.477976798687493	0.2279266605860078
-0.477915763531243	0.24344298655395472
-0.477854728374993	0.258478215104192
-0.477793693218743	0.27300347877700476
-0.477732658062493	0.2869904282238171
-0.477671622906243	0.300411892164898
-0.477610587749993	0.3132419194780859
-0.477549552593743	0.3254553715343774
-0.477488517437493	0.33702858077752385
-0.477427482281243	0.34793909291246483
-0.477366447124993	0.3581653889775686
-0.477305411968743	0.36768770128537687
-0.477244376812493	0.37648750907853706
-0.477183341656243	0.3845472209965441
-0.477122306499993	0.3918513555256918
-0.477061271343743	0.39838561301752623
-0.477000236187493	0.4041367985857297
-0.476939201031243	0.4090937899735723
-0.476878165874993	0.41324680569748257
-0.476817130718743	0.4165873708869835
-0.476756095562493	0.41910885683677435
-0.476695060406243	0.4208062018058286
-0.476634025249993	0.4216757512350342
-0.476572990093743	0.4217155589996431
-0.476511954937493	0.42092535053273006
-0.476450919781243	0.4193063397695735
-0.476389884624993	0.4168613362774662
-0.476328849468743	0.4135948587498167
-0.476267814312493	0.4095129593572769
-0.476206779156243	0.4046231797908615
-0.476145743999993	0.3989347317833884
-0.476084708843743	0.39245844664257656
-0.476023673687493	0.38520646907543027
-0.475962638531243	0.3771925205389619
-0.475901603374993	0.3684320264310495
-0.475840568218743	0.3589415835830616
-0.475779533062493	0.3487392007972762
-0.475718497906243	0.33784450702824165
-0.475657462749993	0.3262784001711256
-0.475596427593743	0.31406289384937963
-0.475535392437493	0.3012213352158108
-0.475474357281243	0.28777868128530687
-0.475413322124993	0.2737605677377256
-0.475352286968743	0.2591936522371695
-0.475291251812493	0.24410649489890576
-0.475230216656243	0.22852790735097597
-0.475169181499993	0.2124875100248154
-0.475108146343743	0.19601677416058727
-0.475047111187493	0.1791473890826486
-0.474986076031243	0.16191139095213758
-0.474925040874993	0.14434251250317104
-0.474864005718743	0.12647479794263594
-0.474802970562493	0.10834226806119845
-0.474741935406243	0.08998034420453081
-0.474680900249993	0.07142452528325727
-0.474619865093743	0.05271060332708498
-0.474558829937493	0.03387491413105756
-0.474497794781243	0.014953876313876626
-0.474436759624993	-0.004015761480816284
-0.474375724468743	-0.022997303542898702
-0.474314689312493	-0.041953704781749375
-0.474253654156243	-0.06084840826641578
-0.474192618999993	-0.07964466791222896
-0.474131583843743	-0.0983057253696557
-0.474070548687493	-0.11679546955658508
-0.474009513531243	-0.1350778971516959
-0.473948478374993	-0.15311755124619145
-0.473887443218743	-0.17087881464217755
-0.473826408062493	-0.1883274276849598
-0.473765372906243	-0.20542955383205877
-0.473704337749993	-0.22215111860036932
-0.473643302593743	-0.23845995576461934
-0.473582267437493	-0.25432417302945604
-0.473521232281243	-0.2697123687735537
-0.473460197124993	-0.2845946486298513
-0.473399161968743	-0.2989418156743753
-0.473338126812493	-0.31272558482427537
-0.473277091656243	-0.3259188875306633
-0.473216056499993	-0.3384957547508516
-0.473155021343743	-0.35043143737931687
-0.473093986187493	-0.3617023326976195
-0.473032951031243	-0.37228604244132096
-0.472971915874993	-0.3821617263547205
-0.472910880718743	-0.39130976615658825
-0.472849845562493	-0.3997117673727023
-0.472788810406243	-0.40735106490227885
-0.472727775249993	-0.4142123993224218
-0.472666740093743	-0.4202817255336233
-0.472605704937493	-0.42554687770967414
-0.472544669781243	-0.42999715836313906
-0.472483634624993	-0.4336231949355972
-0.472422599468743	-0.43641750649488403
-0.472361564312493	-0.4383741224197914
-0.472300529156243	-0.4394885753640416
-0.472239493999993	-0.4397581657594081
-0.472178458843743	-0.43918179650222045
-0.472117423687493	-0.43775992618854587
-0.472056388531243	-0.43549475641122654
-0.471995353374993	-0.4323900926569904
-0.471934318218743	-0.42845126453978705
-0.471873283062493	-0.4236853854407536
-0.471812247906243	-0.41810109993064304
-0.471751212749993	-0.4117085360220188
-0.471690177593743	-0.40451956549579543
-0.471629142437493	-0.3965475587089026
-0.471568107281243	-0.38780730093489785
-0.471507072124993	-0.3783151505575147
-0.471446036968743	-0.36808902151948397
-0.471385001812493	-0.35714814441652526
-0.471323966656243	-0.34551304890868084
-0.471262931499993	-0.33320581034270613
-0.471201896343743	-0.32024992732125834
-0.471140861187493	-0.30666969419567436
-0.471079826031243	-0.29249089234535325
-0.471018790874993	-0.27774098110054224
-0.470957755718743	-0.26244753701916473
-0.470896720562493	-0.24663973076488918
-0.470835685406243	-0.23034830246865973
-0.470774650249993	-0.21360379235463337
-0.470713615093743	-0.1964382758910079
-0.470652579937493	-0.17888506513090902
-0.470591544781243	-0.16097736196682316
-0.470530509624993	-0.14274942743476993
-0.470469474468743	-0.12423666352018867
-0.470408439312493	-0.10547430143879577
-0.470347404156243	-0.08649819064649117
-0.470286368999993	-0.06734530703763203
-0.470225333843743	-0.048052141336481294
-0.470164298687493	-0.028655685312817356
-0.470103263531243	-0.009193716378528918
-0.470042228374993	0.010296682474452012
-0.469981193218743	0.029777830751206952
-0.469920158062493	0.049211960009934934
-0.469859122906243	0.06856200220581588
-0.469798087749993	0.0877902932914045
-0.469737052593743	0.10685969480718327
-0.469676017437493	0.12573365996580574
-0.469614982281243	0.14437542315139965
-0.469553947124993	0.16274904473840754
-0.469492911968743	0.18081912288063462
-0.469431876812493	0.19855043516820517
-0.469370841656243	0.21590877879829914
-0.469309806499993	0.2328606901302691
-0.469248771343743	0.24937304631931287
-0.469187736187493	0.26541395865530204
-0.469126701031243	0.2809524221103941
-0.469065665874993	0.29595806980749867
-0.469004630718743	0.3104019377088501
-0.468943595562493	0.3242559379030931
