Time	Frequency
-0.5000468186875082	-0.111600884480508
-0.4999857835312582	-0.08999982376742166
-0.4999247483750082	-0.06814789247680439
-0.4998637132187582	-0.046097447338519365
-0.4998026780625082	-0.023900364960283853
-0.4997416429062582	-0.001609724418900091
-0.4996806077500082	0.020720718001948107
-0.4996195725937582	0.04303836968586604
-0.4995585374375082	0.06528992766113587
-0.4994975022812582	0.0874216663602229
-0.4994364671250082	0.1093810783702336
-0.4993754319687582	0.13111568980881702
-0.4993143968125082	0.15257323304399587
-0.4992533616562582	0.1737023859679335
-0.4991923265000082	0.19445247365062554
-0.4991312913437582	0.21477374003967561
-0.4990702561875082	0.23461736516756443
-0.4990092210312582	0.2539355579051808
-0.4989481858750082	0.2726819433404195
-0.4988871507187582	0.29081127395499046
-0.4988261155625082	0.30827983788442737
-0.4987650804062582	0.325045587688844
-0.4987040452500082	0.34106772407494906
-0.4986430100937582	0.356307584826036
-0.4985819749375082	0.37072834058745757
-0.4985209397812582	0.3842946649973045
-0.4984599046250082	0.3969736517735416
-0.4983988694687582	0.4087343840835976
-0.4983378343125082	0.419547986422631
-0.4982767991562582	0.4293879329972077
-0.4982157640000082	0.43822987080600223
-0.4981547288437582	0.4460519845798651
-0.4980936936875082	0.45283472257511304
-0.4980326585312582	0.45856092659846176
-0.4979716233750082	0.4632161569401072
-0.4979105882187582	0.4667883356727421
-0.4978495530625082	0.46926794153178397
-0.4977885179062582	0.4706481427932284
-0.4977274827500082	0.4709246318037998
-0.4976664475937582	0.47009574277402305
-0.4976054124375082	0.46816243684149517
-0.4975443772812582	0.4651282581836838
-0.4974833421250082	0.4609994170014848
-0.4974223069687582	0.45578471878593685
-0.4973612718125082	0.4494954645143191
-0.4973002366562582	0.44214559399520925
-0.4972392015000082	0.43375166594399084
-0.4971781663437582	0.42433243893984596
-0.4971171311875082	0.4139092843484852
-0.4970560960312582	0.40250620205935844
-0.4969950608750082	0.39014908716326857
-0.4969340257187582	0.37686624138401426
-0.4968729905625082	0.36268846533915783
-0.4968119554062582	0.34764847524358367
-0.4967509202500082	0.33178086391601136
-0.4966898850937582	0.3151224986532743
-0.4966288499375082	0.2977122053425795
-0.4965678147812582	0.2795902428810596
-0.4965067796250082	0.26079882226275936
-0.4964457444687582	0.24138180809184998
-0.4963847093125082	0.22138450205816232
-0.4963236741562582	0.2008535716982984
-0.4962626390000082	0.179836815891969
-0.4962016038437582	0.15838367473749002
-0.4961405686875082	0.13654440178975516
-0.4960795335312582	0.11436972903916394
-0.4960184983750082	0.09191194678876896
-0.4959574632187582	0.069223905139709
-0.4958964280625082	0.04635843882585603
-0.4958353929062582	0.023369413501683707
-0.4957743577500082	0.0003109169125775428
-0.4957133225937582	-0.022762916364588555
-0.4956522874375082	-0.04579784884108057
-0.4955912522812582	-0.06873984615807495
-0.4955302171250082	-0.09153449576800922
-0.4954691819687582	-0.11412846806256068
-0.4954081468125082	-0.13646879336026055
-0.4953471116562582	-0.15850212488316462
-0.4952860765000082	-0.18017700232312042
-0.4952250413437582	-0.20144262666150067
-0.4951640061875082	-0.22224826056830518
-0.4951029710312582	-0.24254496538589235
-0.4950419358750082	-0.26228522733791354
-0.4949809007187582	-0.2814222518589287
-0.4949198655625082	-0.2999106654317606
-0.4948588304062582	-0.3177071173833355
-0.4947977952500082	-0.33476962348822836
-0.4947367600937582	-0.35105765982804504
-0.4946757249375082	-0.366532930331889
-0.4946146897812582	-0.3811589434436861
-0.4945536546250082	-0.3949010419138914
-0.4944926194687582	-0.40772689505916365
-0.4944315843125082	-0.41960614185423195
-0.4943705491562582	-0.43051078361404993
-0.4943095140000082	-0.4404151807578806
-0.4942484788437582	-0.4492957896535438
-0.4941874436875082	-0.45713184224115166
-0.4941264085312582	-0.4639048811853994
-0.4940653733750082	-0.46959882476927456
-0.4940043382187582	-0.4742004904969199
-0.4939433030625082	-0.4776990378501516
-0.4938822679062582	-0.48008624166928016
-0.4938212327500082	-0.48135671581416495
-0.4937601975937582	-0.4815075530742787
-0.4936991624375082	-0.4805385242196108
-0.4936381272812582	-0.4784521778255321
-0.4935770921250082	-0.47525363374747465
-0.4935160569687582	-0.4709506115069296
-0.4934550218125082	-0.4655536309418217
-0.4933939866562582	-0.4590756937947485
-0.4933329515000082	-0.45153228691320657
-0.4932719163437582	-0.44294174244468554
-0.4932108811875082	-0.43332461491796687
-0.4931498460312582	-0.4227039197520034
-0.4930888108750082	-0.4111053155959458
-0.4930277757187582	-0.39855649882550787
-0.4929667405625082	-0.3850876456493952
-0.4929057054062582	-0.3707309995741188
-0.4928446702500082	-0.35552099555474825
-0.4927836350937582	-0.3394942318567126
-0.4927225999375082	-0.3226888164793847
-0.4926615647812582	-0.3051453209129179
-0.4926005296250082	-0.28690581388051745
-0.4925394944687582	-0.26801371688646913
-0.4924784593125082	-0.2485146028113169
-0.4924174241562582	-0.22845509552482876
-0.4923563890000082	-0.20788327443714988
-0.4922953538437582	-0.1868485690742311
-0.4922343186875082	-0.16540127539572103
-0.4921732835312582	-0.1435928187658105
-0.4921122483750082	-0.12147552379828219
-0.4920512132187582	-0.09910260612749876
-0.4919901780625082	-0.07652751626871283
-0.4919291429062582	-0.05380420682399957
-0.4918681077500082	-0.030987673569861787
-0.4918070725937582	-0.008132487499546247
-0.4917460374375082	0.014706946143215757
-0.4916850022812582	0.03747526109491904
-0.4916239671250082	0.06011790479637421
-0.4915629319687582	0.08258102379589301
-0.4915018968125082	0.10481015393292882
-0.4914408616562582	0.12675197134837146
-0.4913798265000082	0.14835425877013936
-0.4913187913437582	0.16956477068468456
-0.4912577561875082	0.19033245707274832
-0.4911967210312582	0.21060786384749283
-0.4911356858750082	0.23034207778411314
-0.4910746507187582	0.24948746280138107
-0.4910136155625082	0.26799847796985543
-0.4909525804062582	0.2858304665280114
-0.4908915452500082	0.30294033623775735
-0.4908305100937582	0.319287338631967
-0.4907694749375082	0.334832078493182
-0.4907084397812582	0.34953709022730883
-0.4906474046250082	0.3633671584018045
-0.4905863694687582	0.37628895846936705
-0.4905253343125082	0.3882715232913997
-0.4904642991562582	0.39928608797028664
-0.4904032640000082	0.40930601845191267
-0.4903422288437582	0.4183073025124631
-0.4902811936875082	0.42626848532649564
-0.4902201585312582	0.43317031694478697
-0.4901591233750082	0.43899611663494204
-0.4900980882187582	0.4437321226552054
-0.4900370530625082	0.44736693910323666
-0.4899760179062582	0.4498917625588077
-0.4899149827500082	0.4513007109399094
-0.4898539475937582	0.4515904233993635
-0.4897929124375082	0.4507602507057697
-0.4897318772812582	0.44881234029329353
-0.4896708421250082	0.4457514544606016
-0.4896098069687582	0.44158506706368006
-0.4895487718125082	0.43632335280511364
-0.4894877366562582	0.42997909762930475
-0.4894267015000082	0.42256774930414803
-0.4893656663437582	0.4141073264427207
-0.4893046311875082	0.404618317584089
-0.4892435960312582	0.3941238332906174
-0.4891825608750082	0.38264941347181836
-0.4891215257187582	0.37022274764600566
-0.4890604905625082	0.35687412378386973
-0.4889994554062582	0.34263610383591026
-0.4889384202500082	0.32754296339614125
-0.4888773850937582	0.3116315483593064
-0.4888163499375082	0.29494059216688545
-0.4887553147812582	0.27751042540913573
-0.4886942796250082	0.2593837057677463
-0.4886332444687582	0.24060419137884823
-0.4885722093125082	0.22121763491117788
-0.4885111741562582	0.2012716021735909
-0.4884501390000082	0.1808138928760644
-0.4883891038437582	0.15989464038046727
-0.4883280686875082	0.138565203617697
-0.4882670335312582	0.11687676008142639
-0.4882059983750082	0.09488247670111444
-0.4881449632187582	0.07263621280970776
-0.4880839280625082	0.05019179756140015
-0.4880228929062582	0.027604093635223634
-0.4879618577500082	0.004928264048579921
-0.4879008225937582	-0.017780275080714055
-0.4878397874375082	-0.0404662138402449
-0.4877787522812582	-0.06307425946999093
-0.4877177171250082	-0.08554872715425622
-0.4876566819687582	-0.10783488319525526
-0.4875956468125082	-0.12987844875481022
-0.4875346116562582	-0.15162502836089733
-0.4874735765000082	-0.1730214263015234
-0.4874125413437582	-0.19401532612489772
-0.4873515061875082	-0.21455523121791242
-0.4872904710312582	-0.23459055229347484
-0.4872294358750082	-0.2540718989364485
-0.4871684007187582	-0.2729517561632881
-0.4871073655625082	-0.2911833607711513
-0.4870463304062582	-0.3087216553150763
-0.4869852952500082	-0.3255236631678576
-0.4869242600937582	-0.34154744516714713
-0.4868632249375082	-0.3567535584333068
-0.4868021897812582	-0.37110448284430425
-0.4867411546250082	-0.38456404810577366
-0.4866801194687582	-0.3970989753162385
-0.4866190843125082	-0.40867816068877477
-0.4865580491562582	-0.4192722888186196
-0.4864970140000082	-0.4288547569482565
-0.4864359788437582	-0.4374014957260718
-0.4863749436875082	-0.44489073741469226
-0.4863139085312582	-0.45130320830166337
-0.4862528733750082	-0.4566224504872019
-0.4861918382187582	-0.46083458043103914
-0.4861308030625082	-0.46392819150134684
-0.4860697679062582	-0.4658948095340429
-0.4860087327500082	-0.46672865731836355
-0.4859476975937582	-0.4664265610712341
-0.4858866624375082	-0.4649882087812978
-0.4858256272812582	-0.4624160385413296
-0.4857645921250082	-0.4587151773922845
-0.4857035569687582	-0.4538935447803868
-0.4856425218125082	-0.44796175961766327
-0.4855814866562582	-0.4409330931281426
-0.4855204515000082	-0.4328235802314211
-0.4854594163437582	-0.4236518011960089
-0.4853983811875082	-0.41343890714683523
-0.4853373460312582	-0.40220870575068735
-0.4852763108750082	-0.3899872955504293
-0.4852152757187582	-0.37680333229382124
-0.4851542405625082	-0.3626878934573377
-0.4850932054062582	-0.34767401819848825
-0.4850321702500082	-0.3317972351196871
-0.4849711350937582	-0.31509519303451633
-0.4849100999375082	-0.2976072916374395
-0.4848490647812582	-0.2793751250620653
-0.4847880296250082	-0.26044201545221385
-0.4847269944687582	-0.24085294948348657
-0.4846659593125082	-0.220654671864607
-0.4846049241562582	-0.19989533242765795
-0.4845438890000082	-0.17862442744831408
-0.4844828538437582	-0.15689277256297743
-0.4844218186875082	-0.13475254112241658
-0.4843607835312582	-0.11225650595544943
-0.4842997483750082	-0.08945844155787208
-0.4842387132187582	-0.0664135084076248
-0.4841776780625082	-0.04317654359240253
-0.4841166429062582	-0.019803205454675024
-0.4840556077500082	0.0036497553597061635
-0.4839945725937582	0.027126501596445494
-0.4839335374375082	0.05057049166127614
-0.4838725022812582	0.07392493670703434
-0.4838114671250082	0.09713414344716294
-0.4837504319687582	0.12014188174324378
-0.4836893968125082	0.14289250622450947
-0.4836283616562582	0.16533158192644185
-0.4835673265000082	0.1874047817159977
-0.4835062913437582	0.20905855803065923
-0.4834452561875082	0.2302407814516273
-0.4833842210312582	0.25090052556677755
-0.4833231858750082	0.2709874048868779
-0.4832621507187582	0.2904527219109409
-0.4832011155625082	0.30924986476804606
-0.4831400804062582	0.32733291774085477
-0.4830790452500082	0.3446579589756524
-0.4830180100937582	0.36118321012540267
-0.4829569749375082	0.37686831075153043
-0.4828959397812582	0.3916753160849709
-0.4828349046250082	0.4055681847468857
-0.4827738694687582	0.4185128913747917
-0.4827128343125082	0.4304781511305591
-0.4826517991562582	0.4414347226954154
-0.4825907640000082	0.4513556288864215
-0.4825297288437582	0.4602168018799275
-0.4824686936875082	0.4679965228662931
-0.4824076585312582	0.4746754778363269
-0.4823466233750082	0.4802373442053389
-0.4822855882187582	0.4846683745847593
-0.4822245530625082	0.48795739268988775
-0.4821635179062582	0.4900961835194175
-0.4821024827500082	0.4910792656058755
-0.4820414475937582	0.49090385637369904
-0.4819804124375082	0.48957005817861354
-0.4819193772812582	0.4870807862474221
-0.4818583421250082	0.48344169095256434
-0.4817973069687582	0.4786612434587493
-0.4817362718125082	0.4727506990945018
-0.4816752366562582	0.46572400543224324
-0.4816142015000082	0.4575978355750227
-0.4815531663437582	0.44839158191843986
-0.4814921311875082	0.4381271700760928
-0.4814310960312582	0.4268291105100596
-0.4813700608750082	0.41452456285276584
-0.4813090257187582	0.4012429120816076
-0.4812479905625082	0.3870160240232893
-0.4811869554062582	0.37187825494681415
-0.4811259202500082	0.355865773007821
-0.4810648850937582	0.3390170698235723
-0.4810038499375082	0.32137305943943206
-0.4809428147812582	0.30297597467505294
-0.4808817796250082	0.28386992884247236
-0.4808207444687582	0.2641014852129124
-0.4807597093125082	0.24371813691917815
-0.4806986741562582	0.2227688172842686
-0.4806376390000082	0.20130452300694454
-0.4805766038437582	0.1793768510495129
-0.4805155686875082	0.1570386676656619
-0.4804545335312582	0.13434439213849517
-0.4803934983750082	0.11134856818366148
-0.4803324632187582	0.08810659160638351
-0.4802714280625082	0.0646752692575047
-0.4802103929062582	0.041111035988429766
-0.4801493577500082	0.017470480792214485
-0.4800883225937582	-0.006188426787930308
-0.4800272874375082	-0.029808596948645617
-0.4799662522812582	-0.05333348362022918
-0.4799052171250082	-0.07670531173923269
-0.4798441819687582	-0.09986740659808213
-0.4797831468125082	-0.1227644181712998
-0.4797221116562582	-0.14534037032430425
-0.4796610765000082	-0.16754020226663893
-0.4796000413437582	-0.18931071324588053
-0.4795390061875082	-0.21059894727762368
-0.4794779710312582	-0.23135297581228484
-0.4794169358750082	-0.2515228047291564
-0.4793559007187582	-0.2710593781655109
-0.4792948655625082	-0.2899153974715487
-0.4792338304062582	-0.3080451372274004
-0.4791727952500082	-0.3254043060296562
-0.4791117600937582	-0.34195129569656196
-0.4790507249375082	-0.3576458739184578
-0.4789896897812582	-0.37244957590569006
-0.4789286546250082	-0.386326944079619
-0.4788676194687582	-0.3992443160061105
-0.4788065843125082	-0.41117018398478916
-0.4787455491562582	-0.42207581939759337
-0.4786845140000082	-0.43193479353771536
-0.4786234788437582	-0.44072327436901265
-0.4785624436875082	-0.44842005225675835
-0.4785014085312582	-0.4550064879221762
-0.4784403733750082	-0.46046679751656666
-0.4783793382187582	-0.46478787134673805
-0.4783183030625082	-0.46795934167616016
-0.4782572679062582	-0.46997373012519705
-0.4781962327500082	-0.4708263609184814
-0.4781351975937582	-0.47051537052618486
-0.4780741624375082	-0.4690417502609304
-0.4780131272812582	-0.46640940375749146
-0.4779520921250082	-0.46262499206603847
-0.4778910569687582	-0.4576979671565763
-0.4778300218125082	-0.4516407596731583
-0.4777689866562582	-0.44446839285150574
-0.4777079515000082	-0.4361985705344614
-0.4776469163437582	-0.42685204233415236
-0.4775858811875082	-0.41645184070706853
-0.4775248460312582	-0.4050235023108265
-0.4774638108750082	-0.3925956805923393
-0.4774027757187582	-0.3791989822657914
-0.4773417405625082	-0.36486615066046846
-0.4772807054062582	-0.34963308506341945
-0.4772196702500082	-0.3335373875595934
-0.4771586350937582	-0.31661829791340573
-0.4770975999375082	-0.2989181076548809
-0.4770365647812582	-0.28048059210365417
-0.4769755296250082	-0.2613507739139252
-0.4769144944687582	-0.24157623820208285
-0.4768534593125082	-0.22120600675795868
-0.4767924241562582	-0.20029002734961343
-0.4767313890000082	-0.17888003099893954
-0.4766703538437582	-0.1570292103207868
-0.4766093186875082	-0.13479131497101815
-0.4765482835312582	-0.1122212408699723
-0.4764872483750082	-0.08937502554991161
-0.4764262132187582	-0.06630901426887144
-0.4763651780625082	-0.04308023613218496
-0.4763041429062582	-0.019746288425717753
-0.4762431077500082	0.0036352524090747214
-0.4761820725937582	0.02700652325345926
-0.4761210374375082	0.05030933216137591
-0.4760600022812582	0.07348627810326024
-0.4759989671250082	0.0964800980718956
-0.4759379319687582	0.11923324833809
-0.4758768968125082	0.1416896601016987
-0.4758158616562582	0.163793780837725
-0.4757548265000082	0.18549033944272736
-0.4756937913437582	0.20672576241216578
-0.4756327561875082	0.2274472147540593
-0.4755717210312582	0.2476030951345261
-0.4755106858750082	0.2671434952269873
-0.4754496507187582	0.2860194865552828
-0.4753886155625082	0.3041842073403526
-0.4753275804062582	0.32159253587004105
-0.4752665452500082	0.33820066750430927
-0.4752055100937582	0.35396735732211865
-0.4751444749375082	0.36885330722021137
-0.4750834397812582	0.3828209260841714
-0.4750224046250082	0.39583539244603927
-0.4749613694687582	0.40786409538863927
-0.4749003343125082	0.41887659562662233
-0.4748392991562582	0.428845239080204
-0.4747782640000082	0.4377447840322607
-0.4747172288437582	0.44555265329572913
-0.4746561936875082	0.45224900429325404
-0.4745951585312582	0.4578165567651135
-0.4745341233750082	0.4622410069131088
-0.4744730882187582	0.46551083408066457
-0.4744120530625082	0.46761720260581535
-0.4743510179062582	0.46855428122459275
-0.4742899827500082	0.4683191478248081
-0.4742289475937582	0.4669116725473506
-0.4741679124375082	0.46433464462726204
-0.4741068772812582	0.4605938188911489
-0.4740458421250082	0.4556977135522891
-0.4739848069687582	0.4496577468685282
-0.4739237718125082	0.4424882659805186
-0.4738627366562582	0.4342061876635236
-0.4738017015000082	0.4248314034316899
-0.4737406663437582	0.4143864867579098
-0.4736796311875082	0.40289637422516017
-0.4736185960312582	0.3903890853640115
-0.4735575608750082	0.3768948747494564
-0.4734965257187582	0.3624461650698533
-0.4734354905625082	0.3470785119005277
-0.4733744554062582	0.3308291734524344
-0.4733134202500082	0.3137373271064756
-0.4732523850937582	0.29584538821902057
-0.4731913499375082	0.27719675676056926
-0.4731303147812582	0.25783642721868233
-0.4730692796250082	0.23781274885745812
-0.4730082444687582	0.2171744531235808
-0.4729472093125082	0.1959714372763106
-0.4728861741562582	0.1742565347537831
-0.4728251390000082	0.15208291344807934
-0.4727641038437582	0.12950453803800127
-0.4727030686875082	0.10657733511036492
-0.4726420335312582	0.08335770645464302
-0.4725809983750082	0.05990249877511181
-0.4725199632187582	0.03626955150834846
-0.4724589280625082	0.01251728190744281
-0.4723978929062582	-0.011295852894167424
-0.4723368577500082	-0.03511135328948346
-0.4722758225937582	-0.05887022338875213
-0.4722147874375082	-0.08251370139921024
-0.4721537522812582	-0.10598361917301974
-0.4720927171250082	-0.12922181158374438
-0.4720316819687582	-0.15217082910315316
-0.4719706468125082	-0.17477395913986865
-0.4719096116562582	-0.19697497422531857
-0.4718485765000082	-0.2187190144346899
-0.4717875413437582	-0.23995234177896524
-0.4717265061875082	-0.26062197585030916
-0.4716654710312582	-0.2806765091816472
-0.4716044358750082	-0.30006641334019984
-0.4715434007187582	-0.31874340724537814
-0.4714823655625082	-0.33666070556523703
-0.4714213304062582	-0.35377380573262024
-0.4713602952500082	-0.3700401862003715
-0.4712992600937582	-0.3854190230700502
-0.4712382249375082	-0.3998717839685901
-0.4711771897812582	-0.4133625015500271
-0.4711161546250082	-0.4258572130184149
-0.4710551194687582	-0.4373243761073208
-0.4709940843125082	-0.44773535829623295
-0.4709330491562582	-0.457063745515319
-0.4708720140000082	-0.46528577996094417
-0.4708109788437582	-0.4723807101673244
-0.4707499436875082	-0.4783303285506531
-0.4706889085312582	-0.4831192525706912
-0.4706278733750082	-0.48673504259947786
-0.4705668382187582	-0.48916809568196223
-0.4705058030625082	-0.490411729504687
-0.4704447679062582	-0.49046220278422126
-0.4703837327500082	-0.48931869929713184
-0.4703226975937582	-0.4869833679038974
-0.4702616624375082	-0.48346131649292756
-0.4702006272812582	-0.47876050679638293
-0.4701395921250082	-0.47289188248465786
-0.4700785569687582	-0.4658693487895666
-0.4700175218125082	-0.45770947181431887
-0.4699564866562582	-0.4484317046468983
-0.4698954515000082	-0.43805848558344634
-0.4698344163437582	-0.4266146876964466
-0.4697733811875082	-0.4141278014577925
-0.4697123460312582	-0.40062827788187283
