Time	Frequency
-0.5000052448125132	2.736804470188818e-24
-0.4999442096562632	2.729143658850817e-24
-0.4998831745000132	2.715601698995008e-24
-0.4998221393437632	2.6962044782140436e-24
-0.4997611041875132	2.670990800076788e-24
-0.4997000690312632	2.6400127270000133e-24
-0.4996390338750132	2.603334392783308e-24
-0.4995779987187632	2.5610319660321813e-24
-0.4995169635625132	2.5131950379499966e-24
-0.4994559284062632	2.4599247861868282e-24
-0.4993948932500132	2.4013335038210707e-24
-0.4993338580937632	2.3375463615312218e-24
-0.4992728229375132	2.268699519224515e-24
-0.4992117877812632	2.194939716402965e-24
-0.4991507526250132	2.1164249062209747e-24
-0.4990897174687632	2.033323748429193e-24
-0.4990286823125132	1.9458145584597838e-24
-0.4989676471562632	1.854085093074814e-24
-0.4989066120000132	1.758333342810353e-24
-0.4988455768437632	1.6587650858855262e-24
-0.4987845416875132	1.5555950306873087e-24
-0.4987235065312632	1.4490465139405682e-24
-0.4986624713750132	1.3393486707139408e-24
-0.4986014362187632	1.2267387232485096e-24
-0.4985404010625132	1.1114607477446686e-24
-0.4984793659062632	9.937637391032744e-25
-0.4984183307500132	8.739025341667725e-25
-0.4983572955937632	7.521368530894934e-25
-0.4982962604375132	6.28730044968744e-25
-0.4982352252812632	5.039503034922038e-25
-0.4981741901250132	3.7806875784491853e-25
-0.4981131549687632	2.513570925613445e-25
-0.4980521198125132	1.2409075830617255e-25
-0.4979910846562632	-3.452359330375071e-27
-0.4979300495000132	-1.309966586465735e-25
-0.4978690143437632	-2.5826554929785984e-25
-0.4978079791875132	-3.8498024397936623e-25
-0.4977469440312632	-5.108666889245811e-25
-0.4976859088750132	-6.356515094578228e-25
-0.4976248737187632	-7.590613195942831e-25
-0.4975638385625132	-8.808294653781235e-25
-0.4975028034062632	-1.0006901789725407e-24
-0.4974417682500132	-1.1183812371191675e-24
-0.4973807330937632	-1.2336483095677602e-24
-0.4973196979375132	-1.34623976569018e-24
-0.4972586627812632	-1.4559088825738975e-24
-0.4971976276250132	-1.5624176147337136e-24
-0.4971365924687632	-1.665534856478639e-24
-0.4970755573125132	-1.7650341928124425e-24
-0.4970145221562632	-1.8606984358278813e-24
-0.4969534870000132	-1.9523209199178707e-24
-0.4968924518437632	-2.039700334205379e-24
-0.4968314166875132	-2.122645326785773e-24
-0.4967703815312632	-2.2009771191571705e-24
-0.4967093463750132	-2.2745236525775613e-24
-0.4966483112187632	-2.3431233183624236e-24
-0.4965872760625132	-2.406628502572626e-24
-0.4965262409062632	-2.4649000978304947e-24
-0.4964652057500132	-2.5178095078879047e-24
-0.4964041705937632	-2.5652431539671836e-24
-0.4963431354375132	-2.6070973641824747e-24
-0.4962821002812632	-2.643279549195159e-24
-0.4962210651250132	-2.6737125294512375e-24
-0.4961600299687632	-2.6983295914620642e-24
-0.4960989948125132	-2.717076468498073e-24
-0.4960379596562632	-2.729913790962835e-24
-0.4959769245000132	-2.7368133790496832e-24
-0.4959158893437632	-2.737760240624762e-24
-0.4958548541875132	-2.7327534147723677e-24
-0.4957938190312632	-2.7218042581564993e-24
-0.4957327838750132	-2.7049371791467764e-24
-0.4956717487187632	-2.682189791203807e-24
-0.4956107135625132	-2.6536127259599043e-24
-0.4955496784062632	-2.61926934691953e-24
-0.4954886432500132	-2.5792351727584e-24
-0.4954276080937632	-2.5335992748746282e-24
-0.4953665729375132	-2.4824625755479127e-24
-0.4953055377812632	-2.425937028404653e-24
-0.4952445026250132	-2.3641487848254674e-24
-0.4951834674687632	-2.297234024795481e-24
-0.4951224323125132	-2.2253389373204363e-24
-0.4950613971562632	-2.1486243851754892e-24
-0.4950003620000132	-2.067259464251118e-24
-0.4949393268437632	-1.9814214141927595e-24
-0.4948782916875132	-1.891302477067275e-24
-0.4948172565312632	-1.7971018038663384e-24
-0.4947562213750132	-1.6990240835968267e-24
-0.4946951862187632	-1.5972889181910803e-24
-0.4946341510625132	-1.492121789205499e-24
-0.4945731159062632	-1.3837512215938188e-24
-0.4945120807500132	-1.2724188313302361e-24
-0.4944510455937632	-1.1583727026597035e-24
-0.4943900104375132	-1.0418612485104928e-24
-0.4943289752812632	-9.231422364051837e-25
-0.4942679401250132	-8.024815111095435e-25
-0.4942069049687632	-6.801432888648332e-25
-0.4941458698125132	-5.563969515523428e-25
-0.4940848346562632	-4.315185264495981e-25
-0.4940237995000132	-3.057834865365781e-25
-0.4939627643437632	-1.7947013206559501e-25
-0.4939017291875132	-5.285736742829988e-26
-0.4938406940312632	7.377517312685287e-26
-0.4937796588750132	2.0014454675060797e-25
-0.4937186237187632	3.259725304509261e-25
-0.4936575885625132	4.509824019862664e-25
-0.4935965534062632	5.748939306954637e-25
-0.4935355182500132	6.974329528982723e-25
-0.4934744830937632	8.183310014646442e-25
-0.4934134479375132	9.373171762658063e-25
-0.4933524127812632	1.0541267631783691e-24
-0.4932913776250132	1.1685042742687698e-24
-0.4932303424687632	1.2801935440987819e-24
-0.4931693073125132	1.3889456893515112e-24
-0.4931082721562632	1.4945220531804976e-24
-0.4930472370000132	1.5966862815324375e-24
-0.4929862018437632	1.695211181621175e-24
-0.4929251666875132	1.7898796274532417e-24
-0.4928641315312632	1.8804792217452123e-24
-0.4928030963750132	1.9668083391915713e-24
-0.4927420612187632	2.048677430837247e-24
-0.4926810260625132	2.125901854615974e-24
-0.4926199909062632	2.198308538402473e-24
-0.4925589557500132	2.265739923263709e-24
-0.4924979205937632	2.3280432349624872e-24
-0.4924368854375132	2.3850774608374426e-24
-0.4923758502812632	2.436719019736166e-24
-0.4923148151250132	2.482851036465852e-24
-0.4922537799687632	2.523368218255174e-24
-0.4921927448125132	2.5581819955954595e-24
-0.4921317096562632	2.5872137433422534e-24
-0.4920706745000132	2.6103969514317884e-24
-0.4920096393437632	2.6276800384607177e-24
-0.4919486041875132	2.639023496011491e-24
-0.4918875690312632	2.6444007030615897e-24
-0.4918265338750132	2.643798946095279e-24
-0.4917654987187632	2.6372185592545064e-24
-0.4917044635625132	2.624673036547391e-24
-0.4916434284062632	2.60618904725967e-24
-0.4915823932500132	2.581806705734647e-24
-0.4915213580937632	2.551579513673069e-24
-0.4914603229375132	2.5155730819186476e-24
-0.4913992877812632	2.4738664338407786e-24
-0.4913382526250132	2.4265520363478125e-24
-0.4912772174687632	2.3737334620541725e-24
-0.4912161823125132	2.3155269087355373e-24
-0.4911551471562632	2.2520617367744814e-24
-0.4910941120000132	2.1834781807384965e-24
-0.4910330768437632	2.1099268500656006e-24
-0.4909720416875132	2.0315714868124603e-24
-0.4909110065312632	1.948586257176208e-24
-0.4908499713750132	1.8611532479373274e-24
-0.4907889362187632	1.769468010431631e-24
-0.4907279010625132	1.67373390383942e-24
-0.4906668659062632	1.574161740987402e-24
-0.4906058307500132	1.4709751942957268e-24
-0.4905447955937632	1.3644022463249737e-24
-0.4904837604375132	1.2546790939503006e-24
-0.4904227252812632	1.14205191181447e-24
-0.4903616901250132	1.0267692328499092e-24
-0.4903006549687632	9.09088762096966e-25
-0.4902396198125132	7.892738414773229e-25
-0.4901785846562632	6.675883083411262e-25
-0.4901175495000132	5.443056446690234e-25
-0.4900565143437632	4.197022831708773e-25
-0.4899954791875132	2.940528622137724e-25
-0.4899344440312632	1.6763931100437485e-25
-0.4898734088750132	4.074559723393479e-26
-0.4898123737187632	-8.634682163272091e-26
-0.4897513385625132	-2.133532092522999e-25
-0.4896903034062632	-3.3998865259856363e-25
-0.4896292682500132	-4.65970900905828e-25
-0.4895682330937632	-5.910171586623625e-25
-0.4895071979375132	-7.148469445311885e-25
-0.4894461627812632	-8.371835644859278e-25
-0.4893851276250132	-9.577519248484773e-25
-0.4893240924687632	-1.0762812234062168e-24
-0.4892630573125132	-1.1925058222904607e-24
-0.4892020221562632	-1.3061642811313421e-24
-0.4891409870000132	-1.4170004299922075e-24
-0.4890799518437632	-1.5247647519180042e-24
-0.4890189166875132	-1.6292155430234555e-24
-0.4889578815312632	-1.730116244886232e-24
-0.4888968463750132	-1.8272383015144108e-24
-0.4888358112187632	-1.9203638584563762e-24
-0.4887747760625132	-2.009281427190531e-24
-0.4887137409062632	-2.0937889262092786e-24
-0.4886527057500132	-2.173695364373913e-24
-0.4885916705937632	-2.2488188606104947e-24
-0.4885306354375132	-2.31898801105171e-24
-0.4884696002812632	-2.3840429669380708e-24
-0.4884085651250132	-2.4438349617917047e-24
-0.4883475299687632	-2.498226134654723e-24
-0.4882864948125132	-2.5470917796980838e-24
-0.4882254596562632	-2.5903189443913027e-24
-0.4881644245000132	-2.6278061915339387e-24
-0.4881033893437632	-2.6594664461523773e-24
-0.4880423541875132	-2.685224882012499e-24
-0.4879813190312632	-2.705018820090567e-24
-0.4879202838750132	-2.7188003129349747e-24
-0.4878592487187632	-2.7265343220456516e-24
-0.4877982135625132	-2.728198334192945e-24
-0.4877371784062632	-2.7237845209774665e-24
-0.4876761432500132	-2.7132982550255323e-24
-0.4876151080937632	-2.6967578690996383e-24
-0.4875540729375132	-2.67419590490086e-24
-0.4874930377812632	-2.645657981600826e-24
-0.4874320026250132	-2.6112030666044657e-24
-0.4873709674687632	-2.5709033170769133e-24
-0.4873099323125132	-2.524844037276667e-24
-0.4872488971562632	-2.4731235903432346e-24
-0.4871878620000132	-2.4158522789991e-24
-0.4871268268437632	-2.3531536050467106e-24
-0.4870657916875132	-2.2851631134984016e-24
-0.4870047565312632	-2.2120276373945085e-24
-0.4869437213750132	-2.1339061752241423e-24
-0.4868826862187632	-2.0509684960717535e-24
-0.4868216510625132	-1.9633956961383164e-24
-0.4867606159062632	-1.871378688687173e-24
-0.4866995807500132	-1.775118179416073e-24
-0.4866385455937632	-1.6748263076216387e-24
-0.4865775104375132	-1.570721837195844e-24
-0.4865164752812632	-1.4630324557986878e-24
-0.4864554401250132	-1.3519969556856244e-24
-0.4863944049687632	-1.2378578650586171e-24
-0.4863333698125132	-1.120865693610671e-24
-0.4862723346562632	-1.001280596747665e-24
-0.4862112995000132	-8.793641174039085e-25
-0.4861502643437632	-7.5538473666447835e-25
-0.4860892291875132	-6.296183600346504e-25
-0.4860281940312632	-5.0234136914050405e-25
-0.4859671588750132	-3.738346011943697e-25
-0.4859061237187632	-2.4438290684089646e-25
-0.4858450885625132	-1.1427287844367913e-25
-0.4857840534062632	1.6207341410127057e-26
-0.4857230182500132	1.4676974047300303e-25
-0.4856619830937632	2.771241269360625e-25
-0.4856009479375132	4.0698096563979387e-25
-0.4855399127812632	5.360534542475004e-25
-0.4854788776250132	6.640542421678019e-25
-0.4854178424687632	7.906989774537829e-25
-0.4853568073125132	9.157068022278789e-25
-0.4852957721562632	1.0387993354359462e-24
-0.4852347370000132	1.159703371023207e-24
-0.4851737018437632	1.2781494121202707e-24
-0.4851126666875132	1.3938734479645004e-24
-0.4850516315312632	1.5066187904494311e-24
-0.4849905963750132	1.6161338070987497e-24
-0.4849295612187632	1.7221732375170164e-24
-0.4848685260625132	1.8245017436379984e-24
-0.4848074909062632	1.922891344301912e-24
-0.4847464557500132	2.0171204757070975e-24
-0.4846854205937632	2.106979829127808e-24
-0.4846243854375132	2.192269253344274e-24
-0.4845633502812632	2.272795852525778e-24
-0.4845023151250132	2.348380342831733e-24
-0.4844412799687632	2.4188541873381565e-24
-0.4843802448125132	2.4840579832983285e-24
-0.4843192096562632	2.5438456560117534e-24
-0.4842581745000132	2.5980829587589744e-24
-0.4841971393437632	2.646647879436198e-24
-0.4841361041875132	2.6894310355283398e-24
-0.4840750690312632	2.7263349337604378e-24
-0.4840140338750132	2.7572765335399436e-24
-0.4839529987187632	2.7821859453019726e-24
-0.4838919635625132	2.801005388741864e-24
-0.4838309284062632	2.8136915811490246e-24
-0.4837698932500132	2.820215226252316e-24
-0.4837088580937632	2.8205600700135615e-24
-0.4836478229375132	2.8147237950698622e-24
-0.4835867877812632	2.8027178933933386e-24
-0.4835257526250132	2.7845677999606517e-24
-0.4834647174687632	2.76031274243552e-24
-0.4834036823125132	2.7300047543668895e-24
-0.4833426471562632	2.6937102604011035e-24
-0.4832816120000132	2.651509437839427e-24
-0.4832205768437632	2.603494029666694e-24
-0.4831595416875132	2.5497699961240413e-24
-0.4830985065312632	2.490456786619618e-24
-0.4830374713750132	2.425684223237716e-24
-0.4829764362187632	2.35559593312147e-24
-0.4829154010625132	2.2803480462396405e-24
-0.4828543659062632	2.2001057037553506e-24
-0.4827933307500132	2.1150476932713286e-24
-0.4827322955937632	2.0253635697587262e-24
-0.4826712604375132	1.9312508172775186e-24
-0.4826102252812632	1.8329196917487887e-24
-0.4825491901250132	1.7305887938376804e-24
-0.4824881549687632	1.6244846408824254e-24
-0.4824271198125132	1.514844888393435e-24
-0.4823660846562632	1.4019127598814059e-24
-0.4823050495000132	1.2859390213113583e-24
-0.4822440143437632	1.1671834860581975e-24
-0.4821829791875132	1.0459101662060402e-24
-0.4821219440312632	9.2238898252782e-25
-0.4820609088750132	7.968958207811175e-25
-0.4819998737187632	6.697107644657007e-25
-0.4819388385625132	5.411174071827751e-25
-0.4818778034062632	4.114024812114267e-25
-0.4818167682500132	2.8085620592883463e-25
-0.4817557330937632	1.4976948178647166e-25
-0.4816946979375132	1.8435252640362656e-26
-0.4816336627812632	-1.1285220531502131e-25
-0.4815726276250132	-2.4380085304370066e-25
-0.4815115924687632	-3.7411739279105607e-25
-0.4814505573125132	-5.035097729118043e-25
-0.4813895221562632	-6.316899092339906e-25
-0.4813284870000132	-7.583701871337564e-25
-0.4812674518437632	-8.832671586475858e-25
-0.4812064166875132	-1.0061025494064034e-24
-0.4811453815312632	-1.1265999794485451e-24
-0.4810843463750132	-1.2444898162739276e-24
-0.4810233112187632	-1.3595100135922078e-24
-0.4809622760625132	-1.4714010949964101e-24
-0.4809012409062632	-1.579912073634231e-24
-0.4808402057500132	-1.684802301834326e-24
-0.4807791705937632	-1.785835355779046e-24
-0.4807181354375132	-1.8827839265597203e-24
-0.4806571002812632	-1.9754323877657547e-24
-0.4805960651250132	-2.0635732903820587e-24
-0.4805350299687632	-2.1470077789700457e-24
-0.4804739948125132	-2.2255490875825663e-24
-0.4804129596562632	-2.299022572997004e-24
-0.4803519245000132	-2.3672625340866334e-24
-0.4802908893437632	-2.4301157735947594e-24
-0.4802298541875132	-2.487442075268125e-24
-0.4801688190312632	-2.5391127809755256e-24
-0.4801077838750132	-2.5850126474469986e-24
-0.4800467487187632	-2.6250382086327928e-24
-0.4799857135625132	-2.659099839139763e-24
-0.4799246784062632	-2.6871223659113624e-24
-0.4798636432500132	-2.7090425519632206e-24
-0.4798026080937632	-2.7248113636559142e-24
-0.4797415729375132	-2.734394319938991e-24
-0.4796805377812632	-2.737770234213696e-24
-0.4796195026250132	-2.734932000144445e-24
-0.4795584674687632	-2.7258865581996658e-24
-0.4794974323125132	-2.7106548287102845e-24
-0.4794363971562632	-2.6892719201191123e-24
-0.4793753620000132	-2.6617864846677562e-24
-0.4793143268437632	-2.6282609941692967e-24
-0.4792532916875132	-2.588771776355058e-24
-0.4791922565312632	-2.5434086504214217e-24
-0.4791312213750132	-2.492274440977093e-24
-0.4790701862187632	-2.4354849244698934e-24
-0.4790091510625132	-2.3731695347751124e-24
-0.4789481159062632	-2.305469285316181e-24
-0.4788870807500132	-2.232537228922084e-24
-0.4788260455937632	-2.1545396400479843e-24
-0.4787650104375132	-2.071653212673258e-24
-0.4787039752812632	-1.9840650816337832e-24
-0.4786429401250132	-1.891974646861946e-24
-0.4785819049687632	-1.7955913597351787e-24
-0.4785208698125132	-1.6951326174023257e-24
-0.4784598346562632	-1.5908265607134416e-24
-0.4783987995000132	-1.4829108585580182e-24
-0.4783377643437632	-1.3716298408742782e-24
-0.4782767291875132	-1.2572357515146667e-24
-0.4782156940312632	-1.1399884799842119e-24
-0.4781546588750132	-1.0201548044345962e-24
-0.4780936237187632	-8.980067344172108e-25
-0.4780325885625132	-7.738211525171976e-25
-0.4779715534062632	-6.478807082139641e-25
-0.4779105182500132	-5.2047214908721035e-25
-0.4778494830937632	-3.918843468474338e-25
-0.4777884479375132	-2.624099426049795e-25
-0.4777274127812632	-1.3234442047689965e-25
-0.4776663776250132	-1.981934137746993e-27
-0.4776053424687632	1.28379623329853e-25
-0.4775443073125132	2.584419238271878e-25
-0.4774832721562632	3.8791189434429954e-25
-0.4774222370000132	5.164931883430449e-25
-0.4773612018437632	6.438907887941751e-25
-0.4773001666875132	7.698161665247338e-25
-0.4772391315312632	8.939824525666197e-25
-0.4771780963750132	1.0161049454991412e-24
-0.4771170612187632	1.1359044058207128e-24
-0.4770560260625132	1.2531087510513525e-24
-0.4769949909062632	1.3674489894939672e-24
-0.4769339557500132	1.4786630816721692e-24
-0.4768729205937632	1.5864979243528936e-24
-0.4768118854375132	1.6907055491885447e-24
-0.4767508502812632	1.7910470131254158e-24
-0.4766898151250132	1.887292412619205e-24
-0.4766287799687632	1.979221140021384e-24
-0.4765677448125132	2.0666215585438134e-24
-0.4765067096562632	2.149292154787926e-24
-0.4764456745000132	2.227043652317607e-24
-0.4763846393437632	2.2996957566563263e-24
-0.4763236041875132	2.3670806945378525e-24
-0.4762625690312632	2.4290435002249295e-24
-0.4762015338750132	2.4854393339489797e-24
-0.4761404987187632	2.5361374868249265e-24
-0.4760794635625132	2.581020285208228e-24
-0.4760184284062632	2.6199817652848698e-24
-0.4759573932500132	2.6529307446550967e-24
-0.4758963580937632	2.679789511664879e-24
-0.4758353229375132	2.7004930570833406e-24
-0.4757742877812632	2.7149914638589138e-24
-0.4757132526250132	2.723248887575698e-24
-0.4756522174687632	2.725242711257869e-24
-0.4755911823125132	2.7209651909265286e-24
-0.4755301471562632	2.7104231240410566e-24
-0.4754691120000132	2.6936368882257002e-24
-0.4754080768437632	2.670641205352842e-24
-0.4753470416875132	2.641485403082259e-24
-0.4752860065312632	2.6062323705925702e-24
-0.4752249713750132	2.5649588384483744e-24
-0.4751639362187632	2.5177556621000138e-24
-0.4751029010625132	2.464726791504965e-24
-0.4750418659062632	2.4059900025702383e-24
-0.4749808307500132	2.341675638934763e-24
-0.4749197955937632	2.2719261621400264e-24
-0.4748587604375132	2.196898583978186e-24
-0.4747977252812632	2.11676039617272e-24
-0.4747366901250132	2.0316894773718976e-24
-0.4746756549687632	1.941878141566095e-24
-0.4746146198125132	1.847528443903712e-24
-0.4745535846562632	1.748850875411351e-24
-0.4744925495000132	1.6460678894423507e-24
-0.4744315143437632	1.539411965346606e-24
-0.4743704791875132	1.4291227901012061e-24
-0.4743094440312632	1.3154485983434296e-24
-0.4742484088750132	1.198646740562073e-24
-0.4741873737187632	1.078981548259733e-24
-0.4741263385625132	9.567226202587343e-25
-0.4740653034062632	8.321458600684742e-25
-0.4740042682500132	7.055354369405072e-25
-0.4739432330937632	5.771777121088054e-25
-0.4738821979375132	4.473606137939325e-25
-0.4738211627812632	3.163815156169851e-25
-0.4737601276250132	1.8453890930437878e-25
-0.4736990924687632	5.212783616136135e-26
-0.4736380573125132	-8.05490740160752e-26
-0.4735770221562632	-2.1318729942492765e-25
-0.4735159870000132	-3.4548901708699966e-25
-0.4734549518437632	-4.771532765113627e-25
-0.4733939166875132	-6.078766802841403e-25
-0.4733328815312632	-7.373639423390571e-25
-0.4732718463750132	-8.653213087065795e-25
-0.4732108112187632	-9.914533876759985e-25
-0.4731497760625132	-1.115473954372394e-24
-0.4730887409062632	-1.237101751374262e-24
-0.4730277057500132	-1.3560555465159941e-24
-0.4729666705937632	-1.4720642402591624e-24
-0.4729056354375132	-1.5848643678606228e-24
-0.4728446002812632	-1.6941953354486043e-24
-0.4727835651250132	-1.7998066288049378e-24
-0.4727225299687632	-1.9014574111437253e-24
-0.4726614948125132	-1.9989131958014174e-24
-0.4726004596562632	-2.091949833896547e-24
-0.4725394245000132	-2.1803540608967872e-24
-0.4724783893437632	-2.2639213125321756e-24
-0.4724173541875132	-2.3424592221556713e-24
-0.4723563190312632	-2.415786641299185e-24
-0.4722952838750132	-2.4837328923153807e-24
-0.4722342487187632	-2.5461413060522494e-24
-0.4721732135625132	-2.6028664818702323e-24
-0.4721121784062632	-2.653775730483459e-24
-0.4720511432500132	-2.6987508474472992e-24
-0.4719901080937632	-2.7376855031815603e-24
-0.4719290729375132	-2.770487622879767e-24
-0.4718680377812632	-2.7970796968332337e-24
-0.4718070026250132	-2.817397328278296e-24
-0.4717459674687632	-2.831390585183275e-24
