Time	Frequency
-0.5000181194374989	-0.27977059402817783
-0.49995708428124885	-0.2993671340368698
-0.49989604912499885	-0.3180974261217683
-0.49983501396874885	-0.3359085715521518
-0.49977397881249885	-0.35275059143255566
-0.49971294365624885	-0.3685761436136451
-0.49965190849999885	-0.38334058516796754
-0.49959087334374885	-0.39700205561632
-0.49952983818749885	-0.40952194449515444
-0.49946880303124885	-0.42086520196990723
-0.49940776787499885	-0.43099916204340355
-0.49934673271874885	-0.4398949214329489
-0.49928569756249885	-0.44752769342290777
-0.49922466240624885	-0.45387509630371414
-0.49916362724999885	-0.45891874725138315
-0.49910259209374885	-0.4626443547410051
-0.49904155693749885	-0.465040659589232
-0.49898052178124885	-0.46610030108369954
-0.49891948662499885	-0.4658198338881307
-0.49885845146874885	-0.46419931528213754
-0.49879741631249885	-0.46124261026957225
-0.49873638115624885	-0.45695739042325495
-0.49867534599999885	-0.4513549129106277
-0.49861431084374885	-0.44445018666282027
-0.49855327568749885	-0.43626184028586346
-0.49849224053124885	-0.4268121148755955
-0.49843120537499885	-0.41612678839640166
-0.49837017021874885	-0.40423492115625526
-0.49830913506249885	-0.3911693118295922
-0.49824809990624885	-0.37696577335809844
-0.49818706474999885	-0.36166321423433734
-0.49812602959374885	-0.34530412864153376
-0.49806499443749885	-0.32793338552009366
-0.49800395928124885	-0.30959897844902323
-0.49794292412499885	-0.29035185174213646
-0.49788188896874885	-0.27024502192563626
-0.49782085381249885	-0.24933431488399557
-0.49775981865624885	-0.22767772544479137
-0.49769878349999885	-0.20533526304712776
-0.49763774834374885	-0.182369179367799
-0.49757671318749885	-0.1588431729637471
-0.49751567803124885	-0.13482249408125968
-0.49745464287499885	-0.11037440698349872
-0.49739360771874885	-0.08556698216702571
-0.49733257256249885	-0.06046876511865302
-0.49727153740624885	-0.035150426029915825
-0.49721050224999885	-0.009682704058729563
-0.49714946709374885	0.015864085305949734
-0.49708843193749885	0.041417750720466606
-0.49702739678124885	0.06690681832353361
-0.49696636162499885	0.09226048746345149
-0.49690532646874885	0.11740740841411416
-0.49684429131249885	0.14227696743857793
-0.49678325615624885	0.16679937071481166
-0.49672222099999885	0.1909060270091423
-0.49666118584374885	0.21452902639846871
-0.49660015068749885	0.23760172276817398
-0.49653911553124885	0.2600593564935499
-0.49647808037499885	0.28183848939101763
-0.49641704521874885	0.30287753430012404
-0.49635601006249885	0.3231172256291054
-0.49629497490624885	0.3425002073952651
-0.49623393974999885	0.3609712560141507
-0.49617290459374885	0.3784781415959498
-0.49611186943749885	0.3949710768696912
-0.49605083428124885	0.4104028720165626
-0.49598979912499885	0.42472931115240803
-0.49592876396874885	0.4379093837863095
-0.49586772881249885	0.44990539670123086
-0.49580669365624885	0.4606821971818776
-0.49574565849999885	0.4702085213798612
-0.49568462334374885	0.4784569414191744
-0.49562358818749885	0.4854026920356413
-0.49556255303124885	0.49102493969177136
-0.49550151787499885	0.49530689540900297
-0.49544048271874885	0.49823508290896273
-0.49537944756249885	0.499799678148101
-0.49531841240624885	0.4999949529993202
-0.49525737724999885	0.4988188996736302
-0.49519634209374885	0.49627311037777405
-0.49513530693749885	0.49236316766941207
-0.49507427178124885	0.48709841461037595
-0.49501323662499885	0.480491926224769
-0.49495220146874885	0.472560522624504
-0.49489116631249885	0.4633246448919012
-0.49483013115624885	0.45280847768369537
-0.49476909599999885	0.4410397959132123
-0.49470806084374885	0.4280496358402523
-0.49464702568749885	0.413872597320255
-0.49458599053124885	0.3985468184958253
-0.49452495537499885	0.38211315267030926
-0.49446392021874885	0.36461586804609986
-0.49440288506249885	0.34610241542807635
-0.49434184990624885	0.3266223703696324
-0.49428081474999885	0.30622878790753266
-0.49421977959374885	0.2849772330886675
-0.49415874443749885	0.2629247276297474
-0.49409770928124885	0.2401316862086886
-0.49403667412499885	0.2166605000505563
-0.49397563896874885	0.19257441765830027
-0.49391460381249885	0.16793948071740777
-0.49385356865624885	0.1428234110567546
-0.49379253349999885	0.1172941434093299
-0.49373149834374885	0.0914216253623735
-0.49367046318749885	0.06527741098093337
-0.49360942803124885	0.03893231581202191
-0.49354839287499885	0.012458402101165231
-0.49348735771874885	-0.014070717873389448
-0.49342632256249885	-0.040583091316847994
-0.49336528740624885	-0.06700616996399683
-0.49330425224999885	-0.09326629032980882
-0.49324321709374885	-0.11929224533812813
-0.49318218193749885	-0.14501262850708338
-0.49312114678124885	-0.17035582332978447
-0.49306011162499885	-0.19525272888639267
-0.49299907646874885	-0.21963497261920295
-0.49293804131249885	-0.24343527593724135
-0.49287700615624885	-0.2665879561311786
-0.49281597099999885	-0.2890294095018757
-0.49275493584374885	-0.3106980905028069
-0.49269390068749885	-0.33153396442503363
-0.49263286553124885	-0.3514798501628786
-0.49257183037499885	-0.37048074020026245
-0.49251079521874885	-0.38848420695997915
-0.49244976006249885	-0.40544104055521923
-0.49238872490624885	-0.4213040867147167
-0.49232768974999885	-0.4360297400266283
-0.49226665459374885	-0.4495779035898643
-0.49220561943749885	-0.4619107520775209
-0.49214458428124885	-0.47299451308964346
-0.49208354912499885	-0.48279901942189185
-0.49202251396874885	-0.4912969895934633
-0.49196147881249885	-0.49846522540304133
-0.49190044365624885	-0.5042842429526081
-0.49183940849999885	-0.5087380428744589
-0.49177837334374885	-0.5118145376245004
-0.49171733818749885	-0.5135055402106843
-0.49165630303124885	-0.5138066158390382
-0.49159526787499885	-0.5127171760206007
-0.49153423271874885	-0.5102405512392474
-0.49147319756249885	-0.5063839460341587
-0.49141216240624885	-0.5011583394438139
-0.49135112724999885	-0.4945785233227031
-0.49129009209374885	-0.4866631429049955
-0.49122905693749885	-0.4774344380442386
-0.49116802178124885	-0.46691842115341503
-0.49110698662499885	-0.4551446448208388
-0.49104595146874885	-0.4421460066659543
-0.49098491631249885	-0.42795922990713414
-0.49092388115624885	-0.4126240038632983
-0.49086284599999885	-0.3961829670312043
-0.49080181084374885	-0.37868274978864497
-0.49074077568749885	-0.360172170414029
-0.49067974053124885	-0.3407025624672805
-0.49061870537499885	-0.320329246004071
-0.49055767021874885	-0.2991089779793461
-0.49049663506249885	-0.2771005502190361
-0.49043559990624885	-0.25436644863066693
-0.49037456474999885	-0.23097020504135293
-0.49031352959374885	-0.2069764096233113
-0.49025249443749885	-0.1824530845044302
-0.49019145928124885	-0.1574690296076733
-0.49013042412499885	-0.13209321576799604
-0.49006938896874885	-0.10639733545103104
-0.49000835381249885	-0.08045338762458419
-0.48994731865624885	-0.054333527616238705
-0.48988628349999885	-0.028111153932474774
-0.48982524834374885	-0.0018595596400770363
-0.48976421318749885	0.02434770101889234
-0.48970317803124885	0.05043745347715233
-0.48964214287499885	0.0763366458028322
-0.48958110771874885	0.10197256009355657
-0.48952007256249885	0.12727391214497466
-0.48945903740624885	0.15216953741813186
-0.48939800224999885	0.1765898274582361
-0.48933696709374885	0.20046673561506304
-0.48927593193749885	0.2237331070718464
-0.48921489678124885	0.24632416944085758
-0.48915386162499885	0.2681765607866306
-0.48909282646874885	0.28922912894985553
-0.48903179131249885	0.309423308771528
-0.48897075615624885	0.32870237598635266
-0.48890972099999885	0.34701255154550126
-0.48884868584374885	0.36430278492978446
-0.48878765068749885	0.3805246632903446
-0.48872661553124885	0.39563302042764875
-0.48866558037499885	0.4095857232869715
-0.48860454521874885	0.42234388614360796
-0.48854351006249885	0.4338720032830058
-0.48848247490624885	0.44413799734661136
-0.48842143974999885	0.45311343851773694
-0.48836040459374885	0.46077348914285543
-0.48829936943749885	0.4670970009323899
-0.48823833428124885	0.47206654911591955
-0.48817729912499885	0.47566864433922595
-0.48811626396874885	0.47789364772851955
-0.48805522881249885	0.478735688468918
-0.48799419365624885	0.47819289295960427
-0.48793315849999885	0.4762672999438616
-0.48787212334374885	0.4729648362254243
-0.48781108818749885	0.46829532833886717
-0.48775005303124885	0.46227249541807935
-0.48768901787499885	0.4549137724062366
-0.48762798271874885	0.4462404954105604
-0.48756694756249885	0.43627787045496386
-0.48750591240624885	0.4250542956641208
-0.48744487724999885	0.4126020160378257
-0.48738384209374885	0.39895718201812286
-0.48732280693749885	0.38415857497122724
-0.48726177178124885	0.36824838821722045
-0.48720073662499885	0.35127266959131465
-0.48713970146874885	0.33327990289018505
-0.48707866631249885	0.31432115407328975
-0.48701763115624885	0.29445098663862346
-0.48695659599999885	0.27372644637243554
-0.48689556084374885	0.2522063297811775
-0.48683452568749885	0.22995231411702668
-0.48677349053124885	0.2070282597214448
-0.48671245537499885	0.18349956827213457
-0.48665142021874885	0.15943352299618543
-0.48659038506249885	0.1348989099122246
-0.48652934990624885	0.10996608997017951
-0.48646831474999885	0.08470625504659228
-0.48640727959374885	0.05919182628506796
-0.48634624443749885	0.03349594297289212
-0.48628520928124885	0.007691703897038046
-0.48622417412499885	-0.018146343188160125
-0.48616313896874885	-0.043944168524196706
-0.48610210381249885	-0.06962853602377035
-0.48604106865624885	-0.09512492959866839
-0.48598003349999885	-0.12036025740674619
-0.48591899834374885	-0.14526272532962015
-0.48585796318749885	-0.16976001430052776
-0.48579692803124885	-0.19378179412101224
-0.48573589287499885	-0.21725950251585888
-0.48567485771874885	-0.24012485070645948
-0.48561382256249885	-0.2623119940879552
-0.48555278740624885	-0.2837574283336601
-0.48549175224999885	-0.30439870809161296
-0.48543071709374885	-0.32417617571797036
-0.48536968193749885	-0.34303272219728453
-0.48530864678124885	-0.3609135239614259
-0.48524761162499885	-0.3777668144335089
-0.48518657646874885	-0.39354322762196353
-0.48512554131249885	-0.40819672031991067
-0.48506450615624885	-0.42168486592341314
-0.48500347099999885	-0.43396768089742493
-0.48494243584374885	-0.4450088219584332
-0.48488140068749885	-0.4547760327668691
-0.48482036553124885	-0.46323996419657265
-0.48475933037499885	-0.4703751383046142
-0.48469829521874885	-0.4761601085899021
-0.48463726006249885	-0.48057684690339564
-0.48457622490624885	-0.4836114412734091
-0.48451518974999885	-0.4852539144744698
-0.48445415459374885	-0.48549805411583424
-0.48439311943749885	-0.4843417518217733
-0.48433208428124885	-0.48178686867102255
-0.48427104912499885	-0.4778391851253132
-0.48421001396874885	-0.47250842359961737
-0.48414897881249885	-0.46580832539567263
-0.48408794365624885	-0.4577564698779371
-0.48402690849999885	-0.4483742071929012
-0.48396587334374885	-0.43768693413734583
-0.48390483818749885	-0.42572341469565844
-0.48384380303124885	-0.4125161951719786
-0.48378276787499885	-0.39810176350192783
-0.48372173271874885	-0.3825192825290312
-0.48366069756249885	-0.3658118085377012
-0.48359966240624885	-0.34802572405404464
-0.48353862724999885	-0.32920983813488114
-0.48347759209374885	-0.3094167524147292
-0.48341655693749885	-0.28870136552619313
-0.48335552178124885	-0.2671210094023302
-0.48329448662499885	-0.24473629205215258
-0.48323345146874885	-0.2216095909205836
-0.48317241631249885	-0.19780531283343675
-0.48311138115624885	-0.17339011896783166
-0.48305034599999885	-0.1484326841067516
-0.48298931084374885	-0.12300275666726565
-0.48292827568749885	-0.09717139436324723
-0.48286724053124885	-0.0710117743966889
-0.48280620537499885	-0.0445970599014729
-0.48274517021874885	-0.018001350448240333
-0.48268413506249885	0.008699827093813966
-0.48262309990624885	0.03543172671343222
-0.48256206474999885	0.06211916199369136
-0.48250102959374885	0.08868620085717276
-0.48243999443749885	0.11505810368372375
-0.48237895928124885	0.14116053897304734
-0.48231792412499885	0.16691942861793055
-0.48225688896874885	0.19226203417607346
-0.48219585381249885	0.2171163177586423
-0.48213481865624885	0.2414119994765052
-0.48207378349999885	0.265080321028489
-0.48201274834374885	0.2880536761176946
-0.48195171318749885	0.31026708659427105
-0.48189067803124885	0.33165728273590667
-0.48182964287499885	0.35216318259351687
-0.48176860771874885	0.3717267457714673
-0.48170757256249885	0.39029169154610316
-0.48164653740624885	0.407805084497438
-0.48158550224999885	0.4242172625066529
-0.48152446709374885	0.43948048301094006
-0.48146343193749885	0.4535512828207515
-0.48140239678124885	0.46638942551853374
-0.48134136162499885	0.4779573652625118
-0.48128032646874885	0.48822196777069526
-0.48121929131249885	0.49715344116187177
-0.48115825615624885	0.5047255421387982
-0.48109722099999885	0.5109161502946769
-0.48103618584374885	0.515706937356652
-0.48097515068749885	0.5190834502895472
-0.48091411553124885	0.5210352425291113
-0.48085308037499885	0.5215559683371865
-0.48079204521874885	0.5206432391974255
-0.48073101006249885	0.5182986757302762
-0.48066997490624885	0.5145280667152853
-0.48060893974999885	0.5093411718990005
-0.48054790459374885	0.5027516388699392
-0.48048686943749885	0.49477722672214364
-0.48042583428124885	0.48543974253751343
-0.48036479912499885	0.47476446500688935
-0.48030376396874885	0.46278057148248
-0.48024272881249885	0.44952149881412495
-0.48018169365624885	0.4350236260853103
-0.48012065849999885	0.4193267533398622
-0.48005962334374885	0.4024748633808491
-0.47999858818749885	0.38451479351018386
-0.47993755303124885	0.36549609962492585
-0.47987651787499885	0.3454719436833615
-0.47981548271874885	0.32449839532570013
-0.47975444756249885	0.3026336779297227
-0.47969341240624885	0.2799388919564165
-0.47963237724999885	0.2564777182054584
-0.47957134209374885	0.23231554589125308
-0.47951030693749885	0.20752007736292447
-0.47944927178124885	0.18216095269212612
-0.47938823662499885	0.15630884783319002
-0.47932720146874885	0.13003652850853292
-0.47926616631249885	0.1034177955997063
-0.47920513115624885	0.07652695855488921
-0.47914409599999885	0.04943980351929451
-0.47908306084374885	0.022232275131166004
-0.47902202568749885	-0.005019180609641721
-0.47896099053124885	-0.03223784285074374
-0.47889995537499885	-0.05934766331183456
-0.47883892021874885	-0.08627213588901454
-0.47877788506249885	-0.11293520602583623
-0.47871684990624885	-0.13926254676910751
-0.47865581474999885	-0.16518013571890472
-0.47859477959374885	-0.19061448876600712
-0.47853374443749885	-0.2154942790725539
-0.47847270928124885	-0.23974990852711092
-0.47841167412499885	-0.26331297055401864
-0.47835063896874885	-0.2861170045066458
-0.47828960381249885	-0.30809787025873714
-0.47822856865624885	-0.3291941384059672
-0.47816753349999885	-0.3493464423646873
-0.47810649834374885	-0.36849758976759045
-0.47804546318749885	-0.3865944586088798
-0.47798442803124885	-0.40358616038179906
-0.47792339287499885	-0.4194245052575874
-0.47786235771874885	-0.43406566970742605
-0.47780132256249885	-0.4474684692451842
-0.47774028740624885	-0.4595951970592387
-0.47767925224999885	-0.47041227308227573
-0.47761821709374885	-0.47988949293975147
-0.47755718193749885	-0.4880003727557426
-0.47749614678124885	-0.49472258615982484
-0.47743511162499885	-0.5000376674629611
-0.47737407646874885	-0.5039309971570592
-0.47731304131249885	-0.506392188472636
-0.47725200615624885	-0.5074149163297197
-0.47719097099999885	-0.5069968289812758
-0.47712993584374885	-0.505139742194063
-0.47706890068749885	-0.5018496793509599
-0.47700786553124885	-0.4971366618926191
-0.47694683037499885	-0.49101458466402914
-0.47688579521874885	-0.48350167456865956
-0.47682476006249885	-0.47462020729425075
-0.47676372490624885	-0.4643957381461266
-0.47670268974999885	-0.4528582021992445
-0.47664165459374885	-0.44004154205138096
-0.47658061943749885	-0.42598247885659146
-0.47651958428124885	-0.41072184507315856
-0.47645854912499885	-0.39430428071272144
-0.47639751396874885	-0.3767768195535938
-0.47633647881249885	-0.358190182158686
-0.47627544365624885	-0.3385985563875829
-0.47621440849999885	-0.3180580135478788
-0.47615337334374885	-0.2966279971921754
-0.47609233818749885	-0.2743707696302715
-0.47603130303124885	-0.2513500254653414
-0.47597026787499885	-0.22763241423941385
-0.47590923271874885	-0.2032866754630409
-0.47584819756249885	-0.17838258756145972
-0.47578716240624885	-0.15299216219175002
-0.47572612724999885	-0.12718878739411887
-0.47566509209374885	-0.10104681191964703
-0.47560405693749885	-0.0746416630582881
-0.47554302178124885	-0.04804930923986695
-0.47548198662499885	-0.021346882041680653
-0.47542095146874885	0.005388679110571122
-0.47535991631249885	0.03208061041527049
-0.47529888115624885	0.058651425579831495
-0.47523784599999885	0.08502440091180535
-0.47517681084374885	0.11112373624409994
-0.47511577568749885	0.13687396827199244
-0.47505474053124885	0.16220043491448388
-0.47499370537499885	0.18703005689676258
-0.47493267021874885	0.21129151209191394
-0.47487163506249885	0.23491441180089884
-0.47481059990624885	0.2578298156322426
-0.47474956474999885	0.2799723248576539
-0.47468852959374885	0.3012780018369283
-0.47462749443749885	0.3216840384989215
-0.47456645928124885	0.34113214540324666
-0.47450542412499885	0.35956634045451574
-0.47444438896874885	0.3769321987078864
-0.47438335381249885	0.39317986991558207
-0.47432231865624885	0.4082624965705271
-0.47426128349999885	0.4221356056567744
-0.47420024834374885	0.4347591977271745
-0.47413921318749885	0.4460966361093684
-0.47407817803124885	0.4561145410988079
-0.47401714287499885	0.46478389069251047
-0.47395610771874885	0.47207931929747193
-0.47389507256249885	0.4779791844002317
-0.47383403740624885	0.4824662176479956
-0.47377300224999885	0.4855272070024697
-0.47371196709374885	0.4871527502675023
-0.47365093193749885	0.4873377515866815
-0.47358989678124885	0.48608141939564375
-0.47352886162499885	0.48338694426205764
-0.47346782646874885	0.47926160694490383
-0.47340679131249885	0.47371703705495666
-0.47334575615624885	0.466768895201392
-0.47328472099999885	0.45843669401719594
-0.47322368584374885	0.44874421045135743
-0.47316265068749885	0.43771920924053104
-0.47310161553124885	0.4253929366220096
-0.47304058037499885	0.4118007082192841
-0.47297954521874885	0.39698167193580797
-0.47291851006249885	0.380977989458924
-0.47285747490624885	0.36383576495616377
-0.47279643974999885	0.3456044522530589
-0.47273540459374885	0.32633596578340107
-0.47267436943749885	0.30608599415182375
-0.47261333428124885	0.284913211047257
-0.47255229912499885	0.2628781051629016
-0.47249126396874885	0.2400441355005706
-0.47243022881249885	0.21647751481754804
-0.47236919365624885	0.1922463268911984
-0.47230815849999885	0.1674202228411637
-0.47224712334374885	0.14207081622883416
-0.47218608818749885	0.11627180666776542
-0.47212505303124885	0.09009770815763485
-0.47206401787499885	0.0636240216909862
-0.47200298271874885	0.03692752577112967
-0.47194194756249885	0.010085710413186743
-0.47188091240624885	-0.016823887502537185
-0.47181987724999885	-0.04372307108890596
-0.47175884209374885	-0.07053347865868168
-0.47169780693749885	-0.097177967985581
-0.47163677178124885	-0.12357876879592818
-0.47157573662499885	-0.14965854452765184
-0.47151470146874885	-0.1753422706112302
-0.47145366631249885	-0.20055495926238237
-0.47139263115624885	-0.22522262847555546
-0.47133159599999885	-0.24927394856513538
-0.47127056084374885	-0.27263835077588117
-0.47120952568749885	-0.29524758749838237
-0.47114849053124885	-0.31703583624323334
-0.47108745537499885	-0.3379387171063767
-0.47102642021874885	-0.35789548430186874
-0.47096538506249885	-0.3768473939851164
-0.47090434990624885	-0.3947382224200987
-0.47084331474999885	-0.4115160146321862
-0.47078227959374885	-0.42713095917561544
-0.47072124443749885	-0.4415363751239895
-0.47066020928124885	-0.45469012673628334
-0.47059917412499885	-0.4665529698543946
-0.47053813896874885	-0.47708900605075294
-0.47047710381249885	-0.4862669892311701
-0.47041606865624885	-0.49405916478958395
