Time	Frequency
-0.5000548360625032	-0.13998180288937292
-0.4999938009062532	-0.1151975780696445
-0.4999327657500032	-0.09007948379006066
-0.4998717305937532	-0.06469762655930633
-0.4998106954375032	-0.039123865592090065
-0.4997496602812532	-0.013430101608402951
-0.4996886251250032	0.012312288526566744
-0.4996275899687532	0.038030312596565544
-0.4995665548125032	0.06365123794375105
-0.4995055196562532	0.08910388297392909
-0.4994444845000032	0.11431632248018392
-0.4993834493437532	0.13921696440528322
-0.4993224141875032	0.16373621686665213
-0.4992613790312532	0.18780503270382368
-0.4992003438750032	0.21135498635856184
-0.4991393087187532	0.23431994507278908
-0.4990782735625032	0.25663522511867437
-0.4990172384062532	0.27823728810890175
-0.4989562032500032	0.29906537486557977
-0.4988951680937532	0.3190605238550324
-0.4988341329375032	0.33816575580797364
-0.4987730977812532	0.356327366615407
-0.4987120626250032	0.3734935829255238
-0.4986510274687532	0.3896154088094242
-0.4985899923125032	0.404647337349588
-0.4985289571562532	0.4185463480055039
-0.4984679220000032	0.43127268916671146
-0.4984068868437532	0.44279008504583006
-0.4983458516875032	0.4530654641917073
-0.4982848165312532	0.4620692058393696
-0.4982237813750032	0.4697753218858691
-0.4981627462187532	0.4761614894661063
-0.4981017110625032	0.4812089364860641
-0.4980406759062532	0.4849027606079544
-0.4979796407500032	0.4872318629105824
-0.4979186055937532	0.48818882329952246
-0.4978575704375032	0.48777020842233626
-0.4977965352812532	0.48597646198887506
-0.4977355001250032	0.4828117687676563
-0.4976744649687532	0.4782841967217666
-0.4976134298125032	0.47240576740913864
-0.4975523946562532	0.4651921616308247
-0.4974913595000032	0.4566628041557364
-0.4974303243437532	0.4468410027028139
-0.4973692891875032	0.43575345983886277
-0.4973082540312532	0.42343068194206035
-0.4972472188750032	0.4099065515867984
-0.4971861837187532	0.3952180631678893
-0.4971251485625032	0.37940626394307003
-0.4970641134062532	0.3625146344806902
-0.4970030782500032	0.3445895899347324
-0.4969420430937532	0.3256816186029033
-0.4968810079375032	0.30584278478810123
-0.4968199727812532	0.28512791888841177
-0.4967589376250032	0.2635953676261017
-0.4966979024687532	0.24130462997581606
-0.4966368673125032	0.21831772815106587
-0.4965758321562532	0.19469926771652016
-0.4965147970000032	0.17051463908799788
-0.4964537618437532	0.14583153833720522
-0.4963927266875032	0.12071930309782539
-0.4963316915312532	0.09524750541762421
-0.4962706563750032	0.06948780969985408
-0.4962096212187532	0.04351247685639132
-0.4961485860625032	0.017393770432503054
-0.4960875509062532	-0.008794735882715036
-0.4960265157500032	-0.03497989634996355
-0.4959654805937532	-0.06108796697879633
-0.4959044454375032	-0.08704555802850432
-0.4958434102812532	-0.11278067177120363
-0.4957823751250032	-0.13822009836339066
-0.4957213399687532	-0.16329217125151013
-0.4956603048125032	-0.1879274168356338
-0.4955992696562532	-0.21205583257810642
-0.4955382345000032	-0.23560924023007776
-0.4954771993437532	-0.2585218896804271
-0.4954161641875032	-0.28072890415704865
-0.4953551290312532	-0.30216768148291534
-0.4952940938750032	-0.32277772885064054
-0.4952330587187532	-0.342500604997391
-0.4951720235625032	-0.3612810944174165
-0.4951109884062532	-0.37906577755595916
-0.4950499532500032	-0.3958039422205904
-0.4949889180937532	-0.41144878099232757
-0.4949278829375032	-0.42595568485248764
-0.4948668477812532	-0.43928315735070844
-0.4948058126250032	-0.45139365761594563
-0.4947447774687532	-0.4622525337151451
-0.4946837423125032	-0.47182868302719205
-0.4946227071562532	-0.4800948596868266
-0.4945616720000032	-0.48702714027374117
-0.4945006368437532	-0.4926055617967223
-0.4944396016875032	-0.49681401538171516
-0.4943785665312532	-0.4996399541526216
-0.4943175313750032	-0.5010749370274467
-0.4942564962187532	-0.5011144341158699
-0.4941954610625032	-0.49975769066767256
-0.4941344259062532	-0.49700799432782305
-0.4940733907500032	-0.49287253659693775
-0.4940123555937532	-0.4873623107438069
-0.4939513204375032	-0.4804923158381121
-0.4938902852812532	-0.4722813610427991
-0.4938292501250032	-0.46275185842034505
-0.4937682149687532	-0.4519301485017865
-0.4937071798125032	-0.43984622747435115
-0.4936461446562532	-0.4265333703863296
-0.4935851095000032	-0.41202858322414027
-0.4935240743437532	-0.39637237506771716
-0.4934630391875032	-0.3796080315666079
-0.4934020040312532	-0.36178221656827747
-0.4933409688750032	-0.3429449172157699
-0.4932799337187532	-0.32314860269556467
-0.4932188985625032	-0.302448356038601
-0.4931578634062532	-0.28090200579112323
-0.4930968282500032	-0.25857020751857235
-0.4930357930937532	-0.23551526838938633
-0.4929747579375032	-0.21180117396132606
-0.4929137227812532	-0.18749499728157462
-0.4928526876250032	-0.16266496680111195
-0.4927916524687532	-0.1373799649286403
-0.4927306173125032	-0.11171127090789884
-0.4926695821562532	-0.08573114435921494
-0.4926085470000032	-0.059512122225440986
-0.4925475118437532	-0.033127995056487856
-0.4924864766875032	-0.006652820392590345
-0.4924254415312532	0.019839165998394546
-0.4923644063750032	0.04627326240400433
-0.4923033712187532	0.07257528592129699
-0.4922423360625032	0.09867128672862006
-0.4921813009062532	0.12448789593976944
-0.4921202657500032	0.1499526189565733
-0.4920592305937532	0.17499342074513713
-0.4919981954375032	0.19953994660952903
-0.4919371602812532	0.22352343655712947
-0.4918761251250032	0.2468760974922688
-0.4918150899687532	0.2695319307774151
-0.4917540548125032	0.2914273193494348
-0.4916930196562532	0.3125008249465565
-0.4916319845000032	0.33269267670583785
-0.4915709493437532	0.35194584970274295
-0.4915099141875032	0.3702065158548708
-0.4914488790312532	0.3874229860207247
-0.4913878438750032	0.40354643466226897
-0.4913268087187532	0.4185316558939921
-0.4912657735625032	0.4323363957483975
-0.4912047384062532	0.44492149320199637
-0.4911437032500032	0.45625159410119726
-0.4910826680937532	0.46629468860225515
-0.4910216329375032	0.47502226095819544
-0.4909605977812532	0.4824099432630451
-0.4908995626250032	0.4884367958367508
-0.4908385274687532	0.4930856119270057
-0.4907774923125032	0.4963435123160997
-0.4907164571562532	0.4982012989198524
-0.4906554220000032	0.4986535965632284
-0.4905943868437532	0.4976992743231525
-0.4905333516875032	0.4953411098260338
-0.4904723165312532	0.4915856999105655
-0.4904112813750032	0.4864437518272774
-0.4903502462187532	0.4799299463226246
-0.4902892110625032	0.47206273699899126
-0.4902281759062532	0.46286436449725027
-0.4901671407500032	0.45236094630098184
-0.4901061055937532	0.4405825098120982
-0.4900450704375032	0.4275623389402709
-0.4899840352812532	0.4133371643673931
-0.4899230001250032	0.39794771370517035
-0.4898619649687532	0.38143767311878624
-0.4898009298125032	0.36385374071497356
-0.4897398946562532	0.34524586169597066
-0.4896788595000032	0.3256669541553295
-0.4896178243437532	0.3051728887810026
-0.4895567891875032	0.2838215349466001
-0.4894957540312532	0.26167357347785536
-0.4894347188750032	0.23879238016223103
-0.4893736837187532	0.21524265111709923
-0.4893126485625032	0.1910913391212404
-0.4892516134062532	0.16640741299768544
-0.4891905782500032	0.1412609084817226
-0.4891295430937532	0.11572334665274163
-0.4890685079375032	0.08986757965252276
-0.4890074727812532	0.0637670850817954
-0.4889464376250032	0.037496107466452086
-0.4888854024687532	0.011129739747025831
-0.4888243673125032	-0.015257009517449328
-0.4887633321562532	-0.04158925327533561
-0.4887022970000032	-0.06779153453162878
-0.4886412618437532	-0.09378920625747607
-0.4885802266875032	-0.11950849588385488
-0.4885191915312532	-0.1448755006315567
-0.4884581563750032	-0.1698182003308602
-0.4883971212187532	-0.1942655299524747
-0.4883360860625032	-0.21814703670311303
-0.4882750509062532	-0.24139527435605768
-0.4882140157500032	-0.26394365118718727
-0.4881529805937532	-0.28572704047064795
-0.4880919454375032	-0.3066840258235315
-0.4880309102812532	-0.32675455945540954
-0.4879698751250032	-0.3458805259697352
-0.4879088399687532	-0.36400778254212396
-0.4878478048125032	-0.38108445491668513
-0.4877867696562532	-0.39706106147938686
-0.4877257345000032	-0.4118922829083346
-0.4876646993437532	-0.42553551060403266
-0.4876036641875032	-0.4379510777031997
-0.4875426290312532	-0.4491038253454916
-0.4874815938750032	-0.4589616205923966
-0.4874205587187532	-0.467495566350423
-0.4873595235625032	-0.4746813896857004
-0.4872984884062532	-0.48049837519425403
-0.4872374532500032	-0.4849293126809214
-0.4871764180937532	-0.487961372136673
-0.4871153829375032	-0.4895856519142669
-0.4870543477812532	-0.48979713042822687
-0.4869933126250032	-0.4885949198885056
-0.4869322774687532	-0.48598214108862525
-0.4868712423125032	-0.4819659613707642
-0.4868102071562532	-0.47655751897988646
-0.4867491720000032	-0.4697720030715113
-0.4866881368437532	-0.4616285647670627
-0.4866271016875032	-0.4521500177140379
-0.4865660665312532	-0.4413632736603294
-0.4865050313750032	-0.42929903875313463
-0.4864439962187532	-0.4159912953825591
-0.4863829610625032	-0.40147789013496427
-0.4863219259062532	-0.3858002228548709
-0.4862608907500032	-0.3690027566516859
-0.4861998555937532	-0.35113340597120535
-0.4861388204375032	-0.33224308994095136
-0.4860777852812532	-0.3123854148324867
-0.4860167501250032	-0.2916173762755243
-0.4859557149687532	-0.2699982872442263
-0.4858946798125032	-0.2475893499238028
-0.4858336446562532	-0.2244550075125143
-0.4857726095000032	-0.20066161603510438
-0.4857115743437532	-0.17627661605209052
-0.4856505391875032	-0.15137000257694141
-0.4855895040312532	-0.12601350641713144
-0.4855284688750032	-0.10027918614132225
-0.4854674337187532	-0.07424070536469032
-0.4854063985625032	-0.04797332289326731
-0.4853453634062532	-0.021552015921028376
-0.4852843282500032	0.004947856374223097
-0.4852232930937532	0.031449542429129916
-0.4851622579375032	0.057876967545285325
-0.4851012227812532	0.08415489778903817
-0.4850401876250032	0.11020719974429252
-0.4849791524687532	0.1359588177344368
-0.4849181173125032	0.16133617524913754
-0.4848570821562532	0.18626588323493715
-0.4847960470000032	0.21067611551085583
-0.4847350118437532	0.2344966051174455
-0.4846739766875032	0.2576583855536553
-0.4846129415312532	0.2800948693540607
-0.4845519063750032	0.30174128647217136
-0.4844908712187532	0.3225345713215822
-0.4844298360625032	0.3424148145254846
-0.4843688009062532	0.3613247019945814
-0.4843077657500032	0.3792088778220287
-0.4842467305937532	0.3960154501558317
-0.4841856954375032	0.41169591195284844
-0.4841246602812532	0.42620428814543454
-0.4840636251250032	0.43949808198409346
-0.4840025899687532	0.45153864650147574
-0.4839415548125032	0.46229061824061735
-0.4838805196562532	0.47172215594177
-0.4838194845000032	0.47980545739928393
-0.4837584493437532	0.48651654879428285
-0.4836974141875032	0.4918351846479708
-0.4836363790312532	0.4957452099639331
-0.4835753438750032	0.4982345146468586
-0.4835143087187532	0.49929504358816007
-0.4834532735625032	0.4989228327772224
-0.4833922384062532	0.4971178985142849
-0.4833312032500032	0.49388454696973283
-0.4832701680937532	0.4892311621457956
-0.4832091329375032	0.48316992006200965
-0.4831480977812532	0.4757174417634068
-0.4830870626250032	0.4668941982773286
-0.4830260274687532	0.45672421369266897
-0.4829649923125032	0.44523611297591636
-0.4829039571562532	0.4324618661571452
-0.4828429220000032	0.41843676561137705
-0.4827818868437532	0.4032007277800387
-0.4827208516875032	0.3867964100889058
-0.4826598165312532	0.3692695448115733
-0.4825987813750032	0.35067022452879715
-0.4825377462187532	0.3310507837063915
-0.4824767110625032	0.31046626628700147
-0.4824156759062532	0.28897551405332234
-0.4823546407500032	0.26663935070291483
-0.4822936055937532	0.24352077836301117
-0.4822325704375032	0.21968578113907605
-0.4821715352812532	0.19520202751703963
-0.4821105001250032	0.17013897880042997
-0.4820494649687532	0.14456826484363805
-0.4819884298125032	0.11856238566082827
-0.4819273946562532	0.09219546327557018
-0.4818663595000032	0.0655430822472164
-0.4818053243437532	0.038680792603320656
-0.4817442891875032	0.011685396449986427
-0.4816832540312532	-0.015365742718028578
-0.4816222188750032	-0.04239570380072516
-0.4815611837187532	-0.06932692374952071
-0.4815001485625032	-0.09608242998984791
-0.4814391134062532	-0.12258588725201548
-0.4813780782500032	-0.14876094263124712
-0.4813170430937532	-0.17453289147827228
-0.4812560079375032	-0.1998280712738749
-0.4811949727812532	-0.22457347520945298
-0.4811339376250032	-0.24869821687345936
-0.4810729024687532	-0.2721333137820584
-0.4810118673125032	-0.29481121884053635
-0.4809508321562532	-0.3166665837465536
-0.4808897970000032	-0.33763695455183873
-0.4808287618437532	-0.35766171462321905
-0.4807677266875032	-0.37668290990795295
-0.4807066915312532	-0.39464633002082505
-0.4806456563750032	-0.41149988322138764
-0.4805846212187532	-0.42719457901493113
-0.4805235860625032	-0.44168537943466285
-0.4804625509062532	-0.4549303407103973
-0.4804015157500032	-0.46689106070992176
-0.4803404805937532	-0.4775326737304797
-0.4802794454375032	-0.4868242146220547
-0.4802184102812532	-0.494738801416834
-0.4801573751250032	-0.5012531054353794
-0.4800963399687532	-0.5063479090619241
-0.4800353048125032	-0.5100082443017921
-0.4799742696562532	-0.5122230288987896
-0.4799132345000032	-0.5129853961642962
-0.4798521993437532	-0.5122927266449304
-0.4797911641875032	-0.5101464268146647
-0.4797301290312532	-0.5065521547639413
-0.4796690938750032	-0.5015197460368065
-0.4796080587187532	-0.4950630881409892
-0.4795470235625032	-0.48720024783749594
-0.4794859884062532	-0.47795322384592354
-0.4794249532500032	-0.46734809841633695
-0.4793639180937532	-0.4554149206427274
-0.4793028829375032	-0.44218721388993826
-0.4792418477812532	-0.42770266032193943
-0.4791808126250032	-0.4120024996998659
-0.4791197774687532	-0.3951309695885576
-0.4790587423125032	-0.37713640457877884
-0.4789977071562532	-0.35807006037692424
-0.4789366720000032	-0.3379859813942894
-0.4788756368437532	-0.31694171764427853
-0.4788146016875032	-0.29499719453262613
-0.4787535665312532	-0.27221516092994336
-0.4786925313750032	-0.24866073881607736
-0.4786314962187532	-0.22440094878475117
-0.4785704610625032	-0.19950547233468113
-0.4785094259062532	-0.17404565824550647
-0.4784483907500032	-0.1480939944448198
-0.4783873555937532	-0.12172479623536578
-0.4783263204375032	-0.09501401746326524
-0.4782652852812532	-0.06803793305201641
-0.4782042501250032	-0.040873537063209626
-0.4781432149687532	-0.013599240928627377
-0.4780821798125032	0.01370683961031876
-0.4780211446562532	0.040966876720488016
-0.4779601095000032	0.06810213372768116
-0.4778990743437532	0.09503461783742648
-0.4778380391875032	0.12168765075107847
-0.4777770040312532	0.1479842737184274
-0.4777159688750032	0.1738487645309764
-0.4776549337187532	0.1992073603934826
-0.4775938985625032	0.2239868598194207
-0.4775328634062532	0.24811596382602452
-0.4774718282500032	0.2715256451860263
-0.4774107930937532	0.29414837215415723
-0.4773497579375032	0.3159191315262835
-0.4772887227812532	0.33677538186114375
-0.4772276876250032	0.3566570076988014
-0.4771666524687532	0.37550707725889987
-0.4771056173125032	0.39327111558882355
-0.4770445821562532	0.40989793038315486
-0.4769835470000032	0.42534013852964286
-0.4769225118437532	0.4395529245125773
-0.4768614766875032	0.4524953276605776
-0.4768004415312532	0.46413048493258724
-0.4767394063750032	0.47442467535723604
-0.4766783712187532	0.4833482471899239
-0.4766173360625032	0.49087569430489275
-0.4765563009062532	0.49698534614293144
-0.4764952657500032	0.5016596371334457
-0.4764342305937532	0.5048851517660514
-0.4763731954375032	0.5066527264399409
-0.4763121602812532	0.5069573627755991
-0.4762511251250032	0.505798254399862
-0.4761900899687532	0.5031788984327845
-0.4761290548125032	0.49910691991867107
-0.4760680196562532	0.4935942493370772
-0.4760069845000032	0.4866570236901315
-0.4759459493437532	0.47831521242542735
-0.4758849141875032	0.4685931754786176
-0.4758238790312532	0.4575193575094398
-0.4757628438750032	0.4451255891921225
-0.4757018087187532	0.43144793960294536
-0.4756407735625032	0.41652640168826266
-0.4755797384062532	0.400404052330044
-0.4755187032500032	0.383127688439093
-0.4754576680937532	0.3647476289704957
-0.4753966329375032	0.34531715633606785
-0.4753355977812532	0.3248928048152516
-0.4752745626250032	0.3035338772976462
-0.4752135274687532	0.2813022100691916
-0.4751524923125032	0.25826269344804126
-0.4750914571562532	0.234482283084318
-0.4750304220000032	0.2100298215538217
-0.4749693868437532	0.18497665302016245
-0.4749083516875032	0.15939548501986983
-0.4748473165312532	0.1333607077171226
-0.4747862813750032	0.10694829146714444
-0.4747252462187532	0.0802347108882862
-0.4746642110625032	0.053297836155809526
-0.4746031759062532	0.026216228322271513
-0.4745421407500032	-0.0009314082335727934
-0.4744811055937532	-0.028065960125798955
-0.4744200704375032	-0.05510870502853895
-0.4743590352812532	-0.08198039512706896
-0.4742980001250032	-0.10860255889845026
-0.4742369649687532	-0.13489861010490867
-0.4741759298125032	-0.1607910495726124
-0.4741148946562532	-0.1862038241430851
-0.4740538595000032	-0.211064218455302
-0.4739928243437532	-0.23529899754264616
-0.4739317891875032	-0.258836476491137
-0.4738707540312532	-0.2816092970035804
-0.4738097188750032	-0.30355064308185375
-0.4737486837187532	-0.32459534335168694
-0.4736876485625032	-0.3446828505842017
-0.4736266134062532	-0.3637543492232131
-0.4735655782500032	-0.38175334461891636
-0.4735045430937532	-0.39862754268579936
-0.4734435079375032	-0.4143274729139731
-0.4733824727812532	-0.4288068673768223
-0.4733214376250032	-0.4420232297965426
-0.4732604024687532	-0.4539377917279564
-0.4731993673125032	-0.46451536553834855
-0.4731383321562532	-0.47372465627156374
-0.4730772970000032	-0.4815386524637752
-0.4730162618437532	-0.4879340098513076
-0.4729552266875032	-0.492891612788721
-0.4728941915312532	-0.49639681985440387
-0.4728331563750032	-0.49843885422009876
-0.4727721212187532	-0.4990112891696514
-0.4727110860625032	-0.49811214180319063
-0.4726500509062532	-0.4957435918451116
-0.4725890157500032	-0.49191209733093383
-0.4725279805937532	-0.4866283927066864
-0.4724669454375032	-0.4799075406637972
-0.4724059102812532	-0.4717687449476455
-0.4723448751250032	-0.4622352802377406
-0.4722838399687532	-0.4513345531370305
-0.4722228048125032	-0.4390980872195919
-0.4721617696562532	-0.42556127915974457
-0.4721007345000032	-0.4107630139819062
-0.4720396993437532	-0.3947462599474504
-0.4719786641875032	-0.37755765324964563
-0.4719176290312532	-0.3592468025807608
-0.4718565938750032	-0.33986693470370993
-0.4717955587187532	-0.3194743322600324
-0.4717345235625032	-0.2981282988008219
-0.4716734884062532	-0.2758912135270411
-0.4716124532500032	-0.2528273822523983
-0.4715514180937532	-0.22900399842850405
-0.4714903829375032	-0.20449096526883717
-0.4714293477812532	-0.1793594272069245
-0.4713683126250032	-0.15368255755571938
-0.4713072774687532	-0.1275355676894744
-0.4712462423125032	-0.10099482749159175
-0.4711852071562532	-0.07413769971003482
-0.4711241720000032	-0.04704284561220304
-0.4710631368437532	-0.01978945554751505
-0.4710021016875032	0.007542897117048865
-0.4709410665312532	0.034873713050155804
-0.4708800313750032	0.062123253640726024
-0.4708189962187532	0.08921194555268151
-0.4707579610625032	0.11605977462792332
-0.4706969259062532	0.14258821423612425
-0.4706358907500032	0.16871950683621895
-0.4705748555937532	0.19437666683987312
-0.4705138204375032	0.21948450660051377
-0.4704527852812532	0.24396892842913245
-0.4703917501250032	0.2677579431490747
-0.4703307149687532	0.29078164448154276
-0.4702696798125032	0.3129717751721323
-0.4702086446562532	0.3342631757799968
-0.4701476095000032	0.3545929214467234
-0.4700865743437532	0.373900575072928
-0.4700255391875032	0.392129286635864
-0.4699645040312532	0.4092249677345476
-0.4699034688750032	0.42513670462679876
-0.4698424337187532	0.43981720987028927
-0.4697813985625032	0.4532227649855174
-0.4697203634062532	0.4653133015326413
