Time	Frequency
-0.5000298012500082	3.146570563158712e-25
-0.4999687660937582	4.3250264645063005e-25
-0.4999077309375082	5.492945651573039e-25
-0.4998466957812582	6.647520801563659e-25
-0.4997856606250082	7.785947389413981e-25
-0.4997246254687582	8.905423523212133e-25
-0.4996635903125082	1.0003249776582362e-24
-0.4996025551562582	1.1076756872500267e-24
-0.4995415200000082	1.2123309356405038e-24
-0.4994804848437582	1.314036912773211e-24
-0.4994194496875082	1.4125469908648817e-24
-0.4993584145312582	1.5076197201008023e-24
-0.4992973793750082	1.5990228656134389e-24
-0.4992363442187582	1.6865356983864226e-24
-0.4991753090625082	1.7699438044957362e-24
-0.4991142739062582	1.849042470978145e-24
-0.4990532387500082	1.923641002419575e-24
-0.4989922035937582	1.99355682751207e-24
-0.4989311684375082	2.0586182342567552e-24
-0.4988701332812582	2.1186675852096525e-24
-0.4988090981250082	2.1735582956460494e-24
-0.4987480629687582	2.2231563088152714e-24
-0.4986870278125082	2.2673404012260894e-24
-0.4986259926562582	2.306002560996481e-24
-0.4985649575000082	2.3390493734028326e-24
-0.4985039223437582	2.3663997088650573e-24
-0.4984428871875082	2.387986163201854e-24
-0.4983818520312582	2.4037572439322058e-24
-0.4983208168750082	2.413674415967402e-24
-0.4982597817187582	2.417712915926055e-24
-0.4981987465625082	2.4158636225453687e-24
-0.4981377114062582	2.408131341492945e-24
-0.4980766762500082	2.394535048645005e-24
-0.4980156410937582	2.3751083584153175e-24
-0.4979546059375082	2.349898982076693e-24
-0.4978935707812582	2.3189690482483614e-24
-0.4978325356250082	2.2823947450217366e-24
-0.4977715004687582	2.240265748000562e-24
-0.4977104653125082	2.1926854958643518e-24
-0.4976494301562582	2.1397712001343607e-24
-0.4975883950000082	2.0816529608637146e-24
-0.4975273598437582	2.0184732554713806e-24
-0.4974663246875082	1.9503873911115188e-24
-0.4974052895312582	1.8775630831675298e-24
-0.4973442543750082	1.800179184757059e-24
-0.4972832192187582	1.7184257024208846e-24
-0.4972221840625082	1.63250377975682e-24
-0.4971611489062582	1.542624674173938e-24
-0.4971001137500082	1.4490098338864891e-24
-0.4970390785937582	1.3518894085697664e-24
-0.4969780434375082	1.2515011252683561e-24
-0.4969170082812582	1.1480932879335708e-24
-0.4968559731250082	1.041921446343114e-24
-0.4967949379687582	9.332440584159758e-25
-0.4967339028125082	8.223296637459378e-25
-0.4966728676562582	7.09454029505814e-25
-0.4966118325000082	5.948917365857791e-25
-0.4965507973437582	4.789252142465203e-25
-0.4964897621875082	3.6184299671252444e-25
-0.4964287270312582	2.4393089186617685e-25
-0.4963676918750082	1.25479928142806e-25
-0.4963066567187582	6.78389968170329e-27
-0.4962456215625082	-1.1186715299715075e-25
-0.4961845864062582	-2.301794332664768e-25
-0.4961235512500082	-3.4785937346119937e-25
-0.4960625160937582	-4.6461960633932485e-25
-0.4960014809375082	-5.801709065329769e-25
-0.4959404457812582	-6.942261669837544e-25
-0.4958794106250082	-8.065064953306908e-25
-0.4958183754687582	-9.167336910756521e-25
-0.4957573403125082	-1.0246338105227952e-24
-0.4956963051562582	-1.1299426595115541e-24
-0.4956352700000082	-1.2323988722574616e-24
-0.4955742348437582	-1.3317481890206345e-24
-0.4955131996875082	-1.4277466517065472e-24
-0.4954521645312582	-1.5201555119987677e-24
-0.4953911293750082	-1.6087461081369298e-24
-0.4953300942187582	-1.693299741210862e-24
-0.4952690590625082	-1.773606439413587e-24
-0.4952080239062582	-1.8494673457632672e-24
-0.4951469887500082	-1.9206940682437786e-24
-0.4950859535937582	-1.987110349089262e-24
-0.4950249184375082	-2.0485513615861823e-24
-0.4949638832812582	-2.1048638881463784e-24
-0.4949028481250082	-2.155908295038861e-24
-0.4948418129687582	-2.2015579200402773e-24
-0.4947807778125082	-2.2416985780251475e-24
-0.4947197426562582	-2.2762299616922212e-24
-0.4946587075000082	-2.3050663653671323e-24
-0.4945976723437582	-2.3281353950286034e-24
-0.4945366371875082	-2.3453786043105757e-24
-0.4944756020312582	-2.356752702596026e-24
-0.4944145668750082	-2.3622287904536288e-24
-0.4943535317187582	-2.3617920699643222e-24
-0.4942924965625082	-2.355442547795845e-24
-0.4942314614062582	-2.343195094910182e-24
-0.4941704262500082	-2.3250792185274284e-24
-0.4941093910937582	-2.3011385713750213e-24
-0.4940483559375082	-2.271431146623499e-24
-0.4939873207812582	-2.236030181877108e-24
-0.4939262856250082	-2.195022211168117e-24
-0.4938652504687582	-2.1485070661318777e-24
-0.4938042153125082	-2.0966001562391736e-24
-0.4937431801562582	-2.0394290631150622e-24
-0.4936821450000082	-1.97713319558575e-24
-0.4936211098437582	-1.9098675231177346e-24
-0.4935600746875082	-1.8377982581835284e-24
-0.4934990395312582	-1.761101417086768e-24
-0.4934380043750082	-1.6799673901917986e-24
-0.4933769692187582	-1.594597751420871e-24
-0.4933159340625082	-1.5052019164691935e-24
-0.4932548989062582	-1.4120008407496928e-24
-0.4931938637500082	-1.3152268474515691e-24
-0.4931328285937582	-1.2151184213443414e-24
-0.4930717934375082	-1.111922795457776e-24
-0.4930107582812582	-1.0058971180593306e-24
-0.4929497231250082	-8.973033807298401e-25
-0.4928886879687582	-7.864109188341123e-25
-0.4928276528125082	-6.7349511897846075e-25
-0.4927666176562582	-5.588356763702503e-25
-0.4927055825000082	-4.427182754900105e-25
-0.4926445473437582	-3.2543037750115474e-25
-0.4925835121875082	-2.0726360445233474e-25
-0.4925224770312582	-8.851282636664551e-26
-0.4924614418750082	3.052832190008442e-26
-0.4924004067187582	1.4956236815486242e-25
-0.4923393715625082	2.682925753225175e-25
-0.4922783364062582	3.8642527510708335e-25
-0.4922173012500082	5.036638094395585e-25
-0.4921562660937582	6.197163392737614e-25
-0.4920952309375082	7.342948793452389e-25
-0.4920341957812582	8.47111335006603e-25
-0.4919731606250082	9.57885016624792e-25
-0.4919121254687582	1.0663392770873451e-24
-0.4918510903125082	1.1722017204642906e-24
-0.4917900551562582	1.2752088203091812e-24
-0.4917290200000082	1.3751018955354508e-24
-0.4916679848437582	1.4716297234272528e-24
-0.4916069496875082	1.564551600510216e-24
-0.4915459145312582	1.6536335191509212e-24
-0.4914848793750082	1.7386509875446956e-24
-0.4914238442187582	1.8193907781074326e-24
-0.4913628090625082	1.895648925679858e-24
-0.4913017739062582	1.9672332143932853e-24
-0.4912407387500082	2.0339624441347374e-24
-0.4911797035937582	2.0956675541302793e-24
-0.4911186684375082	2.1521923203205726e-24
-0.4910576332812582	2.2033919494237533e-24
-0.4909965981250082	2.249136526141415e-24
-0.4909355629687582	2.2893086805466723e-24
-0.4908745278125082	2.3238039198828487e-24
-0.4908134926562582	2.352534039364123e-24
-0.4907524575000082	2.3754232033936047e-24
-0.4906914223437582	2.3924099567414412e-24
-0.4906303871875082	2.4034492770433728e-24
-0.4905693520312582	2.408509242982325e-24
-0.4905083168750082	2.407572707776791e-24
-0.4904472817187582	2.4006385104893396e-24
-0.4903862465625082	2.387719741896766e-24
-0.4903252114062582	2.3688440545904854e-24
-0.4902641762500082	2.3440543173063965e-24
-0.4902031410937582	2.3134081633474e-24
-0.4901421059375082	2.276977561024586e-24
-0.4900810707812582	2.234848721724692e-24
-0.4900200356250082	2.18712238864297e-24
-0.4899590004687582	2.133913364137111e-24
-0.4898979653125082	2.075349624754886e-24
-0.4898369301562582	2.0115725359669184e-24
-0.4897758950000082	1.9427370782142453e-24
-0.4897148598437582	1.8690105223097042e-24
-0.4896538246875082	1.790572077686586e-24
-0.4895927895312582	1.7076131106442114e-24
-0.4895317543750082	1.6203361377980058e-24
-0.4894707192187582	1.5289547589816192e-24
-0.4894096840625082	1.4336925132675066e-24
-0.4893486489062582	1.3347832043700444e-24
-0.4892876137500082	1.232469205649086e-24
-0.4892265785937582	1.12700104078129e-24
-0.4891655434375082	1.018639894080393e-24
-0.4891045082812582	9.076508294522027e-25
-0.4890434731250082	7.943061445290752e-25
-0.4889824379687582	6.788877979547057e-25
-0.4889214028125082	5.616781733201991e-25
-0.4888603676562582	4.4296626663236665e-25
-0.4887993325000082	3.230467596867092e-25
-0.4887382973437582	2.0221409548139455e-25
-0.4886772621875082	8.076782922684846e-26
-0.4886162270312582	-4.0991688437450593e-26
-0.4885551918750082	-1.6276453313625412e-25
-0.4884941567187582	-2.842477811635392e-25
-0.4884331215625082	-4.0514060556813475e-25
-0.4883720864062582	-5.2514474787027635e-25
-0.4883110512500082	-6.439622527631165e-25
-0.4882500160937582	-7.612971425568401e-25
-0.4881889809375082	-8.768590650384026e-25
-0.4881279457812582	-9.903623826256567e-25
-0.4880669106250082	-1.1015230323544032e-24
-0.4880058754687582	-1.2100647402128508e-24
-0.4879448403125082	-1.3157195608697958e-24
-0.4878838051562582	-1.4182228481721599e-24
-0.4878227700000082	-1.5173189014126983e-24
-0.4877617348437582	-1.6127624676389452e-24
-0.4877006996875082	-1.7043143456802607e-24
-0.4876396645312582	-1.7917457773787017e-24
-0.4875786293750082	-1.8748397214264634e-24
-0.4875175942187582	-1.953387230848779e-24
-0.4874565590625082	-2.0271918635740774e-24
-0.4873955239062582	-2.0960696818661408e-24
-0.4873344887500082	-2.1598469071622812e-24
-0.4872734535937582	-2.2183638948383263e-24
-0.4872124184375082	-2.271473651604215e-24
-0.4871513832812582	-2.319041581751441e-24
-0.4870903481250082	-2.3609483147545214e-24
-0.4870293129687582	-2.3970876927288615e-24
-0.4869682778125082	-2.4273671610863314e-24
-0.4869072426562582	-2.45170988522017e-24
-0.4868462075000082	-2.4700534386955796e-24
-0.4867851723437582	-2.4823493871187244e-24
-0.4867241371875082	-2.488565153880068e-24
-0.4866631020312582	-2.4886833845362843e-24
-0.4866020668750082	-2.4827010777701946e-24
-0.4865410317187582	-2.4706308438755027e-24
-0.4864799965625082	-2.4525005038513403e-24
-0.4864189614062582	-2.428352789803591e-24
-0.4863579262500082	-2.398245341376594e-24
-0.4862968910937582	-2.3622505047668692e-24
-0.4862358559375082	-2.3204560164288518e-24
-0.4861748207812582	-2.2729631516857057e-24
-0.4861137856250082	-2.219887222251843e-24
-0.4860527504687582	-2.1613590873638855e-24
-0.4859917153125082	-2.0975215609368293e-24
-0.4859306801562582	-2.0285305831614594e-24
-0.4858696450000082	-1.9545566818815593e-24
-0.4858086098437582	-1.8757813592254805e-24
-0.4857475746875082	-1.7923980427664597e-24
-0.4856865395312582	-1.704612891729977e-24
-0.4856255043750082	-1.6126421610125091e-24
-0.4855644692187582	-1.5167122413963309e-24
-0.4855034340625082	-1.4170605960680534e-24
-0.4854423989062582	-1.3139335554331768e-24
-0.4853813637500082	-1.207585248733797e-24
-0.4853203285937582	-1.098279103646403e-24
-0.4852592934375082	-9.862862295235753e-25
-0.4851982582812582	-8.718829682677393e-25
-0.4851372231250082	-7.553523969840412e-25
-0.4850761879687582	-6.3698416656175395e-25
-0.4850151528125082	-5.170716530267554e-25
-0.4849541176562582	-3.9591115691883957e-25
-0.4848930825000082	-2.738032801249489e-25
-0.4848320473437582	-1.5105233296023222e-25
-0.4847710121875082	-2.796182731832723e-26
-0.4847099770312582	9.516344208610119e-26
-0.4846489418750082	2.180160567268401e-25
-0.4845879067187582	3.402913169941393e-25
-0.4845268715625082	4.616866120789384e-25
-0.4844658364062582	5.818995736894809e-25
-0.4844048012500082	7.0063054739475265e-25
-0.4843437660937582	8.175852197160883e-25
-0.4842827309375082	9.32473308326025e-25
-0.4842216957812582	1.0450083539063483e-24
-0.4841606606250082	1.1549100667125615e-24
-0.4840996254687582	1.2619055141009612e-24
-0.4840385903125082	1.3657289246241117e-24
-0.4839775551562582	1.4661211832740944e-24
-0.4839165200000082	1.5628322429627085e-24
-0.4838554848437582	1.6556220506428405e-24
-0.4837944496875082	1.7442595908323222e-24
-0.4837334145312582	1.8285232193777168e-24
-0.4836723793750082	1.908203717180062e-24
-0.4836113442187582	1.9831034421633074e-24
-0.4835503090625082	2.0530344924079568e-24
-0.4834892739062582	2.1178232846253138e-24
-0.4834282387500082	2.1773090888072498e-24
-0.4833672035937582	2.2313428322252293e-24
-0.4833061684375082	2.2797906878850635e-24
-0.4832451332812582	2.3225321017785006e-24
-0.4831840981250082	2.3594601001531885e-24
-0.4831230629687582	2.3904837522736473e-24
-0.4830620278125082	2.415525904738187e-24
-0.4830009926562582	2.4345237805599285e-24
-0.4829399575000082	2.4474311449123554e-24
-0.4828789223437582	2.4542163503894814e-24
-0.4828178871875082	2.4548625184808645e-24
-0.4827568520312582	2.4493689944127394e-24
-0.4826958168750082	2.4377501818443722e-24
-0.4826347817187582	2.4200356151107386e-24
-0.4825737465625082	2.396270545996293e-24
-0.4825127114062582	2.3665150729306062e-24
-0.4824516762500082	2.3308443820009395e-24
-0.4823906410937582	2.2893487323889513e-24
-0.4823296059375082	2.242132601213166e-24
-0.4822685707812582	2.1893152639210887e-24
-0.4822075356250082	2.1310299989322335e-24
-0.4821465004687582	2.0674233248612675e-24
-0.4820854653125082	1.9986557534126726e-24
-0.4820244301562582	1.9249009253995873e-24
-0.4819633950000082	1.846344479971293e-24
-0.4819023598437582	1.763183647691353e-24
-0.4818413246875082	1.675628935087659e-24
-0.4817802895312582	1.5839016888641805e-24
-0.4817192543750082	1.4882307237647558e-24
-0.4816582192187582	1.388858605933809e-24
-0.4815971840625082	1.286037528835431e-24
-0.4815361489062582	1.1800233387499053e-24
-0.4814751137500082	1.0710849026625443e-24
-0.4814140785937582	9.594988615212299e-25
-0.4813530434375082	8.45543571733215e-25
-0.4812920082812582	7.295073621053855e-25
-0.4812309731250082	6.116849693389988e-25
-0.4811699379687582	4.923719133614792e-25
-0.4811089028125082	3.7186855333530816e-25
-0.4810478676562582	2.504816752184344e-25
-0.4809868325000082	1.2851699760301226e-25
-0.4809257973437582	6.27995043680798e-27
-0.4808647621875082	-1.1591714219575075e-25
-0.4808037270312582	-2.3776554171161356e-25
-0.4807426918750082	-3.58960830984694e-25
-0.4806816567187582	-4.791933335562206e-25
-0.4806206215625082	-5.981585884011745e-25
-0.4805595864062582	-7.15558696606356e-25
-0.4804985512500082	-8.310939460233328e-25
-0.4804375160937582	-9.444714238985264e-25
-0.4803764809375082	-1.0554068535812395e-24
-0.4803154457812582	-1.1636171110970901e-24
-0.4802544106250082	-1.2688269608084515e-24
-0.4801933754687582	-1.3707720323952612e-24
-0.4801323403125082	-1.4691929945001056e-24
-0.4800713051562582	-1.563838789109184e-24
-0.4800102700000082	-1.654469982270499e-24
-0.4799492348437582	-1.7408569604439335e-24
-0.4798881996875082	-1.8227793329904106e-24
-0.4798271645312582	-1.9000283069448208e-24
-0.4797661293750082	-1.9724079691692193e-24
-0.4797050942187582	-2.0397338737546662e-24
-0.4796440590625082	-2.1018338251468705e-24
-0.4795830239062582	-2.158549535858313e-24
-0.4795219887500082	-2.209735948320675e-24
-0.4794609535937582	-2.2552618194544252e-24
-0.4793999184375082	-2.2950107741832828e-24
-0.4793388832812582	-2.328880130501797e-24
-0.4792778481250082	-2.3567823940210696e-24
-0.4792168129687582	-2.3786456968875954e-24
-0.4791557778125082	-2.3944125071098503e-24
-0.4790947426562582	-2.4040411748650513e-24
-0.4790337075000082	-2.4075056840929142e-24
-0.4789726723437582	-2.4047951687161836e-24
-0.4789116371875082	-2.3959148414821703e-24
-0.4788506020312582	-2.3808852960164777e-24
-0.4787895668750082	-2.3597425130794766e-24
-0.4787285317187582	-2.332538505419172e-24
-0.4786674965625082	-2.2993401654358312e-24
-0.4786064614062582	-2.2602296121257048e-24
-0.4785454262500082	-2.2153044553757115e-24
-0.4784843910937582	-2.1646762670990895e-24
-0.4784233559375082	-2.1084718694942174e-24
-0.4783623207812582	-2.046832242947647e-24
-0.4783012856250082	-1.979910902127068e-24
-0.4782402504687582	-1.907876742674026e-24
-0.4781792153125082	-1.830910908920068e-24
-0.4781181801562582	-1.7492058507316364e-24
-0.4780571450000082	-1.6629682551931e-24
-0.4779961098437582	-1.5724149138126586e-24
-0.4779350746875082	-1.4777743119312126e-24
-0.4778740395312582	-1.3792854699042292e-24
-0.4778130043750082	-1.277195583443468e-24
-0.4777519692187582	-1.171764394484968e-24
-0.4776909340625082	-1.0632578673874938e-24
-0.4776298989062582	-9.519489644189154e-25
-0.4775688637500082	-8.381210357478647e-25
-0.4775078285937582	-7.220616218660618e-25
-0.4774467934375082	-6.040643797296749e-25
-0.4773857582812582	-4.844286902607426e-25
-0.4773247231250082	-3.63457875445788e-25
-0.4772636879687582	-2.4145842216720424e-25
-0.4772026528125082	-1.187397454673976e-25
-0.4771416176562582	4.384596159166481e-27
-0.4770805825000082	1.2760402549866396e-25
-0.4770195473437582	2.506060505622615e-25
-0.4769585121875082	3.730739132421651e-25
-0.4768974770312582	4.946989672612565e-25
-0.4768364418750082	6.15172670428647e-25
-0.4767754067187582	7.34184219260272e-25
-0.4767143715625082	8.514326508709865e-25
-0.4766533364062582	9.666200196560243e-25
-0.4765923012500082	1.0794492088363106e-24
-0.4765312660937582	1.1896332110850304e-24
-0.4764702309375082	1.2968923601764097e-24
-0.4764091957812582	1.4009497269009185e-24
-0.4763481606250082	1.5015383381552404e-24
-0.4762871254687582	1.5984031639256987e-24
-0.4762260903125082	1.691294025548759e-24
-0.4761650551562582	1.7799711188878265e-24
-0.4761040200000082	1.864208640573722e-24
-0.4760429848437582	1.9437887340635114e-24
-0.4759819496875082	2.01850493048497e-24
-0.4759209145312582	2.0881659192456473e-24
-0.4758598793750082	2.152591201200986e-24
-0.4757988442187582	2.211611794792066e-24
-0.4757378090625082	2.2650756076852407e-24
-0.4756767739062582	2.3128437048457237e-24
-0.4756157387500082	2.3547889910845435e-24
-0.4755547035937582	2.3908016794977025e-24
-0.4754936684375082	2.4207868702865847e-24
-0.4754326332812582	2.4446634127480196e-24
-0.4753715981250082	2.4623665654830595e-24
-0.4753105629687582	2.473847051606288e-24
-0.4752495278125082	2.479071296728443e-24
-0.4751884926562582	2.4780216851190884e-24
-0.4751274575000082	2.4706960856589706e-24
-0.4750664223437582	2.457108868834178e-24
-0.4750053871875082	2.4372899469029107e-24
-0.4749443520312582	2.4112845867462304e-24
-0.4748833168750082	2.3791550320721082e-24
-0.4748222817187582	2.3409780890824893e-24
-0.4747612465625082	2.2968453047582704e-24
-0.4747002114062582	2.2468653948278883e-24
-0.4746391762500082	2.1911606240828327e-24
-0.4745781410937582	2.1298669602057533e-24
-0.4745171059375082	2.0631367284511778e-24
-0.4744560707812582	1.9911350613470557e-24
-0.4743950356250082	1.9140396839339138e-24
-0.4743340004687582	1.832042812261932e-24
-0.4742729653125082	1.7453487424708002e-24
-0.4742119301562582	1.654173177550595e-24
-0.4741508950000082	1.5587438655466078e-24
-0.4740898598437582	1.4592994718455604e-24
-0.4740288246875082	1.3560886804138881e-24
-0.4739677895312582	1.249370373814883e-24
-0.4739067543750082	1.1394120379988375e-24
-0.4738457192187582	1.0264887347780967e-24
-0.4737846840625082	9.108852021453713e-25
-0.4737236489062582	7.928922143641662e-25
-0.4736626137500082	6.728051395110065e-25
-0.4736015785937582	5.509272300019403e-25
-0.4735405434375082	4.275651368251544e-25
-0.4734795082812582	3.030297889980786e-25
-0.4734184731250082	1.7763609797254012e-25
-0.4733574379687582	5.1698292256317866e-26
-0.4732964028125082	-7.446441337025957e-26
-0.4732353676562582	-2.0053205132898762e-25
-0.4731743325000082	-3.261886178629443e-25
-0.4731132973437582	-4.511152975998174e-25
-0.4730522621875082	-5.749952281748429e-25
-0.4729912270312582	-6.97516351957271e-25
-0.4729301918750082	-8.183674406032194e-25
-0.4728691567187582	-9.372426705937294e-25
-0.4728081215625082	-1.0538411986977413e-24
-0.4727470864062582	-1.1678662467728786e-24
-0.4726860512500082	-1.2790296226718524e-24
-0.4726250160937582	-1.3870488838961582e-24
-0.4725639809375082	-1.4916489421339921e-24
-0.4725029457812582	-1.5925652349184445e-24
-0.4724419106250082	-1.6895404132542836e-24
-0.4723808754687582	-1.782327468824427e-24
-0.4723198403125082	-1.87069124900538e-24
-0.4722588051562582	-1.9544059981075488e-24
-0.4721977700000082	-2.0332581070355752e-24
-0.4721367348437582	-2.1070469566439943e-24
-0.4720756996875082	-2.1755839572320346e-24
-0.4720146645312582	-2.2386939616011045e-24
-0.4719536293750082	-2.296215449883234e-24
-0.4718925942187582	-2.348000993257473e-24
-0.4718315590625082	-2.393918115655104e-24
-0.4717705239062582	-2.4338485399918156e-24
