Time	Frequency
-0.5000400543437564	2.7088145590525615e-24
-0.4999790191875064	2.6079564796305767e-24
-0.4999179840312564	2.5029366550733457e-24
-0.4998569488750064	2.393917765045632e-24
-0.4997959137187564	2.281077157705064e-24
-0.4997348785625064	2.1645908122599694e-24
-0.4996738434062564	2.0446410094539393e-24
-0.4996128082500064	1.921422370157013e-24
-0.4995517730937564	1.795126819107936e-24
-0.4994907379375064	1.665953785960262e-24
-0.4994297027812564	1.5341107357622573e-24
-0.4993686676250064	1.3998062300309755e-24
-0.4993076324687564	1.263251735405033e-24
-0.4992465973125064	1.1246642391468166e-24
-0.4991855621562564	9.842666382308428e-25
-0.4991245270000064	8.422797187545393e-25
-0.4990634918437564	6.989279675815854e-25
-0.4990024566875064	5.544422765248723e-25
-0.4989414215312564	4.0905182286747584e-25
-0.4988803863750064	2.6298591765217983e-25
-0.4988193512187564	1.1647844750590162e-25
-0.4987583160625064	-3.023491472802359e-26
-0.4986972809062564	-1.7692406204761393e-25
-0.4986362457500064	-3.233554828012313e-25
-0.4985752105937564	-4.692904199851873e-25
-0.4985141754375064	-6.1450036094799e-25
-0.4984531402812564	-7.587555729357846e-25
-0.4983921051250064	-9.018198272970436e-25
-0.4983310699687564	-1.0434678218045458e-24
-0.4982700348125064	-1.1834753284444507e-24
-0.4982089996562564	-1.3216143763442226e-24
-0.4981479645000064	-1.4576660414585683e-24
-0.4980869293437564	-1.5914139976905379e-24
-0.4980258941875064	-1.7226419100384243e-24
-0.4979648590312564	-1.8511396646395817e-24
-0.4979038238750064	-1.976703576858849e-24
-0.4978427887187564	-2.0991315651739536e-24
-0.4977817535625064	-2.2182247940616745e-24
-0.4977207184062564	-2.3337949630143517e-24
-0.4976596832500064	-2.445657103144358e-24
-0.4975986480937564	-2.5536287667643048e-24
-0.4975376129375064	-2.6575373249966644e-24
-0.4974765777812564	-2.7572172283161978e-24
-0.4974155426250064	-2.852507061883893e-24
-0.4973545074687564	-2.9432517220692532e-24
-0.4972934723125064	-3.029307188234836e-24
-0.4972324371562564	-3.110534516017347e-24
-0.4971714020000064	-3.1867997962703315e-24
-0.4971103668437564	-3.257982826935742e-24
-0.4970493316875064	-3.323967647018564e-24
-0.4969882965312564	-3.384644706479533e-24
-0.4969272613750064	-3.4399189300266616e-24
-0.4968662262187564	-3.48969883225545e-24
-0.4968051910625064	-3.5339018418936514e-24
-0.4967441559062564	-3.572458121758578e-24
-0.4966831207500064	-3.6053026322637025e-24
-0.4966220855937564	-3.6323812262376495e-24
-0.4965610504375064	-3.653649683201965e-24
-0.4965000152812564	-3.669071305251537e-24
-0.4964389801250064	-3.678620176526446e-24
-0.4963779449687564	-3.682279002995887e-24
-0.4963169098125064	-3.680040075664632e-24
-0.4962558746562564	-3.671905471084038e-24
-0.4961948395000064	-3.65788595352735e-24
-0.4961338043437564	-3.63800221587284e-24
-0.4960727691875064	-3.612284793464995e-24
-0.4960117340312564	-3.5807724034806875e-24
-0.4959506988750064	-3.543513437229265e-24
-0.4958896637187564	-3.5005668709840244e-24
-0.4958286285625064	-3.4519989398521915e-24
-0.4957675934062564	-3.397885007344173e-24
-0.4957065582500064	-3.338311127129907e-24
-0.4956455230937564	-3.2733708948651154e-24
-0.4955844879375064	-3.2031654512797384e-24
-0.4955234527812564	-3.127806400387535e-24
-0.4954624176250064	-3.047413634817656e-24
-0.4954013824687564	-2.962112496250745e-24
-0.4953403473125064	-2.8720388694730954e-24
-0.4952793121562564	-2.777336740858077e-24
-0.4952182770000064	-2.6781544951114783e-24
-0.4951572418437564	-2.574650287990875e-24
-0.4950962066875064	-2.4669892205349608e-24
-0.4950351715312564	-2.355341643690943e-24
-0.4949741363750064	-2.239886099571132e-24
-0.4949131012187564	-2.120805150683838e-24
-0.4948520660625064	-1.998289232789994e-24
-0.4947910309062564	-1.872534906672915e-24
-0.4947299957500064	-1.7437398856851944e-24
-0.4946689605937564	-1.6121120167699446e-24
-0.4946079254375064	-1.4778611899316856e-24
-0.4945468902812564	-1.3411999401614408e-24
-0.4944858551250064	-1.2023497372580409e-24
-0.4944248199687564	-1.0615298411482687e-24
-0.4943637848125064	-9.189659972557191e-25
-0.4943027496562564	-7.748890193835338e-25
-0.4942417145000064	-6.295251403448978e-25
-0.4941806793437564	-4.831091277636777e-25
-0.4941196441875064	-3.358788302705475e-25
-0.4940586090312564	-1.8806452391845518e-25
-0.4939975738750064	-3.9904974708264436e-26
-0.4939365387187564	1.083576650896313e-25
-0.4938755035625064	2.5649149093232e-25
-0.4938144684062564	4.0425736152704465e-25
-0.4937534332500064	5.514134044155705e-25
-0.4936923980937564	6.977294651056351e-25
-0.4936313629375064	8.429683592457962e-25
-0.4935703277812564	9.868912523702068e-25
-0.4935092926250064	1.1292752348602394e-24
-0.4934482574687564	1.269888197964164e-24
-0.4933872223125064	1.4084966364118807e-24
-0.4933261871562564	1.5448878996226576e-24
-0.4932651520000064	1.6788387359063578e-24
-0.4932041168437564	1.8101267955966608e-24
-0.4931430816875064	1.938549545922814e-24
-0.4930820465312564	2.063895187736012e-24
-0.4930210113750064	2.1859594170014805e-24
-0.4929599762187564	2.3045506738984397e-24
-0.4928989410625064	2.4194715699413052e-24
-0.4928379059062564	2.53053871430959e-24
-0.4927768707500064	2.637574140215444e-24
-0.4927158355937564	2.740400323398325e-24
-0.4926548004375064	2.8388536802138333e-24
-0.4925937652812564	2.93277409949112e-24
-0.4925327301250064	3.0220080132416334e-24
-0.4924716949687564	3.106411087603059e-24
-0.4924106598125064	3.185845891564055e-24
-0.4923496246562564	3.26018361537845e-24
-0.4922885895000064	3.329301938031652e-24
-0.4922275543437564	3.393088327726606e-24
-0.4921665191875064	3.451439502917751e-24
-0.4921054840312564	3.504258537921941e-24
-0.4920444488750064	3.551458337864491e-24
-0.4919834137187564	3.592962729125166e-24
-0.4919223785625064	3.628702137357333e-24
-0.4918613434062564	3.658616357950532e-24
-0.4918003082500064	3.682656641228918e-24
-0.4917392730937564	3.7007818683037535e-24
-0.4916782379375064	3.712960716298151e-24
-0.4916172027812564	3.719171823780259e-24
-0.4915561676250064	3.71940302458345e-24
-0.4914951324687564	3.713652373569536e-24
-0.4914340973125064	3.701926720997478e-24
-0.4913730621562564	3.684243137914203e-24
-0.4913120270000064	3.660628213170654e-24
-0.4912509918437564	3.6311177905704e-24
-0.4911899566875064	3.595757880876243e-24
-0.4911289215312564	3.55460287269631e-24
-0.4910678863750064	3.50771754571701e-24
-0.4910068512187564	3.4551757691248876e-24
-0.4909458160625064	3.397059688877643e-24
-0.4908847809062564	3.333461518966783e-24
-0.4908237457500064	3.2644815847724298e-24
-0.4907627105937564	3.190230040042085e-24
-0.4907016754375064	3.110824242120364e-24
-0.4906406402812564	3.0263891887278646e-24
-0.4905796051250064	2.9370619807625464e-24
-0.4905185699687564	2.8429840495747446e-24
-0.4904575348125064	2.7443029727549384e-24
-0.4903964996562564	2.6411793617528405e-24
-0.4903354645000064	2.53377824382229e-24
-0.4902744293437564	2.422268599571743e-24
-0.4902133941875064	2.30683029759175e-24
-0.4901523590312564	2.1876492678859937e-24
-0.4900913238750064	2.0649154022947562e-24
-0.4900302887187564	1.938825079272516e-24
-0.4899692535625064	1.809581156254551e-24
-0.4899082184062564	1.677391372542442e-24
-0.4898471832500064	1.5424673667691324e-24
-0.4897861480937564	1.405026504118779e-24
-0.4897251129375064	1.2652891417091304e-24
-0.4896640777812564	1.1234797962381736e-24
-0.4896030426250064	9.798281046943173e-25
-0.4895420074687564	8.345639931896232e-25
-0.4894809723125064	6.879205530486191e-25
-0.4894199371562564	5.401361082520074e-25
-0.4893589020000064	3.9144840416091033e-25
-0.4892978668437564	2.420950960793909e-25
-0.4892368316875064	9.231912020418452e-26
-0.4891757965312564	-5.763752940508964e-26
-0.4891147613750064	-2.075348237219456e-25
-0.4890537262187564	-3.57129132073705e-25
-0.4889926910625064	-5.061788023130865e-25
-0.4889316559062564	-6.544441335372589e-25
-0.4888706207500064	-8.01684145426462e-25
-0.4888095855937564	-9.476606643305523e-25
-0.4887485504375064	-1.092139106086409e-24
-0.4886875152812564	-1.2348840896374316e-24
-0.4886264801250064	-1.3756639012566716e-24
-0.4885654449687564	-1.5142529072540327e-24
-0.4885044098125064	-1.650424009372688e-24
-0.4884433746562564	-1.7839571432528412e-24
-0.4883823395000064	-1.9146376069851272e-24
-0.4883213043437564	-2.0422492858419637e-24
-0.4882602691875064	-2.1665879698110787e-24
-0.4881992340312564	-2.287452905751173e-24
-0.4881381988750064	-2.4046431785796064e-24
-0.4880771637187564	-2.5179712187755663e-24
-0.4880161285625064	-2.6272532183793865e-24
-0.4879550934062564	-2.7323090218709226e-24
-0.4878940582500064	-2.8329689807123517e-24
-0.4878330230937564	-2.9290680224399818e-24
-0.4877719879375064	-3.0204500595941034e-24
-0.4877109527812564	-3.1069662464035505e-24
-0.4876499176250064	-3.1884730529904612e-24
-0.4875888824687564	-3.2648394018760373e-24
-0.4875278473125064	-3.335940149269047e-24
-0.4874668121562564	-3.401656104830537e-24
-0.4874057770000064	-3.4618818692751194e-24
-0.4873447418437564	-3.51651873560409e-24
-0.4872837066875064	-3.565473661107652e-24
-0.4872226715312564	-3.608667868527077e-24
-0.4871616363750064	-3.646030922984042e-24
-0.4871006012187564	-3.6774975533062395e-24
-0.4870395660625064	-3.703016606784803e-24
-0.4869785309062564	-3.722546540921756e-24
-0.4869174957500064	-3.7360514570784106e-24
-0.4868564605937564	-3.743508722806222e-24
-0.4867954254375064	-3.744905662409269e-24
-0.4867343902812564	-3.740236661850974e-24
-0.4866733551250064	-3.729508117442566e-24
-0.4866123199687564	-3.712736408734919e-24
-0.4865512848125064	-3.689946116852255e-24
-0.4864902496562564	-3.6611726918012246e-24
-0.4864292145000064	-3.626461647280574e-24
-0.4863681793437564	-3.5858669393460796e-24
-0.4863071441875064	-3.539453094091423e-24
-0.4862461090312564	-3.48729398137912e-24
-0.4861850738750064	-3.4294718455353714e-24
-0.4861240387187564	-3.36607989686412e-24
-0.4860630035625064	-3.2972190840980164e-24
-0.4860019684062564	-3.222998870302125e-24
-0.4859409332500064	-3.143539471363379e-24
-0.4858798980937564	-3.058967989528904e-24
-0.4858188629375064	-2.969419564350281e-24
-0.4857578277812564	-2.8750389938804447e-24
-0.4856967926250064	-2.7759783123819405e-24
-0.4856357574687564	-2.6723964936474912e-24
-0.4855747223125064	-2.5644607616649655e-24
-0.4855136871562564	-2.452345131165053e-24
-0.4854526520000064	-2.3362311183740242e-24
-0.4853916168437564	-2.216305852871042e-24
-0.4853305816875064	-2.0927621602833945e-24
-0.4852695465312564	-1.965802119029413e-24
-0.4852085113750064	-1.8356294691854113e-24
-0.4851474762187564	-1.702454036399358e-24
-0.4850864410625064	-1.56649443409585e-24
-0.4850254059062564	-1.427968153995735e-24
-0.4849643707500064	-1.2871004054880458e-24
-0.4849033355937564	-1.1441214758057964e-24
-0.4848423004375064	-9.99260127814839e-25
-0.4847812652812564	-8.527537303912456e-25
-0.4847202301250064	-7.048403246793387e-25
-0.4846591949687564	-5.557581420016768e-25
-0.4845981598125064	-4.057514747969788e-25
-0.4845371246562564	-2.5506312965564707e-25
-0.4844760895000064	-1.0393828558157474e-25
-0.4844150543437564	4.737633644026797e-26
-0.4843540191875064	1.9863624186673648e-25
-0.4842929840312564	3.4959420063870607e-25
-0.4842319488750064	5.000028189780146e-25
-0.4841709137187564	6.496191638868317e-25
-0.4841098785625064	7.98200011363928e-25
-0.4840488434062564	9.455002421356183e-25
-0.4839878082500064	1.0912801169655003e-24
-0.4839267730937564	1.2353046222374377e-24
-0.4838657379375064	1.3773365697815942e-24
-0.4838047027812564	1.5171415809550969e-24
-0.4837436676250064	1.6544950624395858e-24
-0.4836826324687564	1.789172296385605e-24
-0.4836215973125064	1.9209490391113303e-24
-0.4835605621562564	2.049613145893157e-24
-0.4834995270000064	2.174954326157768e-24
-0.4834384918437564	2.296763728083868e-24
-0.4833774566875064	2.414845181967104e-24
-0.4833164215312564	2.5290040430293952e-24
-0.4832553863750064	2.639050800053274e-24
-0.4831943512187564	2.744808616198729e-24
-0.4831333160625064	2.846100857543093e-24
-0.4830722809062564	2.942760520902815e-24
-0.4830112457500064	3.0346316333143792e-24
-0.4829502105937564	3.1215597694150045e-24
-0.4828891754375064	3.203402406502174e-24
-0.4828281402812564	3.2800258741044688e-24
-0.4827671051250064	3.351301131150745e-24
-0.4827060699687564	3.417111787082781e-24
-0.4826450348125064	3.477349484574927e-24
-0.4825839996562564	3.531911234377121e-24
-0.4825229645000064	3.580708665723783e-24
-0.4824619293437564	3.623661077068232e-24
-0.4824008941875064	3.660693082557093e-24
-0.4823398590312564	3.691745041143015e-24
-0.4822788238750064	3.7167647509957646e-24
-0.4822177887187564	3.7357071463546464e-24
-0.4821567535625064	3.748541054499285e-24
-0.4820957184062564	3.75524362023184e-24
-0.4820346832500064	3.755801170262428e-24
-0.4819736480937564	3.750211283801999e-24
-0.4819126129375064	3.738481197200844e-24
-0.4818515777812564	3.720628209386127e-24
-0.4817905426250064	3.696679156804654e-24
-0.4817295074687564	3.666671570243413e-24
-0.4816684723125064	3.630652931810887e-24
-0.4816074371562564	3.588679194716147e-24
-0.4815464020000064	3.540817997696174e-24
-0.4814853668437564	3.487145889915056e-24
-0.4814243316875064	3.427747367078808e-24
-0.4813632965312564	3.362719292049903e-24
-0.4813022613750064	3.292166060616936e-24
-0.4812412262187564	3.216199780452057e-24
-0.4811801910625064	3.1349446665881116e-24
-0.4811191559062564	3.048531715784961e-24
-0.4810581207500064	2.9570994723975867e-24
-0.4809970855937564	2.860797350304821e-24
-0.4809360504375064	2.75978042043301e-24
-0.4808750152812564	2.6542124713354424e-24
-0.4808139801250064	2.544266379825706e-24
-0.4807529449687564	2.4301179254762938e-24
-0.4806919098125064	2.3119543346871535e-24
-0.4806308746562564	2.189969133140273e-24
-0.4805698395000064	2.064356871286591e-24
-0.4805088043437564	1.935325417938491e-24
-0.4804477691875064	1.8030848140956696e-24
-0.4803867340312564	1.6678475155029083e-24
-0.4803256988750064	1.529837755416619e-24
-0.4802646637187564	1.3892785230949584e-24
-0.4802036285625064	1.246399559076942e-24
-0.4801425934062564	1.1014356059538937e-24
-0.4800815582500064	9.546193574418664e-25
-0.4800205230937564	8.0619634610682465e-25
-0.4799594879375064	6.564071336325661e-25
-0.4798984527812564	5.0549191456575845e-25
-0.4798374176250064	3.537059327629117e-25
-0.4797763824687564	2.012932974482743e-25
-0.4797153473125064	4.850095630226805e-26
-0.4796543121562564	-1.0441486651198529e-25
-0.4795932770000064	-2.5720703020626616e-25
-0.4795322418437564	-4.0962521412405506e-25
-0.4794712066875064	-5.614181604071189e-25
-0.4794101715312564	-7.123365159601849e-25
-0.4793491363750064	-8.621333492950915e-25
-0.4792881012187564	-1.0105635991946376e-24
-0.4792270660625064	-1.1573798736546322e-24
-0.4791660309062564	-1.3023442124372026e-24
-0.4791049957500064	-1.4452180345200734e-24
-0.4790439605937564	-1.5857628852263346e-24
-0.4789829254375064	-1.7237510748798215e-24
-0.4789218902812564	-1.858954307761472e-24
-0.4788608551250064	-1.9911484230063554e-24
-0.4787998199687564	-2.1201164807812398e-24
-0.4787387848125064	-2.2456463670894406e-24
-0.4786777496562564	-2.367530139004237e-24
-0.4786167145000064	-2.4855655118888834e-24
-0.4785556793437564	-2.5995593595349694e-24
-0.4784946441875064	-2.709322076469363e-24
-0.4784336090312564	-2.814671899425463e-24
-0.4783725738750064	-2.9154349161840467e-24
-0.4783115387187564	-3.0114433436860496e-24
-0.4782505035625064	-3.1025388101295555e-24
-0.4781894684062564	-3.188569357344248e-24
-0.4781284332500064	-3.269392012447564e-24
-0.4780673980937564	-3.3448727063819274e-24
-0.4780063629375064	-3.414885087811558e-24
-0.4779453277812564	-3.4793122478461425e-24
-0.4778842926250064	-3.538047236562294e-24
-0.4778232574687564	-3.5909910362462126e-24
-0.4777622223125064	-3.638053708219548e-24
-0.4777011871562564	-3.6791579148609576e-24
-0.4776401520000064	-3.714233196551639e-24
-0.4775791168437564	-3.7432184835996596e-24
-0.4775180816875064	-3.766066252662654e-24
-0.4774570465312564	-3.7827360045913874e-24
-0.4773960113750064	-3.793197317762194e-24
-0.4773349762187564	-3.797432274252652e-24
-0.4772739410625064	-3.79543118432721e-24
-0.4772129059062564	-3.787194887191445e-24
-0.4771518707500064	-3.772735510000047e-24
-0.4770908355937564	-3.7520743727892144e-24
-0.4770298004375064	-3.725243027934417e-24
-0.4769687652812564	-3.692284206004746e-24
-0.4769077301250064	-3.653249847138676e-24
-0.4768466949687564	-3.6082013218640615e-24
-0.4767856598125064	-3.557212000320401e-24
-0.4767246246562564	-3.500363325218663e-24
-0.4766635895000064	-3.437745675070359e-24
-0.4766025543437564	-3.369462093931292e-24
-0.4765415191875064	-3.2956225761611187e-24
-0.4764804840312564	-3.21634486967941e-24
-0.4764194488750064	-3.1317598433883635e-24
-0.4763584137187564	-3.0420054414919165e-24
-0.4762973785625064	-2.947225002894012e-24
-0.4762363434062564	-2.8475743916607387e-24
-0.4761753082500064	-2.74321690057982e-24
-0.4761142730937564	-2.634322420339496e-24
-0.4760532379375064	-2.521067573166034e-24
-0.4759922027812564	-2.403636741709889e-24
-0.4759311676250064	-2.2822268923107155e-24
-0.4758701324687564	-2.15703184526317e-24
-0.4758090973125064	-2.028255211362927e-24
-0.4757480621562564	-1.8961152719385902e-24
-0.4756870270000064	-1.7608222491534422e-24
-0.4756259918437564	-1.6225980652368353e-24
-0.4755649566875064	-1.4816746785027416e-24
-0.4755039215312564	-1.3382788114813026e-24
-0.4754428863750064	-1.1926463959179951e-24
-0.4753818512187564	-1.045018896481418e-24
-0.4753208160625064	-8.956386745835e-25
-0.4752597809062564	-7.447495635234285e-25
-0.4751987457500064	-5.925995412792743e-25
-0.4751377105937564	-4.394439964589818e-25
-0.4750766754375064	-2.85530328230744e-25
-0.4750156402812564	-1.3111050972243014e-25
-0.4749546051250064	2.355328511032283e-26
-0.4748935699687564	1.782121589112112e-25
-0.4748325348125064	3.326123104656468e-25
-0.4747714996562564	4.864922770982312e-25
-0.4747104645000064	6.396025212068778e-25
-0.4746494293437564	7.916916084860252e-25
-0.4745883941875064	9.425043071336138e-25
-0.4745273590312564	1.091791961156452e-24
-0.4744663238750064	1.2393106149346951e-24
-0.4744052887187564	1.3848146628797466e-24
-0.4743442535625064	1.5280603245311863e-24
-0.4742832184062564	1.668814434527131e-24
-0.4742221832500064	1.806843554895726e-24
-0.4741611480937564	1.9419153243024434e-24
-0.4741001129375064	2.073808845938595e-24
-0.4740390777812564	2.2023054863759074e-24
-0.4739780426250064	2.3271894821580365e-24
-0.4739170074687564	2.4482551371521205e-24
-0.4738559723125064	2.5653020385635115e-24
-0.4737949371562564	2.678132957485008e-24
-0.4737339020000064	2.7865614945004683e-24
-0.4736728668437564	2.8904092656131568e-24
-0.4736118316875064	2.989499385138772e-24
-0.4735507965312564	3.0836671811598155e-24
-0.4734897613750064	3.1727597494726266e-24
-0.4734287262187564	3.2566236793394654e-24
-0.4733676910625064	3.3351180474032535e-24
-0.4733066559062564	3.408116699262496e-24
-0.4732456207500064	3.475492951035376e-24
-0.4731845855937564	3.537133079700061e-24
-0.4731235504375064	3.5929372844258836e-24
-0.4730625152812564	3.642808109353009e-24
-0.4730014801250064	3.6866618047502294e-24
-0.4729404449687564	3.724425765347887e-24
-0.4728794098125064	3.7560334099354e-24
-0.4728183746562564	3.781431654261859e-24
-0.4727573395000064	3.800577035034044e-24
-0.4726963043437564	3.813434737652103e-24
-0.4726352691875064	3.8199825106296455e-24
-0.4725742340312564	3.820207576476012e-24
-0.4725131988750064	3.8141071071579134e-24
-0.4724521637187564	3.8016896865476574e-24
-0.4723911285625064	3.7829741599015385e-24
-0.4723300934062564	3.7579893957239964e-24
-0.4722690582500064	3.7267745528828864e-24
-0.4722080230937564	3.689380310947937e-24
-0.4721469879375064	3.645866457684067e-24
-0.4720859527812564	3.596302503580719e-24
-0.4720249176250064	3.540770021801905e-24
-0.4719638824687564	3.479358772682133e-24
-0.4719028473125064	3.412168215784274e-24
-0.4718418121562564	3.3393091666289e-24
-0.4717807770000064	3.2608996071341855e-24
-0.4717197418437564	3.1770686038642594e-24
-0.4716587066875064	3.0879541381702296e-24
