Time	Frequency
-0.5000121515937508	-0.1559562575105171
-0.4999511164375008	-0.1405067010772873
-0.4998900812812508	-0.12480603012957106
-0.4998290461250008	-0.10888127859250463
-0.4997680109687508	-0.09276027756994455
-0.4997069758125008	-0.07647163165120288
-0.4996459406562508	-0.06004321973680595
-0.4995849055000008	-0.04350380499940448
-0.4995238703437508	-0.026882851388412104
-0.4994628351875008	-0.010208818187142685
-0.4994018000312508	0.006489114312370553
-0.4993407648750008	0.023181192825106983
-0.4992797297187508	0.0398386658705203
-0.4992186945625008	0.056432458266452525
-0.4991576594062508	0.07293295830036162
-0.4990966242500008	0.08931164820738123
-0.4990355890937508	0.10553992972811718
-0.4989745539375008	0.12158879872425815
-0.4989135187812508	0.13743052500106973
-0.4988524836250008	0.1530372411074975
-0.4987914484687508	0.1683811637467121
-0.4987304133125008	0.18343575826123282
-0.4986693781562508	0.1981742396061873
-0.4986083430000008	0.21257062502174226
-0.4985473078437508	0.22659984375309014
-0.4984862726875008	0.24023667143773708
-0.4984252375312508	0.25345735911848916
-0.4983642023750008	0.26623864161121014
-0.4983031672187508	0.2785573980273887
-0.4982421320625008	0.29039226849888394
-0.4981810969062508	0.30172215987748496
-0.4981200617500008	0.31252672224645384
-0.4980590265937508	0.32278711157881684
-0.4979979914375008	0.3324846276360895
-0.4979369562812508	0.3416021531610315
-0.4978759211250008	0.3501236602813039
-0.4978148859687508	0.3580332426387771
-0.4977538508125008	0.36531703029939405
-0.4976928156562508	0.37196214321292653
-0.4976317805000008	0.37795593511766207
-0.4975707453437508	0.3832877930204028
-0.4975097101875008	0.38794820002202945
-0.4974486750312508	0.39192806026367455
-0.4973876398750008	0.3952201712714917
-0.4973266047187508	0.3978184454559157
-0.4972655695625008	0.39971759350681124
-0.4972045344062508	0.40091391653837694
-0.4971434992500008	0.4014048333385549
-0.4970824640937508	0.401188918102723
-0.4970214289375008	0.4002660750803093
-0.4969603937812508	0.39863735190387223
-0.4968993586250008	0.3963050820416094
-0.4968383234687508	0.39327284117606714
-0.4967772883125008	0.3895453163056496
-0.4967162531562508	0.38512853155287813
-0.4966552180000008	0.3800297108395491
-0.4965941828437508	0.37425709867466567
-0.4965331476875008	0.36782032263705633
-0.4964721125312508	0.36073016537552854
-0.4964110773750008	0.35299827929637617
-0.4963500422187508	0.34463776440020316
-0.4962890070625008	0.33566281322481806
-0.4962279719062508	0.3260882847547606
-0.4961669367500008	0.31593055991939517
-0.4961059015937508	0.30520703671762495
-0.4960448664375008	0.2939355697900797
-0.4959838312812508	0.28213549373147284
-0.4959227961250008	0.2698271975012977
-0.4958617609687508	0.2570313521508145
-0.4958007258125008	0.24376978213082653
-0.4957396906562508	0.23006559652406877
-0.4956786555000008	0.21594201384210202
-0.4956176203437508	0.20142307214237845
-0.4955565851875008	0.18653411596307984
-0.4954955500312508	0.17130044079335144
-0.4954345148750008	0.15574832394443575
-0.4953734797187508	0.13990470060587615
-0.4953124445625008	0.12379636521507571
-0.4952514094062508	0.10745173079516404
-0.4951903742500008	0.09089881843688664
-0.4951293390937508	0.07416556534439303
-0.4950683039375008	0.057281876519744125
-0.4950072687812508	0.04027645450418643
-0.4949462336250008	0.023178306030396535
-0.4948851984687508	0.00601790018862169
-0.4948241633125008	-0.0111755945729748
-0.4947631281562508	-0.028372551181061825
-0.4947020930000008	-0.04554258966882873
-0.4946410578437508	-0.06265621141812999
-0.4945800226875008	-0.0796839257870885
-0.4945189875312508	-0.09659579133079417
-0.4944579523750008	-0.11336251563869615
-0.4943969172187508	-0.1299550704615272
-0.4943358820625008	-0.14634446040701002
-0.4942748469062508	-0.1625022072504212
-0.4942138117500008	-0.17840006097531683
-0.4941527765937508	-0.19401051288094934
-0.4940917414375008	-0.20930611032306815
-0.4940307062812508	-0.22426014474602413
-0.4939696711250008	-0.23884691896454566
-0.4939086359687508	-0.2530403672636041
-0.4938476008125008	-0.26681578271022005
-0.4937865656562508	-0.2801495603733955
-0.4937255305000008	-0.29301779147281465
-0.4936644953437508	-0.3053978665471251
-0.4936034601875008	-0.31726856040116225
-0.4935424250312508	-0.3286087249970424
-0.4934813898750008	-0.33939821444492857
-0.4934203547187508	-0.34961839685349594
-0.4933593195625008	-0.3592511361475364
-0.4932982844062508	-0.36827927881081574
-0.4932372492500008	-0.3766870618549318
-0.4931762140937508	-0.38445950104321946
-0.4931151789375008	-0.39158275968957285
-0.4930541437812508	-0.39804428037197337
-0.4929931086250008	-0.4038324234355355
-0.4929320734687508	-0.40893685468329805
-0.4928710383125008	-0.41334843558593876
-0.4928100031562508	-0.4170591267462179
-0.4927489680000008	-0.42006218722332617
-0.4926879328437508	-0.42235205784939933
-0.4926268976875008	-0.4239244685816214
-0.4925658625312508	-0.42477633217450483
-0.4925048273750008	-0.4249058337942782
-0.4924437922187508	-0.42431246117371274
-0.4923827570625008	-0.42299687533298286
-0.4923217219062508	-0.42096107343253947
-0.4922606867500008	-0.41820823540323077
-0.4921996515937508	-0.41474284539447265
-0.4921386164375008	-0.41057064395329895
-0.4920775812812508	-0.40569844166219193
-0.4920165461250008	-0.40013455401678355
-0.4919555109687508	-0.39388829807076886
-0.4918944758125008	-0.38697005228891274
-0.4918334406562508	-0.3793918565644604
-0.4917724055000008	-0.37116640878741863
-0.4917113703437508	-0.3623075752167686
-0.4916503351875008	-0.3528308551432092
-0.4915893000312508	-0.3427521681804236
-0.4915282648750008	-0.33208871188017475
-0.4914672297187508	-0.3208590686792659
-0.4914061945625008	-0.3090823100672628
-0.4913451594062508	-0.29677856113063794
-0.4912841242500008	-0.28396918614916655
-0.4912230890937508	-0.27067630695191836
-0.4911620539375008	-0.25692244300095746
-0.4911010187812508	-0.24273152868838024
-0.4910399836250008	-0.22812833033240937
-0.4909789484687508	-0.21313744226253944
-0.4909179133125008	-0.19778514273954925
-0.4908568781562508	-0.18209805607128807
-0.4907958430000008	-0.16610283628018555
-0.4907348078437508	-0.1498277362124807
-0.4906737726875008	-0.13330045907143057
-0.4906127375312508	-0.11654963873628152
-0.4905517023750008	-0.09960476936184756
-0.4904906672187508	-0.08249454823742695
-0.4904296320625008	-0.06524900010107611
-0.4903685969062508	-0.04789806244043068
-0.4903075617500008	-0.030471546585065908
-0.4902465265937508	-0.013000023376166436
-0.4901854914375008	0.004486501050402121
-0.4901244562812508	0.021957550171937033
-0.4900634211250008	0.03938259741555607
-0.4900023859687508	0.056731735514903056
-0.4899413508125008	0.07397467623222047
-0.4898803156562508	0.09108130271162974
-0.4898192805000008	0.10802204116009521
-0.4897582453437508	0.12476762783835497
-0.4896972101875008	0.1412885608135321
-0.4896361750312508	0.15755620005378967
-0.4895751398750008	0.17354276337886795
-0.4895141047187508	0.18921969437552524
-0.4894530695625008	0.20456000729481527
-0.4893920344062508	0.21953745819595682
-0.4893309992500008	0.23412530154879688
-0.4892699640937508	0.24829844957731517
-0.4892089289375008	0.2620323574727408
-0.4891478937812508	0.27530298512456586
-0.4890868586250008	0.2880872572012022
-0.4890258234687508	0.3003628072876464
-0.4889647883125008	0.3121085443399568
-0.4889037531562508	0.3233038516521304
-0.4888427180000008	0.33392915660432837
-0.4887816828437508	0.34396623501930657
-0.4887206476875008	0.35339739909705115
-0.4886596125312508	0.3622063292477561
-0.4885985773750008	0.3703778105706065
-0.4885375422187508	0.3778974584851769
-0.4884765070625008	0.38475235237397587
-0.4884154719062508	0.3909305939943183
-0.4883544367500008	0.3964214055001634
-0.4882934015937508	0.40121534845475537
-0.4882323664375008	0.40530412395004944
-0.4881713312812508	0.4086806646960165
-0.4881102961250008	0.4113392153051802
-0.4880492609687508	0.41327522215251344
-0.4879882258125008	0.4144853967758373
-0.4879271906562508	0.41496780213658935
-0.4878661555000008	0.4147216738176463
-0.4878051203437508	0.413747602870527
-0.4877440851875008	0.41204746032792977
-0.4876830500312508	0.4096243151074649
-0.4876220148750008	0.4064826204877164
-0.4875609797187508	0.40262803303129246
-0.4874999445625008	0.39806743250400134
-0.4874389094062508	0.3928090124760737
-0.4873778742500008	0.3868621976098617
-0.4873168390937508	0.38023753943092686
-0.4872558039375008	0.37294683560100117
-0.4871947687812508	0.3650031542743147
-0.4871337336250008	0.35642054266225764
-0.4870726984687508	0.34721426704857666
-0.4870116633125008	0.3374007556498427
-0.4869506281562508	0.32699736360892195
-0.4868895930000008	0.31602263477558934
-0.4868285578437508	0.3044960675473569
-0.4867675226875008	0.29243802700447796
-0.4867064875312508	0.27987005595610853
-0.4866454523750008	0.26681449403843943
-0.4865844172187508	0.25329427526642484
-0.4865233820625008	0.23933365304306767
-0.4864623469062508	0.22495749774812623
-0.4864013117500008	0.21019097192740083
-0.4863402765937508	0.19506053536855247
-0.4862792414375008	0.1795931846574297
-0.4862182062812508	0.16381617960468497
-0.4861571711250008	0.14775753213150317
-0.4860961359687508	0.13144596201525852
-0.4860351008125008	0.11491031837417079
-0.4859740656562508	0.09818004576815144
-0.4859130305000008	0.0812849026111015
-0.4858519953437508	0.0642546471877799
-0.4857909601875008	0.047120179441566386
-0.4857299250312508	0.02991143677915492
-0.4856688898750008	0.012658940139058092
-0.4856078547187508	-0.00460580818347898
-0.4855468195625008	-0.021853028676979528
-0.4854857844062508	-0.0390516963149523
-0.4854247492500008	-0.05617052349666634
-0.4853637140937508	-0.07318006442955875
-0.4853026789375008	-0.09004964619739746
-0.4852416437812508	-0.10674851155292543
-0.4851806086250008	-0.12324783462462922
-0.4851195734687508	-0.13951790736583009
-0.4850585383125008	-0.155529242050933
-0.4849975031562508	-0.17125383885005452
-0.4849364680000008	-0.18666335133380016
-0.4848754328437508	-0.20173022663295878
-0.4848143976875008	-0.21642766722318094
-0.4847533625312508	-0.23072921421595968
-0.4846923273750008	-0.24460946929626864
-0.4846312922187508	-0.2580434822287257
-0.4845702570625008	-0.2710070909297407
-0.4845092219062508	-0.2834773010699366
-0.4844481867500008	-0.2954315840849274
-0.4843871515937508	-0.30684840862325186
-0.4843261164375008	-0.31770748877967925
-0.4842650812812508	-0.32798908536103744
-0.4842040461250008	-0.3376747721500522
-0.4841430109687508	-0.34674724002002905
-0.4840819758125008	-0.35518975913252104
-0.4840209406562508	-0.362987352089669
-0.4839599055000008	-0.37012600878058316
-0.4838988703437508	-0.3765923891422578
-0.4838378351875008	-0.3823749779121437
-0.4837768000312508	-0.38746332290734264
-0.4837157648750008	-0.39184790224635785
-0.4836547297187508	-0.3955206821183061
-0.4835936945625008	-0.39847495352342166
-0.4835326594062508	-0.40070515930860373
-0.4834716242500008	-0.40220695019277475
-0.4834105890937508	-0.4029774776391385
-0.4833495539375008	-0.4030151012523074
-0.4832885187812508	-0.4023193777041503
-0.4832274836250008	-0.40089135311500296
-0.4831664484687508	-0.3987332696624154
-0.4831054133125008	-0.395848636071721
-0.4830443781562508	-0.3922423971090444
-0.4829833430000008	-0.3879206336151984
-0.4829223078437508	-0.38289075695726704
-0.4828612726875008	-0.3771615468403917
-0.4828002375312508	-0.37074279849118363
-0.4827392023750008	-0.36364575572489627
-0.4826781672187508	-0.3558828921824443
-0.4826171320625008	-0.3474675515496083
-0.4825560969062508	-0.338414609888023
-0.4824950617500008	-0.3287400887427941
-0.4824340265937508	-0.318460695578523
-0.4823729914375008	-0.30759463044491764
-0.4823119562812508	-0.2961612345786784
-0.4822509211250008	-0.28418036285734993
-0.4821898859687508	-0.27167319712141214
-0.4821288508125008	-0.25866214319148934
-0.4820678156562508	-0.2451698969946803
-0.4820067805000008	-0.23122019095324212
-0.4819457453437508	-0.21683822439622055
-0.4818847101875008	-0.202049167833054
-0.4818236750312508	-0.18687900718671321
-0.4817626398750008	-0.17135519071719368
-0.4817016047187508	-0.15550490968986247
-0.4816405695625008	-0.13935628285265986
-0.4815795344062508	-0.12293838289564372
-0.4815184992500008	-0.10627991807983429
-0.4814574640937508	-0.08941082202987814
-0.4813964289375008	-0.07236125849446134
-0.4813353937812508	-0.05516113435951372
-0.4812743586250008	-0.03784153429379083
-0.4812133234687508	-0.020433224730947136
-0.4811522883125008	-0.0029671267366527558
-0.4810912531562508	0.01452537832454399
-0.4810302180000008	0.03201320179060232
-0.4809691828437508	0.04946496650185045
-0.4809081476875008	0.0668495238129409
-0.4808471125312508	0.0841357696358527
-0.4807860773750008	0.10129275515306875
-0.4807250422187508	0.11828971762388003
-0.4806640070625008	0.1350960867954117
-0.4806029719062508	0.15168198885220044
-0.4805419367500008	0.16801745166478685
-0.4804809015937508	0.18407293333291486
-0.4804198664375008	0.19982003362306164
-0.4803588312812508	0.2152302134544366
-0.4802977961250008	0.23027538502824552
-0.4802367609687508	0.2449289501778012
-0.4801757258125008	0.25916434707628505
-0.4801146906562508	0.2729555442349943
-0.4800536555000008	0.2862779707500437
-0.4799926203437508	0.2991074328591453
-0.4799315851875008	0.3114205663750116
-0.4798705500312508	0.32319519883866676
-0.4798095148750008	0.3344097862306795
-0.4797484797187508	0.3450439950275299
-0.4796874445625008	0.3550785121848834
-0.4796264094062508	0.3644948045881846
-0.4795653742500008	0.3732758335303113
-0.4795043390937508	0.3814054311493006
-0.4794433039375008	0.3888684894598328
-0.4793822687812508	0.3956514067223449
-0.4793212336250008	0.4017415359149811
-0.4792601984687508	0.40712744523966937
-0.4791991633125008	0.4117990712884756
-0.4791381281562508	0.4157476327233948
-0.4790770930000008	0.4189654697184205
-0.4790160578437508	0.4214463027777817
-0.4789550226875008	0.4231852990346557
-0.4788939875312508	0.4241787051628306
-0.4788329523750008	0.4244242090961928
-0.4787719172187508	0.423920912753915
-0.4787108820625008	0.4226690691089728
-0.4786498469062508	0.42067040178759185
-0.4785888117500008	0.41792797251623814
-0.4785277765937508	0.41444600398143616
-0.4784667414375008	0.4102302217658006
-0.4784057062812508	0.40528771133956026
-0.4783446711250008	0.399626470265464
-0.4782836359687508	0.3932562095388099
-0.4782226008125008	0.38618798321765463
-0.4781615656562508	0.37843327570715646
-0.4781005305000008	0.37000584584850194
-0.4780394953437508	0.3609203905067827
-0.4779784601875008	0.3511917348342846
-0.4779174250312508	0.3408375553449926
-0.4778563898750008	0.32987581924744824
-0.4777953547187508	0.31832462664368155
-0.4777343195625008	0.3062051334529892
-0.4776732844062508	0.29353833466966933
-0.4776122492500008	0.280345514498736
-0.4775512140937508	0.26665068050577717
-0.4774901789375008	0.25247764326122274
-0.4774291437812508	0.23785062836565657
-0.4773681086250008	0.22279596804291443
-0.4773070734687508	0.2073400444327217
-0.4772460383125008	0.191509547963577
-0.4771850031562508	0.17533271012462323
-0.4771239680000008	0.15883810865572173
-0.4770629328437508	0.14205447106969815
-0.4770018976875008	0.12501152102642224
-0.4769408625312508	0.10773949265793151
-0.4768798273750008	0.09026859019720679
-0.4768187922187508	0.07262992911818322
-0.4767577570625008	0.05485458188245101
-0.4766967219062508	0.03697377392396782
-0.4766356867500008	0.019019632616520024
-0.4765746515937508	0.0010234946299927836
-0.4765136164375008	-0.016982669463512838
-0.4764525812812508	-0.03496678439838299
-0.4763915461250008	-0.05289709234331914
-0.4763305109687508	-0.07074180900397065
-0.4762694758125008	-0.08846941486906405
-0.4762084406562508	-0.10604789655565064
-0.4761474055000008	-0.12344664859841861
-0.4760863703437508	-0.1406347566814862
-0.4760253351875008	-0.15758094031376735
-0.4759643000312508	-0.17425589338411693
-0.4759032648750008	-0.190629703237687
-0.4758422297187508	-0.2066728683417388
-0.4757811945625008	-0.22235746950180055
-0.4757201594062508	-0.23765502730149743
-0.4756591242500008	-0.2525384234350058
-0.4755980890937508	-0.26698159132561905
-0.4755370539375008	-0.2809580069462455
-0.4754760187812508	-0.29444321073396745
-0.4754149836250008	-0.30741337854122724
-0.4753539484687508	-0.3198446375695589
-0.4752929133125008	-0.33171539765696983
-0.4752318781562508	-0.34300439499824903
-0.4751708430000008	-0.3536910228694403
-0.4751098078437508	-0.36375665806707036
-0.4750487726875008	-0.3731831285542546
-0.4749877375312508	-0.3819534315670123
-0.4749267023750008	-0.39005198600379937
-0.4748656672187508	-0.3974643345175764
-0.4748046320625008	-0.40417710268812446
-0.4747435969062508	-0.41017814366808214
-0.4746825617500008	-0.4154569371551957
-0.4746215265937508	-0.42000380800967235
-0.4745604914375008	-0.42381051643010575
-0.4744994562812508	-0.4268704168375018
-0.4744384211250008	-0.42917780573659603
-0.4743773859687508	-0.4307284873225237
-0.4743163508125008	-0.4315197349305495
-0.4742553156562508	-0.4315500014541302
-0.4741942805000008	-0.430819143859927
-0.4741332453437508	-0.4293284524181407
-0.4740722101875008	-0.42708052582494216
-0.4740111750312508	-0.4240792883122811
-0.4739501398750008	-0.4203300606394596
-0.4738891047187508	-0.4158395376030864
-0.4738280695625008	-0.4106156374710212
-0.4737670344062508	-0.4046676343963943
-0.4737059992500008	-0.3980062231351894
-0.4736449640937508	-0.3906432422067212
-0.4735839289375008	-0.38259167758214935
-0.4735228937812508	-0.37386607634366353
-0.4734618586250008	-0.3644821435326839
-0.4734008234687508	-0.3544562257020958
-0.4733397883125008	-0.3438064805907793
-0.4732787531562508	-0.332552327975524
-0.4732177180000008	-0.3207132229341698
-0.4731566828437508	-0.30831059042046033
-0.4730956476875008	-0.29536715933157826
-0.4730346125312508	-0.2819053617749814
-0.4729735773750008	-0.2679495916481504
-0.4729125422187508	-0.25352519995517475
-0.4728515070625008	-0.23865752275538737
-0.4727904719062508	-0.2233735320002343
-0.4727294367500008	-0.20770064221475654
-0.4726684015937508	-0.1916667994729102
-0.4726073664375008	-0.17530096895828443
-0.4725463312812508	-0.15863248281925035
-0.4724852961250008	-0.14169121931861675
-0.4724242609687508	-0.12450758067566725
-0.4723632258125008	-0.10711266900606199
-0.4723021906562508	-0.08953751032441284
-0.4722411555000008	-0.07181364295522835
-0.4721801203437508	-0.05397336100356836
-0.4721190851875008	-0.03604823281614901
-0.4720580500312508	-0.018070748087985346
-0.4719970148750008	-7.351507121908018e-05
-0.4719359797187508	0.017911754905448427
-0.4718749445625008	0.035852015602537826
-0.4718139094062508	0.05371501596253595
-0.4717528742500008	0.0714692836551742
-0.4716918390937508	0.08908198992731986
-0.4716308039375008	0.10652154149214275
-0.4715697687812508	0.12375716262032005
-0.4715087336250008	0.14075705276681486
-0.4714476984687508	0.15749058901672688
-0.4713866633125008	0.17392820926233277
-0.4713256281562508	0.19003965622694255
-0.4712645930000008	0.2057958631905096
-0.4712035578437508	0.22116888136865248
-0.4711425226875008	0.2361304677575112
-0.4710814875312508	0.250653686426932
-0.4710204523750008	0.2647125614885761
-0.4709594172187508	0.278281380157704
-0.4708983820625008	0.2913356849119096
-0.4708373469062508	0.3038520661412393
-0.4707763117500008	0.31580766878356725
-0.4707152765937508	0.327180830027907
-0.4706542414375008	0.3379512061328807
-0.4705932062812508	0.3480991057339367
-0.4705321711250008	0.35760616635156617
-0.4704711359687508	0.3664552364703663
-0.4704101008125008	0.3746301477753984
-0.4703490656562508	0.3821162849947223
-0.4702880305000008	0.3888998910061469
-0.4702269953437508	0.3949685753411321
-0.4701659601875008	0.4003116035572816
-0.4701049250312508	0.4049190603742217
-0.4700438898750008	0.4087824878004821
-0.4699828547187508	0.4118950420173231
-0.4699218195625008	0.4142509485261639
-0.4698607844062508	0.4158458395211739
-0.4697997492500008	0.4166768691990059
-0.4697387140937508	0.416742453141021
-0.4696776789375008	0.4160423791522124
