Time	Frequency
-0.5000139057187596	5.466521826375325e-27
-0.4999528705625096	1.110337445948387e-25
-0.4998918354062596	2.164346356069575e-25
-0.4998308002500096	3.21358164617676e-25
-0.4997697650937596	4.2549008974434135e-25
-0.4997087299375096	5.285247419093843e-25
-0.4996476947812596	6.3015766579303695e-25
-0.4995866596250096	7.300847516061345e-25
-0.4995256244687596	8.280109066589485e-25
-0.4994645893125096	9.236467276645538e-25
-0.4994035541562596	1.0167049432304727e-24
-0.4993425190000096	1.1069094289674389e-24
-0.4992814838437596	1.1939936963196914e-24
-0.4992204486875096	1.2776950362543434e-24
-0.4991594135312596	1.3577636190507895e-24
-0.4990983783750096	1.4339619372267853e-24
-0.4990373432187596	1.5060596399048974e-24
-0.4989763080625096	1.5738405272397903e-24
-0.4989152729062596	1.6371016155346292e-24
-0.4988542377500096	1.6956506071971737e-24
-0.4987932025937596	1.7493110536993674e-24
-0.4987321674375096	1.797920439828805e-24
-0.4986711322812596	1.841329442091478e-24
-0.4986100971250096	1.8794057883897047e-24
-0.4985490619687596	1.9120320744035047e-24
-0.4984880268125096	1.9391055966244536e-24
-0.4984269916562596	1.9605419221672176e-24
-0.4983659565000096	1.9762725366539644e-24
-0.4983049213437596	1.9862440167280726e-24
-0.4982438861875096	1.9904214564210608e-24
-0.4981828510312596	1.9887870595320843e-24
-0.4981218158750096	1.9813390254270947e-24
-0.4980607807187596	1.968092902065866e-24
-0.4979997455625096	1.9490816270146295e-24
-0.4979387104062596	1.9243551396782263e-24
-0.4978776752500096	1.893979476457813e-24
-0.4978166400937596	1.8580377537003143e-24
-0.4977556049375096	1.8166299477683795e-24
-0.4976945697812596	1.769871054976836e-24
-0.4976335346250096	1.717892351777914e-24
-0.4975724994687596	1.6608412425582866e-24
-0.4975114643125096	1.5988791530477506e-24
-0.4974504291562596	1.5321815181094412e-24
-0.4973893940000096	1.4609391847109212e-24
-0.4973283588437596	1.3853568406018554e-24
-0.4972673236875096	1.3056492700329559e-24
-0.4972062885312596	1.222044874067749e-24
-0.4971452533750096	1.1347868375630756e-24
-0.4970842182187596	1.0441242436343205e-24
-0.4970231830625096	9.503167122183363e-25
-0.4969621479062596	8.536388963558792e-25
-0.4969011127500096	7.543683892476623e-25
-0.4968400775937596	6.52789923090538e-25
-0.4967790424375096	5.492007846127579e-25
-0.4967180072812596	4.439004001232536e-25
-0.4966569721250096	3.371920209455701e-25
-0.4965959369687596	2.2938710640800325e-25
-0.4965349018125096	1.207986340132529e-25
-0.4964738666562596	1.1740902054787882e-26
-0.4964128315000096	-9.746838326994296e-26
-0.4963517963437596	-2.0651163562654768e-25
-0.4962907611875096	-3.1507110356880023e-25
-0.4962297260312596	-4.22831999927969e-25
-0.4961686908750096	-5.2947975587378515e-25
-0.4961076557187596	-6.347016508267066e-25
-0.4960466205625096	-7.381946068355567e-25
-0.4959855854062596	-8.396545005955234e-25
-0.4959245502500096	-9.387836436608178e-25
-0.4958635150937596	-1.035296667844129e-24
-0.4958024799375096	-1.128908484047225e-24
-0.4957414447812596	-1.219345746223154e-24
-0.4956804096250096	-1.3063461723726405e-24
-0.4956193744687596	-1.389652657034642e-24
-0.4955583393125096	-1.46902339412527e-24
-0.4954973041562596	-1.5442258851444136e-24
-0.4954362690000096	-1.6150378753039446e-24
-0.4953752338437596	-1.6812545814122366e-24
-0.4953141986875096	-1.742681174680331e-24
-0.4952531635312596	-1.7991358383762244e-24
-0.4951921283750096	-1.8504550268865333e-24
-0.4951310932187596	-1.896487519440256e-24
-0.4950700580625096	-1.9370971432553086e-24
-0.4950090229062596	-1.9721658538883767e-24
-0.4949479877500096	-2.0015897260709332e-24
-0.4948869525937596	-2.025281727083566e-24
-0.4948259174375096	-2.0431729772211185e-24
-0.4947648822812596	-2.0552099265119538e-24
-0.4947038471250096	-2.061356473584802e-24
-0.4946428119687596	-2.06159468239041e-24
-0.4945817768125096	-2.0559231161557155e-24
-0.4945207416562596	-2.0443577163833516e-24
-0.4944597065000096	-2.0269321327461147e-24
-0.4943986713437596	-2.0036967845310185e-24
-0.4943376361875096	-1.974719380143297e-24
-0.4942766010312596	-1.940084501479545e-24
-0.4942155658750096	-1.899892954354007e-24
-0.4941545307187596	-1.8542627155389302e-24
-0.4940934955625096	-1.803327041618797e-24
-0.4940324604062596	-1.7472340558996472e-24
-0.4939714252500096	-1.686149604851383e-24
-0.4939103900937596	-1.620252285242758e-24
-0.4938493549375096	-1.5497326349357664e-24
-0.4937883197812596	-1.4748006640785754e-24
-0.4937272846250096	-1.395675993183186e-24
-0.4936662494687596	-1.312586342026481e-24
-0.4936052143125096	-1.2257797985399265e-24
-0.4935441791562596	-1.1355112370275812e-24
-0.4934831440000096	-1.0420412356343357e-24
-0.4934221088437596	-9.456478461984374e-25
-0.4933610736875096	-8.46613768107689e-25
-0.4933000385312596	-7.452271402979194e-25
-0.4932390033750096	-6.417883987650349e-25
-0.4931779682187596	-5.366010035059105e-25
-0.4931169330625096	-4.299715902475908e-25
-0.4930558979062596	-3.2221450342363545e-25
-0.4929948627500096	-2.136484782002109e-25
-0.4929338275937596	-1.0459021414925626e-25
-0.4928727924375096	4.641786237783821e-27
-0.4928117572812596	1.1372319748778193e-25
-0.4927507221250096	2.2233358800803714e-25
-0.4926896869687596	3.301561608077003e-25
-0.4926286518125096	4.368742061915798e-25
-0.4925676166562596	5.42172812866796e-25
-0.4925065815000096	6.45740871021566e-25
-0.4924455463437596	7.472781140261346e-25
-0.4923845111875096	8.464863517217826e-25
-0.4923234760312596	9.430692588188182e-25
-0.4922624408750096	1.0367474612212469e-24
-0.4922014057187596	1.1272468845287216e-24
-0.4921403705625096	1.21429804013308e-24
-0.4920793354062596	1.2976486367737623e-24
-0.4920183002500096	1.3770537792461543e-24
-0.4919572650937596	1.4522789599775467e-24
-0.4918962299375096	1.5231064738604416e-24
-0.4918351947812596	1.5893275838007841e-24
-0.4917741596250096	1.6507478957140096e-24
-0.4917131244687596	1.7071900042219535e-24
-0.4916520893125096	1.7584877644877585e-24
-0.4915910541562596	1.8044914507646953e-24
-0.4915300190000096	1.8450689413243968e-24
-0.4914689838437596	1.8801015961722492e-24
-0.4914079486875096	1.9094879030324518e-24
-0.4913469135312596	1.93314435246545e-24
-0.4912858783750096	1.951003208314764e-24
-0.4912248432187596	1.9630142070316265e-24
-0.4911638080625096	1.969144714482861e-24
-0.4911027729062596	1.969379408660313e-24
-0.4910417377500096	1.9637206244331477e-24
-0.4909807025937596	1.9521878314201562e-24
-0.4909196674375096	1.9348184240491206e-24
-0.4908586322812596	1.911667302252382e-24
-0.4907975971250096	1.882805813051322e-24
-0.4907365619687596	1.8483226028765655e-24
-0.4906755268125096	1.8083238290822883e-24
-0.4906144916562596	1.7629314723060858e-24
-0.4905534565000096	1.7122827529769353e-24
-0.4904924213437596	1.656531912883403e-24
-0.4904313861875096	1.5958481955617642e-24
-0.4903703510312596	1.5304147708381875e-24
-0.4903093158750096	1.4604298800901104e-24
-0.4902482807187596	1.3861042149794015e-24
-0.4901872455625096	1.3076626003659079e-24
-0.4901262104062596	1.2253426461145702e-24
-0.4900651752500096	1.1393909510227338e-24
-0.4900041400937596	1.0500671494640216e-24
-0.4899431049375096	9.57641928121092e-25
-0.4898820697812596	8.623919886456873e-25
-0.4898210346250096	7.646048317157733e-25
-0.4897599994687596	6.64576333081105e-25
-0.4896989643125096	5.626057558551768e-25
-0.4896379291562596	4.590019575995677e-25
-0.4895768940000096	3.540773972657038e-25
-0.4895158588437596	2.4814609938966396e-25
-0.4894548236875096	1.415292216204689e-25
-0.4893937885312596	3.454807270633975e-26
-0.4893327533750096	-7.247581477709354e-26
-0.4892717182187596	-1.7921959458142149e-25
-0.4892106830625096	-2.8536065512397295e-25
-0.4891496479062596	-3.905787104733443e-25
-0.4890886127500096	-4.945578439916614e-25
-0.4890275775937596	-5.969825713118738e-25
-0.4889665424375096	-6.975433780998728e-25
-0.4889055072812596	-7.959384880459162e-25
-0.4888444721250096	-8.918685922170342e-25
-0.4887834369687596	-9.850438133676987e-25
-0.4887224018125096	-1.0751835926733255e-24
-0.4886613666562596	-1.1620136176140155e-24
-0.4886003315000096	-1.2452712924731195e-24
-0.4885392963437596	-1.3247042928870069e-24
-0.4884782611875096	-1.400071643620344e-24
-0.4884172260312596	-1.47114443015541e-24
-0.4883561908750096	-1.5377055698535732e-24
-0.4882951557187596	-1.5995539495546944e-24
-0.4882341205625096	-1.656500339993373e-24
-0.4881730854062596	-1.708369458432403e-24
-0.4881120502500096	-1.7550045080164644e-24
-0.4880510150937596	-1.7962616256318336e-24
-0.4879899799375096	-1.8320125658188795e-24
-0.4879289447812596	-1.862148144677967e-24
-0.4878679096250096	-1.886574230093874e-24
-0.4878068744687596	-1.9052135026766414e-24
-0.4877458393125096	-1.9180071246052685e-24
-0.4876848041562596	-1.9249130493652466e-24
-0.4876237690000096	-1.9259069787797035e-24
-0.4875627338437596	-1.9209826809682328e-24
-0.4875016986875096	-1.910151336270752e-24
-0.4874406635312596	-1.893441774800861e-24
-0.4873796283750096	-1.8709008976145337e-24
-0.4873185932187596	-1.8425931628749672e-24
-0.4872575580625096	-1.80859974392524e-24
-0.4871965229062596	-1.769019484297198e-24
-0.4871354877500096	-1.7239681548087847e-24
-0.4870744525937596	-1.673577414599095e-24
-0.4870134174375096	-1.6179958120724837e-24
-0.4869523822812596	-1.557387131824472e-24
-0.4868913471250096	-1.4919298710037707e-24
-0.4868303119687596	-1.4218182139738138e-24
-0.4867692768125096	-1.347260274211612e-24
-0.4867082416562596	-1.2684765855004827e-24
-0.4866472065000096	-1.1857013408404534e-24
-0.4865861713437596	-1.0991819143564977e-24
-0.4865251361875096	-1.0091744605806727e-24
-0.4864641010312596	-9.15947220127217e-25
-0.4864030658750096	-8.197806915319102e-25
-0.4863420307187596	-7.209597520756515e-25
-0.4862809955625096	-6.197793523659161e-25
-0.4862199604062596	-5.165442307293351e-25
-0.4861589252500096	-4.1156224353985836e-25
-0.4860978900937596	-3.0514775249307377e-25
-0.4860368549375096	-1.9761968790646813e-25
-0.4859758197812596	-8.930086420332481e-26
-0.4859147846250096	1.9483071391179664e-26
-0.4858537494687596	1.2840581608816735e-25
-0.4857927143125096	2.3714007586720656e-25
-0.4857316791562596	3.4535910614892177e-25
-0.4856706440000096	4.527349613454768e-25
-0.4856096088437596	5.589455222404027e-25
-0.4855485736875096	6.636726473677575e-25
-0.4854875385312596	7.665951254480962e-25
-0.4854265033750096	8.674046521535433e-25
-0.4853654682187596	9.657999188798567e-25
-0.4853044330625096	1.0614764388902885e-24
-0.4852433979062596	1.154146413645504e-24
-0.4851823627500096	1.2435329163479556e-24
-0.4851213275937596	1.3293592182159333e-24
-0.4850602924375096	1.4113644162989917e-24
-0.4849992572812596	1.4893024393182535e-24
-0.4849382221250096	1.5629327705329014e-24
-0.4848771869687596	1.6320285645744904e-24
-0.4848161518125096	1.6963809749320003e-24
-0.4847551166562596	1.755792019688096e-24
-0.4846940815000096	1.8100764349488966e-24
-0.4846330463437596	1.8590671814153838e-24
-0.4845720111875096	1.902612890470244e-24
-0.4845109760312596	1.940576957611621e-24
-0.4844499408750096	1.9728392178520712e-24
-0.4843889057187596	1.99929758098707e-24
-0.4843278705625096	2.019867432474893e-24
-0.4842668354062596	2.034480253474139e-24
-0.4842058002500096	2.043086006394373e-24
-0.4841447650937596	2.045653212205322e-24
-0.4840837299375096	2.0421677373563917e-24
-0.4840226947812596	2.0326334565800514e-24
-0.4839616596250096	2.0170723611752312e-24
-0.4839006244687596	1.9955250500135103e-24
-0.4838395893125096	1.9680497201556837e-24
-0.4837785541562596	1.9347215197216483e-24
-0.4837175190000096	1.8956342306785515e-24
-0.4836564838437596	1.8508990133213395e-24
-0.4835954486875096	1.8006428841974865e-24
-0.4835344135312596	1.745009852201412e-24
-0.4834733783750096	1.68416080663624e-24
-0.4834123432187596	1.6182718849148834e-24
-0.4833513080625096	1.5475338090211749e-24
-0.4832902729062596	1.4721525051364916e-24
-0.4832292377500096	1.3923480226977265e-24
-0.4831682025937596	1.3083535541538746e-24
-0.4831071674375096	1.2204148469408681e-24
-0.4830461322812596	1.1287896649973044e-24
-0.4829850971250096	1.0337470084336285e-24
-0.4829240619687596	9.355658039017864e-25
-0.4828630268125096	8.34535990488088e-25
-0.4828019916562596	7.309545385711994e-25
-0.4827409565000096	6.25125617504821e-25
-0.4826799213437596	5.173632633099834e-25
-0.4826188861875096	4.079854126847417e-25
-0.4825578510312596	2.973143825054606e-25
-0.4824968158750096	1.8567747529634763e-25
-0.4824357807187596	7.34057115328447e-26
-0.4823747455625096	-3.916830732945411e-26
-0.4823137104062596	-1.5171235234328622e-25
-0.4822526752500096	-2.638920510727751e-25
-0.4821916400937596	-3.7537453108324795e-25
-0.4821306049375096	-4.858293811008215e-25
-0.4820695697812596	-5.949291734177694e-25
-0.4820085346250096	-7.023496152191967e-25
-0.4819474994687596	-8.077704656265127e-25
-0.4818864643125096	-9.108806551875688e-25
-0.4818254291562596	-1.0113729090874615e-24
-0.4817643940000096	-1.1089464364464215e-24
-0.4817033588437596	-1.2033134659850629e-24
-0.4816423236875096	-1.2941930364887242e-24
-0.4815812885312596	-1.3813130373076708e-24
-0.4815202533750096	-1.4644147979458875e-24
-0.4814592182187596	-1.5432513289397493e-24
-0.4813981830625096	-1.6175877551766306e-24
-0.4813371479062596	-1.687201980570764e-24
-0.4812761127500096	-1.7518867244527366e-24
-0.4812150775937596	-1.8114495404671607e-24
-0.4811540424375096	-1.8657122367831682e-24
-0.4810930072812596	-1.9145139395153332e-24
-0.4810319721250096	-1.9577087589015642e-24
-0.4809709369687596	-1.9951667335729394e-24
-0.4809099018125096	-2.0267778800894322e-24
-0.4808488666562596	-2.0524477461357722e-24
-0.4807878315000096	-2.072098435760388e-24
-0.4807267963437596	-2.085672601326284e-24
-0.4806657611875096	-2.0931301065080415e-24
-0.4806047260312596	-2.094447929534461e-24
-0.4805436908750096	-2.0896228725262233e-24
-0.4804826557187596	-2.0786699834156694e-24
-0.4804216205625096	-2.0616214862457227e-24
-0.4803605854062596	-2.0385291098825784e-24
-0.4802995502500096	-2.0094627417772387e-24
-0.4802385150937596	-1.9745085020900133e-24
-0.4801774799375096	-1.933772045418607e-24
-0.4801164447812596	-1.8873763756862705e-24
-0.4800554096250096	-1.8354591167641074e-24
-0.4799943744687596	-1.778176962293514e-24
-0.4799333393125096	-1.7157027541159115e-24
-0.4798723041562596	-1.6482224548365556e-24
-0.4798112690000096	-1.5759392282887196e-24
-0.4797502338437596	-1.4990706351615413e-24
-0.4796891986875096	-1.4178467402888939e-24
-0.4796281635312596	-1.3325119418445737e-24
-0.4795671283750096	-1.2433219954332453e-24
-0.4795060932187596	-1.1505448764545293e-24
-0.4794450580625096	-1.0544602259140352e-24
-0.4793840229062596	-9.553548784472864e-25
-0.4793229877500096	-8.535274729953112e-25
-0.4792619525937596	-7.492850560560907e-25
-0.4792009174375096	-6.429382739302316e-25
-0.4791398822812596	-5.348086005587732e-25
-0.4790788471250096	-4.252209574516079e-25
-0.4790178119687596	-3.1450297535739606e-25
-0.4789567768125096	-2.0298995781431802e-25
-0.4788957416562596	-9.101470544440402e-26
-0.4788347065000096	2.108609036421918e-26
-0.4787736713437596	1.3297261294085409e-25
-0.4787126361875096	2.4431198861839615e-25
-0.4786516010312596	3.5476874420420205e-25
-0.4785905658750096	4.640090883735782e-25
-0.4785295307187596	5.71706621391631e-25
-0.4784684955625096	6.775369023114318e-25
-0.4784074604062596	7.811818482610245e-25
-0.4783464252500096	8.823301852721686e-25
-0.4782853900937596	9.80677456281175e-25
-0.4782243549375096	1.0759286848741172e-24
-0.4781633197812596	1.1677977624528698e-24
-0.4781022846250096	1.256008329887488e-24
-0.4780412494687596	1.3402953450829047e-24
-0.4779802143125096	1.4204066107874355e-24
-0.4779191791562596	1.4961014233501585e-24
-0.4778581440000096	1.5671516607259027e-24
-0.4777971088437596	1.6333454719400423e-24
-0.4777360736875096	1.694484979807013e-24
-0.4776750385312596	1.7503857010483864e-24
-0.4776140033750096	1.800880972207779e-24
-0.4775529682187596	1.8458208178652203e-24
-0.4774919330625096	1.8850703298679878e-24
-0.4774308979062596	1.918513080512238e-24
-0.4773698627500096	1.9460502588538546e-24
-0.4773088275937596	1.9675998833591342e-24
-0.4772477924375096	1.98309947929804e-24
-0.4771867572812596	1.9925044503844537e-24
-0.4771257221250096	1.9957879047025284e-24
-0.4770646869687596	1.9929426182951488e-24
-0.4770036518125096	1.983979693132858e-24
-0.4769426166562596	1.968928320730331e-24
-0.4768815815000096	1.9478365315663405e-24
-0.4768205463437596	1.9207708880895824e-24
-0.4767595111875096	1.8878161683914352e-24
-0.4766984760312596	1.8490743543735724e-24
-0.4766374408750096	1.8046651169998488e-24
-0.4765764057187596	1.7547272138226385e-24
-0.4765153705625096	1.6994140067325595e-24
-0.4764543354062596	1.6388945235229913e-24
-0.4763933002500096	1.5733578741295717e-24
-0.4763322650937596	1.5030046849640116e-24
-0.4762712299375096	1.4280490978451014e-24
-0.4762101947812596	1.348725107341909e-24
-0.4761491596250096	1.2652754907975887e-24
-0.4760881244687596	1.1779536661066093e-24
-0.4760270893125096	1.0870313952596666e-24
-0.4759660541562596	9.92787797376515e-25
-0.4759050190000096	8.955093180895782e-25
-0.4758439838437596	7.954969215439965e-25
-0.4757829486875096	6.9305820416885445e-25
-0.4757219135312596	5.885064002051017e-25
-0.4756608783750096	4.821629716452896e-25
-0.4755998432187596	3.7435437401491843e-25
-0.4755388080625096	2.654128521901054e-25
-0.4754777729062596	1.5567267327930964e-25
-0.4754167377500096	4.546951574373716e-26
-0.4753557025937596	-6.485550064752612e-26
-0.4752946674375096	-1.7496370344771662e-25
-0.4752336322812596	-2.8451805792592804e-25
-0.4751725971250096	-3.931792723589621e-25
-0.4751115619687596	-5.006139214331033e-25
-0.4750505268125096	-6.0649179719411605e-25
-0.4749894916562596	-7.104855190003749e-25
-0.4749284565000096	-8.122747770337544e-25
-0.4748674213437596	-9.115460420082793e-25
-0.4748063861875096	-1.007993582648215e-24
-0.4747453510312596	-1.101318294062214e-24
-0.4746843158750096	-1.1912320167309468e-24
-0.4746232807187596	-1.277457537191505e-24
-0.4745622455625096	-1.3597273593346798e-24
-0.4745012104062596	-1.4377869152609444e-24
-0.4744401752500096	-1.5113932078051774e-24
-0.4743791400937596	-1.5803183539327574e-24
-0.4743181049375096	-1.6443483812902606e-24
-0.4742570697812596	-1.7032823966322078e-24
-0.4741960346250096	-1.7569374242472147e-24
-0.4741349994687596	-1.805145223839702e-24
-0.4740739643125096	-1.847753912248152e-24
-0.4740129291562596	-1.884630110661994e-24
-0.4739518940000096	-1.915656146752104e-24
-0.4738908588437596	-1.940732857229006e-24
-0.4738298236875096	-1.959780159492688e-24
-0.4737687885312596	-1.972735105210732e-24
-0.4737077533750096	-1.9795535470139158e-24
-0.4736467182187596	-1.980210750885547e-24
-0.4735856830625096	-1.974700406731783e-24
-0.4735246479062596	-1.963034943686017e-24
-0.4734636127500096	-1.9452458674812726e-24
-0.4734025775937596	-1.921383277929731e-24
-0.4733415424375096	-1.8915159440586302e-24
-0.4732805072812596	-1.855731424206675e-24
-0.4732194721250096	-1.814134632281636e-24
-0.4731584369687596	-1.7668485236337966e-24
-0.4730974018125096	-1.714014905271516e-24
-0.4730363666562596	-1.655790700205402e-24
-0.4729753315000096	-1.5923495981401548e-24
-0.4729142963437596	-1.5238835763026152e-24
-0.4728532611875096	-1.4505977139266257e-24
-0.4727922260312596	-1.3727122379600547e-24
-0.4727311908750096	-1.2904634461770979e-24
-0.4726701557187596	-1.2040988351645142e-24
-0.4726091205625096	-1.11387934029181e-24
-0.4725480854062596	-1.0200798912246212e-24
-0.4724870502500096	-9.22983826504119e-25
-0.4724260150937596	-8.228843192137187e-25
-0.4723649799375096	-7.200875569581807e-25
-0.4723039447812596	-6.149065270973163e-25
-0.4722429096250096	-5.076583333779051e-25
-0.4721818744687596	-3.986710509365268e-25
-0.4721208393125096	-2.882787262296823e-25
-0.4720598041562596	-1.7681459038285217e-25
-0.4719987690000096	-6.462019730444106e-26
-0.4719377338437596	4.795999792168048e-26
-0.4718766986875096	1.6058541582530257e-25
-0.4718156635312596	2.729091225679122e-25
-0.4717546283750096	3.845868775065022e-25
