Time	Frequency
-0.5000128740937555	-3.431093936758405e-24
-0.4999518389375055	-3.3711205685891226e-24
-0.4998908037812555	-3.3058429460117615e-24
-0.4998297686250055	-3.2353625232748807e-24
-0.4997687334687555	-3.1597923451519677e-24
-0.4997076983125055	-3.0792534764473386e-24
-0.4996466631562555	-2.9938721371923784e-24
-0.4995856280000055	-2.9037857691879477e-24
-0.4995245928437555	-2.8091378251578912e-24
-0.4994635576875055	-2.710078808603426e-24
-0.4994025225312555	-2.606767245868485e-24
-0.4993414873750055	-2.4993673304944734e-24
-0.4992804522187555	-2.388052293625077e-24
-0.4992194170625055	-2.272997803779442e-24
-0.4991583819062555	-2.1543893903857787e-24
-0.4990973467500055	-2.0324177015699485e-24
-0.4990363115937555	-1.907274007400344e-24
-0.4989752764375055	-1.7791630222400577e-24
-0.4989142412812555	-1.6482889934618685e-24
-0.4988532061250055	-1.514858427427584e-24
-0.4987921709687555	-1.3790885820767126e-24
-0.4987311358125055	-1.241196815578167e-24
-0.4986701006562555	-1.1014023821644843e-24
-0.4986090655000055	-9.599306660533064e-25
-0.4985480303437555	-8.170086907819197e-25
-0.4984869951875055	-6.72865767993427e-25
-0.4984259600312555	-5.27733985714133e-25
-0.4983649248750055	-3.8184399863897614e-25
-0.4983038897187555	-2.3543246407125095e-25
-0.4982428545625055	-8.873609301761612e-26
-0.4981818194062555	5.801508431259497e-26
-0.4981207842500055	2.0457969546397662e-25
-0.4980597490937555	3.5072179009262267e-25
-0.4979987139375055	4.962133754348462e-25
-0.4979376787812555	6.40811529726132e-25
-0.4978766436250055	7.842870818926166e-25
-0.4978156084687555	9.26413925273974e-25
-0.4977545733125055	1.0669547245610969e-24
-0.4976935381562555	1.2056877875156365e-24
-0.4976325030000055	1.3423916468511445e-24
-0.4975714678437555	1.4768419002312645e-24
-0.4975104326875055	1.6088227721031746e-24
-0.4974493975312555	1.7381241618878588e-24
-0.4973883623750055	1.864536314732319e-24
-0.4973273272187555	1.987852406043721e-24
-0.4972662920625055	2.10787817609689e-24
-0.4972052569062555	2.224418482757479e-24
-0.4971442217500055	2.3372830591651482e-24
-0.4970831865937555	2.4462925771596722e-24
-0.4970221514375055	2.5512699724479356e-24
-0.4969611162812555	2.6520459782865716e-24
-0.4969000811250055	2.7484574236749682e-24
-0.4968390459687555	2.840349079755642e-24
-0.4967780108125055	2.9275722452513213e-24
-0.4967169756562555	3.009986442668625e-24
-0.4966559405000055	3.0874581131359307e-24
-0.4965949053437555	3.159861107856161e-24
-0.4965338701875055	3.2270810664290713e-24
-0.4964728350312555	3.2890064597466724e-24
-0.4964117998750055	3.3455378389272845e-24
-0.4963507647187555	3.396585862187046e-24
-0.4962897295625055	3.442064671766084e-24
-0.4962286944062555	3.481902707380584e-24
-0.4961676592500055	3.516035952827117e-24
-0.4961066240937555	3.5444070708466544e-24
-0.4960455889375055	3.56697186559108e-24
-0.4959845537812555	3.5836937488464465e-24
-0.4959235186250055	3.594544591249425e-24
-0.4958624834687555	3.599507582461766e-24
-0.4958014483125055	3.598574907258894e-24
-0.4957404131562555	3.59174767239683e-24
-0.4956793780000055	3.579036856248575e-24
-0.4956183428437555	3.560463645193295e-24
-0.4955573076875055	3.536058112616971e-24
-0.4954962725312555	3.50585922597543e-24
-0.4954352373750055	3.4699168810154905e-24
-0.4953742022187555	3.428289386907725e-24
-0.4953131670625055	3.381043480249072e-24
-0.4952521319062555	3.328257110232797e-24
-0.4951910967500055	3.270015780897772e-24
-0.4951300615937555	3.2064130259620705e-24
-0.4950690264375055	3.137554162924353e-24
-0.4950079912812555	3.0635504370276873e-24
-0.4949469561250055	2.984520326306833e-24
-0.4948859209687555	2.900596135771529e-24
-0.4948248858125055	2.8119122588075416e-24
-0.4947638506562555	2.718610953542515e-24
-0.4947028155000055	2.6208494786579733e-24
-0.4946417803437555	2.5187828324086073e-24
-0.4945807451875055	2.412577048138183e-24
-0.4945197100312555	2.302409263803888e-24
-0.4944586748750055	2.1884544635335687e-24
-0.4943976397187555	2.0709003776962323e-24
-0.4943366045625055	1.9499405066948952e-24
-0.4942755694062555	1.8257682547334286e-24
-0.4942145342500055	1.698588254697461e-24
-0.4941534990937555	1.5686106257449757e-24
-0.4940924639375055	1.4360429205194372e-24
-0.4940314287812555	1.3011026170744214e-24
-0.4939703936250055	1.1640143701628544e-24
-0.4939093584687555	1.0249978325526838e-24
-0.4938483233125055	8.842794891632678e-25
-0.4937872881562555	7.420936345352002e-25
-0.4937262530000055	5.986713083255866e-25
-0.4936652178437555	4.5424336642090425e-25
-0.4936041826875055	3.090506759298449e-25
-0.4935431475312555	1.633315403140939e-25
-0.4934821123750055	1.7319555576165456e-26
-0.4934210772187555	-1.2874227661713687e-25
-0.4933600420625055	-2.7461421839305747e-25
-0.4932990069062555	-4.200586408216452e-25
-0.4932379717500055	-5.648367258768626e-25
-0.4931769365937555	-7.087122503165121e-25
-0.4931159014375055	-8.514438448343964e-25
-0.4930548662812555	-9.928019063884972e-25
-0.4929938311250055	-1.1325572155938546e-24
-0.4929327959687555	-1.2704690435104151e-24
-0.4928717608125055	-1.4063189217108324e-24
-0.4928107256562555	-1.5398863897793734e-24
-0.4927496905000055	-1.6709402476429424e-24
-0.4926886553437555	-1.7992721423868974e-24
-0.4926276201875055	-1.924673086856054e-24
-0.4925665850312555	-2.0469278055788937e-24
-0.4925055498750055	-2.1658391185295184e-24
-0.4924445147187555	-2.2812136209027013e-24
-0.4923834795625055	-2.392853724699637e-24
-0.4923224444062555	-2.5005779912397827e-24
-0.4922614092500055	-2.6042107222070238e-24
-0.4922003740937555	-2.7035741908640313e-24
-0.4921393389375055	-2.7985067283914317e-24
-0.4920783037812555	-2.888852244650047e-24
-0.4920172686250055	-2.9744554400056436e-24
-0.4919562334687555	-3.0551770103878817e-24
-0.4918951983125055	-3.130882604565147e-24
-0.4918341631562555	-3.2014421417345255e-24
-0.4917731280000055	-3.266740144785857e-24
-0.4917120928437555	-3.326666238919893e-24
-0.4916510576875055	-3.381117922419159e-24
-0.4915900225312555	-3.4300042445339855e-24
-0.4915289873750055	-3.4732419484730026e-24
-0.4914679522187555	-3.510756115959999e-24
-0.4914069170625055	-3.5424825626723985e-24
-0.4913458819062555	-3.5683666364870026e-24
-0.4912848467500055	-3.588361240156775e-24
-0.4912238115937555	-3.602431026468083e-24
-0.4911627764375055	-3.610549644083893e-24
-0.4911017412812555	-3.6126994617072285e-24
-0.4910407061250055	-3.608874227052006e-24
-0.4909796709687555	-3.599076266288193e-24
-0.4909186358125055	-3.583317780414187e-24
-0.4908576006562555	-3.561621565783874e-24
-0.4907965655000055	-3.5340190247722804e-24
-0.4907355303437555	-3.5005517082877226e-24
-0.4906744951875055	-3.461271349530987e-24
-0.4906134600312555	-3.416237959190931e-24
-0.4905524248750055	-3.365521944700171e-24
-0.4904913897187555	-3.309202943829597e-24
-0.4904303545625055	-3.247369368984023e-24
-0.4903693194062555	-3.1801189853302863e-24
-0.4903082842500055	-3.1075581188394242e-24
-0.4902472490937555	-3.029802935855582e-24
-0.4901862139375055	-2.9469766223842698e-24
-0.4901251787812555	-2.859210742753219e-24
-0.4900641436250055	-2.766647762609479e-24
-0.4900031084687555	-2.6694347104591416e-24
-0.4899420733125055	-2.5677256839839606e-24
-0.4898810381562555	-2.4616880580089828e-24
-0.4898200030000055	-2.3514909529200043e-24
-0.4897589678437555	-2.2373077143893812e-24
-0.4896979326875055	-2.1193290373766845e-24
-0.4896368975312555	-1.997743107014875e-24
-0.4895758623750055	-1.8727405002031724e-24
-0.4895148272187555	-1.7445327681830964e-24
-0.4894537920625055	-1.6133229016014417e-24
-0.4893927569062555	-1.4793180794759119e-24
-0.4893317217500055	-1.3427456314524936e-24
-0.4892706865937555	-1.203821316361727e-24
-0.4892096514375055	-1.0627671858494983e-24
-0.4891486162812555	-9.198200511624957e-25
-0.4890875811250055	-7.752077704070701e-25
-0.4890265459687555	-6.291630318889016e-25
-0.4889655108125055	-4.819288239738126e-25
-0.4889044756562555	-3.3374247686399845e-25
-0.4888434405000055	-1.8484207565797146e-25
-0.4887824053437555	-3.54750348133175e-26
-0.4887213701875055	1.141161073745869e-25
-0.4886603350312555	2.6369110455302027e-25
-0.4885992998750055	4.130014194729293e-25
-0.4885382647187555	5.618045271514864e-25
-0.4884772295625055	7.098597822353008e-25
-0.4884161944062555	8.56921003886287e-25
-0.4883551592500055	1.0027503503168096e-24
-0.4882941240937555	1.1471105698728362e-24
-0.4882330889375055	1.2897605704784071e-24
-0.4881720537812555	1.4304706743447629e-24
-0.4881110186250055	1.5690103820689563e-24
-0.4880499834687555	1.7051484360919865e-24
-0.4879889483125055	1.8386664132820058e-24
-0.4879279131562555	1.9693421063925297e-24
-0.4878668780000055	2.096959649397781e-24
-0.4878058428437555	2.2213140886931624e-24
-0.4877448076875055	2.3421956286422357e-24
-0.4876837725312555	2.459406425793437e-24
-0.4876227373750055	2.572757012490555e-24
-0.4875617022187555	2.6820552779547108e-24
-0.4875006670625055	2.7871225422631018e-24
-0.4874396319062555	2.8877884247866423e-24
-0.4873785967500055	2.9838819389800285e-24
-0.4873175615937555	3.0752446645876506e-24
-0.4872565264375055	3.1617285751535514e-24
-0.4871954912812555	3.2431871256962497e-24
-0.4871344561250055	3.319483988458757e-24
-0.4870734209687555	3.39049523043829e-24
-0.4870123858125055	3.456100845175296e-24
-0.4869513506562555	3.516189849686509e-24
-0.4868903155000055	3.570663857489573e-24
-0.4868292803437555	3.6194299121750076e-24
-0.4867682451875055	3.6624053964085756e-24
-0.4867072100312555	3.699518735940036e-24
-0.4866461748750055	3.730705493991035e-24
-0.4865851397187555	3.755912135942136e-24
-0.4865241045625055	3.7750951381281786e-24
-0.4864630694062555	3.788220291506709e-24
-0.4864020342500055	3.795263160114098e-24
-0.4863409990937555	3.796209532243448e-24
-0.4862799639375055	3.79105532199975e-24
-0.4862189287812555	3.779806030211085e-24
-0.4861578936250055	3.762477438704473e-24
-0.4860968584687555	3.739094760088189e-24
-0.4860358233125055	3.709693971212017e-24
-0.4859747881562555	3.6743205163650345e-24
-0.4859137530000055	3.6330287336935265e-24
-0.4858527178437555	3.58588448306046e-24
-0.4857916826875055	3.532961864920671e-24
-0.4857306475312555	3.474344515327572e-24
-0.4856696123750055	3.4101263659325766e-24
-0.4856085772187555	3.340409177270295e-24
-0.4855475420625055	3.2653056709591382e-24
-0.4854865069062555	3.1849353507788592e-24
-0.4854254717500055	3.0994263662890613e-24
-0.4853644365937555	3.0089196657807597e-24
-0.4853034014375055	2.9135580198290344e-24
-0.4852423662812555	2.8134941975500465e-24
-0.4851813311250055	2.7088948831409578e-24
-0.4851202959687555	2.5999246574778676e-24
-0.4850592608125055	2.4867594947588657e-24
-0.4849982256562555	2.369587230039014e-24
-0.4849371905000055	2.248593117985456e-24
-0.4848761553437555	2.1239744750072017e-24
-0.4848151201875055	1.9959359903705274e-24
-0.4847540850312555	1.864682646298259e-24
-0.4846930498750055	1.7304282989947877e-24
-0.4846320147187555	1.5933922674426417e-24
-0.4845709795625055	1.453797517116984e-24
-0.4845099444062555	1.3118695000739284e-24
-0.4844489092500055	1.1678401650951138e-24
-0.4843878740937555	1.0219456097638762e-24
-0.4843268389375055	8.744216715301002e-25
-0.4842658037812555	7.255087858522071e-25
-0.4842047686250055	5.75451127741994e-25
-0.4841437334687555	4.244936791450798e-25
-0.4840826983125055	2.728809422337392e-25
-0.4840216631562555	1.2086132250853308e-25
-0.4839606280000055	-3.131514633586527e-26
-0.4838995928437555	-1.8340190617009041e-25
-0.4838385576875055	-3.3515043753183494e-25
-0.4837775225312555	-4.863113173710075e-25
-0.4837164873750055	-6.366376539046817e-25
-0.4836554522187555	-7.858838870651887e-25
-0.4835944170625055	-9.338067664832178e-25
-0.4835333819062555	-1.0801617973241973e-24
-0.4834723467500055	-1.2247102456684996e-24
-0.4834113115937555	-1.3672182183390684e-24
-0.4833502764375055	-1.5074470876027958e-24
-0.4832892412812555	-1.6451700041705604e-24
-0.4832282061250055	-1.780163835675853e-24
-0.4831671709687555	-1.9122008037800825e-24
-0.4831061358125055	-2.0410690109020163e-24
-0.4830451006562555	-2.166558401995429e-24
-0.4829840655000055	-2.2884574663372323e-24
-0.4829230303437555	-2.406570529839201e-24
-0.4828619951875055	-2.520704307336688e-24
-0.4828009600312555	-2.6306675859259378e-24
-0.4827399248750055	-2.736282245451373e-24
-0.4826788897187555	-2.8373761469476166e-24
-0.4826178545625055	-2.933780545877594e-24
-0.4825568194062555	-3.025337217386398e-24
-0.4824957842500055	-3.111898422358623e-24
-0.4824347490937555	-3.193319921623058e-24
-0.4823737139375055	-3.2694666551234935e-24
-0.4823126787812555	-3.3402161516209335e-24
-0.4822516436250055	-3.405451074067708e-24
-0.4821906084687555	-3.465062996047135e-24
-0.4821295733125055	-3.518955535130946e-24
-0.4820685381562555	-3.567039365133031e-24
-0.4820075030000055	-3.609235211174214e-24
-0.4819464678437555	-3.645474487608339e-24
-0.4818854326875055	-3.675696729526359e-24
-0.4818243975312555	-3.699852798845431e-24
-0.4817633623750055	-3.7179034140015604e-24
-0.4817023272187555	-3.729818169218282e-24
-0.4816412920625055	-3.735578094893718e-24
-0.4815802569062555	-3.7351740330181136e-24
-0.4815192217500055	-3.728606605449444e-24
-0.4814581865937555	-3.715887069700703e-24
-0.4813971514375055	-3.697036264499348e-24
-0.4813361162812555	-3.672086190021578e-24
-0.4812750811250055	-3.641078058667293e-24
-0.4812140459687555	-3.604062841293272e-24
-0.4811530108125055	-3.561102895546331e-24
-0.4810919756562555	-3.5122687213139415e-24
-0.4810309405000055	-3.457641795951802e-24
-0.4809699053437555	-3.397312856159929e-24
-0.4809088701875055	-3.331380738135282e-24
-0.4808478350312555	-3.259956766481058e-24
-0.4807867998750055	-3.1831586724190323e-24
-0.4807257647187555	-3.101112114414827e-24
-0.4806647295625055	-3.013956064900664e-24
-0.4806036944062555	-2.9218342498847617e-24
-0.4805426592500055	-2.824897455074914e-24
-0.4804816240937555	-2.7233097784071715e-24
-0.4804205889375055	-2.6172387160787956e-24
-0.4803595537812555	-2.506858167878117e-24
-0.4802985186250055	-2.3923554927020702e-24
-0.4802374834687555	-2.273918614924753e-24
-0.4801764483125055	-2.151742666718234e-24
-0.4801154131562555	-2.0260349155169835e-24
-0.4800543780000055	-1.8970011678192065e-24
-0.4799933428437555	-1.7648555977657177e-24
-0.4799323076875055	-1.6298211837575071e-24
-0.4798712725312555	-1.4921195832371921e-24
-0.4798102373750055	-1.3519795903472765e-24
-0.4797492022187555	-1.2096371930987436e-24
-0.4796881670625055	-1.0653285916215364e-24
-0.4796271319062555	-9.192907999434435e-25
-0.4795660967500055	-7.7176933218449105e-25
-0.4795050615937555	-6.2301451012981995e-25
-0.4794440264375055	-4.7326523517155005e-25
-0.4793829912812555	-3.227746458671758e-25
-0.4793219561250055	-1.718013102226666e-25
-0.4792609209687555	-2.0583554134857047e-26
-0.4791998858125055	1.3061838666060469e-25
-0.4791388506562555	2.8154870012305963e-25
-0.4790778155000055	4.319661438243756e-25
-0.4790167803437555	5.8161078529474725e-25
-0.4789557451875055	7.302343867351368e-25
-0.4788947100312555	8.775921273356727e-25
-0.4788336748750055	1.0234336338828184e-24
-0.4787726397187555	1.167516604383707e-24
-0.4787116045625055	1.3096009205324715e-24
-0.4786505694062555	1.449447789852054e-24
-0.4785895342500055	1.5868214962316048e-24
-0.4785284990937555	1.721496102852204e-24
-0.4784674639375055	1.8532431904740112e-24
-0.4784064287812555	1.9818388171329385e-24
-0.4783453936250055	2.1070752768930435e-24
-0.4782843584687555	2.2287361532901543e-24
-0.4782233233125055	2.346615781660187e-24
-0.4781622881562555	2.460523603261279e-24
-0.4781012530000055	2.570261465402513e-24
-0.4780402178437555	2.6756454666933532e-24
-0.4779791826875055	2.776501590388531e-24
-0.4779181475312555	2.8726570244265726e-24
-0.4778571123750055	2.963950370737564e-24
-0.4777960772187555	3.0502264644780726e-24
-0.4777350420625055	3.1313414563935135e-24
-0.4776740069062555	3.2071578113207728e-24
-0.4776129717500055	3.2775433593364103e-24
-0.4775519365937555	3.342383688626439e-24
-0.4774909014375055	3.401566805927825e-24
-0.4774298662812555	3.454988580865848e-24
-0.4773688311250055	3.502562562160826e-24
-0.4773077959687555	3.544204703745236e-24
-0.4772467608125055	3.579842143949226e-24
-0.4771857256562555	3.609416076139175e-24
-0.4771246905000055	3.632872562854081e-24
-0.4770636553437555	3.6501702486087725e-24
-0.4770026201875055	3.661279614620167e-24
-0.4769415850312555	3.6661781655219904e-24
-0.4768805498750055	3.664855547874497e-24
-0.4768195147187555	3.657312467719418e-24
-0.4767584795625055	3.643558694035178e-24
-0.4766974444062555	3.623614562048931e-24
-0.4766364092500055	3.5975111939741114e-24
-0.4765753740937555	3.565290706028108e-24
-0.4765143389375055	3.52700353624926e-24
-0.4764533037812555	3.482710938504025e-24
-0.4763922686250055	3.4324869988543594e-24
-0.4763312334687555	3.3764112342167116e-24
-0.4762701983125055	3.314574355145199e-24
-0.4762091631562555	3.2470813372032215e-24
-0.4761481280000055	3.174039389792209e-24
-0.4760870928437555	3.095567780922208e-24
-0.4760260576875055	3.011800654228473e-24
-0.4759650225312555	2.92287111878161e-24
-0.4759039873750055	2.828925497287061e-24
-0.4758429522187555	2.730125150262617e-24
-0.4757819170625055	2.6266273348774194e-24
-0.4757208819062555	2.5186027749264583e-24
-0.4756598467500055	2.406237370746025e-24
-0.4755988115937555	2.2897115267327262e-24
-0.4755377764375055	2.1692172074590593e-24
-0.4754767412812555	2.0449613907581565e-24
-0.4754157061250055	1.9171450017869253e-24
-0.4753546709687555	1.7859800977019912e-24
-0.4752936358125055	1.6516902832434961e-24
-0.4752326006562555	1.5144932694509986e-24
-0.4751715655000055	1.3746198556090059e-24
-0.4751105303437555	1.2323056061212978e-24
-0.4750494951875055	1.087782869726735e-24
-0.4749884600312555	9.412964839886713e-25
-0.4749274248750055	7.930912956765336e-25
-0.4748663897187555	6.43410514938533e-25
-0.4748053545625055	4.925097258572948e-25
-0.4747443194062555	3.4063954866269893e-25
-0.4746832842500055	1.8804863036699097e-25
-0.4746222490937555	3.5001632766065137e-26
-0.4745612139375055	-1.1824911303163322e-25
-0.4745001787812555	-2.7145340681090924e-25
-0.4744391436250055	-4.243437065238332e-25
-0.4743781084687555	-5.76667012439252e-25
-0.4743170733125055	-7.281745999689545e-25
-0.4742560381562555	-8.786031251388935e-25
-0.4741950030000055	-1.0277016210185332e-24
-0.4741339678437555	-1.175225582909807e-24
-0.4740729326875055	-1.320919738632127e-24
-0.4740118975312555	-1.4645405951470724e-24
-0.4739508623750055	-1.6058505591024353e-24
-0.4738898272187555	-1.744606007183276e-24
-0.4738287920625055	-1.8805748332790485e-24
-0.4737677569062555	-2.0135302444773627e-24
-0.4737067217500055	-2.143243872425648e-24
-0.4736456865937555	-2.269497540623617e-24
-0.4735846514375055	-2.3920806206704804e-24
-0.4735236162812555	-2.510781888056079e-24
-0.4734625811250055	-2.6254002951882644e-24
-0.4734015459687555	-2.7357462131731716e-24
-0.4733405108125055	-2.841626628658758e-24
-0.4732794756562555	-2.942862827596377e-24
-0.4732184405000055	-3.039287189290938e-24
-0.4731574053437555	-3.1307284438195238e-24
-0.4730963701875055	-3.2170343845543716e-24
-0.4730353350312555	-3.2980591339863417e-24
-0.4729742998750055	-3.373658828832987e-24
-0.4729132647187555	-3.443707765330984e-24
-0.4728522295625055	-3.50808470046035e-24
-0.4727911944062555	-3.566676623306924e-24
-0.4727301592500055	-3.619384212638045e-24
-0.4726691240937555	-3.666114729751087e-24
-0.4726080889375055	-3.706786101343441e-24
-0.4725470537812555	-3.741327517480552e-24
-0.4724860186250055	-3.76967716794456e-24
-0.4724249834687555	-3.7917836380225176e-24
-0.4723639483125055	-3.807606622876927e-24
-0.4723029131562555	-3.817116132746572e-24
-0.4722418780000055	-3.820292046571007e-24
-0.4721808428437555	-3.817125576799798e-24
-0.4721198076875055	-3.8076185763393e-24
-0.4720587725312555	-3.791782836201589e-24
-0.4719977373750055	-3.7696413153398024e-24
-0.4719367022187555	-3.741227805414229e-24
-0.4718756670625055	-3.706585520830651e-24
-0.4718146319062555	-3.665769145890474e-24
-0.4717535967500055	-3.618843991536765e-24
-0.4716925615937555	-3.5658840715901466e-24
