Time	Frequency
-0.5000257490312521	-0.39121192357738716
-0.4999647138750021	-0.38823865250646267
-0.4999036787187521	-0.38462555206540766
-0.4998426435625021	-0.3803784994598593
-0.4997816084062521	-0.3755043699251982
-0.4997205732500021	-0.37001110087019956
-0.4996595380937521	-0.36390765623461513
-0.4995985029375021	-0.3572039594708133
-0.4995374677812521	-0.3499110246986715
-0.4994764326250021	-0.3420407044712502
-0.4994153974687521	-0.33360589379811956
-0.4993543623125021	-0.324620541656991
-0.4992933271562521	-0.3150991183725664
-0.4992322920000021	-0.3050573884780801
-0.4991712568437521	-0.29451201014282274
-0.4991102216875021	-0.2834798876900984
-0.4990491865312521	-0.27197939506178903
-0.4989881513750021	-0.26002956936483795
-0.4989271162187521	-0.24764969897894268
-0.4988660810625021	-0.23486040208024736
-0.4988050459062521	-0.22168271027901817
-0.4987440107500021	-0.2081381684637268
-0.4986829755937521	-0.19424927852854845
-0.4986219404375021	-0.18003874570951559
-0.4985609052812521	-0.16553008008270073
-0.4984998701250021	-0.1507473083720224
-0.4984388349687521	-0.13571450462762633
-0.4983777998125021	-0.1204567566368508
-0.4983167646562521	-0.10499929703963792
-0.4982557295000021	-0.08936720709235868
-0.4981946943437521	-0.07358682224452281
-0.4981336591875021	-0.05768413521557745
-0.4980726240312521	-0.04168482800028504
-0.4980115888750021	-0.02561624740081041
-0.4979505537187521	-0.009504683840645524
-0.4978895185625021	0.006623970202882958
-0.4978284834062521	0.02274186649751195
-0.4977674482500021	0.038822646349965975
-0.4977064130937521	0.054840483104455356
-0.4976453779375021	0.0707677805355014
-0.4975843427812521	0.0865783856446896
-0.4975233076250021	0.10224664942098523
-0.4974622724687521	0.11774590099930458
-0.4974012373125021	0.13305064393163157
-0.4973402021562521	0.14813559461346082
-0.4972791670000021	0.16297549445527218
-0.4972181318437521	0.17754576056509908
-0.4971570966875021	0.19182213883348467
-0.4970960615312521	0.20578094898820157
-0.4970350263750021	0.21939873090505208
-0.4969739912187521	0.23265306359783383
-0.4969129560625021	0.24552180678458418
-0.4968519209062521	0.25798315992854354
-0.4967908857500021	0.27001679975555043
-0.4967298505937521	0.28160242988632167
-0.4966688154375021	0.2927204646483249
-0.4966077802812521	0.3033526245980531
-0.4965467451250021	0.31348102460658755
-0.4964857099687521	0.32308850985238996
-0.4964246748125021	0.33215909755754924
-0.4963636396562521	0.3406776414038309
-0.4963026045000021	0.348629564094118
-0.4962415693437521	0.3560015858328681
-0.4961805341875021	0.36278137699144775
-0.4961194990312521	0.3689572393061589
-0.4960584638750021	0.3745187871177945
-0.4959974287187521	0.3794566487410181
-0.4959363935625021	0.3837622758684561
-0.4958753584062521	0.3874282416686258
-0.4958143232500021	0.3904483248468168
-0.4957532880937521	0.3928172255894289
-0.4956922529375021	0.39453065050719366
-0.4956312177812521	0.3955856059637921
-0.4955701826250021	0.3959800378004757
-0.4955091474687521	0.3957129766887456
-0.4954481123125021	0.39478464725810464
-0.4953870771562521	0.3931962741511998
-0.4953260420000021	0.3909502513157065
-0.4952650068437521	0.38804999261373563
-0.4952039716875021	0.38450003616565104
-0.4951429365312521	0.38030606425949975
-0.4950819013750021	0.3754746447444298
-0.4950208662187521	0.37001358889964714
-0.4949598310625021	0.3639317518526661
-0.4948987959062521	0.3572388042920047
-0.4948377607500021	0.34994567433711177
-0.4947767255937521	0.34206428203676503
-0.4947156904375021	0.3336072964283259
-0.4946546552812521	0.3245885403231066
-0.4945936201250021	0.31502287914090094
-0.4945325849687521	0.3049257432746753
-0.4944715498125021	0.2943136933085316
-0.4944105146562521	0.28320434841274916
-0.4943494795000021	0.2716155822899684
-0.4942884443437521	0.25956651441331563
-0.4942274091875021	0.24707724047971202
-0.4941663740312521	0.23416786096698916
-0.4941053388750021	0.2208597281600853
-0.4940443037187521	0.20717505696891206
-0.4939832685625021	0.1931360088052287
-0.4939222334062521	0.17876576064222097
-0.4938611982500021	0.1640883814785712
-0.4938001630937521	0.14912774588319838
-0.4937391279375021	0.1339084038496787
-0.4936780927812521	0.11845608612092932
-0.4936170576250021	0.10279595596744077
-0.4935560224687521	0.08695359476307779
-0.4934949873125021	0.07095593528255499
-0.4934339521562521	0.05482912075741572
-0.4933729170000021	0.03859948230335172
-0.4933118818437521	0.022294490101609842
-0.4932508466875021	0.005941079951390463
-0.4931898115312521	-0.010433999685447228
-0.4931287763750021	-0.026803332692960875
-0.4930677412187521	-0.043139534113471635
-0.4930067060625021	-0.0594158241209375
-0.4929456709062521	-0.07560516184944427
-0.4928846357500021	-0.09168020900853333
-0.4928236005937521	-0.10761467658861856
-0.4927625654375021	-0.12338203084578875
-0.4927015302812521	-0.13895556764343353
-0.4926404951250021	-0.15430993135509302
-0.4925794599687521	-0.16941927020196543
-0.4925184248125021	-0.1842581531834474
-0.4924573896562521	-0.19880239425362006
-0.4923963545000021	-0.2130272807010436
-0.4923353193437521	-0.22690901975919786
-0.4922742841875021	-0.2404248380699014
-0.4922132490312521	-0.2535517947117572
-0.4921522138750021	-0.26626789624226893
-0.4920911787187521	-0.2785521030126147
-0.4920301435625021	-0.2903837211102039
-0.4919691084062521	-0.30174283684772557
-0.4919080732500021	-0.31261043486632756
-0.4918470380937521	-0.32296834586489476
-0.4917860029375021	-0.3327991421855436
-0.4917249677812521	-0.3420861094837603
-0.4916639326250021	-0.3508137664225871
-0.4916028974687521	-0.35896748290404
-0.4915418623125021	-0.36653318468408697
-0.4914808271562521	-0.3734982767199861
-0.4914197920000021	-0.37985102723475994
-0.4913587568437521	-0.3855803498450586
-0.4912977216875021	-0.3906767422801537
-0.4912366865312521	-0.39513145737931443
-0.4911756513750021	-0.3989366353094051
-0.4911146162187521	-0.40208593702805207
-0.4910535810625021	-0.4045738248757112
-0.4909925459062521	-0.4063957777089838
-0.4909315107500021	-0.4075486479630006
-0.4908704755937521	-0.4080302580167766
-0.4908094404375021	-0.4078394689549917
-0.4907484052812521	-0.40697640145778735
-0.4906873701250021	-0.4054422649094915
-0.4906263349687521	-0.4032392983140563
-0.4905652998125021	-0.4003709295604736
-0.4905042646562521	-0.3968417390541763
-0.4904432295000021	-0.3926572931645984
-0.4903821943437521	-0.3878243010943239
-0.4903211591875021	-0.3823506221694975
-0.4902601240312521	-0.37624511257476845
-0.4901990888750021	-0.36951765101725303
-0.4901380537187521	-0.3621792376288502
-0.4900770185625021	-0.3542419188462049
-0.4900159834062521	-0.34571857708541903
-0.4899549482500021	-0.3366232672516196
-0.4898939130937521	-0.3269709212069163
-0.4898328779375021	-0.31677729059196275
-0.4897718427812521	-0.30605938407302075
-0.4897108076250021	-0.2948346595357718
-0.4896497724687521	-0.28312153168169696
-0.4895887373125021	-0.2709397200989779
-0.4895277021562521	-0.25830905009553673
-0.4894666670000021	-0.24525022802363974
-0.4894056318437521	-0.23178528219605052
-0.4893445966875021	-0.21793633796259432
-0.4892835615312521	-0.2037260379551446
-0.4892225263750021	-0.1891782507058382
-0.4891614912187521	-0.17431713261278917
-0.4891004560625021	-0.15916701207591272
-0.4890394209062521	-0.1437532127775712
-0.4889783857500021	-0.12810147920539683
-0.4889173505937521	-0.11223748827649878
-0.4888563154375021	-0.0961877004658105
-0.4887952802812521	-0.0799790778192745
-0.4887342451250021	-0.06363818516236057
-0.4886732099687521	-0.04719221120143986
-0.4886121748125021	-0.030668982600804435
-0.4885511396562521	-0.014095596529966349
-0.4884901045000021	0.002500471208629318
-0.4884290693437521	0.019091048523721413
-0.4883680341875021	0.035648805234170536
-0.4883069990312521	0.052146351126411424
-0.4882459638750021	0.0685556931552528
-0.4881849287187521	0.08484962913464152
-0.4881238935625021	0.10100130050367415
-0.4880628584062521	0.11698329065340489
-0.4880018232500021	0.1327688682206961
-0.4879407880937521	0.14833225347135431
-0.4878797529375021	0.16364690651150426
-0.4878187177812521	0.17868702096464556
-0.4877576826250021	0.19342826569548252
-0.4876966474687521	0.20784530018850964
-0.4876356123125021	0.22191389494616146
-0.4875745771562521	0.23561122730040915
-0.4875135420000021	0.24891364743347283
-0.4874525068437521	0.26179899694696906
-0.4873914716875021	0.2742460673473918
-0.4873304365312521	0.2862335315609738
-0.4872694013750021	0.2977414349672453
-0.4872083662187521	0.3087505094084865
-0.4871473310625021	0.3192422067717352
-0.4870862959062521	0.3291989648588937
-0.4870252607500021	0.3386038938691446
-0.4869642255937521	0.34744129071694635
-0.4869031904375021	0.3556963401886873
-0.4868421552812521	0.3633549424514187
-0.4867811201250021	0.37040428924180624
-0.4867200849687521	0.37683259544305403
-0.4866590498125021	0.38262878764612124
-0.4865980146562521	0.38778314004478354
-0.4865369795000021	0.39228707619675923
-0.4864759443437521	0.3961327307331449
-0.4864149091875021	0.3993136087649593
-0.4863538740312521	0.40182443125373907
-0.4862928388750021	0.40366073129672225
-0.4862318037187521	0.4048193423011357
-0.4861707685625021	0.4052983146304325
-0.4861097334062521	0.4050966719317347
-0.4860486982500021	0.40421465202935125
-0.4859876630937521	0.4026536784518314
-0.4859266279375021	0.400416231918706
-0.4858655927812521	0.3975059710997184
-0.4858045576250021	0.3939277320784237
-0.4857435224687521	0.3896873635670648
-0.4856824873125021	0.3847918815706426
-0.4856214521562521	0.3792495240771692
-0.4855604170000021	0.37306939639878844
-0.4854993818437521	0.366261743485238
-0.4854383466875021	0.3588381380908703
-0.4853773115312521	0.3508107570048633
-0.4853162763750021	0.3421929554028785
-0.4852552412187521	0.33299951212027135
-0.4851942060625021	0.3232453590840499
-0.4851331709062521	0.312946892231429
-0.4850721357500021	0.30212187705431137
-0.4850111005937521	0.29078768649193554
-0.4849500654375021	0.27896361807256104
-0.4848890302812521	0.2666700304879014
-0.4848279951250021	0.25392661160506247
-0.4847669599687521	0.24075526810191736
-0.4847059248125021	0.22717846493979724
-0.4846448896562521	0.2132181656441462
-0.4845838545000021	0.19889838103139315
-0.4845228193437521	0.1842433395928172
-0.4844617841875021	0.16927718996894445
-0.4844007490312521	0.15402534314723057
-0.4843397138750021	0.1385136264937463
-0.4842786787187521	0.12276801852110952
-0.4842176435625021	0.10681485501812366
-0.4841566084062521	0.090681341268951
-0.4840955732500021	0.0743945858230165
-0.4840345380937521	0.05798180767000602
-0.4839735029375021	0.04147098730995282
-0.4839124677812521	0.024889873313655827
-0.4838514326250021	0.008266440069909044
-0.4837903974687521	-0.008371273679302911
-0.4837293623125021	-0.02499510238467852
-0.4836683271562521	-0.04157693280600056
-0.4836072920000021	-0.05808886433429691
-0.4835462568437521	-0.07450280446238414
-0.4834852216875021	-0.09079114909184234
-0.4834241865312521	-0.10692618581278995
-0.4833631513750021	-0.12288065501284068
-0.4833021162187521	-0.1386277116291586
-0.4832410810625021	-0.1541402426824932
-0.4831800459062521	-0.1693923010951874
-0.4831190107500021	-0.1843581205102282
-0.4830579755937521	-0.19901184870876001
-0.4829969404375021	-0.2133288949661757
-0.4829359052812521	-0.22728508325320226
-0.4828748701250021	-0.24085643965666503
-0.4828138349687521	-0.25401986277287536
-0.4827527998125021	-0.2667531248713167
-0.4826917646562521	-0.279034594159189
-0.4826307295000021	-0.2908431149119857
-0.4825696943437521	-0.30215851234801283
-0.4825086591875021	-0.31296186430714634
-0.4824476240312521	-0.3232345125877183
-0.4823865888750021	-0.3329585070295108
-0.4823255537187521	-0.3421177868641654
-0.4822645185625021	-0.35069655385824683
-0.4822034834062521	-0.358679610054501
-0.4821424482500021	-0.3660537432050217
-0.4820814130937521	-0.37280617073878275
-0.4820203779375021	-0.3789249641812233
-0.4819593427812521	-0.3843998144880382
-0.4818983076250021	-0.38922113723483504
-0.4818372724687521	-0.3933804928669804
-0.4817762373125021	-0.39687064339983613
-0.4817152021562521	-0.39968537824780725
-0.4816541670000021	-0.401819766305143
-0.4815931318437521	-0.40326988177539363
-0.4815320966875021	-0.404032977274293
-0.4814710615312521	-0.4041075979533119
-0.4814100263750021	-0.4034933059160797
-0.4813489912187521	-0.4021908348350646
-0.4812879560625021	-0.4002022203372155
-0.4812269209062521	-0.3975305323685315
-0.4811658857500021	-0.3941799602043374
-0.4811048505937521	-0.3901560443237086
-0.4810438154375021	-0.385465294019426
-0.4809827802812521	-0.380115299217524
-0.4809217451250021	-0.3741150188589771
-0.4808607099687521	-0.3674743145283987
-0.4807996748125021	-0.36020409822058086
-0.4807386396562521	-0.352316560243998
-0.4806776045000021	-0.34382479363573576
-0.4806165693437521	-0.33474287090232796
-0.4805555341875021	-0.3250860546330029
-0.4804944990312521	-0.3148704745322064
-0.4804334638750021	-0.30411304297717845
-0.4803724287187521	-0.2928320589623606
-0.4803113935625021	-0.28104635292037133
-0.4802503584062521	-0.26877531980134867
-0.4801893232500021	-0.25604017771113763
-0.4801282880937521	-0.24286213798444636
-0.4800672529375021	-0.22926281052108496
-0.4800062177812521	-0.21526583220596215
-0.4799451826250021	-0.20089463547690434
-0.4798841474687521	-0.18617289454680658
-0.4798231123125021	-0.17112593921434413
-0.4797620771562521	-0.15577918226102178
-0.4797010420000021	-0.14015819033980653
-0.4796400068437521	-0.12428945209409295
-0.4795789716875021	-0.10820003711711969
-0.4795179365312521	-0.0919168710726525
-0.4794569013750021	-0.07546733155925013
-0.4793958662187521	-0.0588798413030183
-0.4793348310625021	-0.04218200351650851
-0.4792737959062521	-0.02540190943699245
-0.4792127607500021	-0.008568750802412456
-0.4791517255937521	0.008289616033750481
-0.4790906904375021	0.025144559475481613
-0.4790296552812521	0.0419669327907529
-0.4789686201250021	0.05872882677281397
-0.4789075849687521	0.07540146580264717
-0.4788465498125021	0.09195643834264595
-0.4787855146562521	0.10836591319869454
-0.4787244795000021	0.1246016326328788
-0.4786634443437521	0.14063621512849764
-0.4786024091875021	0.15644234124172912
-0.4785413740312521	0.17199295864248731
-0.4784803388750021	0.18726167061818316
-0.4784193037187521	0.20222239563893663
-0.4783582685625021	0.21684979973769336
-0.4782972334062521	0.23111858317508338
-0.4782361982500021	0.24500447901476638
-0.4781751630937521	0.25848419695867064
-0.4781141279375021	0.27153400294083885
-0.4780530927812521	0.2841317648924246
-0.4779920576250021	0.2962564894279337
-0.4779310224687521	0.3078866115724543
-0.4778699873125021	0.31900232441647297
-0.4778089521562521	0.3295851305537739
-0.4777479170000021	0.3396162464710718
-0.4776868818437521	0.34907841408007007
-0.4776258466875021	0.3579557339804858
-0.4775648115312521	0.3662326172718772
-0.4775037763750021	0.37389471266581575
-0.4774427412187521	0.3809289240732863
-0.4773817060625021	0.3873229572360313
-0.4773206709062521	0.3930656852928121
-0.4772596357500021	0.3981471249510433
-0.4771986005937521	0.4025583375925299
-0.4771375654375021	0.40629159837043793
-0.4770765302812521	0.40934025294295134
-0.4770154951250021	0.41169885159354463
-0.4769544599687521	0.4133631586567502
-0.4768934248125021	0.4143299834605541
-0.4768323896562521	0.4145974509017786
-0.4767713545000021	0.414164863473667
-0.4767103193437521	0.41303259043254664
-0.4766492841875021	0.41120232910340176
-0.4765882490312521	0.4086769354531409
-0.4765272138750021	0.4054603803112862
-0.4764661787187521	0.40155785459298377
-0.4764051435625021	0.3969757634523578
-0.4763441084062521	0.39172165171309375
-0.4762830732500021	0.38580404774023097
-0.4762220380937521	0.37923289434303603
-0.4761610029375021	0.37201915641967986
-0.4760999677812521	0.36417459487775455
-0.4760389326250021	0.3557125506051592
-0.4759778974687521	0.3466471518441102
-0.4759168623125021	0.3369934163487007
-0.4758558271562521	0.3267676964435633
-0.4757947920000021	0.3159870797314216
-0.4757337568437521	0.3046697993023174
-0.4756727216875021	0.2928347820977066
-0.4756116865312521	0.28050188456051584
-0.4755506513750021	0.26769225269092206
-0.4754896162187521	0.25442716117885633
-0.4754285810625021	0.24072896080065323
-0.4753675459062521	0.2266212481699801
-0.4753065107500021	0.2121274157570163
-0.4752454755937521	0.19727198974400117
-0.4751844404375021	0.18208061220866756
-0.4751234052812521	0.16657848684497573
-0.4750623701250021	0.1507919470014373
-0.4750013349687521	0.13474811312756657
-0.4749402998125021	0.1184738574957075
-0.4748792646562521	0.10199689862257907
-0.4748182295000021	0.08534519184517392
-0.4747571943437521	0.06854712048856546
-0.4746961591875021	0.05163118201717133
-0.4746351240312521	0.034625930324613946
-0.4745740888750021	0.017560698304392743
-0.4745130537187521	0.0004641830764214773
-0.4744520185625021	-0.016634478418267613
-0.4743909834062521	-0.03370589651181262
-0.4743299482500021	-0.050721403213222216
-0.4742689130937521	-0.06765168141031232
-0.4742078779375021	-0.084467900865976
-0.4741468427812521	-0.10114160064637913
-0.4740858076250021	-0.11764413455170052
-0.4740247724687521	-0.1339473176103529
-0.4739637373125021	-0.1500233588474698
-0.4739027021562521	-0.16584498781181742
-0.4738416670000021	-0.18138486407841373
-0.4737806318437521	-0.19661642355935144
-0.4737195966875021	-0.21151398703662389
-0.4736585615312521	-0.22605172084912672
-0.4735975263750021	-0.24020470791153714
-0.4735364912187521	-0.25394896726125427
-0.4734754560625021	-0.26726079777164263
-0.4734144209062521	-0.2801173470057048
-0.4733533857500021	-0.2924966388320454
-0.4732923505937521	-0.3043773916164332
-0.4732313154375021	-0.31573921573035335
-0.4731702802812521	-0.32656260507829904
-0.4731092451250021	-0.33682891334969933
-0.4730482099687521	-0.3465204874710386
-0.4729871748125021	-0.35562071327203126
-0.4729261396562521	-0.3641137994817575
-0.4728651045000021	-0.3719851120226878
-0.4728040693437521	-0.3792212162194407
-0.4727430341875021	-0.3858093982986263
-0.4726819990312521	-0.39173827857090554
-0.4726209638750021	-0.39699777382544005
-0.4725599287187521	-0.4015785412327951
-0.4724988935625021	-0.4054725971720773
-0.4724378584062521	-0.4086732912741453
-0.4723768232500021	-0.41117488151863935
-0.4723157880937521	-0.41297292065643704
-0.4722547529375021	-0.4140642663717663
-0.4721937177812521	-0.4144468506323604
-0.4721326826250021	-0.4141198535902277
-0.4720716474687521	-0.4130837267401435
-0.4720106123125021	-0.41134008379110554
-0.4719495771562521	-0.408891737719533
-0.4718885420000021	-0.4057427531640032
-0.4718275068437521	-0.4018984091792723
-0.4717664716875021	-0.397365097043547
-0.4717054365312521	-0.3921504474935167
-0.4716444013750021	-0.3862633251450998
-0.4715833662187521	-0.37971360980416197
-0.4715223310625021	-0.37251239955336957
-0.4714612959062521	-0.36467195741714753
-0.4714002607500021	-0.35620557155679183
-0.4713392255937521	-0.34712763433750865
-0.4712781904375021	-0.33745356877066773
-0.4712171552812521	-0.3271999158806437
-0.4711561201250021	-0.3163841151368386
-0.4710950849687521	-0.3050245777700522
-0.4710340498125021	-0.2931407989535348
-0.4709730146562521	-0.2807529697370522
-0.4709119795000021	-0.2678822778608458
-0.4708509443437521	-0.25455081871179064
-0.4707899091875021	-0.24078127279157907
-0.4707288740312521	-0.22659730178919624
-0.4706678388750021	-0.21202313955165775
-0.4706068037187521	-0.19708371896691432
-0.4705457685625021	-0.18180485559217224
-0.4704847334062521	-0.16621240924993771
-0.4704236982500021	-0.15033328268961346
-0.4703626630937521	-0.13419499506581486
-0.4703016279375021	-0.11782472522065987
-0.4702405927812521	-0.10125086947879773
-0.4701795576250021	-0.08450211073344822
-0.4701185224687521	-0.06760681801263453
-0.4700574873125021	-0.0505941795988974
-0.4699964521562521	-0.03349367126576461
-0.4699354170000021	-0.01633453608631281
-0.4698743818437521	0.0008538822731552898
-0.4698133466875021	0.018041640108113943
-0.4697523115312521	0.03519915114084054
-0.4696912763750021	0.05229725379951882
