Time	Frequency
-0.5000301486562506	-0.29370901478912936
-0.4999691135000006	-0.28222044464127466
-0.4999080783437506	-0.27026130407470433
-0.4998470431875006	-0.2578509905242828
-0.4997860080312506	-0.24500996770228362
-0.4997249728750006	-0.23175962417382506
-0.4996639377187506	-0.21812151115930828
-0.4996029025625006	-0.20411807844335444
-0.4995418674062506	-0.1897726283517754
-0.4994808322500006	-0.17510873621611653
-0.4994197970937506	-0.160150530315413
-0.4993587619375006	-0.14492280633595195
-0.4992977267812506	-0.12945076865860358
-0.4992366916250006	-0.11375987939489839
-0.4991756564687506	-0.09787620745284498
-0.4991146213125006	-0.08182600400144696
-0.4990535861562506	-0.06563576806942277
-0.4989925510000006	-0.049332579638864386
-0.4989315158437506	-0.0329431314275263
-0.4988704806875006	-0.01649463011178782
-0.4988094455312506	-1.4866190299523631e-05
-0.4987484103750006	0.01646951838323667
-0.4986873752187506	0.03293097454356573
-0.4986263400625006	0.04934156826887362
-0.4985653049062506	0.0656748575657637
-0.4985042697500006	0.08190339320587563
-0.4984432345937506	0.09799989938863145
-0.4983821994375006	0.11393802190171741
-0.4983211642812506	0.1296910621335424
-0.4982601291250006	0.1452328550004203
-0.4981990939687506	0.1605374375900198
-0.4981380588125006	0.17557936017738454
-0.4980770236562506	0.19033372160533898
-0.4980159885000006	0.20477574543794233
-0.4979549533437506	0.21888127160125043
-0.4978939181875006	0.23262707694927456
-0.4978328830312506	0.24599012535199685
-0.4977718478750006	0.25894782670753086
-0.4977108127187506	0.2714789937820262
-0.4976497775625006	0.28356242841931156
-0.4975887424062506	0.2951778891785588
-0.4975277072500006	0.3063063082900475
-0.4974666720937506	0.31692864409407345
-0.4974056369375006	0.327027357716691
-0.4973446017812506	0.3365856373523854
-0.4972835666250006	0.34558722259402735
-0.4972225314687506	0.35401724484778646
-0.4971614963125006	0.3618615149738914
-0.4971004611562506	0.3691067938533489
-0.4970394260000006	0.37574102441681567
-0.4969783908437506	0.38175309071610813
-0.4969173556875006	0.3871327418684185
-0.4968563205312506	0.3918709807370662
-0.4967952853750006	0.39595998588490405
-0.4967342502187506	0.3993926250597251
-0.4966732150625006	0.40216313371959855
-0.4966121799062506	0.40426699262777316
-0.4965511447500006	0.4057004250288563
-0.4964901095937506	0.40646097501638684
-0.4964290744375006	0.40654742007237776
-0.4963680392812506	0.405959466162915
-0.4963070041250006	0.4046979862891577
-0.4962459689687506	0.40276509864898036
-0.4961849338125006	0.4001639723409474
-0.4961238986562506	0.3968987853763152
-0.4960628635000006	0.3929750392482991
-0.4960018283437506	0.38839926111983414
-0.4959407931875006	0.38317888669289063
-0.4958797580312506	0.37732274066888283
-0.4958187228750006	0.37084058205543674
-0.4957576877187506	0.363743061884044
-0.4956966525625006	0.35604210845990547
-0.4956356174062506	0.3477506314545188
-0.4955745822500006	0.3388823718186631
-0.4955135470937506	0.3294520485122688
-0.4954525119375006	0.3194756966560837
-0.4953914767812506	0.30896985028723273
-0.4953304416250006	0.29795183298966227
-0.4952694064687506	0.28644055768738896
-0.4952083713125006	0.2744549888440207
-0.4951473361562506	0.2620151150203792
-0.4950863010000006	0.24914214269484566
-0.4950252658437506	0.23585721479065938
-0.4949642306875006	0.22218286907584384
-0.4949031955312506	0.20814208639177054
-0.4948421603750006	0.19375805342303296
-0.4947811252187506	0.17905533574769858
-0.4947200900625006	0.16405846773411897
-0.4946590549062506	0.14879237493470368
-0.4945980197500006	0.13328304259387072
-0.4945369845937506	0.11755650037102211
-0.4944759494375006	0.10163887121934082
-0.4944149142812506	0.08555713368339306
-0.4943538791250006	0.06933851132358868
-0.4942928439687506	0.053009890023667135
-0.4942318088125006	0.036598904098240945
-0.4941707736562506	0.020133379769412135
-0.4941097385000006	0.00364080020573609
-0.4940487033437506	-0.01285109962026667
-0.4939876681875006	-0.02931436663664909
-0.4939266330312506	-0.04572120685158415
-0.4938655978750006	-0.062044254737738634
-0.4938045627187506	-0.0782557833303839
-0.4937435275625006	-0.09432832995055296
-0.4936824924062506	-0.11023507855641776
-0.4936214572500006	-0.12594898358439033
-0.4935604220937506	-0.14144347273110897
-0.4934993869375006	-0.15669253768102845
-0.4934383517812506	-0.17167029396476696
-0.4933773166250006	-0.18635138249294542
-0.4933162814687506	-0.20071116839042719
-0.4932552463125006	-0.2147251968427416
-0.4931942111562506	-0.22836959253589426
-0.4931331760000006	-0.2416217651998039
-0.4930721408437506	-0.2544588048351957
-0.4930111056875006	-0.26685883664206905
-0.4929500705312506	-0.2788015509455643
-0.4928890353750006	-0.29026593075532586
-0.4928280002187506	-0.3012327136444431
-0.4927669650625006	-0.311683650033013
-0.4927059299062506	-0.321600424471831
-0.4926448947500006	-0.33096651299673713
-0.4925838595937506	-0.3397658419007148
-0.4925228244375006	-0.3479834377340475
-0.4924617892812506	-0.35560534574151725
-0.4924007541250006	-0.36261829698715575
-0.4923397189687506	-0.36901064723538657
-0.4922786838125006	-0.3747712423872102
-0.4922176486562506	-0.37989008502901256
-0.4921566135000006	-0.3843586327051071
-0.4920955783437506	-0.38816896172123017
-0.4920345431875006	-0.3913145148512661
-0.4919735080312506	-0.3937899077031867
-0.4919124728750006	-0.3955905850855208
-0.4918514377187506	-0.3967134693300152
-0.4917904025625006	-0.39715654359834285
-0.4917293674062506	-0.39691868494241905
-0.4916683322500006	-0.3960002521672842
-0.4916072970937506	-0.3944026518553343
-0.4915462619375006	-0.3921282812115206
-0.4914852267812506	-0.389180917672444
-0.4914241916250006	-0.3855653281617305
-0.4913631564687506	-0.38128741592687293
-0.4913021213125006	-0.3763543642205048
-0.4912410861562506	-0.3707741805534368
-0.4911800510000006	-0.3645562292257304
-0.4911190158437506	-0.3577109640552946
-0.4910579806875006	-0.3502495344554727
-0.4909969455312506	-0.3421846545664667
-0.4909359103750006	-0.3335297832223706
-0.4908748752187506	-0.3242992369649657
-0.4908138400625006	-0.3145087300584568
-0.4907528049062506	-0.3041745119101949
-0.4906917697500006	-0.2933140513198083
-0.4906307345937506	-0.28194562257552624
-0.4905696994375006	-0.27008812235852664
-0.4905086642812506	-0.2577618470331594
-0.4904476291250006	-0.24498739000403405
-0.4903865939687506	-0.2317861335208378
-0.4903255588125006	-0.218180679403388
-0.4902645236562506	-0.20419369561432657
-0.4902034885000006	-0.1898488303524448
-0.4901424533437506	-0.1751706056869253
-0.4900814181875006	-0.16018340394821973
-0.4900203830312506	-0.1449127066634578
-0.4899593478750006	-0.12938467446406576
-0.4898983127187506	-0.11362512816493789
-0.4898372775625006	-0.09766075598730203
-0.4897762424062506	-0.08151914927297171
-0.4897152072500006	-0.06522718638979698
-0.4896541720937506	-0.04881219637778741
-0.4895931369375006	-0.032302947187439986
-0.4895321017812506	-0.015726816989479392
-0.4894710666250006	0.0008884229956204183
-0.4894100314687506	0.017513444678225843
-0.4893489963125006	0.03412086988910224
-0.4892879611562506	0.050682555914421806
-0.4892269260000006	0.06716942610159007
-0.4891658908437506	0.08355433830382569
-0.4891048556875006	0.09980917141022241
-0.4890438205312506	0.11590579516448885
-0.4889827853750006	0.13181731921474002
-0.4889217502187506	0.14751638783818385
-0.4888607150625006	0.16297618770228267
-0.4887996799062506	0.17817034560803205
-0.4887386447500006	0.19307297315772728
-0.4886776095937506	0.2076585440125803
-0.4886165744375006	0.2219020374483337
-0.4885555392812506	0.23577934323854172
-0.4884945041250006	0.2492662955646658
-0.4884334689687506	0.26234001048199346
-0.4883724338125006	0.27497824919934677
-0.4883113986562506	0.2871588184491096
-0.4882503635000006	0.29886115135474306
-0.4881893283437506	0.31006508103926256
-0.4881282931875006	0.32075116911546564
-0.4880672580312506	0.330901094845622
-0.4880062228750006	0.34049720374408216
-0.4879451877187506	0.34952314836631526
-0.4878841525625006	0.35796302038257366
-0.4878231174062506	0.36580216927813547
-0.4877620822500006	0.37302730818435104
-0.4877010470937506	0.37962542762124435
-0.4876400119375006	0.3855850436667592
-0.4875789767812506	0.3908959662528652
-0.4875179416250006	0.39554855142591455
-0.4874569064687506	0.39953453656465654
-0.4873958713125006	0.4028469716687133
-0.4873348361562506	0.40547973178853347
-0.4872738010000006	0.4074279430078025
-0.4872127658437506	0.408688026664154
-0.4871517306875006	0.4092574024652721
-0.4870906955312506	0.4091347090769686
-0.4870296603750006	0.4083198216638276
-0.4869686252187506	0.4068136867757822
-0.4869075900625006	0.4046185217366923
-0.4868465549062506	0.40173769599891385
-0.4867855197500006	0.3981755987212328
-0.4867244845937506	0.393938037950777
-0.4866634494375006	0.3890318462902364
-0.4866024142812506	0.38346477512504584
-0.4865413791250006	0.377246129540144
-0.4864803439687506	0.370386110843399
-0.4864193088125006	0.36289575945381003
-0.4863582736562506	0.35478769317708986
-0.4862972385000006	0.34607531912790396
-0.4862362033437506	0.3367728678239172
-0.4861751681875006	0.3268960510409784
-0.4861141330312506	0.31646123462182774
-0.4860530978750006	0.3054856781924411
-0.4859920627187506	0.29398799356711863
-0.4859310275625006	0.28198717121481043
-0.4858699924062506	0.26950321250118675
-0.4858089572500006	0.2565575158999132
-0.4857479220937506	0.24317130281800287
-0.4856868869375006	0.22936698466337155
-0.4856258517812506	0.21516841506296397
-0.4855648166250006	0.20059879745353187
-0.4855037814687506	0.18568272009178852
-0.4854427463125006	0.17044579880586178
-0.4853817111562506	0.15491314979246512
-0.4853206760000006	0.13911113433760752
-0.4852596408437506	0.1230665928185515
-0.4851986056875006	0.10680635008846928
-0.4851375705312506	0.09035797045002068
-0.4850765353750006	0.07374928831521455
-0.4850155002187506	0.057008302875030864
-0.4849544650625006	0.040163322348548136
-0.4848934299062506	0.023242979855124385
-0.4848323947500006	0.006275784915365975
-0.4847713595937506	-0.01070964902214591
-0.4847103244375006	-0.027684122247716516
-0.4846492892812506	-0.04461917951892484
-0.4845882541250006	-0.06148630098646176
-0.4845272189687506	-0.0782562849974474
-0.4844661838125006	-0.09490110048888903
-0.4844051486562506	-0.11139251345523683
-0.4843441135000006	-0.12770219618077652
-0.4842830783437506	-0.1438027284048955
-0.4842220431875006	-0.15966655031096247
-0.4841610080312506	-0.17526682999779383
-0.4840999728750006	-0.19057689286958301
-0.4840389377187506	-0.20557066428754225
-0.4839779025625006	-0.22022292897209828
-0.4839168674062506	-0.23450816991381368
-0.4838558322500006	-0.24840243831346898
-0.4837947970937506	-0.261882169098568
-0.4837337619375006	-0.2749237992576107
-0.4836727267812506	-0.2875055687291246
-0.4836116916250006	-0.2996059297998426
-0.4835506564687506	-0.3112039776507284
-0.4834896213125006	-0.3222800454938025
-0.4834285861562506	-0.3328151423372734
-0.4833675510000006	-0.3427914077923152
-0.4833065158437506	-0.3521914666054358
-0.4832454806875006	-0.3609992236751551
-0.4831844455312506	-0.3692000161289389
-0.4831234103750006	-0.37677927603588246
-0.4830623752187506	-0.38372397143738673
-0.4830013400625006	-0.3900226031962262
-0.4829403049062506	-0.3956639562577888
-0.4828792697500006	-0.4006382608497729
-0.4828182345937506	-0.4049371684712575
-0.4827571994375006	-0.4085530561360572
-0.4826961642812506	-0.41147963298226475
-0.4826351291250006	-0.41371186428788176
-0.4825740939687506	-0.41524574129938396
-0.4825130588125006	-0.4160785432195381
-0.4824520236562506	-0.41620874930039137
-0.4823909885000006	-0.4156359606619359
-0.4823299533437506	-0.41436103798805013
-0.4822689181875006	-0.41238607764543583
-0.4822078830312506	-0.4097142535384695
-0.4821468478750006	-0.4063500080962023
-0.4820858127187506	-0.4022990512823027
-0.4820247775625006	-0.39756805534299594
-0.4819637424062506	-0.392164988896326
-0.4819027072500006	-0.38609910059113434
-0.4818416720937506	-0.37938046954576654
-0.4817806369375006	-0.37202047535607974
-0.4817196017812506	-0.3640317128644465
-0.4816585666250006	-0.3554275843477489
-0.4815975314687506	-0.3462227257690336
-0.4815364963125006	-0.3364327976772255
-0.4814754611562506	-0.32607438900833335
-0.4814144260000006	-0.3151651901217558
-0.4813533908437506	-0.3037236110862035
-0.4812923556875006	-0.29176926561084865
-0.4812313205312506	-0.2793225939996993
-0.4811702853750006	-0.2664043932193106
-0.4811092502187506	-0.2530372418773289
-0.4810482150625006	-0.23924370918813542
-0.4809871799062506	-0.22504682642805232
-0.4809261447500006	-0.21047194978338998
-0.4808651095937506	-0.19554303009717597
-0.4808040744375006	-0.18028538478765213
-0.4807430392812506	-0.16472648835567896
-0.4806820041250006	-0.14889143976645966
-0.4806209689687506	-0.13280758150202612
-0.4805599338125006	-0.11650360652519587
-0.4804988986562506	-0.10000593382962454
-0.4804378635000006	-0.0833433127557056
-0.4803768283437506	-0.06654497936352738
-0.4803157931875006	-0.049638626317393096
-0.4802547580312506	-0.03265375113566214
-0.4801937228750006	-0.015619749922951391
-0.4801326877187506	0.001434779896793345
-0.4800716525625006	0.018480286231160315
-0.4800106174062506	0.035487344414250534
-0.4799495822500006	0.05242698620723521
-0.4798885470937506	0.06927028040644852
-0.4798275119375006	0.0859879813738533
-0.4797664767812506	0.10255131375422036
-0.4797054416250006	0.11893228452222289
-0.4796444064687506	0.13510239898527587
-0.4795833713125006	0.15103361855723466
-0.4795223361562506	0.16669904752052647
-0.4794613010000006	0.18207156918646542
-0.4794002658437506	0.19712434769859066
-0.4793392306875006	0.21183184721145462
-0.4792781955312506	0.2261688150552035
-0.4792171603750006	0.24011015633209842
-0.4791561252187506	0.25363198475589754
-0.4790950900625006	0.2667111712620917
-0.4790340549062506	0.27932495673073476
-0.4789730197500006	0.2914515009039532
-0.4789119845937506	0.30307001004294953
-0.4788509494375006	0.3141604050718116
-0.4787899142812506	0.32470331770046457
-0.4787288791250006	0.33468069512488585
-0.4786678439687506	0.34407528075547633
-0.4786068088125006	0.352870527126065
-0.4785457736562506	0.36105149055698915
-0.4784847385000006	0.36860390259609216
-0.4784237033437506	0.37551438622462446
-0.4783626681875006	0.38177127985365933
-0.4783016330312506	0.3873635292518146
-0.4782405978750006	0.39228121099818725
-0.4781795627187506	0.39651600489336836
-0.4781185275625006	0.4000603666107486
-0.4780574924062506	0.40290796134564594
-0.4779964572500006	0.4050538682592677
-0.4779354220937506	0.40649424651934046
-0.4778743869375006	0.40722641266286563
-0.4778133517812506	0.4072490035022704
-0.4777523166250006	0.4065618622116234
-0.4776912814687506	0.40516598294938255
-0.4776302463125006	0.40306370070028613
-0.4775692111562506	0.400258469049527
-0.4775081760000006	0.39675493372636245
-0.4774471408437506	0.3925591580482966
-0.4773861056875006	0.38767812939340457
-0.4773250705312506	0.38212005635610036
-0.4772640353750006	0.37589467217682354
-0.4772030002187506	0.3690123724052434
-0.4771419650625006	0.3614848558269527
-0.4770809299062506	0.35332532648777715
-0.4770198947500006	0.3445473894738217
-0.4769588595937506	0.33516619712666956
-0.4768978244375006	0.3251981121638845
-0.4768367892812506	0.3146597877761423
-0.4767757541250006	0.303569576870297
-0.4767147189687506	0.2919466615797397
-0.4766536838125006	0.27981079206306353
-0.4765926486562506	0.2671829540199701
-0.4765316135000006	0.2540847792684127
-0.4764705783437506	0.24053918551951856
-0.4764095431875006	0.22656919020716437
-0.4763485080312506	0.21219859573423908
-0.4762874728750006	0.19745313178660315
-0.4762264377187506	0.18235746751199947
-0.4761654025625006	0.1669374604733617
-0.4761043674062506	0.15122079072616826
-0.4760433322500006	0.13523375797285686
-0.4759822970937506	0.11900392560663796
-0.4759212619375006	0.10256001851075235
-0.4758602267812506	0.08593016703899352
-0.4757991916250006	0.06914291110169864
-0.4757381564687506	0.05222744736838827
-0.4756771213125006	0.03521354627255812
-0.4756160861562506	0.01813015057052132
-0.4755550510000006	0.00100670830957935
-0.4754940158437506	-0.01612626159247172
-0.4754329806875006	-0.03323967231679833
-0.4753719455312506	-0.050303912992167875
-0.4753109103750006	-0.06728875326930409
-0.4752498752187506	-0.08416515503284396
-0.4751888400625006	-0.1009037387597222
-0.4751278049062506	-0.11747519019534725
-0.4750667697500006	-0.13385082443793123
-0.4750057345937506	-0.1500021116984088
-0.4749446994375006	-0.16590092896301573
-0.4748836642812506	-0.18151956234878883
-0.4748226291250006	-0.19683072263451837
-0.4747615939687506	-0.2118077087760304
-0.4747005588125006	-0.22642459361547462
-0.4746395236562506	-0.2406555749409744
-0.4745784885000006	-0.25447565247514276
-0.4745174533437506	-0.2678611993905254
-0.4744564181875006	-0.28078837076227725
-0.4743953830312506	-0.2932343250226255
-0.4743343478750006	-0.3051778525713835
-0.4742733127187506	-0.31659756579252407
-0.4742122775625006	-0.3274732216198576
-0.4741512424062506	-0.33778625159169595
-0.4740902072500006	-0.3475181382568285
-0.4740291720937506	-0.3566515195556833
-0.4739681369375006	-0.3651707482530603
-0.4739071017812506	-0.3730604591937166
-0.4738460666250006	-0.3803065179532261
-0.4737850314687506	-0.38689640386073887
-0.4737239963125006	-0.39281812224878687
-0.4736629611562506	-0.39806102948395394
-0.4736019260000006	-0.40261590982613077
-0.4735408908437506	-0.4064743509342517
-0.4734798556875006	-0.40962934100759973
-0.4734188205312506	-0.41207516075867373
-0.4733577853750006	-0.41380710221752437
-0.4732967502187506	-0.41482185472861616
-0.4732357150625006	-0.4151173417604423
-0.4731746799062506	-0.41469264276938805
-0.4731136447500006	-0.4135481775282057
-0.4730526095937506	-0.4116855574929374
-0.4729915744375006	-0.40910766928495684
-0.4729305392812506	-0.40581866969619007
-0.4728695041250006	-0.4018238451027383
-0.4728084689687506	-0.39712982954070586
-0.4727474338125006	-0.39174445694082294
-0.4726863986562506	-0.385676662350534
-0.4726253635000006	-0.3789366582370757
-0.4725643283437506	-0.37153586104885666
-0.4725032931875006	-0.3634867814982675
-0.4724422580312506	-0.35480295481080726
-0.4723812228750006	-0.3454992988324884
-0.4723201877187506	-0.33559163293836003
-0.4722591525625006	-0.3250966758782992
-0.4721981174062506	-0.3140326145609742
-0.4721370822500006	-0.3024182131690447
-0.4720760470937506	-0.29027334106188823
-0.4720150119375006	-0.27761896870191644
-0.4719539767812506	-0.26447661644372655
-0.4718929416250006	-0.2508690106929805
-0.4718319064687506	-0.23681947805319206
-0.4717708713125006	-0.2223521620097448
-0.4717098361562506	-0.20749202830554506
-0.4716488010000006	-0.19226461206934628
-0.4715877658437506	-0.17669630042987197
-0.4715267306875006	-0.16081371156003738
-0.4714656955312506	-0.14464441176881923
-0.4714046603750006	-0.1282165456580792
-0.4713436252187506	-0.11155794056538854
-0.4712825900625006	-0.09469779301615407
-0.4712215549062506	-0.07766556945043955
-0.4711605197500006	-0.0604898625890396
-0.4710994845937506	-0.04320109567537217
-0.4710384494375006	-0.025829453657751415
-0.4709774142812506	-0.008404048894451217
-0.4709163791250006	0.009044019913359567
-0.4708553439687506	0.026484504795832194
-0.4707943088125006	0.04388785796224968
-0.4707332736562506	0.061223182887997205
-0.4706722385000006	0.07846036866476278
-0.4706112033437506	0.09556989443832895
-0.4705501681875006	0.1125218257220638
-0.4704891330312506	0.12928633031614714
-0.4704280978750006	0.14583462882674514
-0.4703670627187506	0.16213797965330726
-0.4703060275625006	0.17816747534234426
-0.4702449924062506	0.19389559430902814
-0.4701839572500006	0.20929492731174035
-0.4701229220937506	0.22433828757316523
-0.4700618869375006	0.2389996618833316
-0.4700008517812506	0.2532533884983475
-0.4699398166250006	0.267074608861902
-0.4698787814687506	0.2804389786664269
-0.4698177463125006	0.29332315198761105
-0.4697567111562506	0.30570494924847674
