Time	Frequency
-0.50003265981249	-0.47622705882752736
-0.49997162465624	-0.4752989991082629
-0.49991058949999	-0.47324078570750694
-0.49984955434374	-0.47005727216738813
-0.49978851918749	-0.4657561277061768
-0.49972748403124	-0.4603476829504226
-0.49966644887499	-0.4538448661505256
-0.49960541371874	-0.4462633432134809
-0.49954437856249	-0.4376214125050413
-0.49948334340624	-0.427939786775034
-0.49942230824999	-0.41724180772020414
-0.49936127309374	-0.4055533169353037
-0.49930023793749	-0.39290243084367443
-0.49923920278124	-0.3793196707605435
-0.49917816762499	-0.364837760937349
-0.49911713246874	-0.34949172640334836
-0.49905609731249	-0.333318605036556
-0.49899506215624	-0.316357269933872
-0.49893402699999	-0.29864886542209057
-0.49887299184374	-0.2802361650348731
-0.49881195668749	-0.2611635118044294
-0.49875092153124	-0.24147703038788843
-0.49868988637499	-0.22122436244657415
-0.49862885121874	-0.20045453814056644
-0.49856781606249	-0.17921752019217707
-0.49850678090624	-0.1575647845115049
-0.49844574574999	-0.13554893889431527
-0.49838471059374	-0.11322286953334637
-0.49832367543749	-0.09064069764154961
-0.49826264028124	-0.06785729588872506
-0.49820160512499	-0.04492758224778514
-0.49814056996874	-0.02190704731331974
-0.49807953481249	0.0011484749305392772
-0.49801849965624	0.024183100364125448
-0.49795746449999	0.047141171708575895
-0.49789642934374	0.06996713331267403
-0.49783539418749	0.09260551333924377
-0.49777435903124	0.11500141323737628
-0.49771332387499	0.1371008356867069
-0.49765228871874	0.15885023634635187
-0.49759125356249	0.18019641841904083
-0.49753021840624	0.20108806489113581
-0.49746918324999	0.22147463018072594
-0.49740814809374	0.24130620082671406
-0.49734711293749	0.260535181618312
-0.49728607778124	0.27911473347208665
-0.49722504262499	0.2969995686306028
-0.49716400746874	0.3141468153058713
-0.49710297231249	0.33051458111229937
-0.49704193715624	0.3460630766598306
-0.49698090199999	0.36075486075604446
-0.49691986684374	0.37455410290975744
-0.49685883168749	0.38742739538538845
-0.49679779653124	0.3993436150515794
-0.49673676137499	0.41027373055950983
-0.49667572621874	0.42019129966724417
-0.49661469106249	0.42907233062515715
-0.49655365590624	0.4368953183865741
-0.49649262074999	0.44364127927169034
-0.49643158559374	0.449293886148549
-0.49637055043749	0.4538396031710597
-0.49630951528124	0.4572673838312735
-0.49624848012499	0.4595689697066204
-0.49618744496874	0.4607389992086963
-0.49612640981249	0.46077467944154055
-0.49606537465624	0.4596760206043789
-0.49600433949999	0.4574459085212756
-0.49594330434374	0.45408989388150117
-0.49588226918749	0.4496162890177494
-0.49582123403124	0.4440361760443522
-0.49576019887499	0.43736329109052213
-0.49569916371874	0.42961409668809597
-0.49563812856249	0.42080768285477216
-0.49557709340624	0.41096562381485685
-0.49551605824999	0.4001121703056307
-0.49545502309374	0.38827406398781306
-0.49539398793749	0.3754802386354853
-0.49533295278124	0.36176219941403387
-0.49527191762499	0.3471537451165616
-0.49521088246874	0.3316905452251737
-0.49514984731249	0.31541074452874335
-0.49508881215624	0.2983543800417267
-0.49502777699999	0.2805631187992889
-0.49496674184374	0.2620809274627029
-0.49490570668749	0.2429531627009933
-0.49484467153124	0.22322668963644404
-0.49478363637499	0.20295015992335455
-0.49472260121874	0.1821734091019255
-0.49466156606249	0.16094751841968385
-0.49460053090624	0.13932457744627802
-0.49453949574999	0.11735791390381298
-0.49447846059374	0.0951017166786477
-0.49441742543749	0.0726104276040683
-0.49435639028124	0.049939584188451076
-0.49429535512499	0.027145274787784893
-0.49423431996874	0.004283277699508961
-0.49417328481249	-0.01858995348324134
-0.49411224965624	-0.04141781889478091
-0.49405121449999	-0.06414423504489782
-0.49399017934374	-0.08671310797715281
-0.49392914418749	-0.10906867069347416
-0.49386810903124	-0.13115567964798588
-0.49380707387499	-0.15291958301584857
-0.49374603871874	-0.17430669514158117
-0.49368500356249	-0.19526409706114195
-0.49362396840624	-0.21573973110624955
-0.49356293324999	-0.2356829995555411
-0.49350189809374	-0.25504469287679116
-0.49344086293749	-0.27377656915343795
-0.49337982778124	-0.2918320934437577
-0.49331879262499	-0.309166621047815
-0.49325775746874	-0.32573700208859585
-0.49319672231249	-0.34150190382964535
-0.49313568715624	-0.3564220834048729
-0.49307465199999	-0.37046036530600024
-0.49301361684374	-0.3835817253060662
-0.49295258168749	-0.39575316582270037
-0.49289154653124	-0.40694419638067686
-0.49283051137499	-0.4171268693008971
-0.49276947621874	-0.42627529827244126
-0.49270844106249	-0.434366400442944
-0.49264740590624	-0.4413797454437085
-0.49258637074999	-0.4472972382441758
-0.49252533559374	-0.45210370563185304
-0.49246430043749	-0.4557867019410083
-0.49240326528124	-0.45833638216196404
-0.49234223012499	-0.4597457707284557
-0.49228119496874	-0.46001071070223104
-0.49222015981249	-0.4591298055133233
-0.49215912465624	-0.45710449391361174
-0.49209808949999	-0.4539390195097898
-0.49203705434374	-0.4496404296759332
-0.49197601918749	-0.4442185751406669
-0.49191498403124	-0.43768605281248724
-0.49185394887499	-0.43005818205154517
-0.49179291371874	-0.42135299991770697
-0.49173187856249	-0.41159126488134906
-0.49167084340624	-0.4007961867197176
-0.49160980824999	-0.38899361287196155
-0.49154877309374	-0.37621204307181516
-0.49148773793749	-0.3624820182752313
-0.49142670278124	-0.3478367449005909
-0.49136566762499	-0.33231177631587966
-0.49130463246874	-0.3159443117479666
-0.49124359731249	-0.2987742000769598
-0.49118256215624	-0.2808433442845663
-0.49112152699999	-0.26219480475002144
-0.49106049184374	-0.2428740078173652
-0.49099945668749	-0.22292846874784122
-0.49093842153124	-0.20240618962537302
-0.49087738637499	-0.18135718945519402
-0.49081635121874	-0.1598333676864092
-0.49075531606249	-0.1378866973928089
-0.49069428090624	-0.11557089699063235
-0.49063324574999	-0.0929408887302596
-0.49057221059374	-0.07005160091056867
-0.49051117543749	-0.04695914150464474
-0.49045014028124	-0.02372031728770964
-0.49038910512499	-0.0003918788275180837
-0.49032806996874	0.022968973220537592
-0.49026703481249	0.046304780930286144
-0.49020599965624	0.06955834811074788
-0.49014496449999	0.09267244347136792
-0.49008392934374	0.1155902712017139
-0.49002289418749	0.1382555622048318
-0.48996185903124	0.1606122424589483
-0.48990082387499	0.18260539792331634
-0.48983978871874	0.2041809417791157
-0.48977875356249	0.22528529094897803
-0.48971771840624	0.245866543324331
-0.48965668324999	0.26587395683740195
-0.48959564809374	0.2852577339396336
-0.48953461293749	0.30397004695021745
-0.48947357778124	0.3219646107820235
-0.48941254262499	0.3391966095469719
-0.48935150746874	0.3556233372466529
-0.48929047231249	0.37120397715824816
-0.48922943715624	0.3858995618484857
-0.48916840199999	0.3996735935514791
-0.48910736684374	0.4124917031536414
-0.48904633168749	0.42432155358226203
-0.48898529653124	0.4351336501289254
-0.48892426137499	0.4449007642675252
-0.48886322621874	0.4535980900825286
-0.48880219106249	0.46120375602405717
-0.48874115590624	0.4676982490999535
-0.48868012074999	0.47306483882160366
-0.48861908559374	0.47728973037267874
-0.48855805043749	0.48036170710070686
-0.48849701528124	0.4822724289362596
-0.48843598012499	0.4830164660717754
-0.48837494496874	0.48259117807426793
-0.48831390981249	0.48099682051990483
-0.48825287465624	0.4782364817085521
-0.48819183949999	0.474316137982338
-0.48813080434374	0.4692446496261852
-0.48806976918749	0.46303360221697826
-0.48800873403124	0.45569744416525026
-0.48794769887499	0.4472534408144386
-0.48788666371874	0.4377214850828743
-0.48782562856249	0.4271241698645148
-0.48776459340624	0.4154867722701673
-0.48770355824999	0.4028370780369202
-0.48764252309374	0.38920535848944
-0.48758148793749	0.37462435798171767
-0.48752045278124	0.35912914326993906
-0.48745941762499	0.3427569902677487
-0.48739838246874	0.32554740551884703
-0.48733734731249	0.30754197332295913
-0.48727631215624	0.2887842180848472
-0.48721527699999	0.2693195440691704
-0.48715424184374	0.24919494527032288
-0.48709320668749	0.2284594118956989
-0.48703217153124	0.20716340742688805
-0.48697113637499	0.1853580968673629
-0.48691010121874	0.16309673540791708
-0.48684906606249	0.1404338861487079
-0.48678803090624	0.11742402371102473
-0.48672699574999	0.09412322759127159
-0.48666596059374	0.0705886767635781
-0.48660492543749	0.046877370210780395
-0.48654389028124	0.023047126160246945
-0.48648285512499	-0.0008439062200033811
-0.48642181996874	-0.024737550815353938
-0.48636078481249	-0.04857523984881264
-0.48629974965624	-0.07229895545832922
-0.48623871449999	-0.09585098845083027
-0.48617767934374	-0.1191734642946694
-0.48611664418749	-0.14220935902766027
-0.48605560903124	-0.16490272219185115
-0.48599457387499	-0.18719794679198073
-0.48593353871874	-0.20904020713155402
-0.48587250356249	-0.23037644800670695
-0.48581146840624	-0.25115450437496467
-0.48575043324999	-0.27132304621501496
-0.48568939809374	-0.2908331405774022
-0.48562836293749	-0.3096371719247495
-0.48556732778124	-0.3276885494894705
-0.48550629262499	-0.34494335238689566
-0.48544525746874	-0.36135960976923603
-0.48538422231249	-0.37689669736795434
-0.48532318715624	-0.3915165852148218
-0.48526215199999	-0.4051838289841648
-0.48520111684374	-0.4178646574181952
-0.48514008168749	-0.4295279044066382
-0.48507904653124	-0.4401453714714949
-0.48501801137499	-0.44969087617516534
-0.48495697621874	-0.45814091603348517
-0.48489594106249	-0.4654750549590686
-0.48483490590624	-0.47167530478723224
-0.48477387074999	-0.4767264359871719
-0.48471283559374	-0.48061621929269854
-0.48465180043749	-0.48333519834263994
-0.48459076528124	-0.4848767709631255
-0.48452973012499	-0.4852372951878741
-0.48446869496874	-0.4844160079760652
-0.48440765981249	-0.48241504869074614
-0.48434662465624	-0.47923949918589764
-0.48428558949999	-0.47489731250617273
-0.48422455434374	-0.4693993415247746
-0.48416351918749	-0.4627592640258657
-0.48410248403124	-0.4549935860106194
-0.48404144887499	-0.4461216616182763
-0.48398041371874	-0.436165463276528
-0.48391937856249	-0.4251496893336648
-0.48385834340624	-0.41310175913227726
-0.48379730824999	-0.40005149016188707
-0.48373627309374	-0.38603122352516966
-0.48367523793749	-0.3710758197411064
-0.48361420278124	-0.3552223318656861
-0.48355316762499	-0.3385099712931912
-0.48349213246874	-0.3209803285377202
-0.48343109731249	-0.30267691202779534
-0.48337006215624	-0.28364479692646904
-0.48330902699999	-0.2639314689123444
-0.48324799184374	-0.24358594068402303
-0.48318695668749	-0.2226582569012825
-0.48312592153124	-0.20120060449650368
-0.48306488637499	-0.17926624926862741
-0.48300385121874	-0.15690943844188743
-0.48294281606249	-0.13418583686855012
-0.48288178090624	-0.11115169423541083
-0.48282074574999	-0.08786417038205845
-0.48275971059374	-0.06438114822631295
-0.48269867543749	-0.040760944622740554
-0.48263764028124	-0.017062229317145586
-0.48257660512499	0.0066564496898283655
-0.48251556996874	0.030335905395001035
-0.48245453481249	0.05391709420679816
-0.48239349965624	0.07734199594301368
-0.48233246449999	0.10055223802503006
-0.48227142934374	0.1234897362481785
-0.48221039418749	0.14609787401218607
-0.48214935903124	0.16832059187477572
-0.48208832387499	0.19010223964522155
-0.48202728871874	0.21138880821605271
-0.48196625356249	0.2321275646520119
-0.48190521840624	0.25226671646991783
-0.48184418324999	0.2717562098317623
-0.48178314809374	0.29054754776565467
-0.48172211293749	0.3085940452907895
-0.48166107778124	0.32585084258198604
-0.48160004262499	0.34227475813476116
-0.48153900746874	0.3578250457823532
-0.48147797231249	0.37246314096561806
-0.48141693715624	0.38615238633187304
-0.48135590199999	0.3988586868892761
-0.48129486684374	0.41055054484871245
-0.48123383168749	0.42119878096755897
-0.48117279653124	0.4307767903897182
-0.48111176137499	0.4392608091229849
-0.48105072621874	0.44662968202978137
-0.48098969106249	0.4528649671250781
-0.48092865590624	0.4579512411351049
-0.48086762074999	0.4618758117003527
-0.48080658559374	0.4646288215193366
-0.48074555043749	0.46620350495941
-0.48068451528124	0.46659595551861427
-0.48062348012499	0.4658051612830927
-0.48056244496874	0.4638331692734087
-0.48050140981249	0.4606849255519286
-0.48044037465624	0.4563682737109189
-0.48037933949999	0.4508941016663374
-0.48031830434374	0.4442761302785799
-0.48025726918749	0.4365307898577891
-0.48019623403124	0.4276776122281609
-0.48013519887499	0.4177388806008357
-0.48007416371874	0.4067391983173493
-0.48001312856249	0.3947062521052648
-0.47995209340624	0.3816704135848037
-0.47989105824999	0.36766409100505976
-0.47983002309374	0.3527223789308727
-0.47976898793749	0.3368828936771707
-0.47970795278124	0.32018541153010166
-0.47964691762499	0.3026716668147216
-0.47958588246874	0.28438548597745666
-0.47952484731249	0.2653731260959865
-0.47946381215624	0.24568217669701078
-0.47940277699999	0.225361797907213
-0.47934174184374	0.20446342799143502
-0.47928070668749	0.1830395096914208
-0.47921967153124	0.16114359584922264
-0.47915863637499	0.13883104253197837
-0.47909760121874	0.11615801772087066
-0.47903656606249	0.09318121836016419
-0.47897553090624	0.06995872164184316
-0.47891449574999	0.04654914279993547
-0.47885346059374	0.023011079764338933
-0.47879242543749	-0.0005959485895028139
-0.47873139028124	-0.024212290911626258
-0.47867035512499	-0.04777868933619913
-0.47860931996874	-0.07123553612441341
-0.47854828481249	-0.09452347771961125
-0.47848724965624	-0.11758387697914094
-0.47842621449999	-0.14035840878691017
-0.47836517934374	-0.16278947029423727
-0.47830414418749	-0.1848203534358365
-0.47824310903124	-0.20639509643400455
-0.47818207387499	-0.22745914112374574
-0.47812103871874	-0.24795932105093002
-0.47806000356249	-0.2678432790905594
-0.47799896840624	-0.2870604265492015
-0.47793793324999	-0.30556232184797993
-0.47787689809374	-0.32330167221536965
-0.47781586293749	-0.3402330677302356
-0.47775482778124	-0.35631358123007395
-0.47769379262499	-0.37150207523083845
-0.47763275746874	-0.38575958461452464
-0.47757172231249	-0.39904964889836714
-0.47751068715624	-0.4113379945051944
-0.47744965199999	-0.42259303488590444
-0.47738861684374	-0.43278583633796297
-0.47732758168749	-0.44188971244748276
-0.47726654653124	-0.44988096017591417
-0.47720551137499	-0.456738879553192
-0.47714447621874	-0.46244523013639366
-0.47708344106249	-0.46698465022718194
-0.47702240590624	-0.47034497455558105
-0.47696137074999	-0.47251689924411194
-0.47690033559374	-0.4734939109974689
-0.47683930043749	-0.4732726244137802
-0.47677826528124	-0.47185276481683036
-0.47671723012499	-0.4692368914587162
-0.47665619496874	-0.46543056543263456
-0.47659515981249	-0.4604425226590868
-0.47653412465624	-0.4542843213065584
-0.47647308949999	-0.4469703716447942
-0.47641205434374	-0.4385182321121387
-0.47635101918749	-0.42894825128479347
-0.47628998403124	-0.4182834094184634
-0.47622894887499	-0.4065496233134365
-0.47616791371874	-0.39377555139533765
-0.47610687856249	-0.3799923654565808
-0.47604584340624	-0.3652338220412685
-0.47598480824999	-0.3495360786624226
-0.47592377309374	-0.3329378170375671
-0.47586273793749	-0.31548003370193073
-0.47580170278124	-0.2972055585018945
-0.47574066762499	-0.27815963796434395
-0.47567963246874	-0.25838958191686145
-0.47561859731249	-0.2379440899382845
-0.47555756215624	-0.21687384762078185
-0.47549652699999	-0.19523136770111418
-0.47543549184374	-0.17307031057138597
-0.47537445668749	-0.15044557953051277
-0.47531342153124	-0.12741366067490503
-0.47525238637499	-0.1040319798460125
-0.47519135121874	-0.080358539521843
-0.47513031606249	-0.056452482635818584
-0.47506928090624	-0.03237363259538568
-0.47500824574999	-0.008181880735946773
-0.47494721059374	0.016062322274318537
-0.47488617543749	0.04029812104010504
-0.47482514028124	0.0644650672146368
-0.47476410512499	0.08850273715544771
-0.47470306996874	0.11235071759571165
-0.47464203481249	0.13594924387873222
-0.47458099965624	0.15923925942312814
-0.47451996449999	0.18216228325257514
-0.47445892934374	0.2046605771008671
-0.47439789418749	0.2266777224504389
-0.47433685903124	0.2481583503475107
-0.47427582387499	0.2690483088895271
-0.47421478871874	0.28929509121280395
-0.47415375356249	0.30884747996676415
-0.47409271840624	0.3276562462409135
-0.47403168324999	0.3456740180935683
-0.47397064809374	0.36285490218972516
-0.47390961293749	0.37915562334975705
-0.47384857778124	0.39453505206704526
-0.47378754262499	0.408953801898437
-0.47372650746874	0.4223753858109313
-0.47366547231249	0.4347657833959304
-0.47360443715624	0.4460931882584101
-0.47354340199999	0.45632873304529287
-0.47348236684374	0.4654461978890839
-0.47342133168749	0.4734220704627294
-0.47336029653124	0.48023580073566613
-0.47329926137499	0.48586966455765473
-0.47323822621874	0.4903088915687072
-0.47317719106249	0.49354169426192884
-0.47311615590624	0.4955593325124049
-0.47305512074999	0.4963561093760116
-0.47299408559374	0.49592929703862615
-0.47293305043749	0.49427930983745827
-0.47287201528124	0.49140966620749016
-0.47281098012499	0.48732682209508144
-0.47274994496874	0.4820403129690748
-0.47268890981249	0.4755628328587709
-0.47262787465624	0.4679098822687836
-0.47256683949999	0.4590998969027091
-0.47250580434374	0.44915449689610487
-0.47244476918749	0.43809788443657477
-0.47238373403124	0.4259570168030394
-0.47232269887499	0.41276191529231604
-0.47226166371874	0.3985450012958797
-0.47220062856249	0.38334113393527985
-0.47213959340624	0.36718804609627087
-0.47207855824999	0.35012573624221627
-0.47201752309374	0.3321961095329021
-0.47195648793749	0.31344381414273137
-0.47189545278124	0.29391548209011675
-0.47183441762499	0.27365918046116255
-0.47177338246874	0.25272552130123177
-0.47171234731249	0.2311666204694508
-0.47165131215624	0.20903566539343993
-0.47159027699999	0.18638805007662754
-0.47152924184374	0.16328033225536864
-0.47146820668749	0.1397695955403583
-0.47140717153124	0.11591465695045043
-0.47134613637499	0.09177525823310244
-0.47128510121874	0.06741124564138007
-0.47122406606249	0.04288347445622453
-0.47116303090624	0.018253326197116677
-0.47110199574999	-0.00641772303044991
-0.47104096059374	-0.03106816803839066
-0.47097992543749	-0.05563632533983834
-0.47091889028124	-0.08006069809914872
-0.47085785512499	-0.10428052078297215
-0.47079681996874	-0.12823487467610764
-0.47073578481249	-0.15186384495564795
-0.47067474965624	-0.17510876335466743
-0.47061371449999	-0.1979110007552104
-0.47055267934374	-0.2202134901884752
-0.47049164418749	-0.24196074241789237
-0.47043060903124	-0.26309798338874374
-0.47036957387499	-0.2835723513338455
-0.47030853871874	-0.30333279731102725
-0.47024750356249	-0.3223294874928089
-0.47018646840624	-0.3405149155665569
-0.47012543324999	-0.3578438245428834
-0.47006439809374	-0.37427249975722776
-0.47000336293749	-0.3897597811800656
-0.46994232778124	-0.4042670804579447
-0.46988129262499	-0.41775796614358274
-0.46982025746874	-0.43019863871614256
-0.46975922231249	-0.4415579383877452
-0.46969818715624	-0.4518075471189182
-0.46963715199999	-0.4609218264177354
-0.46957611684374	-0.46887785479517896
-0.46951508168749	-0.4756559305152478
-0.46945404653124	-0.48123918680221694
-0.46939301137499	-0.48561361807751824
-0.46933197621874	-0.4887684655653278
-0.46927094106249	-0.4906960200727862
-0.46920990590624	-0.4913915680301154
-0.46914887074999	-0.49085356417864295
-0.46908783559374	-0.4890836087545531
-0.46902680043749	-0.486086386003444
-0.46896576528124	-0.4818696459013318
-0.46890473012499	-0.4764442546277859
-0.46884369496874	-0.4698242030405671
-0.46878265981249	-0.4620263525957853
-0.46872162465624	-0.4530706297664672
-0.46866058949999	-0.44298001079007515
-0.46859955434374	-0.4317800741798196
-0.46853851918749	-0.41949940567295346
-0.46847748403124	-0.40616941165643244
-0.46841644887499	-0.3918238518626581
-0.46835541371874	-0.37649933142094844
-0.46829437856249	-0.3602349148367405
-0.46823334340624	-0.3430718458683072
-0.46817230824999	-0.3250539738955963
-0.46811127309374	-0.3062270190871725
