Time	Frequency
-0.500018629187494	-0.3849407916920273
-0.49995759403124396	-0.3862713923426657
-0.49989655887499396	-0.38698407717585137
-0.49983552371874396	-0.3870777254770025
-0.49977448856249396	-0.38655230535320534
-0.49971345340624396	-0.38540875840414873
-0.49965241824999396	-0.3836489147925
-0.49959138309374396	-0.38127571898131496
-0.49953034793749396	-0.378293039266663
-0.49946931278124396	-0.3747055937387996
-0.49940827762499396	-0.3705192950308851
-0.49934724246874396	-0.3657409168034128
-0.49928620731249396	-0.3603779336711336
-0.49922517215624396	-0.3544391650375274
-0.49916413699999396	-0.3479342444479913
-0.49910310184374396	-0.34087326034628224
-0.49904206668749396	-0.3332678049423383
-0.49898103153124396	-0.3251302345991978
-0.49891999637499396	-0.3164731653190272
-0.49885896121874396	-0.3073107894505107
-0.49879792606249396	-0.29765789461542375
-0.49873689090624396	-0.28752958398338996
-0.49867585574999396	-0.2769424641462806
-0.49861482059374396	-0.26591342068836643
-0.49855378543749396	-0.2544598823033178
-0.49849275028124396	-0.242600677207957
-0.49843171512499396	-0.23035453759777788
-0.49837067996874396	-0.21774093603893677
-0.49830964481249396	-0.2047806611459268
-0.49824860965624396	-0.1914940372363301
-0.49818757449999396	-0.17790237150359348
-0.49812653934374396	-0.1640279499809202
-0.49806550418749396	-0.14989253336395383
-0.49800446903124396	-0.1355190251928366
-0.49794343387499396	-0.12093064951624005
-0.49788239871874396	-0.10615053630296109
-0.49782136356249396	-0.0912026861000087
-0.49776032840624396	-0.07611105499850655
-0.49769929324999396	-0.060899835060226636
-0.49763825809374396	-0.04559349701284222
-0.49757722293749396	-0.030216791910265044
-0.49751618778124396	-0.014794399892239286
-0.49745515262499396	0.0006491458847883705
-0.49739411746874396	0.01608849802852637
-0.49733308231249396	0.03149895811893125
-0.49727204715624396	0.04685610123180638
-0.49721101199999396	0.06213459523238608
-0.49714997684374396	0.07730999789178916
-0.49708894168749396	0.09235818224379652
-0.49702790653124396	0.10725440920848231
-0.49696687137499396	0.12197470371421935
-0.49690583621874396	0.13649562525194514
-0.49684480106249396	0.15079344482494916
-0.49678376590624396	0.16484493107241413
-0.49672273074999396	0.17862768659992778
-0.49666169559374396	0.192119268842237
-0.49660066043749396	0.2052976445744483
-0.49653962528124396	0.21814179582454493
-0.49647859012499396	0.23063070412195452
-0.49641755496874396	0.24274396256931122
-0.49635651981249396	0.25446232087798076
-0.49629548465624396	0.2657664353881655
-0.49623444949999396	0.27663773519515655
-0.49617341434374396	0.2870590300361904
-0.49611237918749396	0.2970130980172185
-0.49605134403124396	0.3064833437713224
-0.49599030887499396	0.31545482130026065
-0.49592927371874396	0.32391278279079594
-0.49586823856249396	0.331842875864214
-0.49580720340624396	0.3392325834138693
-0.49574616824999396	0.346069750820693
-0.49568513309374396	0.3523426133948922
-0.49562409793749396	0.3580412480511786
-0.49556306278124396	0.3631561699330039
-0.49550202762499396	0.36767849315145157
-0.49544099246874396	0.37160098348308074
-0.49537995731249396	0.374916948077661
-0.49531892215624396	0.37762054952778107
-0.49525788699999396	0.3797073308076746
-0.49519685184374396	0.3811735223951178
-0.49513581668749396	0.38201636424780494
-0.49507478153124396	0.3822342775424874
-0.49501374637499396	0.3818265159790256
-0.49495271121874396	0.380793370863284
-0.49489167606249396	0.37913620544743076
-0.49483064090624396	0.37685732297673974
-0.49476960574999396	0.37396002606820306
-0.49470857059374396	0.3704486384302825
-0.49464753543749396	0.3663285025594372
-0.49458650028124396	0.3616058321149336
-0.49452546512499396	0.35628788609272916
-0.49446442996874396	0.35038298413406604
-0.49440339481249396	0.3439001575455446
-0.49434235965624396	0.33684951518183914
-0.49428132449999396	0.3292421675966051
-0.49422028934374396	0.32108991603788095
-0.49415925418749396	0.31240559744748847
-0.49409821903124396	0.3032028879223218
-0.49403718387499396	0.2934961878525742
-0.49397614871874396	0.2833009089407848
-0.49391511356249396	0.27263319587205925
-0.49385407840624396	0.26150971573218607
-0.49379304324999396	0.2499481695913327
-0.49373200809374396	0.23796713532614203
-0.49367097293749396	0.2255852917175751
-0.49360993778124396	0.21282223645903417
-0.49354890262499396	0.1996987144431145
-0.49348786746874396	0.1862352835139392
-0.49342683231249396	0.1724532127564047
-0.49336579715624396	0.15837490927783912
-0.49330476199999396	0.14402252024392773
-0.49324372684374396	0.12941887364684318
-0.49318269168749396	0.11458766477900509
-0.49312165653124396	0.09955223360827073
-0.49306062137499396	0.08433661752578894
-0.49299958621874396	0.06896553024353055
-0.49293855106249396	0.05346318843070254
-0.49287751590624396	0.037854486347932294
-0.49281648074999396	0.022164800899767006
-0.49275544559374396	0.0064187273667521885
-0.49269441043749396	-0.009358162083332759
-0.49263337528124396	-0.02514017966464078
-0.49257234012499396	-0.040902785553190046
-0.49251130496874396	-0.056620086643352066
-0.49245026981249396	-0.07226659948573225
-0.49238923465624396	-0.08781783774614671
-0.49232819949999396	-0.10324817431718991
-0.49226716434374396	-0.11853284957710566
-0.49220612918749396	-0.13364753467420143
-0.49214509403124396	-0.1485673615976711
-0.49208405887499396	-0.1632684918726151
-0.49202302371874396	-0.1777273780757494
-0.49196198856249396	-0.19192018321343726
-0.49190095340624396	-0.20582409110441183
-0.49183991824999396	-0.21941696569122587
-0.49177888309374396	-0.2326762782701799
-0.49171784793749396	-0.24558052656356777
-0.49165681278124396	-0.25810927455450194
-0.49159577762499396	-0.2702416667380277
-0.49153474246874396	-0.2819578987440616
-0.49147370731249396	-0.2932394417150767
-0.49141267215624396	-0.30406741357025907
-0.49135163699999396	-0.3144240502677201
-0.49129060184374396	-0.32429298393119493
-0.49122956668749396	-0.3336575435179256
-0.49116853153124396	-0.3425023406439601
-0.49110749637499396	-0.3508133466015059
-0.49104646121874396	-0.3585763587673097
-0.49098542606249396	-0.3657786053872348
-0.49092439090624396	-0.372408556693659
-0.49086335574999396	-0.3784548015008239
-0.49080232059374396	-0.3839072619671349
-0.49074128543749396	-0.3887570745706634
-0.49068025028124396	-0.3929958675514657
-0.49061921512499396	-0.3966163757005476
-0.49055817996874396	-0.3996125414298905
-0.49049714481249396	-0.40197908316990977
-0.49043610965624396	-0.40371174218514827
-0.49037507449999396	-0.4048073887555825
-0.49031403934374396	-0.4052638178853416
-0.49025300418749396	-0.40507986439842486
-0.49019196903124396	-0.40425543161850247
-0.49013093387499396	-0.40279140487618836
-0.49006989871874396	-0.40068968611717254
-0.49000886356249396	-0.39795328880492487
-0.48994782840624396	-0.3945861471913554
-0.48988679324999396	-0.3905931848182617
-0.48982575809374396	-0.38598053427836204
-0.48976472293749396	-0.38075509789878037
-0.48970368778124396	-0.3749247807635996
-0.48964265262499396	-0.36849868628816984
-0.48958161746874396	-0.3614866515977887
-0.48952058231249396	-0.35389949799827414
-0.48945954715624396	-0.34574902826181436
-0.48939851199999396	-0.33704798118431684
-0.48933747684374396	-0.3278099468970018
-0.48927644168749396	-0.31804923934734813
-0.48921540653124396	-0.30778130147289234
-0.48915437137499396	-0.29702226447849867
-0.48909333621874396	-0.28578889831760507
-0.48903230106249396	-0.2740989964434213
-0.48897126590624396	-0.2619709890150391
-0.48891023074999396	-0.24942397660381696
-0.48884919559374396	-0.23647775133366175
-0.48878816043749396	-0.22315281589740957
-0.48872712528124396	-0.20947034778939996
-0.48866609012499396	-0.19545182580055856
-0.48860505496874396	-0.18111953142552778
-0.48854401981249396	-0.16649637381418586
-0.48848298465624396	-0.15160533030201517
-0.48842194949999396	-0.1364701315856682
-0.48836091434374396	-0.12111487408389648
-0.48829987918749396	-0.10556387189282601
-0.48823884403124396	-0.08984209069355012
-0.48817780887499396	-0.07397424672671792
-0.48811677371874396	-0.05798568095114368
-0.48805573856249396	-0.04190226075458627
-0.48799470340624396	-0.025749039129842256
-0.48793366824999396	-0.009552046979606143
-0.48787263309374396	0.006662645351105174
-0.48781159793749396	0.022869678498682766
-0.48775056278124396	0.039042693231953245
-0.48768952762499396	0.0551560037809729
-0.48762849246874396	0.07118421014486627
-0.48756745731249396	0.08710110175189119
-0.48750642215624396	0.10288146264035941
-0.48744538699999396	0.11850047446302904
-0.48738435184374396	0.13393254153258372
-0.48732331668749396	0.14915302393202473
-0.48726228153124396	0.16413812878083084
-0.48720124637499396	0.17886332930311682
-0.48714021121874396	0.19330493712766578
-0.48707917606249396	0.2074403620423531
-0.48701814090624396	0.2212466053553885
-0.48695710574999396	0.2347013747663671
-0.48689607059374396	0.2477834634639255
-0.48683503543749396	0.26047169483656585
-0.48677400028124396	0.27274572704441746
-0.48671296512499396	0.28458592185513754
-0.48665192996874396	0.2959730867539082
-0.48659089481249396	0.3068893157576711
-0.48652985965624396	0.3173168418529362
-0.48646882449999396	0.3272386764103586
-0.48640778934374396	0.33663948295618246
-0.48634675418749396	0.34550380367899725
-0.48628571903124396	0.3538171644985533
-0.48622468387499396	0.3615667851748782
-0.48616364871874396	0.3687398898185725
-0.48610261356249396	0.37532476117700525
-0.48604157840624396	0.38131126273008215
-0.48598054324999396	0.3866895748917242
-0.48591950809374396	0.39145087550402907
-0.48585847293749396	0.39558782659648245
-0.48579743778124396	0.3990937133321965
-0.48573640262499396	0.4019627248501046
-0.48567536746874396	0.4041904765189567
-0.48561433231249396	0.4057734017654411
-0.48555329715624396	0.4067088206370334
-0.48549226199999396	0.4069953950139486
-0.48543122684374396	0.4066327050123738
-0.48537019168749396	0.40562126624273037
-0.48530915653124396	0.4039628438301608
-0.48524812137499396	0.40166015288199736
-0.48518708621874396	0.39871686653490823
-0.48512605106249396	0.39513787619680507
-0.48506501590624396	0.39092899070597803
-0.48500398074999396	0.3860969756112832
-0.48494294559374396	0.38064978818416234
-0.48488191043749396	0.3745962358021766
-0.48482087528124396	0.36794613225188205
-0.48475984012499396	0.3607103228016954
-0.48469880496874396	0.35290050416127616
-0.48463776981249396	0.3445294623707063
-0.48457673465624396	0.3356106893114969
-0.48451569949999396	0.32615865690245816
-0.48445466434374396	0.3161889001632546
-0.48439362918749396	0.305717418587515
-0.48433259403124396	0.2947612636471232
-0.48427155887499396	0.28333833385886575
-0.48421052371874396	0.27146709913303657
-0.48414948856249396	0.2591669229056591
-0.48408845340624396	0.24645770326669225
-0.48402741824999396	0.23336014696866678
-0.48396638309374396	0.21989567526253462
-0.48390534793749396	0.20608598792999613
-0.48384431278124396	0.19195354698943115
-0.48378327762499396	0.17752157874034322
-0.48372224246874396	0.1628133989028055
-0.48366120731249396	0.14785275885857477
-0.48360017215624396	0.13266438564709185
-0.48353913699999396	0.11727285097761009
-0.48347810184374396	0.10170294121255218
-0.48341706668749396	0.08598048619731247
-0.48335603153124396	0.07013083118957816
-0.48329499637499396	0.05417957943440914
-0.48323396121874396	0.03815328163779656
-0.48317292606249396	0.022077696958773853
-0.48311189090624396	0.005978721772409585
-0.48305085574999396	-0.010116688287899562
-0.48298982059374396	-0.02618254987702837
-0.48292878543749396	-0.04219324880983009
-0.48286775028124396	-0.058121862688593984
-0.48280671512499396	-0.07394246082998272
-0.48274567996874396	-0.08962997337042702
-0.48268464481249396	-0.10515809695260046
-0.48262360965624396	-0.12050141103641632
-0.48256257449999396	-0.1356354626273094
-0.48250153934374396	-0.15053505727966754
-0.48244050418749396	-0.16517585726343767
-0.48237946903124396	-0.17953421378102305
-0.48231843387499396	-0.19358632857443805
-0.48225739871874396	-0.2073094590403149
-0.48219636356249396	-0.22068111365888596
-0.48213532840624396	-0.23367916272555497
-0.48207429324999396	-0.2462827638116641
-0.48201325809374396	-0.2584709759060233
-0.48195222293749396	-0.27022375495966666
-0.48189118778124396	-0.2815222831752877
-0.48183015262499396	-0.2923475438098529
-0.48176911746874396	-0.3026819498163566
-0.48170808231249396	-0.3125088889101942
-0.48164704715624396	-0.32181166617045587
-0.48158601199999396	-0.33057529145947795
-0.48152497684374396	-0.3387856058768021
-0.48146394168749396	-0.3464286230163669
-0.48140290653124396	-0.35349204794645783
-0.48134187137499396	-0.35996437384974916
-0.48128083621874396	-0.36583463648795395
-0.48121980106249396	-0.371093348137173
-0.48115876590624396	-0.3757318324195266
-0.48109773074999396	-0.37974232432799815
-0.48103669559374396	-0.3831182713083898
-0.48097566043749396	-0.38585401291838006
-0.48091462528124396	-0.38794500485707756
-0.48085359012499396	-0.3893877840992829
-0.48079255496874396	-0.39017984680319956
-0.48073151981249396	-0.39031985458458845
-0.48067048465624396	-0.38980750390039903
-0.48060944949999396	-0.38864352920776113
-0.48054841434374396	-0.3868297961852922
-0.48048737918749396	-0.38436917381392016
-0.48042634403124396	-0.3812656309558009
-0.48036530887499396	-0.3775241746206147
-0.48030427371874396	-0.37315089170644167
-0.48024323856249396	-0.36815288098978133
-0.48018220340624396	-0.36253817951487505
-0.48012116824999396	-0.35631608853609825
-0.48006013309374396	-0.3494966967561632
-0.47999909793749396	-0.3420909739704544
-0.47993806278124396	-0.3341112547838308
-0.47987702762499396	-0.32557050015499034
-0.47981599246874396	-0.31648254401695136
-0.47975495731249396	-0.30686243869292096
-0.47969392215624396	-0.2967258526610085
-0.47963288699999396	-0.28608937407015533
-0.47957185184374396	-0.2749705145931919
-0.47951081668749396	-0.2633873991671471
-0.47944978153124396	-0.2513590930316793
-0.47938874637499396	-0.23890537792300637
-0.47932771121874396	-0.22604662452921556
-0.47926667606249396	-0.21280396711567823
-0.47920564090624396	-0.19919919728192784
-0.47914460574999396	-0.18525475069796682
-0.47908357059374396	-0.1709933781153647
-0.47902253543749396	-0.15643862356040733
-0.47896150028124396	-0.1416147199402118
-0.47890046512499396	-0.1265455860320117
-0.47883942996874396	-0.11125624665857609
-0.47877839481249396	-0.0957723080425346
-0.47871735965624396	-0.08011860162362673
-0.47865632449999396	-0.06432131593129996
-0.47859528934374396	-0.04840682101771912
-0.47853425418749396	-0.03240064401756833
-0.47847321903124396	-0.01632979749654758
-0.47841218387499396	-0.0002209595480573499
-0.47835114871874396	0.01589994763357907
-0.47829011356249396	0.03200564359668228
-0.47822907840624396	0.04806946473352021
-0.47816804324999396	0.06406534502122772
-0.47810700809374396	0.07996623963767707
-0.47804597293749396	0.09574596511890862
-0.47798493778124396	0.1113786148412832
-0.47792390262499396	0.12683778678140317
-0.47786286746874396	0.142098132987386
-0.47780183231249396	0.15713433266416807
-0.47774079715624396	0.17192111335593824
-0.47767976199999396	0.18643406209810992
-0.47761872684374396	0.20064913062043255
-0.47755769168749396	0.21454240028144236
-0.47749665653124396	0.22809065290406258
-0.47743562137499396	0.24127174015177635
-0.47737458621874396	0.25406317403325235
-0.47731355106249396	0.26644351730915977
-0.47725251590624396	0.27839264851536627
-0.47719148074999396	0.28988992088266113
-0.47713044559374396	0.300916133855235
-0.47706941043749396	0.31145317977089315
-0.47700837528124396	0.3214828776141525
-0.47694734012499396	0.3309884574354195
-0.47688630496874396	0.33995396881310636
-0.47682526981249396	0.34836409327988144
-0.47676423465624396	0.3562046919723516
-0.47670319949999396	0.36346232037469434
-0.47664216434374396	0.3701246298380619
-0.47658112918749396	0.376180275937521
-0.47652009403124396	0.3816187085214857
-0.47645905887499396	0.38643061636661014
-0.47639802371874396	0.390607629980848
-0.47633698856249396	0.39414229386159627
-0.47627595340624396	0.39702841802996225
-0.47621491824999396	0.39926079152161337
-0.47615388309374396	0.40083516249453843
-0.47609284793749396	0.401748528199501
-0.47603181278124396	0.4019989310182824
-0.47597077762499396	0.4015854131378785
-0.47590974246874396	0.40050817730000804
-0.47584870731249396	0.39876858504340307
-0.47578767215624396	0.3963689727130216
-0.47572663699999396	0.3933127333037625
-0.47566560184374396	0.38960458551063704
-0.47560456668749396	0.38525008336726724
-0.47554353153124396	0.3802557906129458
-0.47548249637499396	0.37462970608505786
-0.47542146121874396	0.36838051491574636
-0.47536042606249396	0.36151791229171604
-0.47529939090624396	0.3540530084075262
-0.47523835574999396	0.3459974866020737
-0.47517732059374396	0.3373640981188568
-0.47511628543749396	0.3281668836129214
-0.47505525028124396	0.31842030130887267
-0.47499421512499396	0.3081400378266933
-0.47493317996874396	0.29734285131953875
-0.47487214481249396	0.28604577303111084
-0.47481110965624396	0.27426714189763524
-0.47475007449999396	0.26202619389057624
-0.47468903934374396	0.24934244212042306
-0.47462800418749396	0.23623642105896053
-0.47456696903124396	0.22272957941328128
-0.47450593387499396	0.2088437390326637
-0.47444489871874396	0.1946012949071888
-0.47438386356249396	0.1800255453768761
-0.47432282840624396	0.16514026584464442
-0.47426179324999396	0.149969525605797
-0.47420075809374396	0.13453804190791047
-0.47413972293749396	0.11887117591372645
-0.47407868778124396	0.10299432742590602
-0.47401765262499396	0.0869333307659607
-0.47395661746874396	0.07071468539563128
-0.47389558231249396	0.05436472307871336
-0.47383454715624396	0.03791021709524739
-0.47377351199999396	0.02137815773646531
-0.47371247684374396	0.0047954820868603065
-0.47365144168749396	-0.011810396808656767
-0.47359040653124396	-0.028412391829914205
-0.47352937137499396	-0.04498340829387074
-0.47346833621874396	-0.06149597800518115
-0.47340730106249396	-0.07792303334106129
-0.47334626590624396	-0.09423776242218165
-0.47328523074999396	-0.11041321455775457
-0.47322419559374396	-0.12642266258897789
-0.47316316043749396	-0.14223996626702815
-0.47310212528124396	-0.15783902745639758
-0.47304109012499396	-0.1731939539880952
-0.47298005496874396	-0.18827967892599776
-0.47291901981249396	-0.2030712097473935
-0.47285798465624396	-0.21754405235909677
-0.47279694949999396	-0.2316744912275628
-0.47273591434374396	-0.2454389397338946
-0.47267487918749396	-0.2588148206843858
-0.47261384403124396	-0.27178004393354793
-0.47255280887499396	-0.28431281585397794
-0.47249177371874396	-0.296392712202943
-0.47243073856249396	-0.30799965884549413
-0.47236970340624396	-0.31911413563444113
-0.47230866824999396	-0.3297179781265309
-0.47224763309374396	-0.33979342121205397
-0.47218659793749396	-0.34932362711462506
-0.47212556278124396	-0.35829293993812217
-0.47206452762499396	-0.36668616447414104
-0.47200349246874396	-0.3744893354821121
-0.47194245731249396	-0.3816895818783059
-0.47188142215624396	-0.38827459632303124
-0.47182038699999396	-0.3942333883694036
-0.47175935184374396	-0.3995560650134453
-0.47169831668749396	-0.40423344377394305
-0.47163728153124396	-0.40825767853189243
-0.47157624637499396	-0.41162200570327595
-0.47151521121874396	-0.41432047815263945
-0.47145417606249396	-0.41634851044020055
-0.47139314090624396	-0.4177026045831203
-0.47133210574999396	-0.41838015512494153
-0.47127107059374396	-0.4183798773147747
-0.47121003543749396	-0.4177015950634732
-0.47114900028124396	-0.4163461004116056
-0.47108796512499396	-0.41431544863438763
-0.47102692996874396	-0.41161278056651707
-0.47096589481249396	-0.40824226322469437
-0.47090485965624396	-0.40420927159546866
-0.47084382449999396	-0.3995202552952864
-0.47078278934374396	-0.3941826714244324
-0.47072175418749396	-0.38820511730932195
-0.47066071903124396	-0.3815973182904828
-0.47059968387499396	-0.3743698603716302
-0.47053864871874396	-0.36653447995843813
-0.47047761356249396	-0.3581040155742041
