Time	Frequency
-0.5000216692500032	1.4203732867328832e-24
-0.49996063409375324	1.5333504908169663e-24
-0.49989959893750324	1.6431931662912657e-24
-0.49983856378125324	1.7496849778111017e-24
-0.49977752862500324	1.85261888964696e-24
-0.49971649346875324	1.951792102330643e-24
-0.49965545831250324	2.047008278185667e-24
-0.49959442315625324	2.1380809198028948e-24
-0.49953338800000324	2.224832327146367e-24
-0.49947235284375324	2.3070902822061497e-24
-0.49941131768750324	2.3846921985968206e-24
-0.49935028253125324	2.4574869338187242e-24
-0.49928924737500324	2.525330174738091e-24
-0.49922821221875324	2.5880876274675388e-24
-0.49916717706250324	2.6456359484742448e-24
-0.49910614190625324	2.6978609528134524e-24
-0.49904510675000324	2.7446597599204362e-24
-0.49898407159375324	2.7859395028966187e-24
-0.49892303643750324	2.821617496909141e-24
-0.49886200128125324	2.8516236324430554e-24
-0.49880096612500324	2.8758980666065266e-24
-0.49873993096875324	2.8943911424693588e-24
-0.49867889581250324	2.90706620069239e-24
-0.49861786065625324	2.9138976058418103e-24
-0.49855682550000324	2.9148700574405093e-24
-0.49849579034375324	2.90998095587131e-24
-0.49843475518750324	2.8992390360588536e-24
-0.49837372003125324	2.882663709768692e-24
-0.49831268487500324	2.8602868629949026e-24
-0.49825164971875324	2.8321514555148232e-24
-0.49819061456250324	2.798311006349427e-24
-0.49812957940625324	2.75883140707478e-24
-0.49806854425000324	2.713789352973177e-24
-0.49800750909375324	2.663271803380755e-24
-0.49794647393750324	2.6073769485109457e-24
-0.49788543878125324	2.5462140530541176e-24
-0.49782440362500324	2.4799023479129713e-24
-0.49776336846875324	2.40857067986315e-24
-0.49770233331250324	2.332358822212827e-24
-0.49764129815625324	2.2514154751375873e-24
-0.49758026300000324	2.1658993722282518e-24
-0.49751922784375324	2.0759776580020395e-24
-0.49745819268750324	1.9818256537564226e-24
-0.49739715753125324	1.8836296489539007e-24
-0.49733612237500324	1.781580739015981e-24
-0.49727508721875324	1.6758788229963244e-24
-0.49721405206250324	1.5667332546627424e-24
-0.49715301690625324	1.4543568874667566e-24
-0.49709198175000324	1.3389701710915768e-24
-0.49703094659375324	1.2208010541242616e-24
-0.49696991143750324	1.1000821105597405e-24
-0.49690887628125324	9.77049630197649e-25
-0.49684784112500324	8.519461504516227e-25
-0.49678680596875324	7.250194089265999e-25
-0.49672577081250324	5.965179876707499e-25
-0.49666473565625324	4.666954569615987e-25
-0.49660370050000324	3.3580931492833005e-25
-0.49654266534375324	2.0411587745491314e-25
-0.49648163018750324	7.187584640720956e-26
-0.49642059503125324	-6.064789397814275e-26
-0.49635955987500324	-1.9319555202963998e-25
-0.49629852471875324	-3.2550467244315098e-25
-0.49623748956250324	-4.573119270092811e-25
-0.49617645440625324	-5.883572798084233e-25
-0.49611541925000324	-7.183819028015012e-25
-0.49605438409375324	-8.471268325581273e-25
-0.49599334893750324	-9.74335979002822e-25
-0.49593231378125324	-1.0997589103945138e-24
-0.49587127862500324	-1.2231456816254377e-24
-0.49581024346875324	-1.3442488562498472e-24
-0.49574920831250324	-1.4628298154287291e-24
-0.49568817315625324	-1.5786528767561064e-24
-0.49562713800000324	-1.6914845514068853e-24
-0.49556610284375324	-1.80110062143003e-24
-0.49550506768750324	-1.907284024796138e-24
-0.49544403253125324	-2.0098202603911364e-24
-0.49538299737500324	-2.1085034079869477e-24
-0.49532196221875324	-2.203138138457452e-24
-0.49526092706250324	-2.2935329996187108e-24
-0.49519989190625324	-2.3795049021262438e-24
-0.49513885675000324	-2.4608824920877035e-24
-0.49507782159375324	-2.537501031922785e-24
-0.49501678643750324	-2.6092044650770663e-24
-0.49495575128125324	-2.6758478265902113e-24
-0.49489471612500324	-2.737295814487059e-24
-0.49483368096875324	-2.7934222881679093e-24
-0.49477264581250324	-2.844111701946126e-24
-0.49471161065625324	-2.8892605558510273e-24
-0.49465057550000324	-2.9287744011420834e-24
-0.49458954034375324	-2.9625697314685397e-24
-0.49452850518750324	-2.9905764528667355e-24
-0.49446747003125324	-3.0127334999214174e-24
-0.49440643487500324	-3.0289913881851402e-24
-0.49434539971875324	-3.0393140805262956e-24
-0.49428436456250324	-3.043675371718597e-24
-0.49422332940625324	-3.0420609167981716e-24
-0.49416229425000324	-3.0344690541776252e-24
-0.49410125909375324	-3.0209091504263483e-24
-0.49404022393750324	-3.0014022284058186e-24
-0.49397918878125324	-2.975981309952427e-24
-0.49391815362500324	-2.9446911188007927e-24
-0.49385711846875324	-2.9075874207081823e-24
-0.49379608331250324	-2.864737946985599e-24
-0.49373504815625324	-2.8162217954679186e-24
-0.49367401300000324	-2.7621283112277685e-24
-0.49361297784375324	-2.7025591922110494e-24
-0.49355194268750324	-2.6376264858353127e-24
-0.49349090753125324	-2.567451498308451e-24
-0.49342987237500324	-2.4921680139671508e-24
-0.49336883721875324	-2.4119193361914513e-24
-0.49330780206250324	-2.3268568446053756e-24
-0.49324676690625324	-2.237143734881474e-24
-0.49318573175000324	-2.1429519643073596e-24
-0.49312469659375324	-2.0444608226986567e-24
-0.49306366143750324	-1.941860027605285e-24
-0.49300262628125324	-1.8353468179454108e-24
-0.49294159112500324	-1.7251256011515128e-24
-0.49288055596875324	-1.611409162185437e-24
-0.49281952081250324	-1.4944165865034304e-24
-0.49275848565625324	-1.3743741650552665e-24
-0.49269745050000324	-1.2515135197498248e-24
-0.49263641534375324	-1.1260721020616903e-24
-0.49257538018750324	-9.982938329294865e-25
-0.49251434503125324	-8.684250784088822e-25
-0.49245330987500324	-7.367184236799958e-25
-0.49239227471875324	-6.0343014428581085e-25
-0.49233123956250324	-4.688169033748214e-25
-0.49227020440625324	-3.3314232103385286e-25
-0.49220916925000324	-1.966711355101027e-25
-0.49214813409375324	-5.966549471278091e-26
-0.49208709893750324	7.760601355796773e-26
-0.49202606378125324	2.1487347859533615e-25
-0.49196502862500324	3.518730628687595e-25
-0.49190399346875324	4.883372905472742e-25
-0.49184295831250324	6.239965765254269e-25
-0.49178192315625324	7.585886546648618e-25
-0.49172088800000324	8.918512720494293e-25
-0.49165985284375324	1.0235214089561482e-24
-0.49159881768750324	1.1533432637859872e-24
-0.49153778253125324	1.281063505523394e-24
-0.49147674737500324	1.4064297694425445e-24
-0.49141571221875324	1.5291982383546569e-24
-0.49135467706250324	1.649129282047456e-24
-0.49129364190625324	1.76598526898576e-24
-0.49123260675000324	1.8795383109512862e-24
-0.49117157159375324	1.9895665086530286e-24
-0.49111053643750324	2.095852241351943e-24
-0.49104950128125324	2.1981874114807272e-24
-0.49098846612500324	2.2963713523443665e-24
-0.49092743096875324	2.3902100724093942e-24
-0.49086639581250324	2.47951927670092e-24
-0.49080536065625324	2.564123541646479e-24
-0.49074432550000324	2.6438556853583124e-24
-0.49068329034375324	2.7185584708108763e-24
-0.49062225518750324	2.788084587822031e-24
-0.49056122003125324	2.8522969893649863e-24
-0.49050018487500324	2.91106847956751e-24
-0.49043914971875324	2.964282184467805e-24
-0.49037811456250324	3.0118335261172486e-24
-0.49031707940625324	3.0536281305160195e-24
-0.49025604425000324	3.0895817013775025e-24
-0.49019500909375324	3.1196233323413444e-24
-0.49013397393750324	3.1436934606090208e-24
-0.49007293878125324	3.1617424746916506e-24
-0.49001190362500324	3.1737341727283427e-24
-0.48995086846875324	3.179644366846818e-24
-0.48988983331250324	3.179459498597213e-24
-0.48982879815625324	3.1731789207508445e-24
-0.48976776300000324	3.1608140164813e-24
-0.48970672784375324	3.1423876749697866e-24
-0.48964569268750324	3.1179348199062753e-24
-0.48958465753125324	3.0875022813727064e-24
-0.48952362237500324	3.0511489931797532e-24
-0.48946258721875324	3.0089450395389914e-24
-0.48940155206250324	2.9609718061586386e-24
-0.48934051690625324	2.9073231135052387e-24
-0.48927948175000324	2.84810325667928e-24
-0.48921844659375324	2.78342673267036e-24
-0.48915741143750324	2.713420556449969e-24
-0.48909637628125324	2.6382214984409906e-24
-0.48903534112500324	2.5579750700214792e-24
-0.48897430596875324	2.472839322909324e-24
-0.48891327081250324	2.3829811825837097e-24
-0.48885223565625324	2.288574685185404e-24
-0.48879120050000324	2.189806104585549e-24
-0.48873016534375324	2.0868692113974964e-24
-0.48866913018750324	1.979964050579603e-24
-0.48860809503125324	1.86930168649112e-24
-0.48854705987500324	1.7550993913548097e-24
-0.48848602471875324	1.6375795676153267e-24
-0.48842498956250324	1.5169739214925629e-24
-0.48836395440625324	1.3935202341700625e-24
-0.48830291925000324	1.2674592088284146e-24
-0.48824188409375324	1.139038758506852e-24
-0.48818084893750324	1.0085126188151684e-24
-0.48811981378125324	8.761362215647158e-25
-0.48805877862500324	7.421692773248746e-25
-0.48799774346875324	6.068766302410349e-25
-0.48793670831250324	4.705241362117988e-25
-0.48787567315625324	3.333786465486417e-25
-0.48781463800000324	1.957110041911368e-25
-0.48775360284375324	5.779321360509033e-26
-0.48769256768750324	-8.010440922308139e-26
-0.48763153253125324	-2.177117561397442e-25
-0.48757049737500324	-3.547555113562681e-25
-0.48750946221875324	-4.909652304330241e-25
-0.48744842706250324	-6.260760345766684e-25
-0.48738739190625324	-7.598196448108226e-25
-0.48732635675000324	-8.919310910236988e-25
-0.48726532159375324	-1.0221533000226638e-24
-0.48720428643750324	-1.1502277544276648e-24
-0.48714325128125324	-1.2759011943888444e-24
-0.48708221612500324	-1.3989288375522036e-24
-0.48702118096875324	-1.5190657707793392e-24
-0.48696014581250324	-1.6360750895872836e-24
-0.48689911065625324	-1.749728562929179e-24
-0.48683807550000324	-1.859800054622369e-24
-0.48677704034375324	-1.9660725440089288e-24
-0.48671600518750324	-2.0683381941816118e-24
-0.48665497003125324	-2.1663947804875017e-24
-0.48659393487500324	-2.260048228386187e-24
-0.48653289971875324	-2.3491149654106527e-24
-0.48647186456250324	-2.43341989234981e-24
-0.48641082940625324	-2.512796120315696e-24
-0.48634979425000324	-2.5870880578867327e-24
-0.48628875909375324	-2.6561495561727193e-24
-0.48622772393750324	-2.719844188233719e-24
-0.48616668878125324	-2.7780476751087575e-24
-0.48610565362500324	-2.8306458108803426e-24
-0.48604461846875324	-2.8775345157742465e-24
-0.48598358331250324	-2.9186227559036604e-24
-0.48592254815625324	-2.953830668497852e-24
-0.48586151300000324	-2.9830887968081897e-24
-0.48580047784375324	-3.0063407905674027e-24
-0.48573944268750324	-3.0235421586290596e-24
-0.48567840753125324	-3.0346598481272573e-24
-0.48561737237500324	-3.0396731981360424e-24
-0.48555633721875324	-3.0385737598305514e-24
-0.48549530206250324	-3.0313654422175805e-24
-0.48543426690625324	-3.0180638528695483e-24
-0.48537323175000324	-2.9986968491779974e-24
-0.48531219659375324	-2.9733051508880732e-24
-0.48525116143750324	-2.9419403147500652e-24
-0.48519012628125324	-2.9046660992881145e-24
-0.48512909112500324	-2.8615594792238894e-24
-0.48506805596875324	-2.812707019225804e-24
-0.48500702081250324	-2.758207256555738e-24
-0.48494598565625324	-2.698171804047868e-24
-0.48488495050000324	-2.6327212803731364e-24
-0.48482391534375324	-2.5619871126476754e-24
-0.48476288018750324	-2.4861130039891214e-24
-0.48470184503125324	-2.405252141465717e-24
-0.48464080987500324	-2.3195667513821782e-24
-0.48457977471875324	-2.2292294842175765e-24
-0.48451873956250324	-2.13442298721675e-24
-0.48445770440625324	-2.0353385163207347e-24
-0.48439666925000324	-1.9321748339594275e-24
-0.48433563409375324	-1.8251392841710707e-24
-0.48427459893750324	-1.714448883039161e-24
-0.48421356378125324	-1.600326522945401e-24
-0.48415252862500324	-1.4830003878617074e-24
-0.48409149346875324	-1.3627079482864935e-24
-0.48403045831250324	-1.2396920584329097e-24
-0.48396942315625324	-1.114199399441794e-24
-0.48390838800000324	-9.864838273480354e-25
-0.48384735284375324	-8.56801798572732e-25
-0.48378631768750324	-7.25414963292326e-25
-0.48372528253125324	-5.925895032971524e-25
-0.48366424737500324	-4.58590824052216e-25
-0.48360321221875324	-3.2369088081688e-25
-0.48354217706250324	-1.8816234637762244e-25
-0.48348114190625324	-5.227618229807326e-26
-0.48342010675000324	8.369099100316754e-26
-0.48335907159375324	2.1946449146260254e-25
-0.48329803643750324	3.547726106966723e-25
-0.48323700128125324	4.893401906161759e-25
-0.48317596612500324	6.228935549814419e-25
-0.48311493096875324	7.551663134894774e-25
-0.48305389581250324	8.858898525963755e-25
-0.48299286065625324	1.0147964484613998e-24
-0.48293182550000324	1.1416288728446266e-24
-0.48287079034375324	1.2661297785178005e-24
-0.48280975518750324	1.3880447593845252e-24
-0.48274872003125324	1.5071277646376255e-24
-0.48268768487500324	1.6231375048277101e-24
-0.48262664971875324	1.7358387675751517e-24
-0.48256561456250324	1.8450008926577107e-24
-0.48250457940625324	1.950402414261083e-24
-0.48244354425000324	2.0518305809874447e-24
-0.48238250909375324	2.1490770172854485e-24
-0.48232147393750324	2.241942868420688e-24
-0.48226043878125324	2.3302401378995987e-24
-0.48219940362500324	2.413788115084554e-24
-0.48213836846875324	2.4924142376745144e-24
-0.48207733331250324	2.5659585908498537e-24
-0.48201629815625324	2.634270641635406e-24
-0.48195526300000324	2.6972078238218255e-24
-0.48189422784375324	2.7546414183252373e-24
-0.48183319268750324	2.80645328625511e-24
-0.48177215753125324	2.8525341013431497e-24
-0.48171112237500324	2.892788406468673e-24
-0.48165008721875324	2.9271323599860016e-24
-0.48158905206250324	2.9554921780641142e-24
-0.48152801690625324	2.9778076008226083e-24
-0.48146698175000324	2.9940304765126205e-24
-0.48140594659375324	3.004123789533524e-24
-0.48134491143750324	3.0080637451080547e-24
-0.48128387628125324	3.0058389706594715e-24
-0.48122284112500324	2.9974497845967834e-24
-0.48116180596875324	2.9829092794058244e-24
-0.48110077081250324	2.962243294238144e-24
-0.48103973565625324	2.9354893383241e-24
-0.48097870050000324	2.9026974720070394e-24
-0.48091766534375324	2.8639301767288697e-24
-0.48085663018750324	2.8192614795594438e-24
-0.48079559503125324	2.7687777324363617e-24
-0.48073455987500324	2.7125767204893285e-24
-0.48067352471875324	2.65076823999548e-24
-0.48061248956250324	2.583472908109804e-24
-0.48055145440625324	2.510822179948037e-24
-0.48049041925000324	2.4329599629934514e-24
-0.48042938409375324	2.350038785563022e-24
-0.48036834893750324	2.262221946218464e-24
-0.48030731378125324	2.1696839363028372e-24
-0.48024627862500324	2.0726071756481214e-24
-0.48018524346875324	1.9711844525481095e-24
-0.48012420831250324	1.865616507658723e-24
-0.48006317315625324	1.7561130273739408e-24
-0.48000213800000324	1.6428930168304541e-24
-0.47994110284375324	1.5261799743087022e-24
-0.47988006768750324	1.4062067961237457e-24
-0.47981903253125324	1.2832140564662316e-24
-0.47975799737500324	1.1574457646987382e-24
-0.47969696221875324	1.0291529806518862e-24
-0.47963592706250324	8.985928350471338e-25
-0.47957489190625324	7.660265327033476e-25
-0.47951385675000324	6.317181411976937e-25
-0.47945282159375324	4.959373355027194e-25
-0.47939178643750324	3.5895721667901086e-25
-0.47933075128125324	2.210505063814944e-25
-0.47926971612500324	8.249477936894784e-26
-0.47920868096875324	-5.643110530674012e-26
-0.47914764581250324	-1.954493847267846e-25
-0.47908661065625324	-3.342793327306439e-25
-0.47902557550000324	-4.7264244178517335e-25
-0.47896454034375324	-6.102608907317908e-25
-0.47890350518750324	-7.4685553214475e-25
-0.47884247003125324	-8.821521981094277e-25
-0.47878143487500324	-1.0158790495450554e-24
-0.47872039971875324	-1.1477648332244357e-24
-0.47865936456250324	-1.2775426146591288e-24
-0.47859832940625324	-1.404951809160549e-24
-0.47853729425000324	-1.5297344028805667e-24
-0.47847625909375324	-1.6516358198200193e-24
-0.47841522393750324	-1.7704116142586315e-24
-0.47835418878125324	-1.8858205550650836e-24
-0.47829315362500324	-1.997625607052269e-24
-0.47823211846875324	-2.105602869752232e-24
-0.47817108331250324	-2.2095329637241505e-24
-0.47811004815625324	-2.309200531536467e-24
-0.47804901300000324	-2.4044049938108237e-24
-0.47798797784375324	-2.4949536861885724e-24
-0.47792694268750324	-2.5806578178592785e-24
-0.47786590753125324	-2.661342859528718e-24
-0.47780487237500324	-2.736845636513011e-24
-0.47774383721875324	-2.8070083315829013e-24
-0.47768280206250324	-2.8716862355355605e-24
-0.47762176690625324	-2.930747815891441e-24
-0.47756073175000324	-2.9840687036069248e-24
-0.47749969659375324	-3.031537513085521e-24
-0.47743866143750324	-3.0730566654968654e-24
-0.47737762628125324	-3.1085373633960873e-24
-0.47731659112500324	-3.1379038738468257e-24
-0.47725555596875324	-3.161093852146099e-24
-0.47719452081250324	-3.1780559982896924e-24
-0.47713348565625324	-3.188751918548453e-24
-0.47707245050000324	-3.1931557737053322e-24
-0.47701141534375324	-3.1912543396629386e-24
-0.47695038018750324	-3.183047032818609e-24
-0.47688934503125324	-3.168545937107799e-24
-0.47682830987500324	-3.147775858072169e-24
-0.47676727471875324	-3.1207737214616348e-24
-0.47670623956250324	-3.0875896853182425e-24
-0.47664520440625324	-3.0482863358041627e-24
-0.47658416925000324	-3.002937346220867e-24
-0.47652313409375324	-2.9516299527322827e-24
-0.47646209893750324	-2.894463631635826e-24
-0.47640106378125324	-2.8315476569106437e-24
-0.47634002862500324	-2.763004699027916e-24
-0.47627899346875324	-2.6889691958404747e-24
-0.47621795831250324	-2.6095843467438474e-24
-0.47615692315625324	-2.5250059793163132e-24
-0.47609588800000324	-2.4354013303809144e-24
-0.47603485284375324	-2.3409447856436966e-24
-0.47597381768750324	-2.2418224882664672e-24
-0.47591278253125324	-2.1382317136465244e-24
-0.47585174737500324	-2.0303748235167947e-24
-0.47579071221875324	-1.9184650838383632e-24
-0.47572967706250324	-1.8027257098491108e-24
-0.47566864190625324	-1.6833843810624074e-24
-0.47560760675000324	-1.560677510840814e-24
-0.47554657159375324	-1.4348489660364362e-24
-0.47548553643750324	-1.3061487971406788e-24
-0.47542450128125324	-1.1748329220639136e-24
-0.47536346612500324	-1.0411603608490449e-24
-0.47530243096875324	-9.053987288176586e-25
-0.47524139581250324	-7.67819886729327e-25
-0.47518036065625324	-6.286935711992756e-25
-0.47511932550000324	-4.882990499615528e-25
-0.47505829034375324	-3.469188590937349e-25
-0.47499725518750324	-2.0483053369929458e-25
-0.47493622003125324	-6.231907165020771e-26
-0.47487518487500324	8.032885296552431e-26
-0.47481414971875324	2.228312713632136e-25
-0.47475311456250324	3.649025756309458e-25
-0.47469207940625324	5.062576956288057e-25
-0.47463104425000324	6.466159290745803e-25
-0.47457000909375324	7.856953610927515e-25
-0.47450897393750324	9.232173521585488e-25
-0.47444793878125324	1.0589083859530119e-24
-0.47438690362500324	1.1924952986930712e-24
-0.47432586846875324	1.3237109284883488e-24
-0.47426483331250324	1.4522932292571e-24
-0.47420379815625324	1.5779833566616032e-24
-0.47414276300000324	1.7005302060430067e-24
-0.47408172784375324	1.8196882353579806e-24
-0.47402069268750324	1.9352183144167983e-24
-0.47395965753125324	2.0468884083119925e-24
-0.47389862237500324	2.154474524144307e-24
-0.47383758721875324	2.2577621141097355e-24
-0.47377655206250324	2.3565423256179077e-24
-0.47371551690625324	2.4506170089918766e-24
-0.47365448175000324	2.5397990575436426e-24
-0.47359344659375324	2.6239075192976688e-24
-0.47353241143750324	2.70277383552087e-24
-0.47347137628125324	2.7762409799355207e-24
-0.47341034112500324	2.844160325099974e-24
-0.47334930596875324	2.906395340783062e-24
-0.47328827081250324	2.9628216483922012e-24
-0.47322723565625324	3.0133260275713274e-24
-0.47316620050000324	3.0578067762875883e-24
-0.47310516534375324	3.0961747486591667e-24
-0.47304413018750324	3.1283531480578412e-24
-0.47298309503125324	3.1542773855436804e-24
-0.47292205987500324	3.173895753613979e-24
-0.47286102471875324	3.1871690588892543e-24
-0.47279998956250324	3.194070916930467e-24
-0.47273895440625324	3.1945879262962222e-24
-0.47267791925000324	3.1887195245833975e-24
-0.47261688409375324	3.1764779490358623e-24
-0.47255584893750324	3.1578884464782237e-24
-0.47249481378125324	3.132989224298578e-24
-0.47243377862500324	3.101830632319129e-24
-0.47237274346875324	3.0644763958867283e-24
