Time	Frequency
-0.5000567431874998	0.40343998471443754
-0.4999957080312498	0.4035436582370068
-0.4999346728749998	0.4029072919733189
-0.4998736377187498	0.4015317063992151
-0.4998126025624998	0.39941897751686023
-0.4997515674062498	0.3965725226793611
-0.4996905322499998	0.3929970901651127
-0.4996294970937498	0.38869870567741277
-0.4995684619374998	0.3836848141079694
-0.4995074267812498	0.3779639862416028
-0.4994463916249998	0.37154612176834756
-0.4993853564687498	0.3644425758156067
-0.4993243213124998	0.3566655971705941
-0.4992632861562498	0.34822887919197804
-0.4992022509999998	0.33914733392263396
-0.4991412158437498	0.3294369100217622
-0.4990801806874998	0.3191147738038748
-0.4990191455312498	0.30819910190915556
-0.4989581103749998	0.2967093980368197
-0.4988970752187498	0.2846659523217795
-0.4988360400624998	0.27209004089756017
-0.4987750049062498	0.25900420830749343
-0.4987139697499998	0.24543168626433184
-0.4986529345937498	0.2313965302363872
-0.4985918994374998	0.21692390011821477
-0.4985308642812498	0.20203959600601656
-0.4984698291249998	0.18677009699345545
-0.4984087939687498	0.17114278174416223
-0.4983477588124998	0.1551855651647098
-0.4982867236562498	0.1389269875318894
-0.4982256884999998	0.12239611119732942
-0.4981646533437498	0.1056226864452806
-0.4981036181874998	0.08863665768348498
-0.4980425830312498	0.07146832689009874
-0.4979815478749998	0.0541490352763897
-0.4979205127187498	0.03670943589737255
-0.4978594775624998	0.019180507913734945
-0.4977984424062498	0.001594859336441595
-0.4977374072499998	-0.01601663314629599
-0.4976763720937498	-0.03362287925408164
-0.4976153369374998	-0.05119069060616873
-0.4975543017812498	-0.06868927281578101
-0.4974932666249998	-0.08608772318047224
-0.4974322314687498	-0.10335335582590337
-0.4973711963124998	-0.12045560291115419
-0.4973101611562498	-0.1373641094781002
-0.4972491259999998	-0.15404760937919587
-0.4971880908437498	-0.17047597446937135
-0.4971270556874998	-0.18662004459477005
-0.4970660205312498	-0.20245031658906038
-0.4970049853749998	-0.21793773729639326
-0.4969439502187498	-0.23305487677668174
-0.4968829150624998	-0.2477741206013723
-0.4968218799062498	-0.2620684143152039
-0.4967608447499998	-0.27591223004294785
-0.4966998095937498	-0.28928037170036075
-0.4966387744374998	-0.30214824196168344
-0.4965777392812498	-0.3144925147644037
-0.4965167041249998	-0.3262909986821937
-0.4964556689687498	-0.3375218126476009
-0.4963946338124998	-0.34816441569932355
-0.4963335986562498	-0.35819965683653926
-0.4962725634999998	-0.36760892360273956
-0.4962115283437498	-0.37637496082854943
-0.4961504931874998	-0.38448173020233806
-0.4960894580312498	-0.39191419013886936
-0.4960284228749998	-0.39865873829908754
-0.4959673877187498	-0.40470282086401266
-0.4959063525624998	-0.41003504149210107
-0.4958453174062498	-0.4146457076087637
-0.4957842822499998	-0.4185260033146067
-0.4957232470937498	-0.4216684297366749
-0.4956622119374998	-0.4240672128901369
-0.4956011767812498	-0.4257174999146219
-0.4955401416249998	-0.42661588637840847
-0.4954791064687498	-0.42676049658280485
-0.4954180713124998	-0.42615061757074
-0.4953570361562498	-0.42478692659515027
-0.4952960009999998	-0.4226715491542053
-0.4952349658437498	-0.4198078944326384
-0.4951739306874998	-0.416200709199782
-0.4951128955312498	-0.4118561148593152
-0.4950518603749998	-0.4067815982448115
-0.4949908252187498	-0.4009858721394882
-0.4949297900624998	-0.3944789713463807
-0.4948687549062498	-0.38727238858057855
-0.4948077197499998	-0.3793785778846137
-0.4947466845937498	-0.37081145208433824
-0.4946856494374998	-0.36158619884244636
-0.4946246142812498	-0.35171888995666856
-0.4945635791249998	-0.3412271502045823
-0.4945025439687498	-0.3301294578916978
-0.4944415088124998	-0.3184453740080746
-0.4943804736562498	-0.3061959894414824
-0.4943194384999998	-0.29340267782623686
-0.4942584033437498	-0.28008815267886533
-0.4941973681874998	-0.2662767208693566
-0.4941363330312498	-0.25199234294145684
-0.4940752978749998	-0.23726047921586738
-0.4940142627187498	-0.2221080720816743
-0.4939532275624998	-0.20656155941484042
-0.4938921924062498	-0.19064869434444304
-0.4938311572499998	-0.17439846230109599
-0.4937701220937498	-0.1578395091490832
-0.4937090869374998	-0.14100125795713142
-0.4936480517812498	-0.12391455204158627
-0.4935870166249998	-0.10660949071556769
-0.4935259814687498	-0.08911680196736203
-0.4934649463124998	-0.07146884920905401
-0.4934039111562498	-0.05369636209812722
-0.4933428759999998	-0.035831166513489825
-0.4932818408437498	-0.01790643330478223
-0.4932208056874998	4.676912092600472e-05
-0.4931597705312498	0.01799617917493762
-0.4930987353749998	0.03590849037702634
-0.4930377002187498	0.05375251979128066
-0.4929766650624998	0.07149620033495689
-0.4929156299062498	0.08910670176239593
-0.4928545947499998	0.1065532112154618
-0.4927935595937498	0.12380428490412432
-0.4927325244374998	0.14082824703999944
-0.4926714892812498	0.15759501263796344
-0.4926104541249998	0.17407437487008784
-0.4925494189687498	0.19023625766073998
-0.4924883838124998	0.20605190540083398
-0.4924273486562498	0.22149280860901613
-0.4923663134999998	0.23653079353099596
-0.4923052783437498	0.25113915537040526
-0.4922442431874998	0.2652914196505131
-0.4921832080312498	0.27896189027850093
-0.4921221728749998	0.2921261743081076
-0.4920611377187498	0.3047603673965531
-0.4920001025624998	0.3168416982786959
-0.4919390674062498	0.32834845448318256
-0.4918780322499998	0.33925973555671773
-0.4918169970937498	0.34955590347249155
-0.4917559619374998	0.35921853933889614
-0.4916949267812498	0.3682299205875275
-0.4916338916249998	0.37657390215841163
-0.4915728564687498	0.38423564949774475
-0.4915118213124998	0.3912009583895017
-0.4914507861562498	0.3974574762994601
-0.4913897509999998	0.4029940168923573
-0.4913287158437498	0.4078003526409753
-0.4912676806874998	0.41186800109968363
-0.4912066455312498	0.41518964279936527
-0.4911456103749998	0.4177592286949959
-0.4910845752187498	0.4195722086167723
-0.4910235400624998	0.42062536831762154
-0.4909625049062498	0.420916821598723
-0.4909014697499998	0.420446119794894
-0.4908404345937498	0.4192142111870812
-0.4907793994374998	0.41722331663899903
-0.4907183642812498	0.4144771980210181
-0.4906573291249998	0.4109809189128688
-0.4905962939687498	0.40674078105551925
-0.4905352588124998	0.40176468611570404
-0.4904742236562498	0.3960617491294517
-0.4904131884999998	0.38964227027188436
-0.4903521533437498	0.3825181343400456
-0.4902911181874998	0.3747023775225975
-0.4902300830312498	0.36620914450618236
-0.4901690478749998	0.35705410514237923
-0.4901080127187498	0.34725401393778377
-0.4900469775624998	0.3368266233860938
-0.4899859424062498	0.32579112840546354
-0.4899249072499998	0.3141677855781094
-0.4898638720937498	0.30197759463132967
-0.4898028369374998	0.2892429977628317
-0.4897418017812498	0.2759874805648371
-0.4896807666249998	0.2622348515024393
-0.4896197314687498	0.24801046140764757
-0.4895586963124998	0.23334072427541433
-0.4894976611562498	0.21825183931416722
-0.4894366259999998	0.20277156241751562
-0.4893755908437498	0.18692882082138573
-0.4893145556874998	0.17075193830393734
-0.4892535205312498	0.15427058600957233
-0.4891924853749998	0.13751547576677242
-0.4891314502187498	0.12051681479279583
-0.4890704150624998	0.10330579048362225
-0.4890093799062498	0.08591423672555637
-0.4889483447499998	0.06837376039633145
-0.4888873095937498	0.050716561995234506
-0.4888262744374998	0.032975210178476155
-0.4887652392812498	0.015181972668550267
-0.4887042041249998	-0.0026302866509256674
-0.4886431689687498	-0.02042883710039173
-0.4885821338124998	-0.038181333415067645
-0.4885210986562498	-0.05585473294998555
-0.4884600634999998	-0.07341678985700759
-0.4883990283437498	-0.0908353848730766
-0.4883379931874998	-0.10807805246745712
-0.4882769580312498	-0.125113441376946
-0.4882159228749998	-0.1419102991323722
-0.4881548877187498	-0.1584372528268672
-0.4880938525624998	-0.17466416458220485
-0.4880328174062498	-0.19056129864085855
-0.4879717822499998	-0.20609904954846425
-0.4879107470937498	-0.22124887530987408
-0.4878497119374998	-0.23598280964673204
-0.4877886767812498	-0.2502738127238657
-0.4877276416249998	-0.26409537089626295
-0.4876666064687498	-0.27742167575766563
-0.4876055713124998	-0.2902286325009172
-0.4875445361562498	-0.3024922280356069
-0.4874835009999998	-0.3141895236404912
-0.4874224658437498	-0.32529934414527933
-0.4873614306874998	-0.33580073020760853
-0.4873003955312498	-0.3456741830176295
-0.4872393603749998	-0.35490148819256123
-0.4871783252187498	-0.363465400007426
-0.4871172900624998	-0.37134990794396466
-0.4870562549062498	-0.3785402211636012
-0.4869952197499998	-0.38502309103735355
-0.4869341845937498	-0.3907861432791855
-0.4868731494374998	-0.39581852337409956
-0.4868121142812498	-0.40011085976052774
-0.4867510791249998	-0.40365483921657586
-0.4866900439687498	-0.40644371321935385
-0.4866290088124998	-0.4084721051340261
-0.4865679736562498	-0.4097359312458973
-0.4865069384999998	-0.41023259965030723
-0.4864459033437498	-0.4099609088596951
-0.4863848681874998	-0.4089210391573442
-0.4863238330312498	-0.4071146286184942
-0.4862627978749998	-0.40454462658361523
-0.4862017627187498	-0.4012155289449731
-0.4861407275624998	-0.3971331426466734
-0.4860796924062498	-0.392304579457367
-0.4860186572499998	-0.38673855077173164
-0.4859576220937498	-0.38044489752120675
-0.4858965869374998	-0.3734348851521333
-0.4858355517812498	-0.3657212046642944
-0.4857745166249998	-0.3573176638676886
-0.4857134814687498	-0.3482394217384969
-0.4856524463124998	-0.3385029523307116
-0.4855914111562498	-0.32812591707641486
-0.4855303759999998	-0.3171269754927534
-0.4854693408437498	-0.3055262194135703
-0.4854083056874998	-0.2933448272351883
-0.4853472705312498	-0.2806046565113251
-0.4852862353749998	-0.26732917959353514
-0.4852252002187498	-0.25354258576538635
-0.4851641650624998	-0.23926977796993046
-0.4851031299062498	-0.2245370276208892
-0.4850420947499998	-0.2093711889842578
-0.4849810595937498	-0.19380000782527254
-0.4849200244374998	-0.17785179127838446
-0.4848589892812498	-0.16155590257849498
-0.4847979541249998	-0.14494226528879045
-0.4847369189687498	-0.1280409594243543
-0.4846758838124998	-0.11088325978788424
-0.4846148486562498	-0.09350061245544591
-0.4845538134999998	-0.07592483142648991
-0.4844927783437498	-0.058188155534093386
-0.4844317431874998	-0.040323194255058224
-0.4843707080312498	-0.022362979254864794
-0.4843096728749998	-0.004340192594088467
-0.4842486377187498	0.01371188223486151
-0.4841876025624998	0.03175975530483219
-0.4841265674062498	0.049770607945698396
-0.4840655322499998	0.06771104501806793
-0.4840044970937498	0.08554782839326347
-0.4839434619374998	0.10324846967401927
-0.4838824267812498	0.12077992506419218
-0.4838213916249998	0.13810986078886556
-0.4837603564687498	0.15520667856080989
-0.4836993213124998	0.17203812651501682
-0.4836382861562498	0.18857337208092143
-0.4835772509999998	0.20478219249360244
-0.4835162158437498	0.22063381875932697
-0.4834551806874998	0.23609923542555272
-0.4833941455312498	0.25115003133391045
-0.4833331103749998	0.26575781208581395
-0.4832720752187498	0.27989548588622964
-0.4832110400624998	0.293537073500237
-0.4831500049062498	0.3066569990244349
-0.4830889697499998	0.31923060449650714
-0.4830279345937498	0.33123475411518155
-0.4829668994374998	0.34264698035391616
-0.4829058642812498	0.3534457200511522
-0.4828448291249998	0.36361085137512256
-0.4827837939687498	0.3731235376989634
-0.4827227588124998	0.38196553859387816
-0.4826617236562498	0.39012022506943295
-0.4826006884999998	0.3975726026083158
-0.4825396533437498	0.40430806972611555
-0.4824786181874998	0.41031393770990043
-0.4824175830312498	0.4155789784000338
-0.4823565478749998	0.4200927761955431
-0.4822955127187498	0.4238466975859197
-0.4822344775624998	0.4268334471187126
-0.4821734424062498	0.42904700628590287
-0.4821124072499998	0.4304828706406263
-0.4820513720937498	0.4311379603738093
-0.4819903369374998	0.43101062940514495
-0.4819293017812498	0.43010059758371294
-0.4818682666249998	0.4284091298689427
-0.4818072314687498	0.4259389092562644
-0.4817461963124998	0.42269392028907393
-0.4816851611562498	0.4186797834572035
-0.4816241259999998	0.41390344082863817
-0.4815630908437498	0.40837309909815495
-0.4815020556874998	0.4020986098080385
-0.4814410205312498	0.39509115084560015
-0.4813799853749998	0.38736292863035643
-0.4813189502187498	0.3789279260902921
-0.4812579150624998	0.36980135887610527
-0.4811968799062498	0.35999921299526455
-0.4811358447499998	0.3495394950933007
-0.4810748095937498	0.3384409981331867
-0.4810137744374998	0.3267234452519004
-0.4809527392812498	0.3144084517103683
-0.4808917041249998	0.3015180672659959
-0.4808306689687498	0.28807562369366124
-0.4807696338124998	0.2741056774685403
-0.4807085986562498	0.25963337237392486
-0.4806475634999998	0.24468534622018262
-0.4805865283437498	0.22928849901706866
-0.4805254931874998	0.2134707949835475
-0.4804644580312498	0.19726156476884468
-0.4804034228749998	0.1806898420832457
-0.4803423877187498	0.163785933758002
-0.4802813525624998	0.14658107821123442
-0.4802203174062498	0.12910632764151297
-0.4801592822499998	0.1113936026529074
-0.4800982470937498	0.09347566081247334
-0.4800372119374998	0.07538506440874894
-0.4799761767812498	0.05715466521504775
-0.4799151416249998	0.038818329597527505
-0.4798541064687498	0.020409551409224125
-0.4797930713124998	0.001961707138858615
-0.4797320361562498	-0.016491023794167777
-0.4796710009999998	-0.03491468989193963
-0.4796099658437498	-0.05327587520195922
-0.4795489306874998	-0.07154061355473838
-0.4794878955312498	-0.08967516918248686
-0.4794268603749998	-0.10764671466798073
-0.4793658252187498	-0.12542187443801447
-0.4793047900624998	-0.1429677746752445
-0.4792437549062498	-0.1602526567720054
-0.4791827197499998	-0.1772444350865695
-0.4791216845937498	-0.1939116022786419
-0.4790606494374998	-0.21022390982283096
-0.4789996142812498	-0.2261510525356795
-0.4789385791249998	-0.24166356649709195
-0.4788775439687498	-0.25673326997570506
-0.4788165088124998	-0.2713319572438916
-0.4787554736562498	-0.2854327422229478
-0.4786944384999998	-0.2990099862791908
-0.4786334033437498	-0.31203820817360206
-0.4785723681874998	-0.324493373160738
-0.4785113330312498	-0.3363527952284514
-0.4784502978749998	-0.3475943465850138
-0.4783892627187498	-0.35819708048257287
-0.4783282275624998	-0.368141627238098
-0.4782671924062498	-0.3774096681415399
-0.4782061572499998	-0.3859837165189508
-0.4781451220937498	-0.39384806310577675
-0.4780840869374998	-0.4009882916254342
-0.4780230517812498	-0.40739086110365175
-0.4779620166249998	-0.41304408390992625
-0.4779009814687498	-0.4179374791007555
-0.4778399463124998	-0.42206177762051145
-0.4777789111562498	-0.42540946639316063
-0.4777178759999998	-0.427974268786842
-0.4776568408437498	-0.4297513074224028
-0.4775958056874998	-0.4307373270444442
-0.4775347705312498	-0.43093042711413115
-0.4774737353749998	-0.430330169440046
-0.4774127002187498	-0.42893765555301505
-0.4773516650624998	-0.42675537421546333
-0.4772906299062498	-0.42378731184982543
-0.4772295947499998	-0.42003897583483873
-0.4771685595937498	-0.4155171854430193
-0.4771075244374998	-0.41023026003553115
-0.4770464892812498	-0.40418806164307647
-0.4769854541249998	-0.39740161299228854
-0.4769244189687498	-0.3898834708818285
-0.4768633838124998	-0.381647645418671
-0.4768023486562498	-0.3727091955631739
-0.4767413134999998	-0.3630847437799664
-0.4766802783437498	-0.35279218541212537
-0.4766192431874998	-0.341850391053449
-0.4765582080312498	-0.3302797507826129
-0.4764971728749998	-0.31810177662086236
-0.4764361377187498	-0.30533886567333557
-0.4763751025624998	-0.29201476926205017
-0.4763140674062498	-0.27815432412985264
-0.4762530322499998	-0.2637830179302546
-0.4761919970937498	-0.24892767449335376
-0.4761309619374998	-0.23361601286819664
-0.4760699267812498	-0.21787602996590208
-0.4760088916249998	-0.20173743495161717
-0.4759478564687498	-0.18523018358947263
-0.4758868213124998	-0.16838446471037694
-0.4758257861562498	-0.15123219511851044
-0.4757647509999998	-0.13380516159976275
-0.4757037158437498	-0.1161354174522448
-0.4756426806874998	-0.09825616471568566
-0.4755816455312498	-0.08020090029265445
-0.4755206103749998	-0.06200273941302838
-0.4754595752187498	-0.04369574996949446
-0.4753985400624998	-0.02531446695536612
-0.4753375049062498	-0.006892569879243116
-0.4752764697499998	0.01153531651341529
-0.4752154345937498	0.02993476494551673
-0.4751543994374998	0.04827167702154928
-0.4750933642812498	0.06651144352756787
-0.4750323291249998	0.08462041538173708
-0.4749712939687498	0.10256474651127223
-0.4749102588124998	0.12031043426014654
-0.4748492236562498	0.13782482556959597
-0.4747881884999998	0.15507515625057283
-0.4747271533437498	0.17202876734163547
-0.4746661181874998	0.18865424565243774
-0.4746050830312498	0.2049205581767851
-0.4745440478749998	0.22079696820863148
-0.4744830127187498	0.23625378457529905
-0.4744219775624998	0.25126238861676176
-0.4743609424062498	0.265794213703905
-0.4742999072499998	0.2798220134806518
-0.4742388720937498	0.2933198973418063
-0.4741778369374998	0.3062620983626048
-0.4741168017812498	0.3186243129567656
-0.4740557666249998	0.33038351330871824
-0.4739947314687498	0.3415175004532574
-0.4739336963124998	0.3520051926764036
-0.4738726611562498	0.3618268377884602
-0.4738116259999998	0.3709640719912572
-0.4737505908437498	0.379399523321438
-0.4736895556874998	0.3871171301777098
-0.4736285205312498	0.39410244081838364
-0.4735674853749998	0.4003421917263011
-0.4735064502187498	0.4058243775234168
-0.4734454150624998	0.4105386429515114
-0.4733843799062498	0.414476005916042
-0.4733233447499998	0.4176287810896013
-0.4732623095937498	0.41999089720952687
-0.4732012744374998	0.42155778720950837
-0.4731402392812498	0.42232622703099276
-0.4730792041249998	0.4222945535752101
-0.4730181689687498	0.42146265728258087
-0.4729571338124998	0.4198318767619212
-0.4728960986562498	0.4174049699207896
-0.4728350634999998	0.414186315258267
-0.4727740283437498	0.410181761164093
-0.4727129931874998	0.40539848338626866
-0.4726519580312498	0.39984526550261296
-0.4725909228749998	0.39353235277243154
-0.4725298877187498	0.38647127109977114
-0.4724688525624998	0.37867505475344426
-0.4724078174062498	0.370158144429737
-0.4723467822499998	0.3609362004270543
-0.4722857470937498	0.3510264878638651
-0.4722247119374998	0.3404471686117139
-0.4721636767812498	0.3292178322472577
-0.4721026416249998	0.31735982993447037
-0.4720416064687498	0.30489464032994634
-0.4719805713124998	0.2918454570001424
-0.4719195361562498	0.27823727017623123
-0.4718585009999998	0.26409474143030404
-0.4717974658437498	0.24944427621167492
-0.4717364306874998	0.2343137224987842
-0.4716753955312498	0.2187308278486608
-0.4716143603749998	0.2027249032584397
-0.4715533252187498	0.18632582311118293
-0.4714922900624998	0.16956422099769608
-0.4714312549062498	0.1524716410819576
-0.4713702197499998	0.13507964218803584
-0.4713091845937498	0.11742120977809371
-0.4712481494374998	0.09952947028658883
-0.4711871142812498	0.0814373822962146
-0.4711260791249998	0.0631793126943922
-0.4710650439687498	0.04478981936584116
-0.4710040088124998	0.026302627387922304
-0.4709429736562498	0.007752780221705651
-0.4708819384999998	-0.010824291422549058
-0.4708209033437498	-0.029394650969309218
-0.4707598681874998	-0.047922975637550325
-0.4706988330312498	-0.06637393576678527
-0.4706377978749998	-0.08471357750824561
-0.4705767627187498	-0.10290707672444242
-0.4705157275624998	-0.12091990114642341
-0.4704546924062498	-0.13871842925945332
-0.4703936572499998	-0.15626907985435967
-0.4703326220937498	-0.1735385641754654
-0.4702715869374998	-0.19049434413817812
-0.4702105517812498	-0.20710450560714103
-0.4701495166249998	-0.223337613482301
-0.4700884814687498	-0.23916282486972637
-0.4700274463124998	-0.25455025158999706
-0.4699664111562498	-0.2694710200936176
-0.4699053759999998	-0.28389649124037786
-0.4698443408437498	-0.29779934132216385
-0.4697833056874998	-0.3111534832266508
-0.4697222705312498	-0.32393320956386634
