Time	Frequency
-0.5000121247187508	-0.3275852373653534
-0.4999510895625008	-0.3152516832299601
-0.4998900544062508	-0.3023359070735429
-0.4998290192500008	-0.2888614787665721
-0.4997679840937508	-0.27485307893046623
-0.4997069489375008	-0.26033663672271234
-0.4996459137812508	-0.24533868202648587
-0.4995848786250008	-0.22988682463327392
-0.4995238434687508	-0.21400972314987132
-0.4994628083125008	-0.19773646093385033
-0.4994017731562508	-0.18109700356536806
-0.4993407380000008	-0.16412227250202094
-0.4992797028437508	-0.14684361842821766
-0.4992186676875008	-0.12929266316215296
-0.4991576325312508	-0.11150207356898752
-0.4990965973750008	-0.09350500386628186
-0.4990355622187508	-0.07533424606636686
-0.4989745270625008	-0.057023672652411865
-0.4989134919062508	-0.038607488713915436
-0.4988524567500008	-0.02011928590768549
-0.4987914215937508	-0.0015936380524182215
-0.4987303864375008	0.01693496300918643
-0.4986693512812508	0.035432597926000016
-0.4986083161250008	0.05386457427631896
-0.4985472809687508	0.07219666429969525
-0.4984862458125008	0.09039520158512328
-0.4984252106562508	0.10842606724380323
-0.4983641755000008	0.1262557468027792
-0.4983031403437508	0.14385139494295146
-0.4982421051875008	0.1611800947023195
-0.4981810700312508	0.17820964445990858
-0.4981200348750008	0.19490848793143034
-0.4980589997187508	0.21124546099685662
-0.4979979645625008	0.2271903312377937
-0.4979369294062508	0.24271331692819942
-0.4978758942500008	0.25778546735859414
-0.4978148590937508	0.2723789700820459
-0.4977538239375008	0.2864665339263896
-0.4976927887812508	0.3000219009186617
-0.4976317536250008	0.31301997084319394
-0.4975707184687508	0.32543642069842715
-0.4975096833125008	0.3372481790726862
-0.4974486481562508	0.3484334687717178
-0.4973876130000008	0.35897117039561716
-0.4973265778437508	0.368841692991104
-0.4972655426875008	0.3780270640403901
-0.4972045075312508	0.38650979484707526
-0.4971434723750008	0.39427414544373995
-0.4970824372187508	0.4013059907271762
-0.4970214020625008	0.40759196565114214
-0.4969603669062508	0.4131205178292154
-0.4968993317500008	0.4178814704999222
-0.4968382965937508	0.421865877275656
-0.4967772614375008	0.4250664899657681
-0.4967162262812508	0.42747740517525684
-0.4966551911250008	0.42909417781558246
-0.4965941559687508	0.42991392513156346
-0.4965331208125008	0.4299352217399034
-0.4964720856562508	0.4291581490632721
-0.4964110505000008	0.4275842743129896
-0.4963500153437508	0.4252166640810131
-0.4962889801875008	0.42205991921709896
-0.4962279450312508	0.4181200440370191
-0.4961669098750008	0.413404563745418
-0.4961058747187508	0.4079225269732599
-0.4960448395625008	0.40168423963575695
-0.4959838044062508	0.39470160274112076
-0.4959227692500008	0.38698797000520757
-0.4958617340937508	0.3785577384317142
-0.4958006989375008	0.36942701459739025
-0.4957396637812508	0.35961325691093715
-0.4956786286250008	0.34913467511376794
-0.4956175934687508	0.33801130446651717
-0.4955565583125008	0.32626447969352107
-0.4954955231562508	0.31391591294855337
-0.4954344880000008	0.3009891287204791
-0.4953734528437508	0.2875090412733853
-0.4953124176875008	0.2735006125083346
-0.4952513825312508	0.2589903524176459
-0.4951903473750008	0.24400622417404597
-0.4951293122187508	0.2285762158701678
-0.4950682770625008	0.21272940043313227
-0.4950072419062508	0.1964960973384438
-0.4949462067500008	0.17990698701187285
-0.4948851715937508	0.1629932570412844
-0.4948241364375008	0.14578702270342883
-0.4947631012812508	0.12832106193698406
-0.4947020661250008	0.11062826592973743
-0.4946410309687508	0.09274203901724185
-0.4945799958125008	0.0746964821593933
-0.4945189606562508	0.05652583198432197
-0.4944579255000008	0.03826420093882261
-0.4943968903437508	0.01994640581530795
-0.4943358551875008	0.0016073292322815978
-0.4942748200312508	-0.01671859820473547
-0.4942137848750008	-0.034996479080928275
-0.4941527497187508	-0.05319154774355461
-0.4940917145625008	-0.07126931543433486
-0.4940306794062508	-0.08919572137255463
-0.4939696442500008	-0.10693658007019147
-0.4939086090937508	-0.1244578694421201
-0.4938475739375008	-0.14172697271848572
-0.4937865387812508	-0.15871088460007574
-0.4937255036250008	-0.17537684557432331
-0.4936644684687508	-0.1916937943906649
-0.4936034333125008	-0.2076306464405771
-0.4935423981562508	-0.2231567834004508
-0.4934813630000008	-0.2382428985653973
-0.4934203278437508	-0.2528603150339036
-0.4933592926875008	-0.2669811721506766
-0.4932982575312508	-0.2805785688480389
-0.4932372223750008	-0.29362664406379985
-0.4931761872187508	-0.3061005455605443
-0.4931151520625008	-0.3179764936807461
-0.4930541169062508	-0.3292318641496738
-0.4929930817500008	-0.33984516275468923
-0.4929320465937508	-0.34979616672750813
-0.4928710114375008	-0.3590658458029557
-0.4928099762812508	-0.367636517729862
-0.4927489411250008	-0.37549179177096614
-0.4926879059687508	-0.38261657196858034
-0.4926268708125008	-0.38899732193204645
-0.4925658356562508	-0.39462176189353737
-0.4925048005000008	-0.3994789921801179
-0.4924437653437508	-0.4035598110914347
-0.4923827301875008	-0.40685630378588356
-0.4923216950312508	-0.4093619998486094
-0.4922606598750008	-0.41107213215093547
-0.4921996247187508	-0.4119832890668469
-0.4921385895625008	-0.4120935935465676
-0.4920775544062508	-0.41140277043103407
-0.4920165192500008	-0.4099119884744698
-0.4919554840937508	-0.4076239759237293
-0.4918944489375008	-0.4045429843592553
-0.4918334137812508	-0.4006747636876895
-0.4917723786250008	-0.396026550917814
-0.4917113434687508	-0.3906071202056165
-0.4916503083125008	-0.38442668705664995
-0.4915892731562508	-0.3774968633715789
-0.4915282380000008	-0.3698308225107617
-0.4914672028437508	-0.36144306432996653
-0.4914061676875008	-0.3523494183648636
-0.4913451325312508	-0.342567177762726
-0.4912840973750008	-0.3321149120443508
-0.4912230622187508	-0.3210124682671513
-0.4911620270625008	-0.30928085457227716
-0.4911009919062508	-0.2969424723203623
-0.4910399567500008	-0.28402081288974246
-0.4909789215937508	-0.2705403044181361
-0.4909178864375008	-0.25652681327893706
-0.4908568512812508	-0.24200690238478526
-0.4907958161250008	-0.22700825145273246
-0.4907347809687508	-0.211559566751064
-0.4906737458125008	-0.19569013859641796
-0.4906127106562508	-0.17943047643193522
-0.4905516755000008	-0.16281142675781582
-0.4904906403437508	-0.1458646957826988
-0.4904296051875008	-0.1286230375937069
-0.4903685700312508	-0.11111904545320649
-0.4903075348750008	-0.09338609931745277
-0.4902464997187508	-0.07545863664842409
-0.4901854645625008	-0.05737066124372934
-0.4901244294062508	-0.03915655182419
-0.4900633942500008	-0.020851802489015633
-0.4900023590937508	-0.0024911607968419883
-0.4899413239375008	0.01589035740369741
-0.4898802887812508	0.034256951122595906
-0.4898192536250008	0.0525737262773481
-0.4897582184687508	0.07080548805030963
-0.4896971833125008	0.08891703938270662
-0.4896361481562508	0.10687363563179232
-0.4895751130000008	0.12464061050702044
-0.4895140778437508	0.1421839876244626
-0.4894530426875008	0.1594697240965249
-0.4893920075312508	0.17646447269605936
-0.4893309723750008	0.19313572725002698
-0.4892699372187508	0.20945101759809512
-0.4892089020625008	0.22537874140263828
-0.4891478669062508	0.24088835064192735
-0.4890868317500008	0.25594979490068015
-0.4890257965937508	0.27053356465705086
-0.4889647614375008	0.2846115324998131
-0.4889037262812508	0.29815657791382527
-0.4888426911250008	0.3111420501387609
-0.4887816559687508	0.32354260533549456
-0.4887206208125008	0.3353343231903899
-0.4886595856562508	0.3464940205454041
-0.4885985505000008	0.356999691492643
-0.4885375153437508	0.3668309520546995
-0.4884764801875008	0.37596833052571643
-0.4884154450312508	0.38439373764391527
-0.4883544098750008	0.39209065137027327
-0.4882933747187508	0.3990435802198405
-0.4882323395625008	0.4052387047890249
-0.4881713044062508	0.4106636542140932
-0.4881102692500008	0.41530724756343396
-0.4880492340937508	0.419160057094341
-0.4879881989375008	0.42221415075747826
-0.4879271637812508	0.42446290601065856
-0.4878661286250008	0.4259013852076243
-0.4878050934687508	0.4265262541104623
-0.4877440583125008	0.42633555879773977
-0.4876830231562508	0.42532899300673177
-0.4876219880000008	0.42350785641801253
-0.4875609528437508	0.42087487907031973
-0.4874999176875008	0.4174344334346772
-0.4874388825312508	0.4131924348582634
-0.4873778473750008	0.4081562564269447
-0.4873168122187508	0.4023348742730072
-0.4872557770625008	0.39573872343254074
-0.4871947419062508	0.3883797221967184
-0.4871337067500008	0.38027130332857645
-0.4870726715937508	0.3714282162999057
-0.4870116364375008	0.3618667595275267
-0.4869506012812508	0.3516045852461998
-0.4868895661250008	0.34066054839753634
-0.4868285309687508	0.3290550155440527
-0.4867674958125008	0.31680951036021954
-0.4867064606562508	0.3039468391561963
-0.4866454255000008	0.2904909646585168
-0.4865843903437508	0.2764669048048067
-0.4865233551875008	0.26190108746994106
-0.4864623200312508	0.24682069437865467
-0.4864012848750008	0.23125384211672376
-0.4863402497187508	0.21522991859392235
-0.4862792145625008	0.19877905885375866
-0.4862181794062508	0.1819320088717144
-0.4861571442500008	0.16472058228122036
-0.4860961090937508	0.14717729490054304
-0.4860350739375008	0.12933494585248229
-0.4859740387812508	0.11122750924151972
-0.4859130036250008	0.09288905424862685
-0.4858519684687508	0.07435395731691569
-0.4857909333125008	0.05565782812601478
-0.4857298981562508	0.036835592919404886
-0.4856688630000008	0.017922781318282423
-0.4856078278437508	-0.0010441500418257037
-0.4855467926875008	-0.020029888070418615
-0.4854857575312508	-0.03899838665281318
-0.4854247223750008	-0.057913049708124165
-0.4853636872187508	-0.07673861598361754
-0.4853026520625008	-0.09543926354533666
-0.4852416169062508	-0.11397896334744685
-0.4851805817500008	-0.1323229098007427
-0.4851195465937508	-0.15043615886188086
-0.4850585114375008	-0.16828404050669157
-0.4849974762812508	-0.18583267732567915
-0.4849364411250008	-0.20304864309391735
-0.4848754059687508	-0.21989907687905702
-0.4848143708125008	-0.23635176123685755
-0.4847533356562508	-0.25237549123616965
-0.4846923005000008	-0.26793952020216566
-0.4846312653437508	-0.28301397045048393
-0.4845702301875008	-0.2975703114037683
-0.4845091950312508	-0.3115805866900401
-0.4844481598750008	-0.3250177879060052
-0.4843871247187508	-0.33785635495243027
-0.4843260895625008	-0.3500717022861282
-0.4842650544062508	-0.36164023866730755
-0.4842040192500008	-0.37253981670093633
-0.4841429840937508	-0.3827494665326072
-0.4840819489375008	-0.3922495824855172
-0.4840209137812508	-0.40102184439802513
-0.4839598786250008	-0.4090491882632184
-0.4838988434687508	-0.4163162986954606
-0.4838378083125008	-0.42280904602747854
-0.4837767731562508	-0.4285147057787326
-0.4837157380000008	-0.43342230188276004
-0.4836547028437508	-0.43752222972587856
-0.4835936676875008	-0.44080638203582484
-0.4835326325312508	-0.44326827892382586
-0.4834715973750008	-0.4449030165812428
-0.4834105622187508	-0.4457071958744715
-0.4833495270625008	-0.4456790562636573
-0.4832884919062508	-0.4448184220586393
-0.4832274567500008	-0.4431266613140009
-0.4831664215937508	-0.44060679668017083
-0.4831053864375008	-0.4372633654105059
-0.4830443512812508	-0.4331025257368126
-0.4829833161250008	-0.4281320029718107
-0.4829222809687508	-0.42236097303559916
-0.4828612458125008	-0.41580030819837305
-0.4828002106562508	-0.40846229750649965
-0.4827391755000008	-0.40036063224982216
-0.4826781403437508	-0.3915106682117807
-0.4826171051875008	-0.38192903811712214
-0.4825560700312508	-0.37163383582712556
-0.4824950348750008	-0.3606445423748399
-0.4824339997187508	-0.3489818304181415
-0.4823729645625008	-0.3366679980535882
-0.4823119294062508	-0.3237262069525662
-0.4822508942500008	-0.3101809144151316
-0.4821898590937508	-0.2960581806249589
-0.4821288239375008	-0.28138445095524495
-0.4820677887812508	-0.26618766759987245
-0.4820067536250008	-0.25049699434658984
-0.4819457184687508	-0.2343418811829709
-0.4818846833125008	-0.21775322829853364
-0.4818236481562508	-0.2007628239616232
-0.4817626130000008	-0.1834026310520889
-0.4817015778437508	-0.16570580893390366
-0.4816405426875008	-0.14770642904388903
-0.4815795075312508	-0.12943839342208277
-0.4815184723750008	-0.1109365555015011
-0.4814574372187508	-0.09223650116607633
-0.4813964020625008	-0.07337360011457209
-0.4813353669062508	-0.05438401034580233
-0.4812743317500008	-0.03530397107971907
-0.4812132965937508	-0.01616969411452213
-0.4811522614375008	0.0029819118868688143
-0.4810912262812508	0.022114455840615423
-0.4810301911250008	0.041191604483270854
-0.4809691559687508	0.06017651872916155
-0.4809081208125008	0.07903300428681652
-0.4808470856562508	0.09772529075795294
-0.4807860505000008	0.11621743230230741
-0.4807250153437508	0.1344738301406333
-0.4806639801875008	0.15246004167988378
-0.4806029450312508	0.1701415714841317
-0.4805419098750008	0.18748399882695738
-0.4804808747187508	0.20445494642673429
-0.4804198395625008	0.22102178279689808
-0.4803588044062508	0.23715206604292674
-0.4802977692500008	0.2528158460775553
-0.4802367340937508	0.26798294238633874
-0.4801756989375008	0.282623766300719
-0.4801146637812508	0.29671088831594644
-0.4800536286250008	0.3102172836356606
-0.4799925934687508	0.3231168270122169
-0.4799315583125008	0.3353849614739335
-0.4798705231562508	0.34699835537284035
-0.4798094880000008	0.35793467871408086
-0.4797484528437508	0.36817291753882075
-0.4796874176875008	0.37769365810598454
-0.4796263825312508	0.3864786721508342
-0.4795653473750008	0.3945111183365743
-0.4795043122187508	0.40177570434503296
-0.4794432770625008	0.4082585845018522
-0.4793822419062508	0.41394739139631964
-0.4793212067500008	0.41883130772822597
-0.4792601715937508	0.4229011022750569
-0.4791991364375008	0.4261490138930131
-0.4791381012812508	0.42856896162486613
-0.4790770661250008	0.43015646738568053
-0.4790160309687508	0.43090855533910666
-0.4789549958125008	0.43082397132920586
-0.4788939606562508	0.4299030327395447
-0.4788329255000008	0.42814766109518454
-0.4787718903437508	0.425561431154128
-0.4787108551875008	0.4221494757875577
-0.4786498200312508	0.41791856805646355
-0.4785887848750008	0.4128770307047443
-0.4785277497187508	0.4070348022555533
-0.4784667145625008	0.4004033121587876
-0.4784056794062508	0.3929955444883385
-0.4783446442500008	0.38482609317692495
-0.4782836090937508	0.3759107459176773
-0.4782225739375008	0.3662670691364771
-0.4781615387812508	0.35591396163169897
-0.4781005036250008	0.3448713551746756
-0.4780394684687508	0.333161072503052
-0.4779784333125008	0.3208059575384994
-0.4779173981562508	0.3078298873046721
-0.4778563630000008	0.29425835448767956
-0.4777953278437508	0.28011791025656446
-0.4777342926875008	0.26543595454638963
-0.4776732575312508	0.25024113108352414
-0.4776122223750008	0.2345632985399604
-0.4775511872187508	0.21843289037649666
-0.4774901520625008	0.2018812545391284
-0.4774291169062508	0.18494094625849872
-0.4773680817500008	0.1676449684836878
-0.4773070465937508	0.1500268285032786
-0.4772460114375008	0.13212124757215582
-0.4771849762812508	0.11396310124071497
-0.4771239411250008	0.09558758138631422
-0.4770629059687508	0.07703103202341183
-0.4770018708125008	0.05832940456190607
-0.4769408356562508	0.039519171200278314
-0.4768798005000008	0.020637440405940545
-0.4768187653437508	0.0017208385737477196
-0.4767577301875008	-0.01719357006562766
-0.4766966950312508	-0.036068756117323686
-0.4766356598750008	-0.05486773339715473
-0.4765746247187508	-0.07355380735077029
-0.4765135895625008	-0.09209039935532913
-0.4764525544062508	-0.11044100324493696
-0.4763915192500008	-0.12856992815427534
-0.4763304840937508	-0.14644145854151372
-0.4762694489375008	-0.16402054431426957
-0.4762084137812508	-0.18127283565355132
-0.4761473786250008	-0.19816429478267833
-0.4760863434687508	-0.2146618262913376
-0.4760253083125008	-0.23073305902868288
-0.4759642731562508	-0.2463462847090283
-0.4759032380000008	-0.26147081287341634
-0.4758422028437508	-0.27607701945027946
-0.4757811676875008	-0.29013584806900206
-0.4757201325312508	-0.30361973845929063
-0.4756590973750008	-0.31650224859182835
-0.4755980622187508	-0.32875748473038263
-0.4755370270625008	-0.3403615810121525
-0.4754759919062508	-0.35129158755399054
-0.4754149567500008	-0.3615254335030019
-0.4753539215937508	-0.3710432190420369
-0.4752928864375008	-0.3798259167953486
-0.4752318512812508	-0.3878557311604163
-0.4751708161250008	-0.39511700786535653
-0.4751097809687508	-0.4015950671500976
-0.4750487458125008	-0.40727664522626683
-0.4749877106562508	-0.41215056086193613
-0.4749266755000008	-0.41620685889545117
-0.4748656403437508	-0.4194370308488826
-0.4748046051875008	-0.4218344938025432
-0.4747435700312508	-0.42339423548209176
-0.4746825348750008	-0.42411266285386573
-0.4746214997187508	-0.423987972629295
-0.4745604645625008	-0.42302009932812623
-0.4744994294062508	-0.421210427377096
-0.4744383942500008	-0.41856206883250086
-0.4743773590937508	-0.4150798716344143
-0.4743163239375008	-0.4107701430125046
-0.4742552887812508	-0.4056408789837946
-0.4741942536250008	-0.39970180297566554
-0.4741332184687508	-0.3929640077914546
-0.4740721833125008	-0.385440266924242
-0.4740111481562508	-0.37714495719503915
-0.4739501130000008	-0.36809383470147017
-0.4738890778437508	-0.35830424777592973
-0.4738280426875008	-0.34779488492057586
-0.4737670075312508	-0.3365859943089425
-0.4737059723750008	-0.32469913987889587
-0.4736449372187508	-0.31215708400521663
-0.4735839020625008	-0.29898414217378905
-0.4735228669062508	-0.28520566924267304
-0.4734618317500008	-0.27084827398801403
-0.4734007965937508	-0.25593981698063983
-0.4733397614375008	-0.2405090408276746
-0.4732787262812508	-0.22458582043811773
-0.4732176911250008	-0.20820121880120954
-0.4731566559687508	-0.1913869509767744
-0.4730956208125008	-0.1741753754823346
-0.4730345856562508	-0.15660034705911802
-0.4729735505000008	-0.13869607574303214
-0.4729125153437508	-0.12049685879578369
-0.4728514801875008	-0.10203853324940204
-0.4727904450312508	-0.08335728765723321
-0.4727294098750008	-0.06448903330574285
-0.4726683747187508	-0.04547069522128835
-0.4726073395625008	-0.026339733927430033
-0.4725463044062508	-0.007133243613402809
-0.4724852692500008	0.012111387226471712
-0.4724242340937508	0.03135624574858811
-0.4723631989375008	0.050563693330187766
-0.4723021637812508	0.069696316454903
-0.4722411286250008	0.08871659416583391
-0.4721800934687508	0.10758712732219836
-0.4721190583125008	0.12627086954991654
-0.4720580231562508	0.14473137019523052
-0.4719969880000008	0.1629322607226205
-0.4719359528437508	0.18083762885335797
-0.4718749176875008	0.19841247098724182
-0.4718138825312508	0.21562211423087566
-0.4717528473750008	0.23243256458190048
-0.4716918122187508	0.24881079860788363
-0.4716307770625008	0.26472456734687977
-0.4715697419062508	0.2801421476522572
-0.4715087067500008	0.29503323975490103
-0.4714476715937508	0.30936863279853805
-0.4713866364375008	0.3231193545274602
-0.4713256012812508	0.33625842064071587
-0.4712645661250008	0.34876003148220613
-0.4712035309687508	0.3605987059415379
-0.4711424958125008	0.3717511498365356
-0.4710814606562508	0.38219530805183566
-0.4710204255000008	0.3919098525729996
-0.4709593903437508	0.40087549376752313
-0.4708983551875008	0.4090742917484513
-0.4708373200312508	0.416489504528405
-0.4707762848750008	0.42310618932867944
-0.4707152497187508	0.42891084502184346
-0.4706542145625008	0.4338915270873325
-0.4705931794062508	0.438038025663465
-0.4705321442500008	0.44134154104943696
-0.4704711090937508	0.4437950351550687
-0.4704100739375008	0.44539323170109935
-0.4703490387812508	0.44613228627400286
-0.4702880036250008	0.44601016859560555
-0.4702269684687508	0.44502656828215226
-0.4701659333125008	0.44318273694976146
-0.4701048981562508	0.4404816744481948
-0.4700438630000008	0.4369280709954053
-0.4699828278437508	0.4325282418888283
-0.4699217926875008	0.42729017793925544
-0.4698607575312508	0.42122350309298123
-0.4697997223750008	0.4143394375864771
-0.4697386872187508	0.40665094552311104
-0.4696776520625008	0.3981723845133635
