Time	Frequency
-0.5000004767187534	-1.6588598355610486e-24
-0.49993944156250336	-1.748029769408989e-24
-0.49987840640625336	-1.8330682015214465e-24
-0.49981737125000336	-1.913782560719707e-24
-0.49975633609375336	-1.98998609363505e-24
-0.49969530093750336	-2.0615049234500064e-24
-0.49963426578125336	-2.1281784915166158e-24
-0.49957323062500336	-2.1898523733644075e-24
-0.49951219546875336	-2.24638571880501e-24
-0.49945116031250336	-2.2976521320616987e-24
-0.49939012515625336	-2.343533503718283e-24
-0.49932909000000336	-2.383924651315237e-24
-0.49926805484375336	-2.41873610808798e-24
-0.49920701968750336	-2.4478886425506287e-24
-0.49914598453125336	-2.471315071346199e-24
-0.49908494937500336	-2.4889645632861597e-24
-0.49902391421875336	-2.5007978825215826e-24
-0.49896287906250336	-2.5067882909188806e-24
-0.49890184390625336	-2.5069244142081308e-24
-0.49884080875000336	-2.5012073522660904e-24
-0.49877977359375336	-2.4896517293168586e-24
-0.49871873843750336	-2.47228601096295e-24
-0.49865770328125336	-2.449151577021717e-24
-0.49859666812500336	-2.4203040824891702e-24
-0.49853563296875336	-2.3858113747392887e-24
-0.49847459781250336	-2.3457542843507292e-24
-0.49841356265625336	-2.300228173609437e-24
-0.49835252750000336	-2.2493391343979497e-24
-0.49829149234375336	-2.1932062419030315e-24
-0.49823045718750336	-2.1319616479052125e-24
-0.49816942203125336	-2.065747841023632e-24
-0.49810838687500336	-1.9947206272331176e-24
-0.49804735171875336	-1.9190452809721677e-24
-0.49798631656250336	-1.838897681668055e-24
-0.49792528140625336	-1.7544677181653558e-24
-0.49786424625000336	-1.665950342109361e-24
-0.49780321109375336	-1.5735512323304931e-24
-0.49774217593750336	-1.477489868217377e-24
-0.49768114078125336	-1.377987127063916e-24
-0.49762010562500336	-1.2752750793510347e-24
-0.49755907046875336	-1.1695972366574712e-24
-0.49749803531250336	-1.0611962425034387e-24
-0.49743700015625336	-9.503259493585124e-25
-0.49737596500000336	-8.372478995549828e-25
-0.49731492984375336	-7.222228831481121e-25
-0.49725389468750336	-6.055211529224359e-25
-0.49719285953125336	-4.8741558137761765e-25
-0.49713182437500336	-3.6818032193255994e-25
-0.49707078921875336	-2.4809686910163925e-25
-0.49700975406250336	-1.2744382043311065e-25
-0.49694871890625336	-6.502732301821632e-27
-0.49688768375000336	1.1444020908465297e-25
-0.49682664859375336	2.3510546461304766e-25
-0.49676561343750336	3.5521010558709317e-25
-0.49670457828125336	4.7446986844401235e-25
-0.49664354312500336	5.926089418950688e-25
-0.49658250796875336	7.093497982572619e-25
-0.49652147281250336	8.244161218816215e-25
-0.49646043765625336	9.375408874082351e-25
-0.49639940250000336	1.048458052264411e-24
-0.49633836734375336	1.156905187957845e-24
-0.49627733218750336	1.2626296966265009e-24
-0.49621629703125336	1.3653818798760009e-24
-0.49615526187500336	1.4649193742012981e-24
-0.49609422671875336	1.5610094838373185e-24
-0.49603319156250336	1.6534235085246158e-24
-0.49597215640625336	1.7419440278503416e-24
-0.49591112125000336	1.826363396830575e-24
-0.49585008609375336	1.906479889048949e-24
-0.49578905093750336	1.9821038024033855e-24
-0.49572801578125336	2.053057158789285e-24
-0.49566698062500336	2.1191706968916494e-24
-0.49560594546875336	2.1802854683828955e-24
-0.49554491031250336	2.2362571926189704e-24
-0.49548387515625336	2.2869520092023294e-24
-0.49542284000000336	2.3322462626535607e-24
-0.49536180484375336	2.3720318957388137e-24
-0.49530076968750336	2.406212399607436e-24
-0.49523973453125336	2.4347035709618368e-24
-0.49517869937500336	2.4574351730614445e-24
-0.49511766421875336	2.4743499920703525e-24
-0.49505662906250336	2.485404926131962e-24
-0.49499559390625336	2.4905695742887796e-24
-0.49493455875000336	2.4898275608072096e-24
-0.49487352359375336	2.48317684319142e-24
-0.49481248843750336	2.4706281616814563e-24
-0.49475145328125336	2.45220650541017e-24
-0.49469041812500336	2.427950751762693e-24
-0.49462938296875336	2.397912699647829e-24
-0.49456834781250336	2.3621582488219368e-24
-0.49450731265625336	2.3207665279569092e-24
-0.49444627750000336	2.2738292339249632e-24
-0.49438524234375336	2.2214519776024647e-24
-0.49432420718750336	2.1637526548819814e-24
-0.49426317203125336	2.100860813579664e-24
-0.49420213687500336	2.032919601789561e-24
-0.49414110171875336	1.9600837463715295e-24
-0.49408006656250336	1.882517478642079e-24
-0.49401903140625336	1.8003987277243763e-24
-0.49395799625000336	1.7139160418550826e-24
-0.49389696109375336	1.6232648158796137e-24
-0.49383592593750336	1.5286544479928759e-24
-0.49377489078125336	1.4303024466977998e-24
-0.49371385562500336	1.3284325459596333e-24
-0.49365282046875336	1.2232812023679493e-24
-0.49359178531250336	1.1150892974361833e-24
-0.49353075015625336	1.0041050932189598e-24
-0.49346971500000336	8.905869978493188e-25
-0.49340867984375336	7.747951535899711e-25
-0.49334764468750336	6.569962110280245e-25
-0.49328660953125336	5.3746453148380295e-25
-0.49322557437500336	4.164756899041755e-25
-0.49316453921875336	2.943086441784731e-25
-0.49310350406250336	1.7124804406422077e-25
-0.49304246890625336	4.7578758607362505e-26
-0.49298143375000336	-7.64138739259691e-26
-0.49292039859375336	-2.004403296036469e-25
-0.49285936343750336	-3.2421202275977013e-25
-0.49279832828125336	-4.474432206217906e-25
-0.49273729312500336	-5.698469984570738e-25
-0.49267625796875336	-6.911365030407253e-25
-0.49261522281250336	-8.110300549700988e-25
-0.49255418765625336	-9.292495949696716e-25
-0.49249315250000336	-1.0455183662047133e-24
-0.49243211734375336	-1.1595635018739048e-24
-0.49237108218750336	-1.2711195278600723e-24
-0.49231004703125336	-1.3799274070480039e-24
-0.49224901187500336	-1.4857297624510155e-24
-0.49218797671875336	-1.5882780363066569e-24
-0.49212694156250336	-1.687335081755521e-24
-0.49206590640625336	-1.7826665467582753e-24
-0.49200487125000336	-1.874046242101153e-24
-0.49194383609375336	-1.9612616854393497e-24
-0.49188280093750336	-2.0441075385148194e-24
-0.49182176578125336	-2.1223856249492644e-24
-0.49176073062500336	-2.195912067760388e-24
-0.49169969546875336	-2.264514137353099e-24
-0.49163866031250336	-2.3280263392925623e-24
-0.49157762515625336	-2.3862979995120027e-24
-0.49151659000000336	-2.4391915565252467e-24
-0.49145555484375336	-2.4865781664461167e-24
-0.49139451968750336	-2.5283441207117827e-24
-0.49133348453125336	-2.5643890726588826e-24
-0.49127244937500336	-2.5946238611626387e-24
-0.49121141421875336	-2.6189743478581863e-24
-0.49115037906250336	-2.6373797310113987e-24
-0.49108934390625336	-2.649792169210249e-24
-0.49102830875000336	-2.6561784588020228e-24
-0.49096727359375336	-2.6565192373579913e-24
-0.49090623843750336	-2.6508088206997452e-24
-0.49084520328125336	-2.639055739979435e-24
-0.49078416812500336	-2.6212824370717867e-24
-0.49072313296875336	-2.5975254885421105e-24
-0.49066209781250336	-2.5678354431122206e-24
-0.49060106265625336	-2.5322760141459347e-24
-0.49054002750000336	-2.4909249687104812e-24
-0.49047899234375336	-2.443874176908406e-24
-0.49041795718750336	-2.391227727795897e-24
-0.49035692203125336	-2.333102459605144e-24
-0.49029588687500336	-2.269629646238981e-24
-0.49023485171875336	-2.200952154331624e-24
-0.49017381656250336	-2.127223570479822e-24
-0.49011278140625336	-2.0486112641864583e-24
-0.49005174625000336	-1.9652940137694676e-24
-0.48999071109375336	-1.877459812182564e-24
-0.48992967593750336	-1.785308086461784e-24
-0.48986864078125336	-1.6890497265700554e-24
-0.48980760562500336	-1.5889036019956928e-24
-0.48974657046875336	-1.4850967850396031e-24
-0.48968553531250336	-1.3778680833265506e-24
-0.48962450015625336	-1.267462873223647e-24
-0.48956346500000336	-1.1541312944382235e-24
-0.48950242984375336	-1.0381341772841025e-24
-0.48944139468750336	-9.197388950700226e-25
-0.48938035953125336	-7.992142654196615e-25
-0.48931932437500336	-6.768367469807172e-25
-0.48925828921875336	-5.528902754877541e-25
-0.48919725406250336	-4.276565514089644e-25
-0.48913621890625336	-3.014229603872512e-25
-0.48907518375000336	-1.7448297979543762e-25
-0.48901414859375336	-4.712514629959733e-26
-0.48895311343750336	8.035663004938653e-26
-0.48889207828125336	2.076670745969886e-25
-0.48883104312500336	3.3451598597770276e-25
-0.48877000796875336	4.6060975713061545e-25
-0.48870897281250336	5.8565709055204525e-25
-0.48864793765625336	7.093714844126882e-25
-0.48858690250000336	8.314671674927631e-25
-0.48852586734375336	9.516617863370954e-25
-0.48846483218750336	1.0696791182702733e-24
-0.48840379703125336	1.1852475308174277e-24
-0.48834276187500336	1.298098834161343e-24
-0.48828172671875336	1.4079725280943615e-24
-0.48822069156250336	1.514617581941167e-24
-0.48815965640625336	1.6177861763053575e-24
-0.48809862125000336	1.7172384207003474e-24
-0.48803758609375336	1.812748262579667e-24
-0.48797655093750336	1.9040937375507047e-24
-0.48791551578125336	1.9910624134411076e-24
-0.48785448062500336	2.073456396559226e-24
-0.48779344546875336	2.1510840172543142e-24
-0.48773241031250336	2.2237658332097053e-24
-0.48767137515625336	2.2913354673203306e-24
-0.48761034000000336	2.353636153759251e-24
-0.48754930484375336	2.4105248465921474e-24
-0.48748826968750336	2.4618704949774407e-24
-0.48742723453125336	2.507554560005791e-24
-0.48736619937500336	2.547472826536751e-24
-0.48730516421875336	2.5815333467812e-24
-0.48724412906250336	2.6096579007719604e-24
-0.48718309390625336	2.6317829104281605e-24
-0.48712205875000336	2.6478580139317588e-24
-0.48706102359375336	2.6578469996328074e-24
-0.48699998843750336	2.661728089974644e-24
-0.48693895328125336	2.6594936623590825e-24
-0.48687791812500336	2.651150330085679e-24
-0.48681688296875336	2.636718714921105e-24
-0.48675584781250336	2.6162341404651787e-24
-0.48669481265625336	2.5897456687460708e-24
-0.48663377750000336	2.55731630659217e-24
-0.48657274234375336	2.519023482553863e-24
-0.48651170718750336	2.4749574936571444e-24
-0.48645067203125336	2.4252230381387e-24
-0.48638963687500336	2.3699374883881598e-24
-0.48632860171875336	2.3092305066206613e-24
-0.48626756656250336	2.2432468016568378e-24
-0.48620653140625336	2.1721411257113943e-24
-0.48614549625000336	2.0960797814959063e-24
-0.48608446109375336	2.0152438449640267e-24
-0.48602342593750336	1.9298228407306116e-24
-0.48596239078125336	1.840016879449722e-24
-0.48590135562500336	1.746038963559171e-24
-0.48584032046875336	1.648108667611645e-24
-0.48577928531250336	1.5464564705983178e-24
-0.48571825015625336	1.441323616429164e-24
-0.48565721500000336	1.3329542860049803e-24
-0.48559617984375336	1.2216042186192591e-24
-0.48553514468750336	1.1075380190389742e-24
-0.48547410953125336	9.910201458725883e-25
-0.48541307437500336	8.723258002303589e-25
-0.48535203921875336	7.51736522777737e-25
-0.48529100406250336	6.295323382468732e-25
-0.48522996890625336	5.060026911618096e-25
-0.48516893375000336	3.814392816610927e-25
-0.48510789859375336	2.5613124611886715e-25
-0.48504686343750336	1.3037726594385043e-25
-0.48498582828125336	4.473199440461413e-27
-0.48492479312500336	-1.2128929586433828e-25
-0.48486375796875336	-2.4660926158359678e-25
-0.48480272281250336	-3.711922406905707e-25
-0.48474168765625336	-4.947492022265596e-25
-0.48468065250000336	-6.1698499187854535e-25
-0.48461961734375336	-7.3761234283728415e-25
-0.48455858218750336	-8.563501840272657e-25
-0.48449754703125336	-9.729160880554099e-25
-0.48443651187500336	-1.0870354631733792e-24
-0.48437547671875336	-1.198441986926198e-24
-0.48431444156250336	-1.3068716861656691e-24
-0.48425340640625336	-1.412067892823289e-24
-0.48419237125000336	-1.51378516598937e-24
-0.48413133609375336	-1.6117829164956194e-24
-0.48407030093750336	-1.7058292563709086e-24
-0.48400926578125336	-1.795704269830081e-24
-0.48394823062500336	-1.8811946554365463e-24
-0.48388719546875336	-1.962099385528491e-24
-0.48382616031250336	-2.038228646864302e-24
-0.48376512515625336	-2.109401190151069e-24
-0.48370409000000336	-2.1754505424803523e-24
-0.48364305484375336	-2.2362211602532312e-24
-0.48358201968750336	-2.2915682611136765e-24
-0.48352098453125336	-2.341362766828329e-24
-0.48345994937500336	-2.385487119546685e-24
-0.48339891421875336	-2.4238362923176658e-24
-0.48333787906250336	-2.4563210180041514e-24
-0.48327684390625336	-2.4828643346396265e-24
-0.48321580875000336	-2.503403324786068e-24
-0.48315477359375336	-2.517890477275298e-24
-0.48309373843750336	-2.5262912155482974e-24
-0.48303270328125336	-2.5285858367828842e-24
-0.48297166812500336	-2.5247696316472917e-24
-0.48291063296875336	-2.5148515572007535e-24
-0.48284959781250336	-2.498855413987835e-24
-0.48278856265625336	-2.4768192885719722e-24
-0.48272752750000336	-2.4487956534832245e-24
-0.48266649234375336	-2.4148514536923533e-24
-0.48260545718750336	-2.3750666719577962e-24
-0.48254442203125336	-2.3295362998066334e-24
-0.48248338687500336	-2.278369044736514e-24
-0.48242235171875336	-2.221685152037807e-24
-0.48236131656250336	-2.159620320030381e-24
-0.48230028140625336	-2.0923223137926233e-24
-0.48223924625000336	-2.0199494572336885e-24
-0.48217821109375336	-1.9426757728765874e-24
-0.48211717593750336	-1.8606840861702236e-24
-0.48205614078125336	-1.7741677877100735e-24
-0.48199510562500336	-1.6833360960944265e-24
-0.48193407046875336	-1.588402750655718e-24
-0.48187303531250336	-1.4895918885828822e-24
-0.48181200015625336	-1.3871431352979489e-24
-0.48175096500000336	-1.2812979402452077e-24
-0.48168992984375336	-1.1723061477477874e-24
-0.48162889468750336	-1.0604314846710959e-24
-0.48156785953125336	-9.459387211323984e-25
-0.48150682437500336	-8.290988418052612e-25
-0.48144578921875336	-7.1019375184369395e-25
-0.48138475406250336	-5.895052883493355e-25
-0.48132371890625336	-4.673200818596417e-25
-0.48126268375000336	-3.439325260927206e-25
-0.48120164859375336	-2.196359062054e-25
-0.48114061343750336	-9.472605627551311e-26
-0.48107957828125336	3.0497083447584517e-26
-0.48101854312500336	1.557345626878146e-25
-0.48095750796875336	2.8068657710356997e-25
-0.48089647281250336	4.0505477029154213e-25
-0.48083543765625336	5.285419536377184e-25
-0.48077440250000336	6.508498868073794e-25
-0.48071336734375336	7.7168693701279315e-25
-0.48065233218750336	8.907650028095794e-25
-0.48059129703125336	1.0077952003139349e-24
-0.48053026187500336	1.1224972398372874e-24
-0.48046922671875336	1.2345974230579195e-24
-0.48040819156250336	1.3438237978179632e-24
-0.48034715640625336	1.4499141062008094e-24
-0.48028612125000336	1.5526134041849524e-24
-0.48022508609375336	1.6516723965420483e-24
-0.48016405093750336	1.7468533569422186e-24
-0.48010301578125336	1.837925480852403e-24
-0.48004198062500336	1.9246675678980188e-24
-0.47998094546875336	2.0068705921996684e-24
-0.47991991031250336	2.0843336213707758e-24
-0.47985887515625336	2.15686838239958e-24
-0.47979784000000336	2.2242985295716604e-24
-0.47973680484375336	2.286458111757353e-24
-0.47967576968750336	2.343195029963972e-24
-0.47961473453125336	2.3943697639998627e-24
-0.47955369937500336	2.439855238944478e-24
-0.47949266421875336	2.4795383590613248e-24
-0.47943162906250336	2.5133197168529406e-24
-0.47937059390625336	2.5411137793645556e-24
-0.47930955875000336	2.5628491083666386e-24
-0.47924852359375336	2.5784685523306533e-24
-0.47918748843750336	2.5879297672792015e-24
-0.47912645328125336	2.5912048081585245e-24
-0.47906541812500336	2.588280168589233e-24
-0.47900438296875336	2.5791574312159382e-24
-0.47894334781250336	2.5638529002430712e-24
-0.47888231265625336	2.5423970966130933e-24
-0.47882127750000336	2.514835520431095e-24
-0.47876024234375336	2.4812287548969905e-24
-0.47869920718750336	2.4416503990382784e-24
-0.47863817203125336	2.396188900136203e-24
-0.47857713687500336	2.3449483874855752e-24
-0.47851610171875336	2.2880438632957567e-24
-0.47845506656250336	2.2256047179575333e-24
-0.47839403140625336	2.1577764343827467e-24
-0.47833299625000336	2.0847133811236695e-24
-0.47827196109375336	2.0065832377664754e-24
-0.47821092593750336	1.9235693528055572e-24
-0.47814989078125336	1.8358624821267847e-24
-0.47808885562500336	1.743665378716851e-24
-0.47802782046875336	1.6471950019858611e-24
-0.47796678531250336	1.5466744228525477e-24
-0.47790575015625336	1.4423378902094942e-24
-0.47784471500000336	1.3344308148404124e-24
-0.47778367984375336	1.223203600659387e-24
-0.47772264468750336	1.1089180928052147e-24
-0.47766160953125336	9.918420469416835e-25
-0.47760057437500336	8.72248099834504e-25
-0.47753953921875336	7.50420506962588e-25
-0.47747850406250336	6.266431969263835e-25
-0.47741746890625336	5.012063242775712e-25
-0.47735643375000336	3.7440867645547274e-25
-0.47729539859375336	2.4654573644991523e-25
-0.47723436343750336	1.1791931832062567e-25
-0.47717332828125336	-1.1165345466053674e-26
-0.47711229312500336	-1.4040500518718692e-25
-0.47705125796875336	-2.6949505257959604e-25
-0.47699022281250336	-3.981294882589679e-25
-0.47692918765625336	-5.2600272939957875e-25
-0.47686815250000336	-6.528148457660107e-25
-0.47680711734375336	-7.782647026500238e-25
-0.47674608218750336	-9.020533565513598e-25
-0.47668504703125336	-1.0238894842180194e-24
-0.47662401187500336	-1.1434828534606394e-24
-0.47656297671875336	-1.2605497256319571e-24
-0.47650194156250336	-1.3748125224496371e-24
-0.47644090640625336	-1.4859982800979906e-24
-0.47637987125000336	-1.5938437246583002e-24
-0.47631883609375336	-1.698091998179623e-24
-0.47625780093750336	-1.79849360145282e-24
-0.47619676578125336	-1.8948098154577503e-24
-0.47613573062500336	-1.9868111559051004e-24
-0.47607469546875336	-2.0742770101749767e-24
-0.47601366031250336	-2.156997939677876e-24
-0.47595262515625336	-2.2347769489514454e-24
-0.47589159000000336	-2.307426608920419e-24
-0.47583055484375336	-2.3747720797691344e-24
-0.47576951968750336	-2.4366527948033677e-24
-0.47570848453125336	-2.4929184030348797e-24
-0.47564744937500336	-2.5434327074510154e-24
-0.47558641421875336	-2.5880743959261927e-24
-0.47552537906250336	-2.626734335933868e-24
-0.47546434390625336	-2.6593178372982907e-24
-0.47540330875000336	-2.685745021399197e-24
-0.47534227359375336	-2.705950470038932e-24
-0.47528123843750336	-2.71988324497916e-24
-0.47522020328125336	-2.727506999068484e-24
-0.47515916812500336	-2.728800915287085e-24
-0.47509813296875336	-2.7237590275347446e-24
-0.47503709781250336	-2.7123898227997187e-24
-0.47497606265625336	-2.6947173268500983e-24
-0.47491502750000336	-2.6707806133511816e-24
-0.47485399234375336	-2.640633128237598e-24
-0.47479295718750336	-2.604343072016732e-24
-0.47473192203125336	-2.5619939456518685e-24
-0.47467088687500336	-2.513683198672476e-24
-0.47460985171875336	-2.4595217121141115e-24
-0.47454881656250336	-2.399635406855707e-24
-0.47448778140625336	-2.3341638685855274e-24
-0.47442674625000336	-2.263258977017828e-24
-0.47436571109375336	-2.1870857485272367e-24
-0.47430467593750336	-2.1058229754330724e-24
-0.47424364078125336	-2.0196604758943665e-24
-0.47418260562500336	-1.9287991775840124e-24
-0.47412157046875336	-1.8334532116149858e-24
-0.47406053531250336	-1.7338460436683225e-24
-0.47399950015625336	-1.6302105898798002e-24
-0.47393846500000336	-1.5227911864877358e-24
-0.47387742984375336	-1.4118409575508757e-24
-0.47381639468750336	-1.2976201148070885e-24
-0.47375535953125336	-1.1803969681866889e-24
-0.47369432437500336	-1.0604491434853339e-24
-0.47363328921875336	-9.38059311747456e-25
-0.47357225406250336	-8.135138594545832e-25
-0.47351121890625336	-6.8710859190599095e-25
-0.47345018375000336	-5.591428455760329e-25
-0.47338914859375336	-4.299150333618653e-25
-0.47332811343750336	-2.9973245531021992e-25
-0.47326707828125336	-1.6890521763447944e-25
-0.47320604312500336	-3.773774897972144e-26
-0.47314500796875336	9.345868821083257e-26
-0.47308397281250336	2.2437004703845435e-25
-0.47302293765625336	3.5469087754380596e-25
-0.47296190250000336	4.841131124128798e-25
-0.47290086734375336	6.1232725020097e-25
-0.47283983218750336	7.390316104676806e-25
-0.47277879703125336	8.639271719663457e-25
-0.47271776187500336	9.867173272395153e-25
-0.47265672671875336	1.1071111366739476e-24
-0.47259569156250336	1.2248234325729393e-24
-0.47253465640625336	1.339575957795697e-24
-0.47247362125000336	1.4510971820258923e-24
-0.47241258609375336	1.5591219629132238e-24
