Time	Frequency
-0.5000078493437456	0.2989554606012924
-0.49994681418749565	0.28754305159858423
-0.49988577903124565	0.27563448597835594
-0.49982474387499565	0.26325061015079726
-0.49976370871874565	0.2504132191920015
-0.49970267356249565	0.2371439552962558
-0.49964163840624565	0.2234660229579774
-0.49958060324999565	0.20940338214212015
-0.49951956809374565	0.1949800013226114
-0.49945853293749565	0.18022097467025608
-0.49939749778124565	0.16515202677333343
-0.49933646262499565	0.14979918416342947
-0.49927542746874565	0.13418893084325173
-0.49921439231249565	0.11834853098977247
-0.49915335715624565	0.10230547273258564
-0.49909232199999565	0.08608722917466417
-0.49903128684374565	0.0697224539491236
-0.49897025168749565	0.053239391919417414
-0.49890921653124565	0.03666613518861127
-0.49884818137499565	0.02003233032564336
-0.49878714621874565	0.003366512922729116
-0.49872611106249565	-0.013302879817516504
-0.49866507590624565	-0.02994597338698299
-0.49860404074999565	-0.04653424763226161
-0.49854300559374565	-0.06303916266675831
-0.49848197043749565	-0.07943133904324534
-0.49842093528124565	-0.09568262838540698
-0.49835990012499565	-0.11176487575407007
-0.49829886496874565	-0.12764957248307998
-0.49823782981249565	-0.1433092900467236
-0.49817679465624565	-0.15871697767048681
-0.49811575949999565	-0.17384526729993427
-0.49805472434374565	-0.188667836368457
-0.49799368918749565	-0.2031592247690323
-0.49793265403124565	-0.2172935826013828
-0.49787161887499565	-0.23104627368248953
-0.49781058371874565	-0.24439359589760798
-0.49774954856249565	-0.2573116977297501
-0.49768851340624565	-0.2697781040164848
-0.49762747824999565	-0.28177113191548747
-0.49756644309374565	-0.2932694180679916
-0.49750540793749565	-0.30425280968184826
-0.49744437278124565	-0.314702160995602
-0.49738333762499565	-0.3245989415129001
-0.49732230246874565	-0.3339254590377973
-0.49726126731249565	-0.34266555957946654
-0.49720023215624565	-0.35080376223534226
-0.49713919699999565	-0.358325233908922
-0.49707816184374565	-0.36521693800330784
-0.49701712668749565	-0.3714666315304017
-0.49695609153124565	-0.3770628011396229
-0.49689505637499565	-0.3819955801216676
-0.49683402121874565	-0.38625616232974386
-0.49677298606249565	-0.3898365617381782
-0.49671195090624565	-0.39273025591968946
-0.49665091574999565	-0.3949320073714541
-0.49658988059374565	-0.39643744874201864
-0.49652884543749565	-0.3972435933241595
-0.49646781028124565	-0.39734877764904575
-0.49640677512499565	-0.3967523386663691
-0.49634573996874565	-0.3954549305180199
-0.49628470481249565	-0.3934584559729391
-0.49622366965624565	-0.3907659686791389
-0.49616263449999565	-0.3873817639467525
-0.49610159934374565	-0.3833112843965961
-0.49604056418749565	-0.3785612827889915
-0.49597952903124565	-0.37313962843503184
-0.49591849387499565	-0.36705518169773316
-0.49585745871874565	-0.36031831337657366
-0.49579642356249565	-0.3529403995543303
-0.49573538840624565	-0.3449335898356564
-0.49567435324999565	-0.3363115760111702
-0.49561331809374565	-0.3270891894545724
-0.49555228293749565	-0.31728175548666726
-0.49549124778124565	-0.306905935705648
-0.49543021262499565	-0.29597981556903147
-0.49536917746874565	-0.2845216688742156
-0.49530814231249565	-0.2725510289210583
-0.49524710715624565	-0.26008874410428584
-0.49518607199999565	-0.24715575322155425
-0.49512503684374565	-0.23377438259065048
-0.49506400168749565	-0.21996773944806267
-0.49500296653124565	-0.2057591885538835
-0.49494193137499565	-0.19117335951931194
-0.49488089621874565	-0.17623543649726053
-0.49481986106249565	-0.16097091825546392
-0.49475882590624565	-0.14540603952305697
-0.49469779074999565	-0.12956789301190658
-0.49463675559374565	-0.11348375648518062
-0.49457572043749565	-0.0971810236465742
-0.49451468528124565	-0.08068814308238717
-0.49445365012499565	-0.06403379401118368
-0.49439261496874565	-0.04724634675328058
-0.49433157981249565	-0.030354923627627994
-0.49427054465624565	-0.013389150411981009
-0.49420950949999565	0.0036219880613317886
-0.49414847434374565	0.020649162491081608
-0.49408743918749565	0.037662173561582205
-0.49402640403124565	0.054632032216656544
-0.49396536887499565	0.07152958306004824
-0.49390433371874565	0.0883245296952076
-0.49384329856249565	0.10498836533862736
-0.49378226340624565	0.12149236305583704
-0.49372122824999565	0.1378068901942275
-0.49366019309374565	0.15390431632286397
-0.49359915793749565	0.1697565408091481
-0.49353812278124565	0.1853353379280734
-0.49347708762499565	0.20061427125872505
-0.49341605246874565	0.21556627416113916
-0.49335501731249565	0.2301650643196964
-0.49329398215624565	0.24438570960201805
-0.49323294699999565	0.2582027346407609
-0.49317191184374565	0.2715920620221853
-0.49311087668749565	0.2845306727397205
-0.49304984153124565	0.29699529252900253
-0.49298880637499565	0.30896418220456523
-0.49292777121874565	0.32041660363868135
-0.49286673606249565	0.33133207852996366
-0.49280570090624565	0.34169138059203663
-0.49274466574999565	0.3514763410725583
-0.49268363059374565	0.36066965527008804
-0.49262259543749565	0.3692549651031033
-0.49256156028124565	0.37721699268843717
-0.49250052512499565	0.3845416840621072
-0.49243948996874565	0.3912159157929801
-0.49237845481249565	0.3972276812510715
-0.49231741965624565	0.40256624460626506
-0.49225638449999565	0.40722190223193555
-0.49219534934374565	0.4111862043254517
-0.49213431418749565	0.41445188550813467
-0.49207327903124565	0.417012823886122
-0.49201224387499565	0.41886423054431493
-0.49195120871874565	0.4200024300036071
-0.49189017356249565	0.4204250273463615
-0.49182913840624565	0.4201309309815941
-0.49176810324999565	0.41912015643153455
-0.49170706809374565	0.4173940553117012
-0.49164603293749565	0.4149552416089147
-0.49158499778124565	0.411807464185107
-0.49152396262499565	0.4079557783147455
-0.49146292746874565	0.40340648756515335
-0.49140189231249565	0.3981670153079952
-0.49134085715624565	0.39224603356244847
-0.49127982199999565	0.3856534430932642
-0.49121878684374565	0.37840026419424044
-0.49115775168749565	0.37049865001089005
-0.49109671653124565	0.36196188410819635
-0.49103568137499565	0.3528044767620313
-0.49097464621874565	0.34304190929419726
-0.49091361106249565	0.33269056896092963
-0.49085257590624565	0.32176825828631905
-0.49079154074999565	0.31029358810377844
-0.49073050559374565	0.2982857656572334
-0.49066947043749565	0.28576560496581926
-0.49060843528124565	0.2727545449076838
-0.49054740012499565	0.25927442358720276
-0.49048636496874565	0.2453486306955273
-0.49042532981249565	0.23100104819700545
-0.49036429465624565	0.21625602564074686
-0.49030325949999565	0.2011389821144357
-0.49024222434374565	0.1856759038135653
-0.49018118918749565	0.16989335692674937
-0.49012015403124565	0.15381827606795415
-0.49005911887499565	0.13747846496652188
-0.48999808371874565	0.12090215613447886
-0.48993704856249565	0.10411752511709625
-0.48987601340624565	0.08715376339296507
-0.48981497824999565	0.07004010604661352
-0.48975394309374565	0.05280578410121933
-0.48969290793749565	0.03548083036622365
-0.48963187278124565	0.01809498768412842
-0.48957083762499565	0.000678138067645088
-0.48950980246874565	-0.016739327861578744
-0.48944876731249565	-0.034127617122111605
-0.48938773215624565	-0.051456727285655514
-0.48932669699999565	-0.06869631577085644
-0.48926566184374565	-0.08581694633320376
-0.48920462668749565	-0.10278905370321097
-0.48914359153124565	-0.11958296051875232
-0.48908255637499565	-0.13616980694803632
-0.48902152121874565	-0.15252089973616917
-0.48896048606249565	-0.16860790465311082
-0.48889945090624565	-0.1844029728030436
-0.48883841574999565	-0.19987864698769625
-0.48877738059374565	-0.21500823592960125
-0.48871634543749565	-0.22976556507551307
-0.48865531028124565	-0.2441249446427205
-0.48859427512499565	-0.2580614251546784
-0.48853323996874565	-0.27155102935941694
-0.48847220481249565	-0.284570393022563
-0.48841116965624565	-0.29709658145510526
-0.48835013449999565	-0.30910819425147995
-0.48828909934374565	-0.3205845369771701
-0.48822806418749565	-0.33150514540554216
-0.48816702903124565	-0.34185149199619613
-0.48810599387499565	-0.3516057730901364
-0.48804495871874565	-0.360750526731991
-0.48798392356249565	-0.3692702485788299
-0.48792288840624565	-0.37715028289907215
-0.48786185324999565	-0.3843765918065537
-0.48780081809374565	-0.3909368199211259
-0.48773978293749565	-0.3968197388873925
-0.48767874778124565	-0.40201494302349877
-0.48761771262499565	-0.40651344261681305
-0.48755667746874565	-0.41030761128068094
-0.48749564231249565	-0.4133908030167471
-0.48743460715624565	-0.4157576399124649
-0.48737357199999565	-0.4174041495393208
-0.48731253684374565	-0.4183275139611115
-0.48725150168749565	-0.418526128387454
-0.48719046653124565	-0.4179997533615987
-0.48712943137499565	-0.41674940389325354
-0.48706839621874565	-0.4147772506003563
-0.48700736106249565	-0.4120868627667918
-0.48694632590624565	-0.4086830577823001
-0.48688529074999565	-0.40457173938003116
-0.48682425559374565	-0.39976021856579214
-0.48676322043749565	-0.39425706191174664
-0.48670218528124565	-0.38807186456226783
-0.48664115012499565	-0.38121548535953576
-0.48658011496874565	-0.37370013623566467
-0.48651907981249565	-0.36553898911104366
-0.48645804465624565	-0.35674629782010225
-0.48639700949999565	-0.34733763199295636
-0.48633597434374565	-0.3373296039457882
-0.48627493918749565	-0.3267397601308262
-0.48621390403124565	-0.3155865326539136
-0.48615286887499565	-0.30388984021123655
-0.48609183371874565	-0.29167038987918564
-0.48603079856249565	-0.278949013715867
-0.48596976340624565	-0.26574862619543244
-0.48590872824999565	-0.25209276585341384
-0.48584769309374565	-0.23800453132631738
-0.48578665793749565	-0.2235093689982259
-0.48572562278124565	-0.20863300522057382
-0.48566458762499565	-0.19340086893377814
-0.48560355246874565	-0.17784040397336437
-0.48554251731249565	-0.16197892695586616
-0.48548148215624565	-0.14584406222924193
-0.48542044699999565	-0.1294646321988901
-0.48535941184374565	-0.11286922065164676
-0.48529837668749565	-0.09608719474955499
-0.48523734153124565	-0.079148230477718
-0.48517630637499565	-0.06208188183607002
-0.48511527121874565	-0.04491860616758539
-0.48505423606249565	-0.027688548002540617
-0.48499320090624565	-0.01042192247617058
-0.48493216574999565	0.006850457104564331
-0.48487113059374565	0.024098388396538307
-0.48481009543749565	0.041291311555210035
-0.48474906028124565	0.05839875073904759
-0.48468802512499565	0.07539078025659621
-0.48462698996874565	0.09223701795546735
-0.48456595481249565	0.1089078975122746
-0.48450491965624565	0.1253740835792726
-0.48444388449999565	0.14160600763054043
-0.48438284934374565	0.15757533324434123
-0.48432181418749565	0.17325388344378562
-0.48426077903124565	0.18861342714598886
-0.48419974387499565	0.20362709346158384
-0.48413870871874565	0.21826850481154597
-0.48407767356249565	0.23251119176905127
-0.48401663840624565	0.24633012086385744
-0.48395560324999565	0.2597011007002208
-0.48389456809374565	0.2725999439292044
-0.48383353293749565	0.2850038327191768
-0.48377249778124565	0.29689106123810866
-0.48371146262499565	0.30824021302468324
-0.48365042746874565	0.3190309960503569
-0.48358939231249565	0.3292445612794842
-0.48352835715624565	0.3388625564287942
-0.48346732199999565	0.34786764008429727
-0.48340628684374565	0.35624407194355695
-0.48334525168749565	0.36397674187780193
-0.48328421653124565	0.371051717420727
-0.48322318137499565	0.377456582325701
-0.48316214621874565	0.3831796543574609
-0.48310111106249565	0.3882106190220506
-0.48304007590624565	0.3925406327583429
-0.48297904074999565	0.39616169440595034
-0.48291800559374565	0.3990671784673492
-0.48285697043749565	0.4012519442021562
-0.48279593528124565	0.4027118674917
-0.48273490012499565	0.40344413026999915
-0.48267386496874565	0.40344735321374436
-0.48261282981249565	0.4027213317939047
-0.48255179465624565	0.4012671344636092
-0.48249075949999565	0.3990871965707227
-0.48242972434374565	0.3961852189636906
-0.48236868918749565	0.3925661137236254
-0.48230765403124565	0.3882361281749078
-0.48224661887499565	0.3832028560747893
-0.48218558371874565	0.3774748926495625
-0.48212454856249565	0.37106225590023606
-0.48206351340624565	0.3639763350098255
-0.48200247824999565	0.35622924154519114
-0.48194144309374565	0.3478346208888904
-0.48188040793749565	0.3388074404760456
-0.48181937278124565	0.32916326177456107
-0.48175833762499565	0.31891904489153167
-0.48169730246874565	0.30809309607036967
-0.48163626731249565	0.29670420738897074
-0.48157523215624565	0.2847724201626071
-0.48151419699999565	0.27231910524781167
-0.48145316184374565	0.25936590096352796
-0.48139212668749565	0.24593569550897157
-0.48133109153124565	0.23205248589797545
-0.48127005637499565	0.21774061991302265
-0.48120902121874565	0.20302534654477725
-0.48114798606249565	0.1879327788459787
-0.48108695090624565	0.17248976868546817
-0.48102591574999565	0.15672354285397166
-0.48096488059374565	0.1406619228324003
-0.48090384543749565	0.12433360913918481
-0.48084281028124565	0.10776754016117328
-0.48078177512499565	0.0909929773459417
-0.48072073996874565	0.07403980329712935
-0.48065970481249565	0.05693809807438432
-0.48059866965624565	0.03971838583099957
-0.48053763449999565	0.02241117206218045
-0.48047659934374565	0.005047040081485995
-0.48041556418749565	-0.01234254970570247
-0.48035452903124565	-0.029727036384396957
-0.48029349387499565	-0.04707561459390472
-0.48023245871874565	-0.06435669246854214
-0.48017142356249565	-0.08154009054478521
-0.48011038840624565	-0.09859498290044467
-0.48004935324999565	-0.11549047171792819
-0.47998831809374565	-0.13219698576367184
-0.47992728293749565	-0.14868442712345678
-0.47986624778124565	-0.1649230517312634
-0.47980521262499565	-0.18088402630038933
-0.47974417746874565	-0.19653880523213238
-0.47968314231249565	-0.2118592294085761
-0.47962210715624565	-0.2268176845087541
-0.47956107199999565	-0.24138747274472833
-0.47950003684374565	-0.2555424301008857
-0.47943900168749565	-0.2692569148983697
-0.47937796653124565	-0.28250636155340425
-0.47931693137499565	-0.29526693242908786
-0.47925589621874565	-0.307515356098809
-0.47919486106249565	-0.31922970273095774
-0.47913382590624565	-0.3303888526505492
-0.47907279074999565	-0.3409722184097508
-0.47901175559374565	-0.350960909357703
-0.47895072043749565	-0.3603367418205809
-0.47888968528124565	-0.3690822826031911
-0.47882865012499565	-0.37718196694585443
-0.47876761496874565	-0.38462079140529726
-0.47870657981249565	-0.39138483040020694
-0.47864554465624565	-0.397461958313485
-0.47858450949999565	-0.4028407408636323
-0.47852347434374565	-0.40751100033717347
-0.47846243918749565	-0.4114641079956721
-0.47840140403124565	-0.414692495795756
-0.47834036887499565	-0.41718986310217593
-0.47827933371874565	-0.4189512627434341
-0.47821829856249565	-0.4199730875140147
-0.47815726340624565	-0.420252967581753
-0.47809622824999565	-0.4197898506868911
-0.47803519309374565	-0.4185840690236727
-0.47797415793749565	-0.4166372195874595
-0.47791312278124565	-0.41395219967104135
-0.47785208762499565	-0.4105332805849629
-0.47779105246874565	-0.40638600539381153
-0.47773001731249565	-0.40151716664563664
-0.47766898215624565	-0.39593494089826753
-0.47760794699999565	-0.3896486971403889
-0.47754691184374565	-0.38266904535694024
-0.47748587668749565	-0.375007978144204
-0.47742484153124565	-0.366678461459267
-0.47736380637499565	-0.35769481914587464
-0.47730277121874565	-0.34807269784299705
-0.47724173606249565	-0.33782838821919864
-0.47718070090624565	-0.3269797745257582
-0.47711966574999565	-0.31554582161537176
-0.47705863059374565	-0.3035460177873516
-0.47699759543749565	-0.2910014876875524
-0.47693656028124565	-0.27793405249809444
-0.47687552512499565	-0.2643663577249504
-0.47681448996874565	-0.25032227786588573
-0.47675345481249565	-0.23582617882230839
-0.47669241965624565	-0.22090347870427063
-0.47663138449999565	-0.20558039185054416
-0.47657034934374565	-0.18988369580593958
-0.47650931418749565	-0.17384084660907423
-0.47644827903124565	-0.15748010533037324
-0.47638724387499565	-0.14083029029643385
-0.47632620871874565	-0.12392042849635801
-0.47626517356249565	-0.10678045641609778
-0.47620413840624565	-0.08944055485073259
-0.47614310324999565	-0.07193105010252915
-0.47608206809374565	-0.054283054813605174
-0.47602103293749565	-0.03652763702552204
-0.47595999778124565	-0.018695860754355153
-0.47589896262499565	-0.0008194771099595746
-0.47583792746874565	0.0170698207613275
-0.47577689231249565	0.034940868436533316
-0.47571585715624565	0.052761876164869125
-0.47565482199999565	0.07050096728249713
-0.47559378684374565	0.08812722882194926
-0.47553275168749565	0.10560947237696901
-0.47547171653124565	0.12291623100394437
-0.47541068137499565	0.14001725824933614
-0.47534964621874565	0.15688234126189585
-0.47528861106249565	0.17348102819342517
-0.47522757590624565	0.18978437251121902
-0.47516654074999565	0.20576337284721175
-0.47510550559374565	0.22138926238409584
-0.47504447043749565	0.2366347381543783
-0.47498343528124565	0.2514724987907034
-0.47492240012499565	0.2658760834639824
-0.47486136496874565	0.2798200435576155
-0.47480032981249565	0.2932793450144064
-0.47473929465624565	0.30623018998921
-0.47467825949999565	0.31864949196723485
-0.47461722434374565	0.3305149089945758
-0.47455618918749565	0.3418054749775115
-0.47449515403124565	0.352501014095619
-0.47443411887499565	0.3625822698610896
-0.47437308371874565	0.37203136343907056
-0.47431204856249565	0.380831367828595
-0.47425101340624565	0.38896644761153576
-0.47418997824999565	0.3964220770136972
-0.47412894309374565	0.40318486610999366
-0.47406790793749565	0.40924268460239177
-0.47400687278124565	0.4145845770339128
-0.47394583762499565	0.41920090990218034
-0.47388480246874565	0.42308340924671045
-0.47382376731249565	0.42622497018899574
-0.47376273215624565	0.42861984569394057
-0.47370169699999565	0.4302636861957587
-0.47364066184374565	0.4311534098268791
-0.47357962668749565	0.4312872735425302
-0.47351859153124565	0.4306649222719773
-0.47345755637499565	0.42928728644516856
-0.47339652121874565	0.4271567347088131
-0.47333548606249565	0.4242769130651414
-0.47327445090624565	0.42065270600496873
-0.47321341574999565	0.41629059729517653
-0.47315238059374565	0.41119818657554713
-0.47309134543749565	0.4053842368885978
-0.47303031028124565	0.3988591993818303
-0.47296927512499565	0.3916345785804602
-0.47290823996874565	0.3837228876859988
-0.47284720481249565	0.3751383004922746
-0.47278616965624565	0.36589609012335683
-0.47272513449999565	0.3560123612753031
-0.47266409934374565	0.3455047897079858
-0.47260306418749565	0.33439207005508265
-0.47254202903124565	0.32269372039859184
-0.47248099387499565	0.3104307323687854
-0.47241995871874565	0.2976247550466085
-0.47235892356249565	0.28429848632330096
-0.47229788840624565	0.27047590398151655
-0.47223685324999565	0.2561813037741329
-0.47217581809374565	0.24144017397309125
-0.47211478293749565	0.2262789759096486
-0.47205374778124565	0.21072450150752625
-0.47199271262499565	0.19480450040551214
-0.47193167746874565	0.17854740095972282
-0.47187064231249565	0.16198216069508387
-0.47180960715624565	0.14513842111728945
-0.47174857199999565	0.12804606528733392
-0.47168753684374565	0.11073560654449736
-0.47162650168749565	0.09323826403577555
-0.47156546653124565	0.07558494735048399
-0.47150443137499565	0.0578071178139768
-0.47144339621874565	0.03993702049875302
-0.47138236106249565	0.022006233960853466
-0.47132132590624565	0.004046678590736152
-0.47126029074999565	-0.013909057829458308
-0.47119925559374565	-0.03182917674288847
-0.47113822043749565	-0.04968164861934001
-0.47107718528124565	-0.06743426540816572
-0.47101615012499565	-0.0850555165455652
-0.47095511496874565	-0.10251364816149361
-0.47089407981249565	-0.11977738447999732
-0.47083304465624565	-0.13681604289872812
-0.47077200949999565	-0.15359883549838893
-0.47071097434374565	-0.1700956105012868
-0.47064993918749565	-0.18627703944648494
-0.47058890403124565	-0.20211408528145516
-0.47052786887499565	-0.21757803342463677
-0.47046683371874565	-0.23264133447286825
-0.47040579856249565	-0.2472771180031467
