Time	Frequency
-0.500035285249993	3.1645261082106024e-24
-0.49997425009374297	3.174359102619031e-24
-0.49991321493749297	3.1783536095137495e-24
-0.49985217978124297	3.1764984281649638e-24
-0.49979114462499297	3.1687930367893384e-24
-0.49973010946874297	3.155247185681759e-24
-0.49966907431249297	3.1358813761826284e-24
-0.49960803915624297	3.1107266487609115e-24
-0.49954700399999297	3.0798245510976797e-24
-0.49948596884374297	3.043227080437851e-24
-0.49942493368749297	3.0009967870317562e-24
-0.49936389853124297	2.9532060875393222e-24
-0.49930286337499297	2.8999375788006682e-24
-0.49924182821874297	2.8412844730037556e-24
-0.49918079306249297	2.7773490879012227e-24
-0.49911975790624297	2.7082432713070646e-24
-0.49905872274999297	2.6340889063133276e-24
-0.49899768759374297	2.555017425744697e-24
-0.49893665243749297	2.47116785865839e-24
-0.49887561728124297	2.3826884803442563e-24
-0.49881458212499297	2.2897378231015628e-24
-0.49875354696874297	2.192480465838942e-24
-0.49869251181249297	2.0910885467631873e-24
-0.49863147665624297	1.9857440249428858e-24
-0.49857044149999297	1.8766357655502664e-24
-0.49850940634374297	1.7639567201716318e-24
-0.49844837118749297	1.6479091133120488e-24
-0.49838733603124297	1.5287030690457074e-24
-0.49832630087499297	1.406548681710647e-24
-0.49826526571874297	1.281666522160108e-24
-0.49820423056249297	1.1542839772264396e-24
-0.49814319540624297	1.0246240154637447e-24
-0.49808216024999297	8.929231963640672e-25
-0.49802112509374297	7.594220814992272e-25
-0.49796008993749297	6.243527815496882e-25
-0.49789905478124297	4.879641191440488e-25
-0.49783801962499297	3.505053619483213e-25
-0.49777698446874297	2.1221583842688027e-25
-0.49771594931249297	7.335047764157933e-26
-0.49765491415624297	-6.583683740089819e-26
-0.49759387899999297	-2.0510074546048118e-25
-0.49753284384374297	-3.4418736359234385e-25
-0.49747180868749297	-4.828409062979225e-25
-0.49741077353124297	-6.208139490612732e-25
-0.49734973837499297	-7.578585989024022e-25
-0.49728870321874297	-8.937199724464385e-25
-0.49722766806249297	-1.0281546262998941e-24
-0.49716663290624297	-1.1609221205938687e-24
-0.49710559774999297	-1.2917743069757045e-24
-0.49704456259374297	-1.4204768589350163e-24
-0.49698352743749297	-1.5467976483656855e-24
-0.49692249228124297	-1.670501469045663e-24
-0.49686145712499297	-1.7913662007198254e-24
-0.49680042196874297	-1.9091723895277414e-24
-0.49673938681249297	-2.0237015408207148e-24
-0.49667835165624297	-2.134746179601993e-24
-0.49661731649999297	-2.2421048882390187e-24
-0.49655628134374297	-2.3455783911451435e-24
-0.49649524618749297	-2.4449776580122008e-24
-0.49643421103124297	-2.5401223541226255e-24
-0.49637317587499297	-2.6308355153856764e-24
-0.49631214071874297	-2.7169509677046102e-24
-0.49625110556249297	-2.798310826304749e-24
-0.49619007040624297	-2.8747636265910933e-24
-0.49612903524999297	-2.9461697513846606e-24
-0.49606800009374297	-3.012395962317409e-24
-0.49600696493749297	-3.0733185821116024e-24
-0.49594592978124297	-3.128826284483332e-24
-0.49588489462499297	-3.1788138152712704e-24
-0.49582385946874297	-3.2231872969332243e-24
-0.49576282431249297	-3.2618645981536924e-24
-0.49570178915624297	-3.294770959517287e-24
-0.49564075399999297	-3.321843614631573e-24
-0.49557971884374297	-3.34303112324343e-24
-0.49551868368749297	-3.358290628044427e-24
-0.49545764853124297	-3.367591107766573e-24
-0.49539661337499297	-3.370913034084741e-24
-0.49533557821874297	-3.368246267177795e-24
-0.49527454306249297	-3.359591980956171e-24
-0.49521350790624297	-3.3449628419972424e-24
-0.49515247274999297	-3.324381621489828e-24
-0.49509143759374297	-3.297881862534093e-24
-0.49503040243749297	-3.2655083828518162e-24
-0.49496936728124297	-3.22731638003148e-24
-0.49490833212499297	-3.1833709023057572e-24
-0.49484729696874297	-3.133748998351096e-24
-0.49478626181249297	-3.078537182229455e-24
-0.49472522665624297	-3.0178302714211883e-24
-0.49466419149999297	-2.951737445247883e-24
-0.49460315634374297	-2.8803745613284918e-24
-0.49454212118749297	-2.803864818696667e-24
-0.49448108603124297	-2.722347671990148e-24
-0.49442005087499297	-2.6359662414328974e-24
-0.49435901571874297	-2.5448714563787964e-24
-0.49429798056249297	-2.449228964117791e-24
-0.49423694540624297	-2.3492079067985834e-24
-0.49417591024999297	-2.2449846220172093e-24
-0.49411487509374297	-2.136747443224356e-24
-0.49405383993749297	-2.0246902380248137e-24
-0.49399280478124297	-1.909010212406577e-24
-0.49393176962499297	-1.789916358402205e-24
-0.49387073446874297	-1.667624024854355e-24
-0.49380969931249297	-1.5423483241005236e-24
-0.49374866415624297	-1.4143150473269957e-24
-0.49368762899999297	-1.2837565799983032e-24
-0.49362659384374297	-1.1509051246769138e-24
-0.49356555868749297	-1.0159977282125664e-24
-0.49350452353124297	-8.792799768235129e-25
-0.49344348837499297	-7.409975137463281e-25
-0.49338245321874297	-6.013949881729789e-25
-0.49332141806249297	-4.607283551682305e-25
-0.49326038290624297	-3.192503163480536e-25
-0.49319934774999297	-1.7721132795225187e-25
-0.49313831259374297	-3.487212928609262e-26
-0.49307727743749297	1.075123810149657e-25
-0.49301624228124297	2.496864650005569e-25
-0.49295520712499297	3.9139207098307743e-25
-0.49289417196874297	5.323760781276476e-25
-0.49283313681249297	6.723813480862528e-25
-0.49277210165624297	8.111556518123313e-25
-0.49271106649999297	9.484509414121005e-25
-0.49265003134374297	1.0840171338554217e-24
-0.49258899618749297	1.2176090148361388e-24
-0.49252796103124297	1.348986312838949e-24
-0.49246692587499297	1.4779124543025424e-24
-0.49240589071874297	1.604152953542129e-24
-0.49234485556249297	1.7274792687411468e-24
-0.49228382040624297	1.8476706076909417e-24
-0.49222278524999297	1.9645085703932378e-24
-0.49216175009374297	2.077781457242433e-24
-0.49210071493749297	2.1872844959637358e-24
-0.49203967978124297	2.2928205415547213e-24
-0.49197864462499297	2.394199481591908e-24
-0.49191760946874297	2.4912351446615562e-24
-0.49185657431249297	2.5837543117773447e-24
-0.49179553915624297	2.671590607496383e-24
-0.49173450399999297	2.7545822915178338e-24
-0.49167346884374297	2.8325818805427443e-24
-0.49161243368749297	2.9054481952526957e-24
-0.49155139853124297	2.973047641782404e-24
-0.49149036337499297	3.0352608382845503e-24
-0.49142932821874297	3.0919747110297594e-24
-0.49136829306249297	3.1430851931840437e-24
-0.49130725790624297	3.188502748941058e-24
-0.49124622274999297	3.228145223757356e-24
-0.49118518759374297	3.2619398296731097e-24
-0.49112415243749297	3.2898275906324367e-24
-0.49106311728124297	3.311758783129318e-24
-0.49100208212499297	3.3276935934586645e-24
-0.49094104696874297	3.33760464710184e-24
-0.49088001181249297	3.341475207763155e-24
-0.49081897665624297	3.339298866156239e-24
-0.49075794149999297	3.331080872477053e-24
-0.49069690634374297	3.3168375871405115e-24
-0.49063587118749297	3.2965960711525124e-24
-0.49057483603124297	3.2703943348096366e-24
-0.49051380087499297	3.2382813006208135e-24
-0.49045276571874297	3.200317400159936e-24
-0.49039173056249297	3.1565726167543887e-24
-0.49033069540624297	3.1071278538818533e-24
-0.49026966024999297	3.0520757819321018e-24
-0.49020862509374297	2.991516990784379e-24
-0.49014758993749297	2.9255641118866162e-24
-0.49008655478124297	2.854339227745157e-24
-0.49002551962499297	2.777972476776635e-24
-0.48996448446874297	2.6966068132417526e-24
-0.48990344931249297	2.610391150773575e-24
-0.48984241415624297	2.5194837542467224e-24
-0.48978137899999297	2.424054139855438e-24
-0.48972034384374297	2.3242772378957166e-24
-0.48965930868749297	2.220336541304011e-24
-0.48959827353124297	2.1124246308272015e-24
-0.48953723837499297	2.0007400675291877e-24
-0.48947620321874297	1.885488040246944e-24
-0.48941516806249297	1.7668825843031075e-24
-0.48935413290624297	1.6451411251857359e-24
-0.48929309774999297	1.5204873499290703e-24
-0.48923206259374297	1.3931537649839189e-24
-0.48917102743749297	1.2633727288951105e-24
-0.48910999228124297	1.1313834405103633e-24
-0.48904895712499297	9.974318432099879e-25
-0.48898792196874297	8.617622918578887e-25
-0.48892688681249297	7.246257222692965e-25
-0.48886585165624297	5.862769161547849e-25
-0.48880481649999297	4.469682549041035e-25
-0.48874378134374297	3.0695781285487286e-25
-0.48868274618749297	1.6650668611734332e-25
-0.48862171103124297	2.587026924917358e-26
-0.48856067587499297	-1.1469165130875946e-25
-0.48849964071874297	-2.5491537130724006e-25
-0.48843860556249297	-3.9454555582165583e-25
-0.48837757040624297	-5.333250574831377e-25
-0.48831653524999297	-6.709939174354366e-25
-0.48825550009374297	-8.072997107437325e-25
-0.48819446493749297	-9.41991868294494e-25
-0.48813342978124297	-1.0748189421763398e-24
-0.48807239462499297	-1.2055357907119704e-24
-0.48801135946874297	-1.333902150648422e-24
-0.48795032431249297	-1.4596792004877674e-24
-0.48788928915624297	-1.5826342250157639e-24
-0.48782825399999297	-1.7025401840290256e-24
-0.48776721884374297	-1.8191744563690553e-24
-0.48770618368749297	-1.9323213019057164e-24
-0.48764514853124297	-2.0417713958689283e-24
-0.48758411337499297	-2.147321094316603e-24
-0.48752307821874297	-2.2487750073258516e-24
-0.48746204306249297	-2.3459455381379523e-24
-0.48740100790624297	-2.4386513032527087e-24
-0.48733997274999297	-2.5267208426187756e-24
-0.48727893759374297	-2.6099906752451766e-24
-0.48721790243749297	-2.6883050163316217e-24
-0.48715686728124297	-2.7615198356442475e-24
-0.48709583212499297	-2.82949777496701e-24
-0.48703479696874297	-2.8921114627199792e-24
-0.48697376181249297	-2.9492464656882356e-24
-0.48691272665624297	-3.0007943399957447e-24
-0.48685169149999297	-3.0466586007972943e-24
-0.48679065634374297	-3.0867550296814453e-24
-0.48672962118749297	-3.1210069748628026e-24
-0.48666858603124297	-3.1493503586773932e-24
-0.48660755087499297	-3.1717323420128927e-24
-0.48654651571874297	-3.188109811775717e-24
-0.48648548056249297	-3.1984515245308802e-24
-0.48642444540624297	-3.2027375635399464e-24
-0.48636341024999297	-3.2009587622670053e-24
-0.48630237509374297	-3.193117352489137e-24
-0.48624133993749297	-3.1792270671820822e-24
-0.48618030478124297	-3.15931225781406e-24
-0.48611926962499297	-3.133408946759119e-24
-0.48605823446874297	-3.1015645016761277e-24
-0.48599719931249297	-3.0638362998461943e-24
-0.48593616415624297	-3.020293418405509e-24
-0.48587512899999297	-2.971016138409907e-24
-0.48581409384374297	-2.9160946794250536e-24
-0.48575305868749297	-2.8556290688957927e-24
-0.48569202353124297	-2.7897312636624235e-24
-0.48563098837499297	-2.7185239175608255e-24
-0.48556995321874297	-2.6421355663252628e-24
-0.48550891806249297	-2.5607080994097312e-24
-0.48544788290624297	-2.47439419555815e-24
-0.48538684774999297	-2.3833499139649787e-24
-0.48532581259374297	-2.2877443336740266e-24
-0.48526477743749297	-2.187756670777047e-24
-0.48520374228124297	-2.0835692863901263e-24
-0.48514270712499297	-1.975375067916497e-24
-0.48508167196874297	-1.86337680584806e-24
-0.48502063681249297	-1.7477802984389225e-24
-0.48495960165624297	-1.6287991680652382e-24
-0.48489856649999297	-1.5066561894401652e-24
-0.48483753134374297	-1.3815770292769498e-24
-0.48477649618749297	-1.2537931229630376e-24
-0.48471546103124297	-1.1235436297783277e-24
-0.48465442587499297	-9.910694023521026e-25
-0.48459339071874297	-8.566163545745225e-25
-0.48453235556249297	-7.204364950728876e-25
-0.48447132040624297	-5.827812027089811e-25
-0.48441028524999297	-4.439079280886828e-25
-0.48434925009374297	-3.0407578474301874e-25
-0.48428821493749297	-1.6354299999319926e-25
-0.48422717978124297	-2.2575480421834478e-26
-0.48416614462499297	1.1856628415271596e-25
-0.48410510946874297	2.5962064302656e-25
-0.48404407431249297	4.003189705464213e-25
-0.48398303915624297	5.404020612493604e-25
-0.48392200399999297	6.796089552505824e-25
-0.48386096884374297	8.176757237433048e-25
-0.48379993368749297	9.543455756823254e-25
-0.48373889853124297	1.0893634840843028e-24
-0.48367786337499297	1.222475557560517e-24
-0.48361682821874297	1.3534311345882563e-24
-0.48355579306249297	1.4819856745149294e-24
-0.48349475790624297	1.607897626336328e-24
-0.48343372274999297	1.7309293499120362e-24
-0.48337268759374297	1.8508504472367895e-24
-0.48331165243749297	1.9674340062961747e-24
-0.48325061728124297	2.0804605774242492e-24
-0.48318958212499297	2.1897176817450662e-24
-0.48312854696874297	2.2949974591937426e-24
-0.48306751181249297	2.396101352159377e-24
-0.48300647665624297	2.4928382044754103e-24
-0.48294544149999297	2.5850238596939783e-24
-0.48288440634374297	2.6724833877884837e-24
-0.48282337118749297	2.755049795548268e-24
-0.48276233603124297	2.832566292005972e-24
-0.48270130087499297	2.9048845767199234e-24
-0.48264026571874297	2.9718642877463326e-24
-0.48257923056249297	3.033378379051538e-24
-0.48251819540624297	3.0893084268503236e-24
-0.48245716024999297	3.1395433655512934e-24
-0.48239612509374297	3.1839870161521792e-24
-0.48233508993749297	3.2225527704444548e-24
-0.48227405478124297	3.255161902988266e-24
-0.48221301962499297	3.281750506212338e-24
-0.48215198446874297	3.3022644128844027e-24
-0.48209094931249297	3.316659267566172e-24
-0.48202991415624297	3.324904444599161e-24
-0.48196887899999297	3.326979357251537e-24
-0.48190784384374297	3.322874626627186e-24
-0.48184680868749297	3.31259322563199e-24
-0.48178577353124297	3.296149130241306e-24
-0.48172473837499297	3.273567719498292e-24
-0.48166370321874297	3.244885720460397e-24
-0.48160266806249297	3.2101515494976203e-24
-0.48154163290624297	3.1694247330449464e-24
-0.48148059774999297	3.122775653602682e-24
-0.48141956259374297	3.0702861041706325e-24
-0.48135852743749297	3.01204857541039e-24
-0.48129749228124297	2.9481666211187912e-24
-0.48123645712499297	2.8787537504477592e-24
-0.48117542196874297	2.8039338148954367e-24
-0.48111438681249297	2.723842068000845e-24
-0.48105335165624297	2.638621832347017e-24
-0.48099231649999297	2.5484265384631898e-24
-0.48093128134374297	2.453420388793847e-24
-0.48087024618749297	2.353774514117143e-24
-0.48080921103124297	2.2496698643613492e-24
-0.48074817587499297	2.1412959405671067e-24
-0.48068714071874297	2.028849540845265e-24
-0.48062610556249297	1.912536145376867e-24
-0.48056507040624297	1.7925670864488024e-24
-0.48050403524999297	1.6691621083831293e-24
-0.48044300009374297	1.5425468671569808e-24
-0.48038196493749297	1.4129522944937446e-24
-0.48032092978124297	1.280617176560415e-24
-0.48025989462499297	1.145782282907617e-24
-0.48019885946874297	1.0086957454749704e-24
-0.48013782431249297	8.696109891047118e-25
-0.48007678915624297	7.287802628494985e-25
-0.48001575399999297	5.864646237010788e-25
-0.47995471884374297	4.429264827030698e-25
-0.47989368368749297	2.9842763049068344e-25
-0.47983264853124297	1.5323684290899814e-25
-0.47977161337499297	7.620526879597533e-27
-0.47971057821874297	-1.3815333902582435e-25
-0.47964954306249297	-2.8381391309034273e-25
-0.47958850790624297	-4.290939160443052e-25
-0.47952747274999297	-5.737249815620275e-25
-0.47946643759374297	-7.174374089414818e-25
-0.47940540243749297	-8.59967948874931e-25
-0.47934436728124297	-1.0010537842903015e-24
-0.47928333212499297	-1.1404284218946624e-24
-0.47922229696874297	-1.2778384767005077e-24
-0.47916126181249297	-1.4130308296892073e-24
-0.47910022665624297	-1.545747487316355e-24
-0.47903919149999297	-1.675747570263591e-24
-0.47897815634374297	-1.8027917447161124e-24
-0.47891712118749297	-1.926637939607889e-24
-0.47885608603124297	-2.0470589530948264e-24
-0.47879505087499297	-2.1638328920861985e-24
-0.47873401571874297	-2.2767394246763616e-24
-0.47867298056249297	-2.3855687921810017e-24
-0.47861194540624297	-2.4901198120758394e-24
-0.47855091024999297	-2.5901963163332906e-24
-0.47848987509374297	-2.6856108621887783e-24
-0.47842883993749297	-2.7761874370098176e-24
-0.47836780478124297	-2.8617555219288182e-24
-0.47830676962499297	-2.942153634384347e-24
-0.47824573446874297	-3.0172338410573997e-24
-0.47818469931249297	-3.086854469038131e-24
-0.47812366415624297	-3.1508835635468193e-24
-0.47806262899999297	-3.2092021510886515e-24
-0.47800159384374297	-3.261700268155415e-24
-0.47794055868749297	-3.308278310003306e-24
-0.47787952353124297	-3.3488483577181905e-24
-0.47781848837499297	-3.38333368091006e-24
-0.47775745321874297	-3.4116682547067675e-24
-0.47769641806249297	-3.433797685560439e-24
-0.47763538290624297	-3.449679359350504e-24
-0.47757434774999297	-3.4592818237909456e-24
-0.47751331259374297	-3.46258551220481e-24
-0.47745227743749297	-3.459582530194682e-24
-0.47739124228124297	-3.4502766267947545e-24
-0.47733020712499297	-3.434683247198507e-24
-0.47726917196874297	-3.412829686798487e-24
-0.47720813681249297	-3.384754801794366e-24
-0.47714710165624297	-3.350508804258139e-24
-0.47708606649999297	-3.310153592161433e-24
-0.47702503134374297	-3.263762734356738e-24
-0.47696399618749297	-3.2114206792187416e-24
-0.47690296103124297	-3.153222438441752e-24
-0.47684192587499297	-3.0892753765869937e-24
-0.47678089071874297	-3.019696513428228e-24
-0.47671985556249297	-2.9446129731929704e-24
-0.47665882040624297	-2.8641640183331494e-24
-0.47659778524999297	-2.7784968567396576e-24
-0.47653675009374297	-2.687769079584508e-24
-0.47647571493749297	-2.5921491665690087e-24
-0.47641467978124297	-2.491812833870534e-24
-0.47635364462499297	-2.3869450374200955e-24
-0.47629260946874297	-2.277740092280228e-24
-0.47623157431249297	-2.1644005131492097e-24
-0.47617053915624297	-2.0471349194607445e-24
-0.47610950399999297	-1.9261601096224766e-24
-0.47604846884374297	-1.8017023227378613e-24
-0.47598743368749297	-1.673990081692178e-24
-0.47592639853124297	-1.5432598383712222e-24
-0.47586536337499297	-1.4097562725216785e-24
-0.47580432821874297	-1.2737253893613308e-24
-0.47574329306249297	-1.1354194322759363e-24
-0.47568225790624297	-9.950960056884883e-25
-0.47562122274999297	-8.530158748651526e-25
-0.47556018759374297	-7.094416203573432e-25
-0.47549915243749297	-5.646413228624208e-25
-0.47543811728124297	-4.188846840595078e-25
-0.47537708212499297	-2.7243989165784798e-25
-0.47531604696874297	-1.255823799157699e-25
-0.47525501181249297	2.1415457656148204e-26
-0.47519397665624297	1.6828165977828816e-25
-0.47513294149999297	3.1474045403174495e-25
-0.47507190634374297	4.605218548782722e-25
-0.47501087118749297	6.053519526616679e-25
-0.47494983603124297	7.489609339269314e-25
-0.47488880087499297	8.910853788396421e-25
-0.47482776571874297	1.0314553565307316e-24
-0.47476673056249297	1.169810445564772e-24
-0.47470569540624297	1.3058963126589402e-24
-0.47464466024999297	1.4394550623779795e-24
-0.47458362509374297	1.5702386022078382e-24
-0.47452258993749297	1.698005196758508e-24
-0.47446155478124297	1.822514586725123e-24
-0.47440051962499297	1.9435340437675346e-24
-0.47433948446874297	2.0608391656130333e-24
-0.47427844931249297	2.174211583293226e-24
-0.47421741415624297	2.283437924594135e-24
-0.47415637899999297	2.388314313852151e-24
-0.47409534384374297	2.4886477023171595e-24
-0.47403430868749297	2.5842487405635216e-24
-0.47397327353124297	2.674938057470502e-24
-0.47391223837499297	2.760548996050583e-24
-0.47385120321874297	2.8409203534676344e-24
-0.47379016806249297	2.9159018417843002e-24
-0.47372913290624297	2.9853544963776237e-24
-0.47366809774999297	3.0491483822020165e-24
-0.47360706259374297	3.1071642317532932e-24
-0.47354602743749297	3.1592943296462627e-24
-0.47348499228124297	3.205441895991067e-24
-0.47342395712499297	3.245520098434256e-24
-0.47336292196874297	3.279455089923236e-24
-0.47330188681249297	3.3071841519825947e-24
-0.47324085165624297	3.3286552584383144e-24
-0.47317981649999297	3.3438292035292436e-24
-0.47311878134374297	3.3526783408886124e-24
-0.47305774618749297	3.355186684766825e-24
-0.47299671103124297	3.3513501889053655e-24
-0.47293567587499297	3.3411770686274646e-24
-0.47287464071874297	3.324687124909237e-24
-0.47281360556249297	3.3019120579511577e-24
-0.47275257040624297	3.272895863962426e-24
-0.47269153524999297	3.2376935004169813e-24
-0.47263050009374297	3.1963723039571882e-24
-0.47256946493749297	3.1490110010055767e-24
-0.47250842978124297	3.0956989797053504e-24
-0.47244739462499297	3.0365382343395022e-24
-0.47238635946874297	2.9716408356569046e-24
