Time	Frequency
-0.5000171821250063	-0.3254113597488312
-0.49995614696875634	-0.3346706525793364
-0.49989511181250634	-0.34340100799785833
-0.49983407665625634	-0.3515877759286165
-0.49977304150000634	-0.3592179491380669
-0.49971200634375634	-0.36627905512960385
-0.49965097118750634	-0.3727592701857119
-0.49958993603125634	-0.3786483503249186
-0.49952890087500634	-0.3839364726375723
-0.49946786571875634	-0.3886148288984763
-0.49940683056250634	-0.3926759869295767
-0.49934579540625634	-0.39611307736874957
-0.49928476025000634	-0.3989203388239647
-0.49922372509375634	-0.4010932577947564
-0.49916268993750634	-0.40262806590139766
-0.49910165478125634	-0.4035221187590634
-0.49904061962500634	-0.4037738816266248
-0.49897958446875634	-0.4033827745119904
-0.49891854931250634	-0.4023492866707863
-0.49885751415625634	-0.4006748894123837
-0.49879647900000634	-0.39836222565982676
-0.49873544384375634	-0.3954148827780599
-0.49867440868750634	-0.3918373583825808
-0.49861337353125634	-0.3876354620800973
-0.49855233837500634	-0.3828158246547116
-0.49849130321875634	-0.37738593406898696
-0.49843026806250634	-0.3713546411669922
-0.49836923290625634	-0.3647315965877144
-0.49830819775000634	-0.3575271286748116
-0.49824716259375634	-0.34975296950388385
-0.49818612743750634	-0.3414217375025706
-0.49812509228125634	-0.3325463914229761
-0.49806405712500634	-0.3231414161659053
-0.49800302196875634	-0.31322217571774497
-0.49794198681250634	-0.3028040848505771
-0.49788095165625634	-0.29190425622271343
-0.49781991650000634	-0.2805404258334052
-0.49775888134375634	-0.2687303417496463
-0.49769784618750634	-0.25649352687344484
-0.49763681103125634	-0.24384973993561898
-0.49757577587500634	-0.23081891816482128
-0.49751474071875634	-0.21742253768278122
-0.49745370556250634	-0.20368227941525888
-0.49739267040625634	-0.18961998646225725
-0.49733163525000634	-0.17525854222210777
-0.49727060009375634	-0.16062146624441745
-0.49720956493750634	-0.1457320699790202
-0.49714852978125634	-0.13061450653783135
-0.49708749462500634	-0.11529352619930125
-0.49702645946875634	-0.09979357742455869
-0.49696542431250634	-0.0841400692125903
-0.49690438915625634	-0.06835825524538788
-0.49684335400000634	-0.05247363121499419
-0.49678231884375634	-0.036512198619985725
-0.49672128368750634	-0.02049951626433638
-0.49666024853125634	-0.004461973782522935
-0.49659921337500634	0.01157464153448464
-0.49653817821875634	0.02758449248847494
-0.49647714306250634	0.043541045555882944
-0.49641610790625634	0.05941873290902409
-0.49635507275000634	0.07519172528628723
-0.49629403759375634	0.09083442068687654
-0.49623300243750634	0.10632117092817753
-0.49617196728125634	0.12162676453536184
-0.49611093212500634	0.13672684407275484
-0.49604989696875634	0.15159613154226936
-0.49598886181250634	0.16621067071077125
-0.49592782665625634	0.1805470181160218
-0.49586679150000634	0.1945811834203503
-0.49580575634375634	0.20829074406603762
-0.49574472118750634	0.22165339473629006
-0.49568368603125634	0.2346469160607097
-0.49562265087500634	0.24725047592992316
-0.49556161571875634	0.25944358965331543
-0.49550058056250634	0.27120599881061025
-0.49543954540625634	0.28251867006560505
-0.49537851025000634	0.2933633020216842
-0.49531747509375634	0.3037219497616892
-0.49525643993750634	0.3135776877074793
-0.49519540478125634	0.32291454147222487
-0.49513436962500634	0.3317171807483523
-0.49507333446875634	0.3399710875686338
-0.49501229931250634	0.34766291681680206
-0.49495126415625634	0.35478003337434005
-0.49489022900000634	0.3613105801071948
-0.49482919384375634	0.36724408976901557
-0.49476815868750634	0.37257080190145486
-0.49470712353125634	0.37728173345572713
-0.49464608837500634	0.381369322494055
-0.49458505321875634	0.3848269078112346
-0.49452401806250634	0.3876485907835681
-0.49446298290625634	0.3898297561663755
-0.49440194775000634	0.3913668990035777
-0.49434091259375634	0.39225734067589324
-0.49427987743750634	0.3924995415603855
-0.49421884228125634	0.392093147505585
-0.49415780712500634	0.39103870123934137
-0.49409677196875634	0.3893378521469036
-0.49403573681250634	0.38699338992698895
-0.49397470165625634	0.3840090262654412
-0.49391366650000634	0.38038960894484014
-0.49385263134375634	0.37614104624836775
-0.49379159618750634	0.3712701650626167
-0.49373056103125634	0.36578491757288006
-0.49366952587500634	0.3596942750236409
-0.49360849071875634	0.3530080879256202
-0.49354745556250634	0.3457372820321732
-0.49348642040625634	0.3378937446503082
-0.49342538525000634	0.32949026593917075
-0.49336435009375634	0.32054056869680014
-0.49330331493750634	0.31105922523104124
-0.49324227978125634	0.3010618619843044
-0.49318124462500634	0.29056477083349136
-0.49312020946875634	0.27958500621203636
-0.49305917431250634	0.2681407533790381
-0.49299813915625634	0.25625069222684566
-0.49293710400000634	0.243934156002684
-0.49287606884375634	0.23121149177769088
-0.49281503368750634	0.2181035941278232
-0.49275399853125634	0.2046317716725071
-0.49269296337500634	0.1908182577191491
-0.49263192821875634	0.17668582030590022
-0.49257089306250634	0.16225741537819158
-0.49250985790625634	0.1475568963847748
-0.49244882275000634	0.132608511747416
-0.49238778759375634	0.11743669180941844
-0.49232675243750634	0.1020662479505635
-0.49226571728125634	0.0865228065923875
-0.49220468212500634	0.07083192572244325
-0.49214364696875634	0.055018758002542495
-0.49208261181250634	0.03911033178704843
-0.49202157665625634	0.02313249440151241
-0.49196054150000634	0.007110740870963566
-0.49189950634375634	-0.008927060865141138
-0.49183847118750634	-0.024955226557131123
-0.49177743603125634	-0.04094786733545866
-0.49171640087500634	-0.056877441002902755
-0.49165536571875634	-0.07271821460288394
-0.49159433056250634	-0.08844423127941249
-0.49153329540625634	-0.10402918353059877
-0.49147226025000634	-0.11944729226455361
-0.49141122509375634	-0.13467306442045607
-0.49135018993750634	-0.14968161104013944
-0.49128915478125634	-0.16444765624147797
-0.49122811962500634	-0.178946804834385
-0.49116708446875634	-0.19315536056472093
-0.49110604931250634	-0.2070492880639453
-0.49104501415625634	-0.22060578018919738
-0.49098397900000634	-0.2338024009696905
-0.49092294384375634	-0.24661684144547924
-0.49086190868750634	-0.2590281658992741
-0.49080087353125634	-0.27101562052082395
-0.49073983837500634	-0.2825588987661239
-0.49067880321875634	-0.2936392339551448
-0.49061776806250634	-0.30423791272258077
-0.49055673290625634	-0.3143368991197888
-0.49049569775000634	-0.32391984493360215
-0.49043466259375634	-0.33297042039553654
-0.49037362743750634	-0.3414731591096982
-0.49031259228125634	-0.3494142520754278
-0.49025155712500634	-0.35678004117581186
-0.49019052196875634	-0.3635579718005659
-0.49012948681250634	-0.369736888274407
-0.49006845165625634	-0.37530598415906474
-0.49000741650000634	-0.3802558399234282
-0.48994638134375634	-0.3845781348425555
-0.48988534618750634	-0.3882651205163009
-0.48982431103125634	-0.39131052992029547
-0.48976327587500634	-0.3937091044477351
-0.48970224071875634	-0.39545630845638463
-0.48964120556250634	-0.39654899557523515
-0.48958017040625634	-0.3969851286051189
-0.48951913525000634	-0.39676347517938976
-0.48945810009375634	-0.3958840353925028
-0.48939706493750634	-0.39434802509049827
-0.48933602978125634	-0.3921575273932373
-0.48927499462500634	-0.3893157197403508
-0.48921395946875634	-0.3858270664957392
-0.48915292431250634	-0.38169689431838427
-0.48909188915625634	-0.3769315531681777
-0.48903085400000634	-0.3715386966387787
-0.48896981884375634	-0.3655267846350143
-0.48890878368750634	-0.35890530642554735
-0.48884774853125634	-0.35168494742721607
-0.48878671337500634	-0.3438771826863399
-0.48872567821875634	-0.33549457442525005
-0.48866464306250634	-0.3265505751062511
-0.48860360790625634	-0.3170596023657726
-0.48854257275000634	-0.30703706176252565
-0.48848153759375634	-0.2964989885250033
-0.48842050243750634	-0.2854626068186257
-0.48835946728125634	-0.27394572929121286
-0.48829843212500634	-0.2619669868104326
-0.48823739696875634	-0.24954607670017503
-0.48817636181250634	-0.23670286723394576
-0.48811532665625634	-0.22345842378195488
-0.48805429150000634	-0.2098345656076408
-0.48799325634375634	-0.19585299242932008
-0.48793222118750634	-0.1815367887476811
-0.48787118603125634	-0.1669096517873175
-0.48781015087500634	-0.15199487915072274
-0.48774911571875634	-0.1368170511222163
-0.48768808056250634	-0.12140141143632069
-0.48762704540625634	-0.10577270141197839
-0.48756601025000634	-0.08995650664716934
-0.48750497509375634	-0.07397923990400415
-0.48744393993750634	-0.05786667505648166
-0.48738290478125634	-0.041645103900714305
-0.48732186962500634	-0.02534181945288022
-0.48726083446875634	-0.008982986907843674
-0.48719979931250634	0.007404572154790199
-0.48713876415625634	0.023793183461203547
-0.48707772900000634	0.040156653431760336
-0.48701669384375634	0.05646794154069045
-0.48695565868750634	0.07269965531110352
-0.48689462353125634	0.08882565299790302
-0.48683358837500634	0.10481925210784532
-0.48677255321875634	0.12065375899288935
-0.48671151806250634	0.13630334875616706
-0.48665048290625634	0.15174226979068361
-0.48658944775000634	0.16694470573303566
-0.48652841259375634	0.18188573071988942
-0.48646737743750634	0.19654085424942372
-0.48640634228125634	0.2108854076721536
-0.48634530712500634	0.22489590932398143
-0.48628427196875634	0.23854931039956298
-0.48622323681250634	0.25182267383572066
-0.48616220165625634	0.26469420780053654
-0.48610116650000634	0.2771424372811469
-0.48604013134375634	0.28914689066121735
-0.48597909618750634	0.3006876047795772
-0.48591806103125634	0.3117449594803133
-0.48585702587500634	0.3223012365894465
-0.48579599071875634	0.33233864876186564
-0.48573495556250634	0.34183994179426497
-0.48567392040625634	0.3507900267721707
-0.48561288525000634	0.3591737102152812
-0.48555185009375634	0.3669765457920168
-0.48549081493750634	0.374186105486831
-0.48542977978125634	0.3807900297819545
-0.48536874462500634	0.38677696655316
-0.48530770946875634	0.3921373102608476
-0.48524667431250634	0.3968617346121666
-0.48518563915625634	0.40094213919799426
-0.48512460400000634	0.4043718583284495
-0.48506356884375634	0.40714484729457917
-0.48500253368750634	0.40925626189063236
-0.48494149853125634	0.41070253499829673
-0.48488046337500634	0.41148101417852706
-0.48481942821875634	0.4115901370576573
-0.48475839306250634	0.411029576841241
-0.48469735790625634	0.4098000126318668
-0.48463632275000634	0.4079032591456196
-0.48457528759375634	0.40534224905465444
-0.48451425243750634	0.4021209341688609
-0.48445321728125634	0.39824453524796777
-0.48439218212500634	0.3937191603923161
-0.48433114696875634	0.3885520377201087
-0.48427011181250634	0.38275167757964
-0.48420907665625634	0.3763272411672276
-0.48414804150000634	0.3692892515928401
-0.48408700634375634	0.3616492746567595
-0.48402597118750634	0.3534194154311745
-0.48396493603125634	0.34461339011528663
-0.48390390087500634	0.3352455714014454
-0.48384286571875634	0.3253309329419377
-0.48378183056250634	0.3148861037532182
-0.48372079540625634	0.3039280323564322
-0.48365976025000634	0.29247448756928746
-0.48359872509375634	0.28054460291233596
-0.48353768993750634	0.2681576852205499
-0.48347665478125634	0.2553341652500722
-0.48341561962500634	0.24209522460050142
-0.48335458446875634	0.2284623945666842
-0.48329354931250634	0.21445837841578672
-0.48323251415625634	0.2001059971198959
-0.48317147900000634	0.1854289730280243
-0.48311044384375634	0.17045175189800113
-0.48304940868750634	0.15519840167548687
-0.48298837353125634	0.13969457299976426
-0.48292733837500634	0.12396610702607773
-0.48286630321875634	0.10803802884968843
-0.48280526806250634	0.0919373217533962
-0.48274423290625634	0.07569093761566617
-0.48268319775000634	0.05932468237262268
-0.48262216259375634	0.04286618360350384
-0.48256112743750634	0.02634317084668109
-0.48250009228125634	0.00978200504514417
-0.48243905712500634	-0.006789542532323546
-0.48237802196875634	-0.023343480743113317
-0.48231698681250634	-0.039853270626612654
-0.48225595165625634	-0.05629115836362623
-0.48219491650000634	-0.07262955541545259
-0.48213388134375634	-0.08884218312719452
-0.48207284618750634	-0.1049015322496167
-0.48201181103125634	-0.1207808813318181
-0.48195077587500634	-0.13645464279356323
-0.48188974071875634	-0.15189609273514437
-0.48182870556250634	-0.16707954789124438
-0.48176767040625634	-0.18198043912237058
-0.48170663525000634	-0.19657359716766631
-0.48164560009375634	-0.21083457419440957
-0.48158456493750634	-0.2247399779469065
-0.48152352978125634	-0.23826675906426273
-0.48146249462500634	-0.25139216320426716
-0.48140145946875634	-0.26409432910774033
-0.48134042431250634	-0.2763523807385808
-0.48127938915625634	-0.28814575749803195
-0.48121835400000634	-0.29945471344902974
-0.48115731884375634	-0.31026055557534454
-0.48109628368750634	-0.32054522969167976
-0.48103524853125634	-0.33029155887737527
-0.48097421337500634	-0.3394832569496132
-0.48091317821875634	-0.34810502334760796
-0.48085214306250634	-0.3561425262386935
-0.48079110790625634	-0.363582149842096
-0.48073007275000634	-0.3704115460018757
-0.48066903759375634	-0.37661942783551117
-0.48060800243750634	-0.3821951821840975
-0.48054696728125634	-0.38712950243883354
-0.48048593212500634	-0.3914142516749354
-0.48042489696875634	-0.39504210526228767
-0.48036386181250634	-0.39800694417456106
-0.48030282665625634	-0.40030384605792496
-0.48024179150000634	-0.4019288609386706
-0.48018075634375634	-0.4028792202328489
-0.48011972118750634	-0.4031533103168057
-0.48005868603125634	-0.40275056580046875
-0.47999765087500634	-0.4016716004424857
-0.47993661571875634	-0.39991820042157855
-0.47987558056250634	-0.39749317658723377
-0.47981454540625634	-0.3944004867089548
-0.47975351025000634	-0.39064533499430276
-0.47969247509375634	-0.3862338447333208
-0.47963143993750634	-0.3811732930129892
-0.47957040478125634	-0.37547219794736714
-0.47950936962500634	-0.3691399030659942
-0.47944833446875634	-0.3621869538185635
-0.47938729931250634	-0.35462499445936413
-0.47932626415625634	-0.34646651039050885
-0.47926522900000634	-0.3377250810410485
-0.47920419384375634	-0.3284153749534357
-0.47914315868750634	-0.3185529113735832
-0.47908212353125634	-0.30815385916933064
-0.47902108837500634	-0.29723592779249774
-0.47896005321875634	-0.2858173603902685
-0.47889901806250634	-0.273916673103821
-0.47883798290625634	-0.26155441029090265
-0.47877694775000634	-0.2487510453315613
-0.47871591259375634	-0.23552754488188865
-0.47865487743750634	-0.22190666443550439
-0.47859384228125634	-0.20791086678968188
-0.47853280712500634	-0.19356348081863908
-0.47847177196875634	-0.17888878492033536
-0.47841073681250634	-0.16391117013982953
-0.47834970165625634	-0.1486558072871892
-0.47828866650000634	-0.13314824747934173
-0.47822763134375634	-0.11741447560240381
-0.47816659618750634	-0.10148088974859874
-0.47810556103125634	-0.08537426247695071
-0.47804452587500634	-0.06912152109859408
-0.47798349071875634	-0.05275000957448114
-0.47792245556250634	-0.03628743012986685
-0.47786142040625634	-0.019760934076776742
-0.47780038525000634	-0.003198674674780366
-0.47773935009375634	0.013371218432324913
-0.47767831493750634	0.029921693495160547
-0.47761727978125634	0.046424331790571705
-0.47755624462500634	0.06285118127372041
-0.47749520946875634	0.079175183162377
-0.47743417431250634	0.0953683710684693
-0.47737313915625634	0.1114035988041868
-0.47731210400000634	0.12725395122396585
-0.47725106884375634	0.14289230918189338
-0.47719003368750634	0.1582927474887505
-0.47712899853125634	0.17342914894193628
-0.47706796337500634	0.18827553298580973
-0.47700692821875634	0.20280730305519834
-0.47694589306250634	0.21699980545808858
-0.47688485790625634	0.23082869484844012
-0.47682382275000634	0.24427089752511438
-0.47676278759375634	0.25730352829102066
-0.47670175243750634	0.2699044092658305
-0.47664071728125634	0.28205231633941014
-0.47657968212500634	0.2937263620777549
-0.47651864696875634	0.3049070519566907
-0.47645761181250634	0.3155751859274806
-0.47639657665625634	0.3257122831476833
-0.47633554150000634	0.3353017148893731
-0.47627450634375634	0.3443266548290168
-0.47621347118750634	0.3527715788334643
-0.47615243603125634	0.36062247620751786
-0.47609140087500634	0.36786542856011534
-0.47603036571875634	0.3744882162235389
-0.47596933056250634	0.3804794548159146
-0.47590829540625634	0.3858284868237979
-0.47584726025000634	0.39052639810251744
-0.47578622509375634	0.3945648334042828
-0.47572518993750634	0.3979365287984082
-0.47566415478125634	0.4006357990540482
-0.47560311962500634	0.40265766961420385
-0.47554208446875634	0.4039983489741162
-0.47548104931250634	0.40465540250809856
-0.47542001415625634	0.4046273645744914
-0.47535897900000634	0.40391394570558803
-0.47529794384375634	0.4025160414103259
-0.47523690868750634	0.40043573422494305
-0.47517587353125634	0.3976761759869324
-0.47511483837500634	0.3942416257627367
-0.47505380321875634	0.3901377279679389
-0.47499276806250634	0.3853709629245438
-0.47493173290625634	0.3799489372030398
-0.47487069775000634	0.37388077323478375
-0.47480966259375634	0.36717613621093287
-0.47474862743750634	0.3598459836264071
-0.47468759228125634	0.3519026757081556
-0.47462655712500634	0.34335893581911736
-0.47456552196875634	0.33422898849038496
-0.47450448681250634	0.32452813450805557
-0.47444345165625634	0.31427211862701465
-0.47438241650000634	0.3034780463375626
-0.47432138134375634	0.292164023834181
-0.47426034618750634	0.2803486700583297
-0.47419931103125634	0.26805150234524183
-0.47413827587500634	0.25529341199095595
-0.47407724071875634	0.24209536614032864
-0.47401620556250634	0.22847919837791347
-0.47395517040625634	0.2144682493475347
-0.47389413525000634	0.20008531885462807
-0.47383310009375634	0.18535455630722308
-0.47377206493750634	0.17030105455053002
-0.47371102978125634	0.15494940989701364
-0.47364999462500634	0.1393256385057068
-0.47358895946875634	0.1234559688918757
-0.47352792431250634	0.10736673710289561
-0.47346688915625634	0.09108530432084465
-0.47340585400000634	0.07463872478958773
-0.47334481884375634	0.0580545099879569
-0.47328378368750634	0.041360985071874155
-0.47322274853125634	0.024585801412178865
-0.47316171337500634	0.0077571487762628216
-0.47310067821875634	-0.009096225465866473
-0.47303964306250634	-0.025946474244577206
-0.47297860790625634	-0.04276502065026934
-0.47291757275000634	-0.059523149171158446
-0.47285653759375634	-0.07619329099917392
-0.47279550243750634	-0.09274708240307918
-0.47273446728125634	-0.10915601448418595
-0.47267343212500634	-0.1253931964237003
-0.47261239696875634	-0.14143113774414948
-0.47255136181250634	-0.15724188631605943
-0.47249032665625634	-0.17279957298905246
-0.47242929150000634	-0.18807792876339552
-0.47236825634375634	-0.20305018812899395
-0.47230722118750634	-0.21769184384448378
-0.47224618603125634	-0.23197807566783848
-0.47218515087500634	-0.24588389781628575
-0.47212411571875634	-0.2593864677957018
-0.47206308056250634	-0.2724628008802821
-0.47200204540625634	-0.28509012945790696
-0.47194101025000634	-0.2972474692518466
-0.47187997509375634	-0.3089142043283566
-0.47181893993750634	-0.3200700207177056
-0.47175790478125634	-0.33069618210069845
-0.47169686962500634	-0.34077470731131676
-0.47163583446875634	-0.3502879869175088
-0.47157479931250634	-0.3592200355969883
-0.47151376415625634	-0.36755554520964856
-0.47145272900000634	-0.375280045096794
-0.47139169384375634	-0.38238044475843463
-0.47133065868750634	-0.38884441911761053
-0.47126962353125634	-0.39466083200751073
-0.47120858837500634	-0.3998196235463487
-0.47114755321875634	-0.404311829376486
-0.47108651806250634	-0.40812958538379795
-0.47102548290625634	-0.4112662089725908
-0.47096444775000634	-0.4137161616928535
-0.47090341259375634	-0.4154749455537772
-0.47084237743750634	-0.41653942616088424
-0.47078134228125634	-0.41690752584955637
-0.47072030712500634	-0.41657826237409107
-0.47065927196875634	-0.41555200853559726
-0.47059823681250634	-0.41383023871741786
-0.47053720165625634	-0.4114154987201965
-0.47047616650000634	-0.40831166905057725
-0.47041513134375634	-0.40452377810592877
