Time	Frequency
-0.5000139057187596	0.0013805297971907714
-0.4999528705625096	0.028040753842102573
-0.4998918354062596	0.05465897202786921
-0.4998308002500096	0.08115663595849741
-0.4997697650937596	0.10745438616258975
-0.4997087299375096	0.13347502816748813
-0.4996476947812596	0.15914167402612137
-0.4995866596250096	0.18437752305262572
-0.4995256244687596	0.2091080517631404
-0.4994645893125096	0.23326017349055012
-0.4994035541562596	0.2567613399619694
-0.4993425190000096	0.27954181799801703
-0.4992814838437596	0.30153430787804436
-0.4992204486875096	0.3226724643720483
-0.4991594135312596	0.34289319482541714
-0.4990983783750096	0.36213651847401845
-0.4990373432187596	0.38034426190151877
-0.4989763080625096	0.39746182543044206
-0.4989152729062596	0.41343794702421
-0.4988542377500096	0.42822406334319885
-0.4987932025937596	0.4417756136121319
-0.4987321674375096	0.4540515558119075
-0.4986711322812596	0.46501417939467676
-0.4986100971250096	0.474630080017059
-0.4985490619687596	0.4828696080833518
-0.4984880268125096	0.489706826579461
-0.4984269916562596	0.49512041260249395
-0.4983659565000096	0.49909306335130293
-0.4983049213437596	0.5016112871509216
-0.4982438861875096	0.5026662687562776
-0.4981828510312596	0.5022535138680118
-0.4981218158750096	0.5003725677492661
-0.4980607807187596	0.4970273569226879
-0.4979997455625096	0.49222619952786845
-0.4979387104062596	0.4859817073934304
-0.4978776752500096	0.47831055752577567
-0.4978166400937596	0.46923374034572546
-0.4977556049375096	0.45877650414680804
-0.4976945697812596	0.4469678904007723
-0.4976335346250096	0.433841052008078
-0.4975724994687596	0.4194332148601605
-0.4975114643125096	0.4037851458353191
-0.4974504291562596	0.38694114971522586
-0.4973893940000096	0.36894942349493326
-0.4973283588437596	0.3498616595570032
-0.4972673236875096	0.32973210008092213
-0.4972062885312596	0.3086184260718924
-0.4971452533750096	0.28658205207315696
-0.4970842182187596	0.26368588218968164
-0.4970231830625096	0.23999548152303377
-0.4969621479062596	0.21558021167437236
-0.4969011127500096	0.19051017676058385
-0.4968400775937596	0.1648572837994133
-0.4967790424375096	0.13869661036297937
-0.4967180072812596	0.11210377435873219
-0.4966569721250096	0.08515535967337114
-0.4965959369687596	0.057930023064699195
-0.4965349018125096	0.030506804694275656
-0.4964738666562596	0.002965078279633607
-0.4964128315000096	-0.024614921820660763
-0.4963517963437596	-0.05215299151857291
-0.4962907611875096	-0.079568885028291
-0.4962297260312596	-0.10678310517043738
-0.4961686908750096	-0.13371620990540375
-0.4961076557187596	-0.16028922395568074
-0.4960466205625096	-0.18642560721848284
-0.4959855854062596	-0.21204855559466915
-0.4959245502500096	-0.23708289006131783
-0.4958635150937596	-0.26145654298598076
-0.4958024799375096	-0.2850975172181
-0.4957414447812596	-0.30793678122816864
-0.4956804096250096	-0.32990809763037504
-0.4956193744687596	-0.3509465363354848
-0.4955583393125096	-0.37099103099920233
-0.4954973041562596	-0.38998286583891517
-0.4954362690000096	-0.4078659120459728
-0.4953752338437596	-0.4245884531346498
-0.4953141986875096	-0.4401012865302471
-0.4952531635312596	-0.4543584957571467
-0.4951921283750096	-0.46731877857607346
-0.4951310932187596	-0.47894394529585754
-0.4950700580625096	-0.48919960648402255
-0.4950090229062596	-0.49805595088643584
-0.4949479877500096	-0.5054867329424945
-0.4948869525937596	-0.5114699731803705
-0.4948259174375096	-0.515988276538193
-0.4947648822812596	-0.5190281193653059
-0.4947038471250096	-0.5205803845264741
-0.4946428119687596	-0.5206405424046533
-0.4945817768125096	-0.5192082301533959
-0.4945207416562596	-0.5162874736816983
-0.4944597065000096	-0.5118867709664152
-0.4943986713437596	-0.5060188550268755
-0.4943376361875096	-0.4987008251217878
-0.4942766010312596	-0.4899540417857411
-0.4942155658750096	-0.4798039627841506
-0.4941545307187596	-0.46828038228131963
-0.4940934955625096	-0.455416953245514
-0.4940324604062596	-0.4412510831259563
-0.4939714252500096	-0.42582465522627677
-0.4939103900937596	-0.40918277284410753
-0.4938493549375096	-0.39137355491216813
-0.4937883197812596	-0.3724500379455341
-0.4937272846250096	-0.35246768548583607
-0.4936662494687596	-0.33148400648435555
-0.4936052143125096	-0.3095616537196945
-0.4935441791562596	-0.286764993818835
-0.4934831440000096	-0.2631598338717221
-0.4934221088437596	-0.23881639382077172
-0.4933610736875096	-0.2138060673127857
-0.4933000385312596	-0.1882016217123288
-0.4932390033750096	-0.1620789299158544
-0.4931779682187596	-0.13551462850897314
-0.4931169330625096	-0.10858615608454363
-0.4930558979062596	-0.08137289801243912
-0.4929948627500096	-0.05395534850969108
-0.4929338275937596	-0.026413487719013
-0.4928727924375096	0.0011722489028491811
-0.4928117572812596	0.028719955348043103
-0.4927507221250096	0.056148708979518486
-0.4926896869687596	0.08337850505213516
-0.4926286518125096	0.11032936086662745
-0.4925676166562596	0.1369217478969786
-0.4925065815000096	0.16307709765320466
-0.4924455463437596	0.18871958001102487
-0.4923845111875096	0.2137738892436148
-0.4923234760312596	0.23816519058307792
-0.4922624408750096	0.2618229301605504
-0.4922014057187596	0.2846778925062431
-0.4921403705625096	0.30666202025838457
-0.4920793354062596	0.32771159911859005
-0.4920183002500096	0.3477647826078925
-0.4919572650937596	0.36676234756720283
-0.4918962299375096	0.3846493141761809
-0.4918351947812596	0.40137296742018447
-0.4917741596250096	0.41688421450590507
-0.4917131244687596	0.4311382530126234
-0.4916520893125096	0.4440931242863334
-0.4915910541562596	0.45571101619322674
-0.4915300190000096	0.46595856236458516
-0.4914689838437596	0.4748058011441851
-0.4914079486875096	0.4822270963549522
-0.4913469135312596	0.4882013583034188
-0.4912858783750096	0.4927114807225035
-0.4912248432187596	0.4957447699234241
-0.4911638080625096	0.49729298439637115
-0.4911027729062596	0.4973522546811136
-0.4910417377500096	0.4959231704316502
-0.4909807025937596	0.4930106485567092
-0.4909196674375096	0.4886241327434178
-0.4908586322812596	0.4827774875650583
-0.4907975971250096	0.4754887311860294
-0.4907365619687596	0.46678025060903194
-0.4906755268125096	0.4566788550914485
-0.4906144916562596	0.4452153499442661
-0.4905534565000096	0.43242438917546294
-0.4904924213437596	0.4183449254119285
-0.4904313861875096	0.4030196998613683
-0.4903703510312596	0.3864949707133593
-0.4903093158750096	0.36882080236666914
-0.4902482807187596	0.3500504034476357
-0.4901872455625096	0.3302405518175803
-0.4901262104062596	0.3094512540966301
-0.4900651752500096	0.2877447869935402
-0.4900041400937596	0.26518671925577786
-0.4899431049375096	0.24184541080999822
-0.4898820697812596	0.21779074061896692
-0.4898210346250096	0.19309531485992923
-0.4897599994687596	0.16783385477278395
-0.4896989643125096	0.1420819370511758
-0.4896379291562596	0.11591756139589929
-0.4895768940000096	0.08941963701221167
-0.4895158588437596	0.06266746848223526
-0.4894548236875096	0.03574216180319305
-0.4893937885312596	0.008724861131296814
-0.4893327533750096	-0.018303232851280025
-0.4892717182187596	-0.04526058770398523
-0.4892106830625096	-0.07206573024936869
-0.4891496479062596	-0.0986377746360671
-0.4890886127500096	-0.12489693844559538
-0.4890275775937596	-0.15076354842627865
-0.4889665424375096	-0.1761594390142609
-0.4889055072812596	-0.20100839882670796
-0.4888444721250096	-0.2252348395986039
-0.4887834369687596	-0.248765554968081
-0.4887224018125096	-0.27152969187180165
-0.4886613666562596	-0.29345797470463936
-0.4886003315000096	-0.3144840868537715
-0.4885392963437596	-0.334544305660877
-0.4884782611875096	-0.353577774606339
-0.4884172260312596	-0.37152668301588276
-0.4883561908750096	-0.3883362082690928
-0.4882951557187596	-0.40395556071964617
-0.4882341205625096	-0.41833695191124787
-0.4881730854062596	-0.43143611548050825
-0.4881120502500096	-0.44321345353726055
-0.4880510150937596	-0.45363263451245295
-0.4879899799375096	-0.4626612709604667
-0.4879289447812596	-0.4702717892921706
-0.4878679096250096	-0.4764404171356495
-0.4878068744687596	-0.4811476280488389
-0.4877458393125096	-0.4843785629736992
-0.4876848041562596	-0.48612260337288826
-0.4876237690000096	-0.48637361292092235
-0.4875627338437596	-0.48513001780233544
-0.4875016986875096	-0.4823946415295712
-0.4874406635312596	-0.4781747649353316
-0.4873796283750096	-0.4724822325356272
-0.4873185932187596	-0.46533332276449546
-0.4872575580625096	-0.4567485353514565
-0.4871965229062596	-0.4467528325019681
-0.4871354877500096	-0.43537545128283295
-0.4870744525937596	-0.422649641239258
-0.4870134174375096	-0.40861291717591275
-0.4869523822812596	-0.3933066416852496
-0.4868913471250096	-0.3767758929065924
-0.4868303119687596	-0.35906971066972293
-0.4867692768125096	-0.3402406524993954
-0.4867082416562596	-0.32034441257718027
-0.4866472065000096	-0.29944013461915486
-0.4865861713437596	-0.2775902911373527
-0.4865251361875096	-0.25485957207090115
-0.4864641010312596	-0.23131571960990424
-0.4864030658750096	-0.2070295715922057
-0.4863420307187596	-0.1820730716754572
-0.4862809955625096	-0.15652070746169383
-0.4862199604062596	-0.1304494383692845
-0.4861589252500096	-0.10393701125646704
-0.4860978900937596	-0.07706281585251257
-0.4860368549375096	-0.049907395658480645
-0.4859758197812596	-0.022552275077722464
-0.4859147846250096	0.0049203060831711255
-0.4858537494687596	0.03242794245982782
-0.4857927143125096	0.05988797835965256
-0.4857316791562596	0.08721789684733924
-0.4856706440000096	0.1143348776817472
-0.4856096088437596	0.1411575720288823
-0.4855485736875096	0.16760563560632866
-0.4854875385312596	0.19359794887289564
-0.4854265033750096	0.21905665184288234
-0.4853654682187596	0.24390565124903127
-0.4853044330625096	0.2680680512101448
-0.4852433979062596	0.291471170326284
-0.4851823627500096	0.31404507277577026
-0.4851213275937596	0.3357198727443653
-0.4850602924375096	0.3564296811148746
-0.4849992572812596	0.3761123543994439
-0.4849382221250096	0.3947071518678678
-0.4848771869687596	0.412156785394271
-0.4848161518125096	0.42840851233156313
-0.4847551166562596	0.4434123338057131
-0.4846940815000096	0.45712146278577703
-0.4846330463437596	0.46949371472792306
-0.4845720111875096	0.48049086260348506
-0.4845109760312596	0.4900784079523396
-0.4844499408750096	0.49822600399256306
-0.4843889057187596	0.5049078685954417
-0.4843278705625096	0.5101026329820998
-0.4842668354062596	0.5137929932241482
-0.4842058002500096	0.5159663126969157
-0.4841447650937596	0.5166146416033175
-0.4840837299375096	0.51573441061932
-0.4840226947812596	0.5133265982800506
-0.4839616596250096	0.5093967583259711
-0.4839006244687596	0.5039551437028718
-0.4838395893125096	0.49701645164952474
-0.4837785541562596	0.4885996602697435
-0.4837175190000096	0.47872845350812687
-0.4836564838437596	0.46743090407787585
-0.4835954486875096	0.45473908907190114
-0.4835344135312596	0.440689376875095
-0.4834733783750096	0.4253223988951542
-0.4834123432187596	0.408682637337519
-0.4833513080625096	0.3908182576335228
-0.4832902729062596	0.3717812649225286
-0.4832292377500096	0.35162723106798655
-0.4831682025937596	0.3304150471041848
-0.4831071674375096	0.3082067747348283
-0.4830461322812596	0.28506751034280486
-0.4829850971250096	0.26106518792338773
-0.4829240619687596	0.2362702483467442
-0.4828630268125096	0.21075591359217505
-0.4828019916562596	0.18459718134004297
-0.4827409565000096	0.1578708673187963
-0.4826799213437596	0.13065627901099744
-0.4826188861875096	0.10303370898644189
-0.4825578510312596	0.07508455599667374
-0.4824968158750096	0.04689147788185382
-0.4824357807187596	0.018538071423324486
-0.4823747455625096	-0.009891667332686288
-0.4823137104062596	-0.03831383641418371
-0.4822526752500096	-0.06664399252692235
-0.4821916400937596	-0.0947980711909053
-0.4821306049375096	-0.12269262947415388
-0.4820695697812596	-0.15024497792233193
-0.4820085346250096	-0.1773732187751826
-0.4819474994687596	-0.20399647755909867
-0.4818864643125096	-0.2300361959766247
-0.4818254291562596	-0.25541477403797364
-0.4817643940000096	-0.280056249223388
-0.4817033588437596	-0.3038879470172274
-0.4816423236875096	-0.32683891273550636
-0.4815812885312596	-0.3488404268391797
-0.4815202533750096	-0.3698271640009657
-0.4814592182187596	-0.3897367488522197
-0.4813981830625096	-0.40850986541435524
-0.4813371479062596	-0.42609042495783306
-0.4812761127500096	-0.4424260802773201
-0.4812150775937596	-0.4574682304641561
-0.4811540424375096	-0.4711718744847877
-0.4810930072812596	-0.4834963848251445
-0.4810319721250096	-0.49440491810106596
-0.4809709369687596	-0.503864653526689
-0.4809099018125096	-0.5118478155948494
-0.4808488666562596	-0.5183305510694701
-0.4807878315000096	-0.5232931879021003
-0.4807267963437596	-0.526721243369688
-0.4806657611875096	-0.5286045813390667
-0.4806047260312596	-0.5289373878315984
-0.4805436908750096	-0.5277188552464301
-0.4804826557187596	-0.5249527838279667
-0.4804216205625096	-0.5206473115207463
-0.4803605854062596	-0.5148155020686679
-0.4802995502500096	-0.507475005032388
-0.4802385150937596	-0.49864756942365884
-0.4801774799375096	-0.4883598775324218
-0.4801164447812596	-0.4766429930929148
-0.4800554096250096	-0.46353167199945133
-0.4799943744687596	-0.449065486076282
-0.4799333393125096	-0.4332880852565564
-0.4798723041562596	-0.41624643302562575
-0.4798112690000096	-0.39799183691219897
-0.4797502338437596	-0.3785792402648245
-0.4796891986875096	-0.35806674426164287
-0.4796281635312596	-0.3365160698601511
-0.4795671283750096	-0.3139918062533041
-0.4795060932187596	-0.2905616286532087
-0.4794450580625096	-0.26629615833478504
-0.4793840229062596	-0.24126783327116869
-0.4793229877500096	-0.2155520725258491
-0.4792619525937596	-0.18922641842885707
-0.4792009174375096	-0.1623693224138453
-0.4791398822812596	-0.1350619703552544
-0.4790788471250096	-0.10738641878562896
-0.4790178119687596	-0.07942540843579642
-0.4789567768125096	-0.05126361774302637
-0.4788957416562596	-0.022985093051561895
-0.4788347065000096	0.005325136710052306
-0.4787736713437596	0.033581253346192524
-0.4787126361875096	0.0616991920656199
-0.4786516010312596	0.08959423158608006
-0.4785905658750096	0.1171820753686742
-0.4785295307187596	0.1443802935660292
-0.4784684955625096	0.1711069510082351
-0.4784074604062596	0.19728171821035473
-0.4783464252500096	0.2228259852259005
-0.4782853900937596	0.24766286366738685
-0.4782243549375096	0.2717178594155505
-0.4781633197812596	0.29491871785264967
-0.4781022846250096	0.3171956465172748
-0.4780412494687596	0.33848171098176394
-0.4779802143125096	0.35871322068898104
-0.4779191791562596	0.37782938770595115
-0.4778581440000096	0.3957726014915016
-0.4777971088437596	0.4124893606434022
-0.4777360736875096	0.42792969273685866
-0.4776750385312596	0.4420470078796065
-0.4776140033750096	0.4547992164441007
-0.4775529682187596	0.4661484432433964
-0.4774919330625096	0.47606061821784124
-0.4774308979062596	0.48450633840893964
-0.4773698627500096	0.491460649841024
-0.4773088275937596	0.4969028486819888
-0.4772477924375096	0.5008171573992226
-0.4771867572812596	0.5031923135293561
-0.4771257221250096	0.5040215257172441
-0.4770646869687596	0.5033029696057603
-0.4770036518125096	0.50103944891574
-0.4769426166562596	0.4972383357490629
-0.4768815815000096	0.4919117598491428
-0.4768205463437596	0.4850765310718108
-0.4767595111875096	0.47675405949920213
-0.4766984760312596	0.4669700999089439
-0.4766374408750096	0.4557548743209434
-0.4765764057187596	0.4431434249323635
-0.4765153705625096	0.4291744821583521
-0.4764543354062596	0.4138907327223362
-0.4763933002500096	0.3973399349447587
-0.4763322650937596	0.37957275554721465
-0.4762712299375096	0.36064327446774364
-0.4762101947812596	0.3406105853101464
-0.4761491596250096	0.31953599970308727
-0.4760881244687596	0.2974835164680412
-0.4760270893125096	0.27452176709278314
-0.4759660541562596	0.25072124105380655
-0.4759050190000096	0.2261542780843812
-0.4758439838437596	0.20089688446115694
-0.4757829486875096	0.17502674139521232
-0.4757219135312596	0.1486229538854594
-0.4756608783750096	0.12176670478883633
-0.4755998432187596	0.09454043804222301
-0.4755388080625096	0.06702805964032832
-0.4754777729062596	0.03931398627773499
-0.4754167377500096	0.01148299107575964
-0.4753557025937596	-0.016378778682080472
-0.4752946674375096	-0.044185793765482755
-0.4752336322812596	-0.07185293853721411
-0.4751725971250096	-0.09929452737327281
-0.4751115619687596	-0.1264263561681344
-0.4750505268125096	-0.15316503333669856
-0.4749894916562596	-0.17942788131082585
-0.4749284565000096	-0.205134008206738
-0.4748674213437596	-0.23020423451407637
-0.4748063861875096	-0.25456135005249403
-0.4747453510312596	-0.278129818086183
-0.4746843158750096	-0.30083686605236754
-0.4746232807187596	-0.32261248573414497
-0.4745622455625096	-0.3433891229606687
-0.4745012104062596	-0.36310248848516286
-0.4744401752500096	-0.38169121516454524
-0.4743791400937596	-0.39909775281799575
-0.4743181049375096	-0.41526806430470414
-0.4742570697812596	-0.4301514155161741
-0.4741960346250096	-0.4437015972850867
-0.4741349994687596	-0.4558761217647798
-0.4740739643125096	-0.4666366319822413
-0.4740129291562596	-0.475949444101907
-0.4739518940000096	-0.483784840844341
-0.4738908588437596	-0.4901177792516521
-0.4738298236875096	-0.49492803505344274
-0.4737687885312596	-0.4981997111123106
-0.4737077533750096	-0.4999216583355392
-0.4736467182187596	-0.5000876303295108
-0.4735856830625096	-0.498696033526533
-0.4735246479062596	-0.49575000681263737
-0.4734636127500096	-0.4912575067284912
-0.4734025775937596	-0.48523118561240874
-0.4733415424375096	-0.4776884105753685
-0.4732805072812596	-0.46865129383047643
-0.4732194721250096	-0.45814633061189014
-0.4731584369687596	-0.4462045723871021
-0.4730974018125096	-0.432861831470909
-0.4730363666562596	-0.41815773761306546
-0.4729753315000096	-0.4021361548683432
-0.4729142963437596	-0.3848455656704456
-0.4728532611875096	-0.36633776126837747
-0.4727922260312596	-0.34666835835467735
-0.4727311908750096	-0.32589703219062593
-0.4726701557187596	-0.30408628621507855
-0.4726091205625096	-0.2813020177324241
-0.4725480854062596	-0.25761365820339654
-0.4724870502500096	-0.23309276268826976
-0.4724260150937596	-0.20781336988847735
-0.4723649799375096	-0.1818528052268981
-0.4723039447812596	-0.15529011135443269
-0.4722429096250096	-0.12820537048517103
-0.4721818744687596	-0.1006814355768343
-0.4721208393125096	-0.07280266759997917
-0.4720598041562596	-0.04465322161932249
-0.4719987690000096	-0.016319354557066908
-0.4719377338437596	0.012111943994103876
-0.4718766986875096	0.040554663199171524
-0.4718156635312596	0.06892118747423656
-0.4717546283750096	0.09712458138207448
-0.4716935932187596	0.12507937668997798
-0.4716325580625096	0.1526988444857514
-0.4715715229062596	0.17989839862531704
-0.4715104877500096	0.20659550637355426
-0.4714494525937596	0.23270706644170944
-0.4713884174375096	0.25815286830649015
-0.4713273822812596	0.2828553528620582
-0.4712663471250096	0.30673770874420925
-0.4712053119687596	0.3297262545200081
-0.4711442768125096	0.35175041405554947
-0.4710832416562596	0.37274181561359887
-0.4710222065000096	0.39263541357684706
-0.4709611713437596	0.41136953989488445
-0.4709001361875096	0.4288860673208839
-0.4708391010312596	0.4451304848668284
-0.4707780658750096	0.46005178929700585
-0.4707170307187596	0.47360354028758633
-0.4706559955625096	0.48574334261668134
-0.4705949604062596	0.49643249420870605
-0.4705339252500096	0.5056372662089476
-0.4704728900937596	0.5133284947893295
-0.4704118549375096	0.5194811389511481
-0.4703508197812596	0.5240751039771337
-0.4702897846250096	0.5270951558178827
-0.4702287494687596	0.5285305928214108
-0.4701677143125096	0.5283756107496718
-0.4701066791562596	0.526629399381133
-0.4700456440000096	0.5232958531362755
-0.4699846088437596	0.5183836305696631
-0.4699235736875096	0.5119064288273804
-0.4698625385312596	0.5038826490707315
-0.4698015033750096	0.4943351910875528
-0.4697404682187596	0.4832919320182189
-0.4696794330625096	0.4707852653196451
-0.4696183979062596	0.4568518022084794
-0.4695573627500096	0.44153277184532413
