Time	Frequency
-0.5000019744999946	0.29838769091889095
-0.4999409393437446	0.3110570748461937
-0.4998799041874946	0.3231342973335623
-0.4998188690312446	0.3345963196309043
-0.4997578338749946	0.3454208092818209
-0.4996967987187446	0.3555865615406814
-0.4996357635624946	0.36507421643206844
-0.4995747284062446	0.37386497797356943
-0.4995136932499946	0.3819417047018365
-0.4994526580937446	0.389288808405939
-0.4993916229374946	0.39589165414494215
-0.4993305877812446	0.4017372711005049
-0.4992695526249946	0.4068141279609468
-0.4992085174687446	0.41111208745877786
-0.4991474823124946	0.41462250541938445
-0.4990864471562446	0.4173381926145499
-0.4990254119999946	0.4192535784382104
-0.4989643768437446	0.4203645501121594
-0.4989033416874946	0.4206684577098064
-0.4988423065312446	0.4201643133789811
-0.4987812713749946	0.41885262111420907
-0.4987202362187446	0.41673536945658
-0.4986592010624946	0.41381613289779
-0.4985981659062446	0.4101000646804326
-0.4985371307499946	0.40559373776789115
-0.4984760955937446	0.4003052361917853
-0.4984150604374946	0.394244309567226
-0.4983540252812446	0.3874219772548517
-0.4982929901249946	0.3798507370020328
-0.4982319549687446	0.3715447166029098
-0.4981709198124946	0.36251925439900595
-0.4981098846562446	0.3527910678866264
-0.4980488494999946	0.3423783244700386
-0.4979878143437446	0.3313005521402534
-0.4979267791874946	0.3195783843330708
-0.4978657440312446	0.3072336043792486
-0.4978047088749946	0.29428972255592584
-0.4977436737187446	0.2807709272696548
-0.4976826385624946	0.26670225154609095
-0.4976216034062446	0.2521107387307153
-0.4975605682499946	0.23702368221531553
-0.4974995330937446	0.22146914556085479
-0.4974384979374946	0.20547704331113487
-0.4973774627812446	0.1890773756525557
-0.4973164276249946	0.17230080083517957
-0.4972553924687446	0.1551795050510532
-0.4971943573124946	0.1377457892281364
-0.4971333221562446	0.12003228779439423
-0.4970722869999946	0.10207305644731943
-0.4970112518437446	0.08390193947725785
-0.4969502166874946	0.06555310682490295
-0.4968891815312446	0.04706198032676931
-0.4968281463749946	0.02846318456549796
-0.4967671112187446	0.009792029488227282
-0.4967060760624946	-0.008915489438054763
-0.4966450409062446	-0.02762439904536869
-0.4965840057499946	-0.046298905276359104
-0.4965229705937446	-0.06490315895812372
-0.4964619354374946	-0.08340218014898594
-0.4964009002812446	-0.10176066511284705
-0.4963398651249946	-0.1199432762898807
-0.4962788299687446	-0.1379155856806714
-0.4962177948124946	-0.155643585629286
-0.4961567596562446	-0.1730928733747975
-0.4960957244999946	-0.19023043455305041
-0.4960346893437446	-0.20702376850666412
-0.4959736541874946	-0.22344017142184427
-0.4959126190312446	-0.23944881687426098
-0.4958515838749946	-0.2550189718540033
-0.4957905487187446	-0.27012035866247114
-0.4957295135624946	-0.2847246683381525
-0.4956684784062446	-0.29880373024692497
-0.4956074432499946	-0.3123302603460478
-0.4955464080937446	-0.3252785965619074
-0.4954853729374946	-0.33762383200360585
-0.4954243377812446	-0.3493421941724
-0.4953633026249946	-0.36041109742932315
-0.4953022674687446	-0.37080931015956076
-0.4952412323124946	-0.38051685042786
-0.4951801971562446	-0.3895147863688436
-0.4951191619999946	-0.3977859569682965
-0.4950581268437446	-0.4053143061552678
-0.4949970916874946	-0.4120850599164185
-0.4949360565312446	-0.4180853712910553
-0.4948750213749946	-0.4233034012612841
-0.4948139862187446	-0.42772887594443865
-0.4947529510624946	-0.4313532679352984
-0.4946919159062446	-0.43416935814660335
-0.4946308807499946	-0.4361715413302833
-0.4945698455937446	-0.4373557149185974
-0.4945088104374946	-0.4377194164307139
-0.4944477752812446	-0.43726174069700313
-0.4943867401249946	-0.43598325202969873
-0.4943257049687446	-0.43388620310330983
-0.4942646698124946	-0.43097435646853105
-0.4942036346562446	-0.42725302874097365
-0.4941425994999946	-0.42272910486085813
-0.4940815643437446	-0.4174109911726298
-0.4940205291874946	-0.4113086687571022
-0.4939594940312446	-0.40443347061601626
-0.4938984588749946	-0.3967984128058352
-0.4938374237187446	-0.3884179305200203
-0.4937763885624946	-0.37930761438828114
-0.4937153534062446	-0.36948484423655514
-0.4936543182499946	-0.3589682684219977
-0.4935932830937446	-0.34777762301115667
-0.4935322479374946	-0.33593412201319084
-0.4934712127812446	-0.32346039934449755
-0.4934101776249946	-0.3103801444648282
-0.4933491424687446	-0.2967178474565929
-0.4932881073124946	-0.2824998499460951
-0.4932270721562446	-0.2677532944380847
-0.4931660369999946	-0.25250566192114443
-0.4931050018437446	-0.23678657815156906
-0.4930439666874946	-0.22062588419546703
-0.4929829315312446	-0.20405392170746398
-0.4929218963749946	-0.18710290509494218
-0.4928608612187446	-0.16980492804841626
-0.4927998260624946	-0.15219274477485006
-0.4927387909062446	-0.13430034037935312
-0.4926777557499946	-0.11616179889981655
-0.4926167205937446	-0.0978116105514136
-0.4925556854374946	-0.07928501444058819
-0.4924946502812446	-0.06061728940303687
-0.4924336151249946	-0.04184426466149199
-0.4923725799687446	-0.023001913815311074
-0.4923115448124946	-0.004125777778337989
-0.4922505096562446	0.014747309668785165
-0.4921894744999946	0.033581401543991016
-0.4921284393437446	0.052341096675549106
-0.4920674041874946	0.0709895567967618
-0.4920063690312446	0.08949137109068285
-0.4919453338749946	0.10781139676141394
-0.4918842987187446	0.12591414786082875
-0.4918232635624946	0.14376506040997442
-0.4917622284062446	0.16132974254765836
-0.4917011932499946	0.17857478583259065
-0.4916401580937446	0.19546693097282594
-0.4915791229374946	0.21197361610913337
-0.4915180877812446	0.2280635256475916
-0.4914570526249946	0.24370538630132696
-0.4913960174687446	0.2588693193963301
-0.4913349823124946	0.2735263724583668
-0.4912739471562446	0.28764805464250753
-0.4912129119999946	0.3012073373824027
-0.4911518768437446	0.31417840272502406
-0.4910908416874946	0.3265360166266741
-0.4910298065312446	0.338256409070836
-0.4909687713749946	0.34931736435301325
-0.4909077362187446	0.3596972519220863
-0.4908467010624946	0.36937623605485054
-0.4907856659062446	0.3783357966993554
-0.4907246307499946	0.3865584951201551
-0.4906635955937446	0.39402865562183204
-0.4906025604374946	0.40073181543857467
-0.4905415252812446	0.4066551084458104
-0.4904804901249946	0.4117871428905913
-0.4904194549687446	0.41611795593125017
-0.4903584198124946	0.41963930029914615
-0.4902973846562446	0.42234438206147995
-0.4902363494999946	0.4242279301786312
-0.4901753143437446	0.4252863801787928
-0.4901142791874946	0.42551771713581626
-0.4900532440312446	0.4249214524253161
-0.4899922088749946	0.423498773979353
-0.4899311737187446	0.4212524629049869
-0.4898701385624946	0.4181868685628486
-0.4898091034062446	0.4143078901318108
-0.4897480682499946	0.40962303265208116
-0.4896870330937446	0.4041414865692269
-0.4896259979374946	0.3978737362373385
-0.4895649627812446	0.3908318565031394
-0.4895039276249946	0.3830297156374873
-0.4894428924687446	0.37448228576137893
-0.4893818573124946	0.3652060075536425
-0.4893208221562446	0.35521903548083844
-0.4892597869999946	0.34454072789525664
-0.4891987518437446	0.3331916144278069
-0.4891377166874946	0.3211937602446005
-0.4890766815312446	0.30857056467162014
-0.4890156463749946	0.2953463410157634
-0.4889546112187446	0.2815467406499427
-0.4888935760624946	0.26719865970955653
-0.4888325409062446	0.25232986814161573
-0.4887715057499946	0.236969229019033
-0.4887104705937446	0.22114653243485732
-0.4886494354374946	0.20489253852548361
-0.4885884002812446	0.1882389379708966
-0.4885273651249946	0.1712178766614932
-0.4884663299687446	0.15386250484056804
-0.4884052948124946	0.13620670880029637
-0.4883442596562446	0.11828469157469977
-0.4882832244999946	0.10013128821147614
-0.4882221893437446	0.08178189101054875
-0.4881611541874946	0.06327229107509753
-0.4881001190312446	0.04463831434334962
-0.4880390838749946	0.025916486705392115
-0.4879780487187446	0.007143204866069192
-0.4879170135624946	-0.011645136551882875
-0.4878559784062446	-0.030411428231981452
-0.4877949432499946	-0.049119510180485555
-0.4877339080937446	-0.0677328919925453
-0.4876728729374946	-0.08621470451077848
-0.4876118377812446	-0.10452933708454472
-0.4875508026249946	-0.1226410613779561
-0.4874897674687446	-0.1405140612637483
-0.4874287323124946	-0.15811361568773138
-0.4873676971562446	-0.17540535970960558
-0.4873066619999946	-0.1923552677204252
-0.4872456268437446	-0.20893024340136107
-0.4871845916874946	-0.22509770053676648
-0.4871235565312446	-0.24082603000677757
-0.4870625213749946	-0.2560843649199572
-0.4870014862187446	-0.27084245912124605
-0.4869404510624946	-0.28507169346658273
-0.4868794159062446	-0.2987439407046049
-0.4868183807499946	-0.31183195840387884
-0.4867573455937446	-0.32431035129925884
-0.4866963104374946	-0.3361543957120904
-0.4866352752812446	-0.3473404557276316
-0.4865742401249946	-0.3578465602660359
-0.4865132049687446	-0.3676519840733247
-0.4864521698124946	-0.37673700314375635
-0.4863911346562446	-0.3850836126038711
-0.4863300994999946	-0.39267534894153205
-0.4862690643437446	-0.39949671061964287
-0.4862080291874946	-0.40553410456076117
-0.4861469940312446	-0.4107754747679525
-0.4860859588749946	-0.41520998387019364
-0.4860249237187446	-0.4188285938326763
-0.4859638885624946	-0.42162385430887916
-0.4859028534062446	-0.42358982706510334
-0.4858418182499946	-0.42472219860269494
-0.4857807830937446	-0.42501829995735496
-0.4857197479374946	-0.42447710519041765
-0.4856587127812446	-0.4230991518644825
-0.4855976776249946	-0.42088665178888884
-0.4855366424687446	-0.4178434708678585
-0.4854756073124946	-0.41397499073681165
-0.4854145721562446	-0.4092883084184667
-0.4853535369999946	-0.40379207396194666
-0.4852925018437446	-0.3974964696951916
-0.4852314666874946	-0.39041336918037023
-0.4851704315312446	-0.3825559965010078
-0.4851093963749946	-0.37393921931527274
-0.4850483612187446	-0.3645794888860873
-0.4849873260624946	-0.3544943749742207
-0.4849262909062446	-0.3437031571021047
-0.4848652557499946	-0.33222657185721294
-0.4848042205937446	-0.3200862723503758
-0.4847431854374946	-0.30730565120174397
-0.4846821502812446	-0.2939092942007012
-0.4846211151249946	-0.27992258048313556
-0.4845600799687446	-0.2653726685908659
-0.4844990448124946	-0.25028749830143826
-0.4844380096562446	-0.23469584802102353
-0.4843769744999946	-0.21862803203312495
-0.4843159393437446	-0.20211491377013435
-0.4842549041874946	-0.18518828160236805
-0.4841938690312446	-0.16788086242042702
-0.4841328338749946	-0.15022615952962987
-0.4840717987187446	-0.13225821655925596
-0.4840107635624946	-0.11401162944374782
-0.4839497284062446	-0.0955221437578631
-0.4838886932499946	-0.07682521380241968
-0.4838276580937446	-0.05795696823777008
-0.4837666229374946	-0.038954426120888376
-0.4837055877812446	-0.01985410028760186
-0.4836445526249946	-0.0006931258091893448
-0.4835835174687446	0.018491237600501274
-0.4835224823124946	0.03766172506851683
-0.4834614471562446	0.05678104257543762
-0.4834004119999946	0.0758121453853667
-0.4833393768437446	0.09471781439873116
-0.4832783416874946	0.113461300028798
-0.4832173065312446	0.13200626215213523
-0.4831562713749946	0.1503162337073962
-0.4830952362187446	0.16835566446546069
-0.4830342010624946	0.1860896595517272
-0.4829731659062446	0.20348298230823075
-0.4829121307499946	0.22050200253255992
-0.4828510955937446	0.2371137364066993
-0.4827900604374946	0.25328505401587625
-0.4827290252812446	0.26898473032190706
-0.4826679901249946	0.28418204464085023
-0.4826069549687446	0.2988469221996579
-0.4825459198124946	0.31295093216421277
-0.4824848846562446	0.32646606645032605
-0.4824238494999946	0.3393659322732241
-0.4823628143437446	0.35162538253487696
-0.4823017791874946	0.3632197475396902
-0.4822407440312446	0.37412656897671903
-0.4821797088749946	0.3843243792677994
-0.4821186737187446	0.39379266249525646
-0.4820576385624946	0.40251297066779584
-0.4819966034062446	0.41046792881410266
-0.4819355682499946	0.41764163766101353
-0.4818745330937446	0.42401993310068636
-0.4818134979374946	0.42958995641610365
-0.4817524627812446	0.4343404844279381
-0.4816914276249946	0.43826203026300475
-0.4816303924687446	0.4413465492549324
-0.4815693573124946	0.44358760693497634
-0.4815083221562446	0.4449805727193075
-0.4814472869999946	0.4455223398954574
-0.4813862518437446	0.44521145276967633
-0.4813252166874946	0.44404822170219566
-0.4812641815312446	0.44203448100188786
-0.4812031463749946	0.43917379633096376
-0.4811421112187446	0.43547147700145467
-0.4810810760624946	0.430934234568342
-0.4810200409062446	0.42557058143926413
-0.4809590057499946	0.41939078071086205
-0.4808979705937446	0.41240630819229945
-0.4808369354374946	0.4046304537663479
-0.4807759002812446	0.3960782498343277
-0.4807148651249946	0.38676580056921844
-0.4806538299687446	0.3767109160464354
-0.4805927948124946	0.3659331196245906
-0.4805317596562446	0.3544528992519473
-0.4804707244999946	0.34229225767288585
-0.4804096893437446	0.32947487953348115
-0.4803486541874946	0.31602529766231224
-0.4802876190312446	0.3019693335656288
-0.4802265838749946	0.28733437731076167
-0.4801655487187446	0.2721485901133175
-0.4801045135624946	0.2564412046116746
-0.4800434784062446	0.24024285169446186
-0.4799824432499946	0.22358476750380923
-0.4799214080937446	0.2064991165252382
-0.4798603729374946	0.18901924224683692
-0.4797993377812446	0.17117887430745823
-0.4797383026249946	0.15301264902981415
-0.4796772674687446	0.13455592196014246
-0.4796162323124946	0.1158444225968901
-0.4795551971562446	0.09691454005245292
-0.4794941619999946	0.07780310007088734
-0.4794331268437446	0.05854724516639065
-0.4793720916874946	0.03918437615374336
-0.4793110565312446	0.019752313193928932
-0.4792500213749946	0.0002886910468504437
-0.4791889862187446	-0.019168528509103982
-0.4791279510624946	-0.03858125272384596
-0.4790669159062446	-0.05791194651488983
-0.4790058807499946	-0.07712279180391549
-0.4789448455937446	-0.09617631032081422
-0.4788838104374946	-0.11503544836456463
-0.4788227752812446	-0.13366320870458642
-0.4787617401249946	-0.15202347770773067
-0.4787007049687446	-0.1700804193563959
-0.4786396698124946	-0.18779838721001535
-0.4785786346562446	-0.2051432966614757
-0.4785175994999946	-0.2220810853514201
-0.4784565643437446	-0.23857826348995517
-0.4783955291874946	-0.25460327409141353
-0.4783344940312446	-0.2701243828028878
-0.4782734588749946	-0.2851110493062558
-0.4782124237187446	-0.29953444017065334
-0.4781513885624946	-0.3133660506581298
-0.4780903534062446	-0.32657885625665345
-0.4780293182499946	-0.3391469126870863
-0.4779682830937446	-0.35104568774745243
-0.4779072479374946	-0.36225214481706397
-0.4778462127812446	-0.3727437844137634
-0.4777851776249946	-0.38250031792978895
-0.4777241424687446	-0.39150293872473013
-0.4776631073124946	-0.39973349824346266
-0.4776020721562446	-0.40717601356554134
-0.4775410369999946	-0.41381609917115486
-0.4774800018437446	-0.4196405367127336
-0.4774189666874946	-0.4246378546396345
-0.4773579315312446	-0.4287984054678843
-0.4772968963749946	-0.43211396528426005
-0.4772358612187446	-0.43457792949306173
-0.4771748260624946	-0.43618560142839724
-0.4771137909062446	-0.4369337623234313
-0.4770527557499946	-0.43682090206234625
-0.4769917205937446	-0.4358473258493882
-0.4769306854374946	-0.43401489199848725
-0.4768696502812446	-0.431327215326015
-0.4768086151249946	-0.42778961450665526
-0.4767475799687446	-0.42340899109028113
-0.4766865448124946	-0.41819400202320517
-0.4766255096562446	-0.4121549500530616
-0.4765644744999946	-0.40530362680666837
-0.4765034393437446	-0.3976535723996447
-0.4764424041874946	-0.38921992805177064
-0.4763813690312446	-0.38001915590917684
-0.4763203338749946	-0.37006947486306585
-0.4762592987187446	-0.3593905434713209
-0.4761982635624946	-0.34800326590798725
-0.4761372284062446	-0.33593020485812347
-0.4760761932499946	-0.3231951966140446
-0.4760151580937446	-0.309823231401905
-0.4759541229374946	-0.2958407324360673
-0.4758930877812446	-0.2812754920319929
-0.4758320526249946	-0.26615599504412113
-0.4757710174687446	-0.2505120210828822
-0.4757099823124946	-0.234374987008369
-0.4756489471562446	-0.2177763130226412
-0.4755879119999946	-0.2007485896261706
-0.4755268768437446	-0.18332621626216886
-0.4754658416874946	-0.16554315935504324
-0.4754048065312446	-0.14743425453984124
-0.4753437713749946	-0.12903607454657703
-0.4752827362187446	-0.1103847484021124
-0.4752217010624946	-0.09151663817126532
-0.4751606659062446	-0.07246976871978905
-0.4750996307499946	-0.053281981585288435
-0.4750385955937446	-0.03399048935765782
-0.4749775604374946	-0.014633960774925372
-0.4749165252812446	0.004748795770169971
-0.4748554901249946	0.024120025417067082
-0.4747944549687446	0.04344125174600272
-0.4747334198124946	0.06267356094918852
-0.4746723846562446	0.08177928891641124
-0.4746113494999946	0.10072063810176977
-0.4745503143437446	0.11945926891055174
-0.4744892791874946	0.13795857750467527
-0.4744282440312446	0.1561818603644019
-0.4743672088749946	0.174092150455844
-0.4743061737187446	0.19165448389157425
-0.4742451385624946	0.20883388171279643
-0.4741841034062446	0.22559557987084145
-0.4741230682499946	0.24190667223576157
-0.4740620330937446	0.25773465216520464
-0.4740009979374946	0.2730475095824369
-0.4739399627812446	0.28781501144574223
-0.4738789276249946	0.30200779666173194
-0.4738178924687446	0.3155970314938155
-0.4737568573124946	0.32855575548659155
-0.4736958221562446	0.3408582484977194
-0.4736347869999946	0.3524794847704209
-0.4735737518437446	0.3633961935128685
-0.4735127166874946	0.37358668490121866
-0.4734516815312446	0.38303025750661035
-0.4733906463749946	0.391707778454546
-0.4733296112187446	0.39960196718960383
-0.4732685760624946	0.4066967406008696
-0.4732075409062446	0.41297756445427786
-0.4731465057499946	0.41843180333691815
-0.4730854705937446	0.42304830515523373
-0.4730244354374946	0.42681743090849306
-0.4729634002812446	0.4297314082863325
-0.4729023651249946	0.43178417112798584
-0.4728413299687446	0.43297118615217295
-0.4727802948124946	0.4332897683387112
-0.4727192596562446	0.43273893481583176
-0.4726582244999946	0.431319376686436
-0.4725971893437446	0.42903359547433334
-0.4725361541874946	0.4258857046316036
-0.4724751190312446	0.42188158535897025
-0.4724140838749946	0.4170288898049156
-0.4723530487187446	0.4113367995297031
-0.4722920135624946	0.40481627474474147
-0.4722309784062446	0.39747995798712876
-0.4721699432499946	0.3893419766335091
-0.4721089080937446	0.38041818144832323
-0.4720478729374946	0.3707259695506739
-0.4719868377812446	0.3602841927225784
-0.4719258026249946	0.34911330033584437
-0.4718647674687446	0.3372351139209263
-0.4718037323124946	0.32467296084196634
-0.4717426971562446	0.3114514845698042
-0.4716816619999946	0.2975964851444973
-0.4716206268437446	0.28313547162659475
-0.4715595916874946	0.26809680529977636
-0.4714985565312446	0.25250976819373144
-0.4714375213749946	0.23640561693303785
-0.4713764862187446	0.21981588299613097
-0.4713154510624946	0.20277293294084964
-0.4712544159062446	0.1853110482804429
-0.4711933807499946	0.16746439695048443
-0.4711323455937446	0.14926812977254164
-0.4710713104374946	0.1307585328690161
-0.4710102752812446	0.11197206138586019
-0.4709492401249946	0.0929460005730098
-0.4708882049687446	0.07371794975050687
-0.4708271698124946	0.0543260796581565
-0.4707661346562446	0.03480891721419158
-0.4707050994999946	0.015205058689799468
-0.4706440643437446	-0.004446540759957894
-0.4705830291874946	-0.02410670221591118
-0.4705219940312446	-0.04373659968810622
-0.4704609588749946	-0.06329708412387752
-0.4703999237187446	-0.08274901140444148
-0.4703388885624946	-0.10205425893547501
-0.4702778534062446	-0.12117381590230719
-0.4702168182499946	-0.14006960155313913
-0.4701557830937446	-0.1587046060583151
-0.4700947479374946	-0.17704084543264742
-0.4700337127812446	-0.19504201398730603
-0.4699726776249946	-0.2126725710403245
-0.4699116424687446	-0.229896675627351
-0.4698506073124946	-0.24668012899275074
-0.4697895721562446	-0.26298959342670786
-0.4697285369999946	-0.278792033999034
-0.4696675018437446	-0.2940559039629459
