Time	Frequency
-0.500000127000007	0.20170369773347338
-0.49993909184375696	0.21685456087556074
-0.49987805668750696	0.2316364389243949
-0.49981702153125696	0.24602257592797203
-0.49975598637500696	0.2599871590089714
-0.49969495121875696	0.27350489951825774
-0.49963391606250696	0.2865512040825884
-0.49957288090625696	0.2991028834503367
-0.49951184575000696	0.31113686394766804
-0.49945081059375696	0.32263124185978437
-0.49938977543750696	0.3335655740433964
-0.49932874028125696	0.34391961555033335
-0.49926770512500696	0.35367446589543655
-0.49920666996875696	0.3628126719873949
-0.49914563481250696	0.3713171781853297
-0.49908459965625696	0.37917244709063735
-0.49902356450000696	0.38636424864012797
-0.49896252934375696	0.3928790277675271
-0.49890149418750696	0.3987048395541985
-0.49884045903125696	0.4038309076754305
-0.49877942387500696	0.40824745125901135
-0.49871838871875696	0.411946219718988
-0.49865735356250696	0.4149201763932661
-0.49859631840625696	0.4171634337471385
-0.49853528325000696	0.41867154020123437
-0.49847424809375696	0.4194413526033496
-0.49841321293750696	0.4194709655952631
-0.49835217778125696	0.4187598385748399
-0.49829114262500696	0.41730873916560063
-0.49823010746875696	0.41511977804030575
-0.49816907231250696	0.4121963612053629
-0.49810803715625696	0.4085431642405546
-0.49804700200000696	0.40416628488310974
-0.49798596684375696	0.3990729858740349
-0.49792493168750696	0.3932718514605933
-0.49786389653125696	0.38677283731801354
-0.49780286137500696	0.37958692125230514
-0.49774182621875696	0.37172653596586575
-0.49768079106250696	0.36320528480762837
-0.49761975590625696	0.3540377147382254
-0.49755872075000696	0.34423991622075484
-0.49749768559375696	0.3338288750021227
-0.49743665043750696	0.3228225939317029
-0.49737561528125696	0.3112404726318003
-0.49731458012500696	0.2991025688801296
-0.49725354496875696	0.28643020987337875
-0.49719250981250696	0.2732457031758379
-0.49713147465625696	0.2595718625275917
-0.49707043950000696	0.24543293621662254
-0.49700940434375696	0.23085395796172284
-0.49694836918750696	0.21586006247054093
-0.49688733403125696	0.2004778850134052
-0.49682629887500696	0.18473497791592522
-0.49676526371875696	0.16865833300457006
-0.49670422856250696	0.15227662112895587
-0.49664319340625696	0.13561921369913685
-0.49658215825000696	0.11871478704889935
-0.49652112309375696	0.10159370950012013
-0.49646008793750696	0.08428622649085837
-0.49639905278125696	0.06682259381593816
-0.49633801762500696	0.04923442066796332
-0.49627698246875696	0.03155219938072707
-0.49621594731250696	0.013807313288671677
-0.49615491215625696	-0.003968052834593075
-0.49609387700000696	-0.021743178918237547
-0.49603284184375696	-0.0394864479723514
-0.49597180668750696	-0.05716584138427758
-0.49591077153125696	-0.07475019710735734
-0.49584973637500696	-0.092208694018279
-0.49578870121875696	-0.10950991204754716
-0.49572766606250696	-0.126622765609307
-0.49566663090625696	-0.14351768980577448
-0.49560559575000696	-0.16016402877879327
-0.49554456059375696	-0.17653192327298434
-0.49548352543750696	-0.19259317323670547
-0.49542249028125696	-0.20831834299942403
-0.49536145512500696	-0.22367942149002365
-0.49530041996875696	-0.23864979460952404
-0.49523938481250696	-0.2532021341000939
-0.49517834965625696	-0.26731046697575794
-0.49511731450000696	-0.28095003975529076
-0.49505627934375696	-0.2940963598215172
-0.49499524418750696	-0.3067258592020941
-0.49493420903125696	-0.31881603325675756
-0.49487317387500696	-0.33034547360007804
-0.49481213871875696	-0.341293452086973
-0.49475110356250696	-0.3516403811530322
-0.49469006840625696	-0.36136794051463184
-0.49462903325000696	-0.3704585691966103
-0.49456799809375696	-0.3788961724239756
-0.49450696293750696	-0.38666563950988864
-0.49444592778125696	-0.39375293604260525
-0.49438489262500696	-0.4001456254267832
-0.49432385746875696	-0.40583214454233857
-0.49426282231250696	-0.41080225116769936
-0.49420178715625696	-0.415047227648386
-0.49414075200000696	-0.4185593979924065
-0.49407971684375696	-0.42133241443797714
-0.49401868168750696	-0.42336140330704336
-0.49395764653125696	-0.42464274079774295
-0.49389661137500696	-0.42517407313777955
-0.49383557621875696	-0.4249544841865958
-0.49377454106250696	-0.4239844055858097
-0.49371350590625696	-0.4222655247672059
-0.49365247075000696	-0.41980097603657973
-0.49359143559375696	-0.4165951884561177
-0.49353040043750696	-0.4126538487145088
-0.49346936528125696	-0.4079841478089749
-0.49340833012500696	-0.40259442225757575
-0.49334729496875696	-0.3964942530800928
-0.49328625981250696	-0.3896948104811701
-0.49322522465625696	-0.38220820230225416
-0.49316418950000696	-0.37404770971741697
-0.49310315434375696	-0.36522836922211693
-0.49304211918750696	-0.35576584545715834
-0.49298108403125696	-0.34567687184136997
-0.49292004887500696	-0.33498017946106007
-0.49285901371875696	-0.32369467848672906
-0.49279797856250696	-0.31184035426603934
-0.49273694340625696	-0.29943925971695634
-0.49267590825000696	-0.28651325689432233
-0.49261487309375696	-0.2730854184220056
-0.49255383793750696	-0.259180503709191
-0.49249280278125696	-0.2448231287013618
-0.49243176762500696	-0.23003913391432312
-0.49237073246875696	-0.21485546556233132
-0.49230969731250696	-0.1992992153014443
-0.49224866215625696	-0.18339843896039884
-0.49218762700000696	-0.16718190040743774
-0.49212659184375696	-0.15067880383903445
-0.49206555668750696	-0.13391892563042898
-0.49200452153125696	-0.11693230928249732
-0.49194348637500696	-0.09974981391494724
-0.49188245121875696	-0.0824025297694688
-0.49182141606250696	-0.06492134862375759
-0.49176038090625696	-0.04733816656819434
-0.49169934575000696	-0.029684746624665626
-0.49163831059375696	-0.011992683323856113
-0.49157727543750696	0.005705795973572978
-0.49151624028125696	0.023378861668546108
-0.49145520512500696	0.04099452913201845
-0.49139416996875696	0.05852100664488587
-0.49133313481250696	0.07592661782645038
-0.49127209965625696	0.09317972198831105
-0.49121106450000696	0.11024945930992003
-0.49115002934375696	0.12710467025080724
-0.49108899418750696	0.14371486355842208
-0.49102795903125696	0.16005024429472983
-0.49096692387500696	0.17608100255115997
-0.49090588871875696	0.19177807978969738
-0.49084485356250696	0.2071132490119396
-0.49078381840625696	0.2220588137586594
-0.49072278325000696	0.2365871975124246
-0.49066174809375696	0.2506725035728912
-0.49060071293750696	0.26428937167458094
-0.49053967778125696	0.27741246129470476
-0.49047864262500696	0.29001848431286503
-0.49041760746875696	0.3020845734372683
-0.49035657231250696	0.3135885162483866
-0.49029553715625696	0.3245096050224823
-0.49023450200000696	0.33482810074660435
-0.49017346684375696	0.3445251967236364
-0.49011243168750696	0.3535830435370758
-0.49005139653125696	0.36198548646563483
-0.48999036137500696	0.369717213204689
-0.48992932621875696	0.37676384952659725
-0.48986829106250696	0.3831128731014928
-0.48980725590625696	0.38875268175115635
-0.48974622075000696	0.39367279504875197
-0.48968518559375696	0.39786437329209995
-0.48962415043750696	0.40131980122228333
-0.48956311528125696	0.40403263780962506
-0.48950208012500696	0.40599791345119307
-0.48944104496875696	0.40721208719956214
-0.48938000981250696	0.4076728149847856
-0.48931897465625696	0.40737923229202994
-0.48925793950000696	0.40633183785003085
-0.48919690434375696	0.40453240339018876
-0.48913586918750696	0.40198424579806913
-0.48907483403125696	0.39869188878080497
-0.48901379887500696	0.39466118086346563
-0.48895276371875696	0.3898995799623212
-0.48889172856250696	0.38441556950354644
-0.48883069340625696	0.3782190001197432
-0.48876965825000696	0.3713213000783531
-0.48870862309375696	0.36373482025882825
-0.48864758793750696	0.3554733066866273
-0.48858655278125696	0.3465518627187561
-0.48852551762500696	0.33698659782819523
-0.48846448246875696	0.32679491509086633
-0.48840344731250696	0.31599532543919895
-0.48834241215625696	0.3046074568280389
-0.48828137700000696	0.2926521259178105
-0.48822034184375696	0.2801509169105597
-0.48815930668750696	0.2671266015937378
-0.48809827153125696	0.25360315872774297
-0.48803723637500696	0.23960494195307044
-0.48797620121875696	0.22515743314238712
-0.48791516606250696	0.2102872735965004
-0.48785413090625696	0.19502132393096072
-0.48779309575000696	0.17938745204525675
-0.48773206059375696	0.16341442529395162
-0.48767102543750696	0.14713102200982064
-0.48760999028125696	0.13056726146915096
-0.48754895512500696	0.11375356049201768
-0.48748791996875696	0.09672008303586914
-0.48742688481250696	0.0794985031452685
-0.48736584965625696	0.06212029474412858
-0.48730481450000696	0.04461680646841901
-0.48724377934375696	0.02702062918652869
-0.48718274418750696	0.009363705597348506
-0.48712170903125696	-0.008321660820604359
-0.48706067387500696	-0.02600275588776535
-0.48699963871875696	-0.04364753443700997
-0.48693860356250696	-0.061223309743402926
-0.48687756840625696	-0.0786979502794582
-0.48681653325000696	-0.0960394145022877
-0.48675549809375696	-0.11321561512482198
-0.48669446293750696	-0.13019523174962772
-0.48663342778125696	-0.1469468763885173
-0.48657239262500696	-0.16343975992568158
-0.48651135746875696	-0.17964334102231858
-0.48645032231250696	-0.19552798422376308
-0.48638928715625696	-0.21106446863516515
-0.48632825200000696	-0.22622355547324227
-0.48626721684375696	-0.24097776119643569
-0.48620618168750696	-0.25529989260575103
-0.48614514653125696	-0.2691628530193998
-0.48608411137500696	-0.2825413347791184
-0.48602307621875696	-0.2954107691821214
-0.48596204106250696	-0.30774673427607574
-0.48590100590625696	-0.31952641735568615
-0.48583997075000696	-0.33072831645574235
-0.48577893559375696	-0.3413310662602687
-0.48571790043750696	-0.3513148431819324
-0.48565686528125696	-0.36066134732313027
-0.48559583012500696	-0.3693527363811463
-0.48553479496875696	-0.3773726675655097
-0.48547375981250696	-0.3847060948647877
-0.48541272465625696	-0.3913391097231491
-0.48535168950000696	-0.39725910140844156
-0.48529065434375696	-0.40245460370330716
-0.48522961918750696	-0.4069157909896391
-0.48516858403125696	-0.41063394302109724
-0.48510754887500696	-0.4136015947134584
-0.48504651371875696	-0.41581293840428735
-0.48498547856250696	-0.41726334735889853
-0.48492444340625696	-0.41794958093290696
-0.48486340825000696	-0.41786987228889144
-0.48480237309375696	-0.4170237941338658
-0.48474133793750696	-0.4154123627788634
-0.48468030278125696	-0.4130379221512507
-0.48461926762500696	-0.4099042447590231
-0.48455823246875696	-0.40601660089802327
-0.48449719731250696	-0.40138140692214447
-0.48443616215625696	-0.3960065735059986
-0.48437512700000696	-0.3899015576406362
-0.48431409184375696	-0.383076747664797
-0.48425305668750696	-0.375544082392599
-0.48419202153125696	-0.36731701568933633
-0.48413098637500696	-0.35840977549419223
-0.48406995121875696	-0.34883816789626887
-0.48400891606250696	-0.33861936864531283
-0.48394788090625696	-0.3277712498785374
-0.48388684575000696	-0.316313220470922
-0.48382581059375696	-0.3042659340589599
-0.48376477543750696	-0.2916506098225046
-0.48370374028125696	-0.2784899043379151
-0.48364270512500696	-0.26480763057539786
-0.48358166996875696	-0.2506280404000292
-0.48352063481250696	-0.23597675008987776
-0.48345959965625696	-0.2208801125117259
-0.48339856450000696	-0.20536519186279373
-0.48333752934375696	-0.189460233878017
-0.48327649418750696	-0.17319349484829888
-0.48321545903125696	-0.15659453300691045
-0.48315442387500696	-0.13969360179079848
-0.48309338871875696	-0.12252073065436705
-0.48303235356250696	-0.10510733056115841
-0.48297131840625696	-0.08748485838472782
-0.48291028325000696	-0.06968514546972751
-0.48284924809375696	-0.05174059084618169
-0.48278821293750696	-0.03368346655514118
-0.48272717778125696	-0.015546922352244532
-0.48266614262500696	0.002636330764969205
-0.48260510746875696	0.02083350592589092
-0.48254407231250696	0.03901105143227763
-0.48248303715625696	0.05713604035999071
-0.48242200200000696	0.07517586894254484
-0.48236096684375696	0.09309736860658199
-0.48229993168750696	0.1108677232976359
-0.48223889653125696	0.12845493116544882
-0.48217786137500696	0.14582686344079812
-0.48211682621875696	0.16295165812030357
-0.48205579106250696	0.179797965954565
-0.48199475590625696	0.19633539874771405
-0.48193372075000696	0.21253362778976542
-0.48187268559375696	0.2283626122072922
-0.48181165043750696	0.2437939103721103
-0.48175061528125696	0.2587992111245777
-0.48168958012500696	0.2733507202338962
-0.48162854496875696	0.2874219754113843
-0.48156750981250696	0.3009873227825015
-0.48150647465625696	0.3140215860070941
-0.48144543950000696	0.32650085896384695
-0.48138440434375696	0.33840250845675457
-0.48132336918750696	0.3497042886037963
-0.48126233403125696	0.3603854695864957
-0.48120129887500696	0.3704265720299884
-0.48114026371875696	0.3798088351332187
-0.48107922856250696	0.38851497748482794
-0.48101819340625696	0.3965289562793991
-0.48095715825000696	0.4038359081700844
-0.48089612309375696	0.41042221868010376
-0.48083508793750696	0.41627561171604793
-0.48077405278125696	0.42138525103768676
-0.48071301762500696	0.42574153398397385
-0.48065198246875696	0.4293361965557181
-0.48059094731250696	0.43216246470123265
-0.48052991215625696	0.4342149825571204
-0.48046887700000696	0.4354896703088674
-0.48040784184375696	0.4359839510810964
-0.48034680668750696	0.435696729019898
-0.48028577153125696	0.4346282030641887
-0.48022473637500696	0.4327801080137779
-0.48016370121875696	0.43015557178663033
-0.48010266606250696	0.4267590839334333
-0.48004163090625696	0.42259667901541537
-0.47998059575000696	0.4176756661951234
-0.47991956059375696	0.41200474438545864
-0.47985852543750696	0.40559416999622655
-0.47979749028125696	0.3984553054762122
-0.47973645512500696	0.3906009212131409
-0.47967541996875696	0.3820453781228563
-0.47961438481250696	0.37280382294197606
-0.47955334965625696	0.3628929525322238
-0.47949231450000696	0.3523310302567071
-0.47943127934375696	0.34113666124218783
-0.47937024418750696	0.32933027464564324
-0.47930920903125696	0.3169336523476765
-0.47924817387500696	0.30396865951363805
-0.47918713871875696	0.29045912264469537
-0.47912610356250696	0.2764298166580087
-0.47906506840625696	0.2619057399902025
-0.47900403325000696	0.24691361536665948
-0.47894299809375696	0.23148077541596782
-0.47888196293750696	0.21563498795658714
-0.47882092778125696	0.1994054408061715
-0.47875989262500696	0.1828216727221642
-0.47869885746875696	0.16591349332679592
-0.47863782231250696	0.1487122840768905
-0.47857678715625696	0.13124931867839
-0.47851575200000696	0.11355595542841185
-0.47845471684375696	0.09566514013212057
-0.47839368168750696	0.07760928833614951
-0.47833264653125696	0.05942116503583927
-0.47827161137500696	0.041134453280910185
-0.47821057621875696	0.022782218596540182
-0.47814954106250696	0.004398019734013285
-0.47808850590625696	-0.013984146624486205
-0.47802747075000696	-0.032331066970395096
-0.47796643559375696	-0.05060908243447875
-0.47790540043750696	-0.06878444328425039
-0.47784436528125696	-0.08682432848130853
-0.47778333012500696	-0.1046952666919565
-0.47772229496875696	-0.12236475624351112
-0.47766125981250696	-0.13980063830978506
-0.47760022465625696	-0.15697028044354916
-0.47753918950000696	-0.17384284228821328
-0.47747815434375696	-0.19038736382158272
-0.47741711918750696	-0.20657300147766502
-0.47735608403125696	-0.2223704620594591
-0.47729504887500696	-0.23775090850641742
-0.47723401371875696	-0.25268566906295237
-0.47717297856250696	-0.267147502600796
-0.47711194340625696	-0.28111025028631415
-0.47705090825000696	-0.2945476749913924
-0.47698987309375696	-0.307435339816384
-0.47692883793750696	-0.31974993573268967
-0.47686780278125696	-0.33146826072630137
-0.47680676762500696	-0.34256902694275665
-0.47674573246875696	-0.3530321116516049
-0.47668469731250696	-0.3628379099844015
-0.47662366215625696	-0.37196849796461645
-0.47656262700000696	-0.3804072675262562
-0.47650159184375696	-0.3881385807211074
-0.47644055668750696	-0.39514822555291196
-0.47637952153125696	-0.40142336537928713
-0.47631848637500696	-0.4069524866656031
-0.47625745121875696	-0.4117254348111231
-0.47619641606250696	-0.4157334147905872
-0.47613538090625696	-0.4189691102345554
-0.47607434575000696	-0.4214266402043572
-0.47601331059375696	-0.42310142677121687
-0.47595227543750696	-0.42399047137180773
-0.47589124028125696	-0.42409223821547054
-0.47583020512500696	-0.42340649172931705
-0.47576916996875696	-0.42193458477387075
-0.47570813481250696	-0.4196793300193267
-0.47564709965625696	-0.41664491048594277
-0.47558606450000696	-0.41283695684594135
-0.47552502934375696	-0.40826260755403065
-0.47546399418750696	-0.40293039290721505
-0.47540295903125696	-0.396850155732142
-0.47534192387500696	-0.3900332582313131
-0.47528088871875696	-0.3824923409143599
-0.47521985356250696	-0.37424141968847946
-0.47515881840625696	-0.3652958788072566
-0.47509778325000696	-0.35567221422743356
-0.47503674809375696	-0.34538841830514366
-0.47497571293750696	-0.3344635862559418
-0.47491467778125696	-0.322917917065693
-0.47485364262500696	-0.31077304028506525
-0.47479260746875696	-0.298051382319133
-0.47473157231250696	-0.2847765632303912
-0.47467053715625696	-0.2709734692766757
-0.47460950200000696	-0.25666761784999037
-0.47454846684375696	-0.2418854904887882
-0.47448743168750696	-0.22665483141079235
-0.47442639653125696	-0.2110039885062332
-0.47436536137500696	-0.19496167628774783
-0.47430432621875696	-0.17855820118461388
-0.47424329106250696	-0.16182411596186144
-0.47418225590625696	-0.14479006598491914
-0.47412122075000696	-0.12748828171287643
-0.47406018559375696	-0.10995095422318883
-0.47399915043750696	-0.09221046281795421
-0.47393811528125696	-0.07430007083181862
-0.47387708012500696	-0.05625330998621739
-0.47381604496875696	-0.03810355999185992
-0.47375500981250696	-0.019884771417745896
-0.47369397465625696	-0.0016311537455773269
-0.47363293950000696	0.016623566640144905
-0.47357190434375696	0.0348450287909297
-0.47351086918750696	0.052999251622240236
-0.47344983403125696	0.07105253050420429
-0.47338879887500696	0.08897071163040349
-0.47332776371875696	0.10672053196668434
-0.47326672856250696	0.12426901725780991
-0.47320569340625696	0.1415827539351379
-0.47314465825000696	0.15862965914130925
-0.47308362309375696	0.17537806478129447
-0.47302258793750696	0.19179594136114383
-0.47296155278125696	0.20785293780559708
-0.47290051762500696	0.22351901875266839
-0.47283948246875696	0.2387643420407023
-0.47277844731250696	0.2535605835890851
-0.47271741215625696	0.2678799509120647
-0.47265637700000696	0.28169535495405046
-0.47259534184375696	0.2949807865270963
-0.47253430668750696	0.30771131142869046
-0.47247327153125696	0.3198630098299976
-0.47241223637500696	0.33141263179236485
-0.47235120121875696	0.34233855145596426
-0.47229016606250696	0.3526202838203707
-0.47222913090625696	0.36223790973867875
-0.47216809575000696	0.371173460829895
-0.47210706059375696	0.3794100286233478
-0.47204602543750696	0.3869316289286737
-0.47198499028125696	0.39372410966277777
-0.47192395512500696	0.39977443717711675
-0.47186291996875696	0.40507087787920837
-0.47180188481250696	0.4096032841568835
-0.47174084965625696	0.4133628174396686
-0.47167981450000696	0.41634207038436233
-0.47161877934375696	0.4185351554437891
-0.47155774418750696	0.41993759325044827
-0.47149670903125696	0.4205463817651492
-0.47143567387500696	0.42036002818487533
-0.47137463871875696	0.41937849961952983
-0.47131360356250696	0.4176032360086241
-0.47125256840625696	0.41503718113981386
-0.47119153325000696	0.41168478151288285
-0.47113049809375696	0.40755185671208277
-0.47106946293750696	0.40264575432074406
-0.47100842778125696	0.39697536661597715
-0.47094739262500696	0.39055079997500447
-0.47088635746875696	0.3833836227170636
-0.47082532231250696	0.37548706463455417
-0.47076428715625696	0.3668754561088341
-0.47070325200000696	0.3575642810863188
-0.47064221684375696	0.34757084847928105
-0.47058118168750696	0.3369136049915844
-0.47052014653125696	0.32561170886509255
-0.47045911137500696	0.3136861564034178
-0.47039807621875696	0.3011591909795716
