Time	Frequency
-0.500010648	0.39576929606408673
-0.49994961284374995	0.3965787327263577
-0.49988857768749995	0.39668275731761393
-0.49982754253124995	0.39608118455296343
-0.49976650737499995	0.3947750022600029
-0.49970547221874995	0.3927664361628776
-0.49964443706249995	0.39005905722606743
-0.49958340190624995	0.3866574831925905
-0.49952236674999995	0.38256761884711044
-0.49946133159374995	0.3777967042616144
-0.49940029643749995	0.37235291307218815
-0.49933926128124995	0.36624579133043855
-0.49927822612499995	0.3594860606427566
-0.49921719096874995	0.3520853963818328
-0.49915615581249995	0.34405683036625817
-0.49909512065624995	0.335414345409055
-0.49903408549999995	0.3261730064462021
-0.49897305034374995	0.31634910860369425
-0.49891201518749995	0.30595968240753096
-0.49885098003124995	0.2950229431667853
-0.49878994487499995	0.28355816141017975
-0.49872890971874995	0.27158526419423373
-0.49866787456249995	0.25912524830126366
-0.49860683940624995	0.2462000261405969
-0.49854580424999995	0.23283221157983533
-0.49848476909374995	0.21904522177734123
-0.49842373393749995	0.2048632028424891
-0.49836269878124995	0.19031119645337288
-0.49830166362499995	0.17541463713247052
-0.49824062846874995	0.16019951696445198
-0.49817959331249995	0.14469300498806595
-0.49811855815624995	0.1289219341428489
-0.49805752299999995	0.11291400458884639
-0.49799648784374995	0.0966979141698308
-0.49793545268749995	0.0803015607651465
-0.49787441753124995	0.06375392536102056
-0.49781338237499995	0.0470845664914049
-0.49775234721874995	0.030322432696305957
-0.49769131206249995	0.013496918628996095
-0.49763027690624995	-0.0033617723090768725
-0.49756924174999995	-0.020224169333602358
-0.49750820659374995	-0.037060946485031825
-0.49744717143749995	-0.053841673695540014
-0.49738613628124995	-0.0705370213689223
-0.49732510112499995	-0.08711771331059671
-0.49726406596874995	-0.1035541153076773
-0.49720303081249995	-0.11981728411720363
-0.49714199565624995	-0.13587833966989
-0.49708096049999995	-0.1517090239457019
-0.49701992534374995	-0.16728119697974833
-0.49695889018749995	-0.18256706108883308
-0.49689785503124995	-0.1975397208061146
-0.49683681987499995	-0.21217257202350542
-0.49677578471874995	-0.22643944136463182
-0.49671474956249995	-0.24031506631507385
-0.49665371440624995	-0.2537747215649736
-0.49659267924999995	-0.26679437613548906
-0.49653164409374995	-0.2793508857900521
-0.49647060893749995	-0.29142163850876557
-0.49640957378124995	-0.3029852566395887
-0.49634853862499995	-0.31402089207838546
-0.49628750346874995	-0.3245086584802045
-0.49622646831249995	-0.33443001566014724
-0.49616543315624995	-0.343766726310256
-0.49610439799999995	-0.35250208442793435
-0.49604336284374995	-0.3606204453719211
-0.49598232768749995	-0.36810681622222624
-0.49592129253124995	-0.3749476434837481
-0.49586025737499995	-0.3811304787168256
-0.49579922221874995	-0.38664396418264474
-0.49573818706249995	-0.3914777932907272
-0.49567715190624995	-0.39562298296090237
-0.49561611674999995	-0.39907184401253054
-0.49555508159374995	-0.4018176851875366
-0.49549404643749995	-0.40385508869747505
-0.49543301128124995	-0.40518003253706025
-0.49537197612499995	-0.40578964870248013
-0.49531094096874995	-0.40568221140388677
-0.49524990581249995	-0.4048574136921989
-0.49518887065624995	-0.40331617633432004
-0.49512783549999995	-0.40106057657745225
-0.49506680034374995	-0.39809405852142854
-0.49500576518749995	-0.3944212687073469
-0.49494473003124995	-0.39004806558975585
-0.49488369487499995	-0.3849816160812344
-0.49482265971874995	-0.3792302345458463
-0.49476162456249995	-0.3728034316313319
-0.49470058940624995	-0.36571204566098925
-0.49463955424999995	-0.3579679150501313
-0.49457851909374995	-0.34958398725283235
-0.49451748393749995	-0.34057473047792386
-0.49445644878124995	-0.33095527993153834
-0.49439541362499995	-0.3207417802228661
-0.49433437846874995	-0.30995210380411786
-0.49427334331249995	-0.2986044916650494
-0.49421230815624995	-0.286718145721319
-0.49415127299999995	-0.27431379998401867
-0.49409023784374995	-0.26141270078880957
-0.49402920268749995	-0.2480368253183811
-0.49396816753124995	-0.23420935898047146
-0.49390713237499995	-0.21995430874020355
-0.49384609721874995	-0.20529594880774624
-0.49378506206249995	-0.19025976456830027
-0.49372402690624995	-0.1748718974596279
-0.49366299174999995	-0.15915875679586144
-0.49360195659374995	-0.1431477337256014
-0.49354092143749995	-0.12686639737863478
-0.49347988628124995	-0.11034320500880114
-0.49341885112499995	-0.0936068888843553
-0.49335781596874995	-0.07668615755556421
-0.49329678081249995	-0.05961082063178599
-0.49323574565624995	-0.04241047676393371
-0.49317471049999995	-0.025114988240081813
-0.49311367534374995	-0.007754616385479486
-0.49305264018749995	0.009640644900530094
-0.49299160503124995	0.0270399856830686
-0.49293056987499995	0.0444133671537944
-0.49286953471874995	0.06173079430980601
-0.49280849956249995	0.07896099366996169
-0.49274746440624995	0.09607470972422805
-0.49268642924999995	0.11304221728928232
-0.49262539409374995	0.12983265743786557
-0.49256435893749995	0.14641762028045754
-0.49250332378124995	0.16276803001178444
-0.49244228862499995	0.1788546415559578
-0.49238125346874995	0.19464964536747137
-0.49232021831249995	0.21012520798674822
-0.49225918315624995	0.2252543177841015
-0.49219814799999995	0.2400101906779998
-0.49213711284374995	0.25436677207249847
-0.49207607768749995	0.26829920800294277
-0.49201504253124995	0.2817827045579111
-0.49195400737499995	0.2947934083376114
-0.49189297221874995	0.3073086107106974
-0.49183193706249995	0.3193061272286055
-0.49177090190624995	0.3307647494548394
-0.49170986674999995	0.3416642403416043
-0.49164883159374995	0.3519853133646656
-0.49158779643749995	0.3617097362122947
-0.49152676128124995	0.370820167052362
-0.49146572612499995	0.37930049293360574
-0.49140469096874995	0.3871356411405571
-0.49134365581249995	0.39431159423028794
-0.49128262065624995	0.40081562845680485
-0.49122158549999995	0.4066360051343996
-0.49116055034374995	0.4117623214923624
-0.49109951518749995	0.41618540317499136
-0.49103848003124995	0.41989714953898855
-0.49097744487499995	0.4228908246393309
-0.49091640971874995	0.4251609346489863
-0.49085537456249995	0.42670326194393743
-0.49079433940624995	0.4275147839021409
-0.49073330424999995	0.4275938078982447
-0.49067226909374995	0.42694000697719175
-0.49061123393749995	0.4255541861335778
-0.49055019878124995	0.42343850873619615
-0.49048916362499995	0.4205964766177836
-0.49042812846874995	0.4170327557221028
-0.49036709331249995	0.4127533230151726
-0.49030605815624995	0.4077655042170986
-0.49024502299999995	0.4020776875066285
-0.49018398784374995	0.3956996157599415
-0.49012295268749995	0.3886423477708861
-0.49006191753124995	0.38091777671857396
-0.49000088237499995	0.37253942091964926
-0.48993984721874995	0.3635217355682831
-0.48987881206249995	0.35387999992295
-0.48981777690624995	0.3436313758619052
-0.48975674174999995	0.33279336820879163
-0.48969570659374995	0.3213844890159159
-0.48963467143749995	0.3094251844967412
-0.48957363628124995	0.2969358868412376
-0.48951260112499995	0.2839379374287849
-0.48945156596874995	0.27045472315509034
-0.48939053081249995	0.2565093890593892
-0.48932949565624995	0.24212570100193379
-0.48926846049999995	0.2273296574732342
-0.48920742534374995	0.2121466748598512
-0.48914639018749995	0.19660271567839493
-0.48908535503124995	0.18072581674546628
-0.48902431987499995	0.16454332409090772
-0.48896328471874995	0.14808315174033965
-0.48890224956249995	0.13137464764628817
-0.48884121440624995	0.11444683300056836
-0.48878017924999995	0.09732909165496832
-0.48871914409374995	0.08005165922016347
-0.48865810893749995	0.06264477683073062
-0.48859707378124995	0.04513865592687032
-0.48853603862499995	0.027564188476259775
-0.48847500346874995	0.009952230949711325
-0.48841396831249995	-0.0076665941531204
-0.48835293315624995	-0.025261309370191273
-0.48829189799999995	-0.0428009641874586
-0.48823086284374995	-0.06025484002248307
-0.48816982768749995	-0.07759249200125017
-0.48810879253124995	-0.09478326449871104
-0.48804775737499995	-0.11179704489731883
-0.48798672221874995	-0.1286042300396301
-0.48792568706249995	-0.14517487821730587
-0.48786465190624995	-0.16148019670754632
-0.48780361674999995	-0.1774916249081493
-0.48774258159374995	-0.19318067841836448
-0.48768154643749995	-0.20852020071397495
-0.48762051128124995	-0.2234830339222434
-0.48755947612499995	-0.23804284601409112
-0.48749844096874995	-0.2521743226363638
-0.48743740581249995	-0.2658523063614511
-0.48737637065624995	-0.2790529432879985
-0.48731533549999995	-0.2917531654616635
-0.48725430034374995	-0.30393031477213345
-0.48719326518749995	-0.3155632847524031
-0.48713223003124995	-0.3266316816727516
-0.48707119487499995	-0.3371156952108513
-0.48701015971874995	-0.34699730549450614
-0.48694912456249995	-0.35625910836948926
-0.48688808940624995	-0.3648845368461999
-0.48682705424999995	-0.3728588456656793
-0.48676601909374995	-0.38016788945299007
-0.48670498393749995	-0.38679875456159674
-0.48664394878124995	-0.39274008228799306
-0.48658291362499995	-0.39798126143326545
-0.48652187846874995	-0.40251321190654116
-0.48646084331249995	-0.40632814974831216
-0.48639980815624995	-0.4094192780106397
-0.48633877299999995	-0.41178133149379753
-0.48627773784374995	-0.41341031512469245
-0.48621670268749995	-0.4143033833466686
-0.48615566753124995	-0.41445911566723725
-0.48609463237499995	-0.41387742835087665
-0.48603359721874995	-0.41255942670557944
-0.48597256206249995	-0.41050758945126453
-0.48591152690624995	-0.40772576690593315
-0.48585049174999995	-0.4042189645455867
-0.48578945659374995	-0.3999935445947445
-0.48572842143749995	-0.3950572481687833
-0.48566738628124995	-0.38941885184626207
-0.48560635112499995	-0.3830885968966917
-0.48554531596874995	-0.3760779299597185
-0.48548428081249995	-0.36839922116398977
-0.48542324565624995	-0.3600665562944117
-0.48536221049999995	-0.3510947991834333
-0.48530117534374995	-0.3414997945713299
-0.48524014018749995	-0.3312991960517212
-0.48517910503124995	-0.32051102621310307
-0.48511806987499995	-0.30915449971236547
-0.48505703471874995	-0.29725040990240464
-0.48499599956249995	-0.2848196893798039
-0.48493496440624995	-0.27188467704432784
-0.48487392924999995	-0.2584688971370062
-0.48481289409374995	-0.2445959499721121
-0.48475185893749995	-0.23029086384079292
-0.48469082378124995	-0.21557951667877567
-0.48462978862499995	-0.20048792609241223
-0.48456875346874995	-0.18504326805747212
-0.48450771831249995	-0.16927342953986468
-0.48444668315624995	-0.15320641378811667
-0.48438564799999995	-0.13687112750369734
-0.48432461284374995	-0.12029707162916999
-0.48426357768749995	-0.10351361773788115
-0.48420254253124995	-0.08655113404004676
-0.48414150737499995	-0.0694401979113542
-0.48408047221874995	-0.052211037823622346
-0.48401943706249995	-0.03489506378441569
-0.48395840190624995	-0.017523299259245975
-0.48389736674999995	-0.00012665793083272035
-0.48383633159374995	0.01726322251058452
-0.48377529643749995	0.034615348905092866
-0.48371426128124995	0.05189838831073676
-0.48365322612499995	0.06908120378133242
-0.48359219096874995	0.0861331017449872
-0.48353115581249995	0.10302321723052578
-0.48347012065624995	0.11972106066038456
-0.48340908549999995	0.1361967033231355
-0.48334805034374995	0.1524205907841035
-0.48328701518749995	0.16836306072169008
-0.48322598003124995	0.1839956341382673
-0.48316494487499995	0.19929028274144336
-0.48310390971874995	0.21421890734135696
-0.48304287456249995	0.22875489273360383
-0.48298183940624995	0.24287201605774272
-0.48292080424999995	0.25654444679049243
-0.48285976909374995	0.2697475985926355
-0.48279873393749995	0.28245770590678876
-0.48273769878124995	0.294651507042952
-0.48267666362499995	0.30630684829892213
-0.48261562846874995	0.31740285653159034
-0.48255459331249995	0.32791914037822156
-0.48249355815624995	0.3378364340395578
-0.48243252299999995	0.3471369894072763
-0.48237148784374995	0.3558037266313391
-0.48231045268749995	0.36382050890204015
-0.48224941753124995	0.3711730123262927
-0.48218838237499995	0.3778477335691592
-0.48212734721874995	0.38383200130933043
-0.48206631206249995	0.3891151288539579
-0.48200527690624995	0.393687276161406
-0.48194424174999995	0.39753963672684467
-0.48188320659374995	0.4006652615641608
-0.48182217143749995	0.40305810293954264
-0.48176113628124995	0.40471342344975025
-0.48170010112499995	0.40562806939973156
-0.48163906596874995	0.4057999612842427
-0.48157803081249995	0.4052284508895294
-0.48151699565624995	0.4039142631011869
-0.48145596049999995	0.401859344991831
-0.48139492534374995	0.39906709841232946
-0.48133389018749995	0.3955421807646008
-0.48127285503124995	0.39129050759554057
-0.48121181987499995	0.38631949305285956
-0.48115078471874995	0.38063764135826206
-0.48108974956249995	0.3742547939251432
-0.48102871440624995	0.36718220245991384
-0.48096767924999995	0.3594321143423532
-0.48090664409374995	0.35101817306886385
-0.48084560893749995	0.3419552427185103
-0.48078457378124995	0.3322591795232922
-0.48072353862499995	0.3219471331258695
-0.48066250346874995	0.31103741092344905
-0.48060146831249995	0.2995492435053444
-0.48054043315624995	0.28750299661803025
-0.48047939799999995	0.27492005893807164
-0.48041836284374995	0.26182278363621875
-0.48035732768749995	0.24823453706493515
-0.48029629253124995	0.23417931051719482
-0.48023525737499995	0.2196821994771623
-0.48017422221874995	0.2047692932385501
-0.48011318706249995	0.18946683808919637
-0.48005215190624995	0.17380221227355103
-0.47999111674999995	0.1578036889134975
-0.47993008159374995	0.14149951447951106
-0.47986904643749995	0.12491899602326655
-0.47980801128124995	0.10809184344796936
-0.47974697612499995	0.0910481256331087
-0.47968594096874995	0.07381845648724575
-0.47962490581249995	0.05643347101608625
-0.47956387065624995	0.038924836958444495
-0.47950283549999995	0.021323653348868495
-0.47944180034374995	0.0036612894329004814
-0.47938076518749995	-0.01402983413756664
-0.47931973003124995	-0.03171844086513865
-0.47925869487499995	-0.04937265126422713
-0.47919765971874995	-0.06696037929222513
-0.47913662456249995	-0.08445032305426697
-0.47907558940624995	-0.1018107296979467
-0.47901455424999995	-0.11901023856145977
-0.47895351909374995	-0.13601804003325374
-0.47889248393749995	-0.15280322230935459
-0.47883144878124995	-0.16933548864375506
-0.47877041362499995	-0.18558504643087734
-0.47870937846874995	-0.20152228493325333
-0.47864834331249995	-0.21711853125699498
-0.47858730815624995	-0.23234545605198756
-0.47852627299999995	-0.24717532423076025
-0.47846523784374995	-0.2615813939025773
-0.47840420268749995	-0.2755373407558183
-0.47834316753124995	-0.2890177729220688
-0.47828213237499995	-0.30199824013498294
-0.47822109721874995	-0.31445499469507493
-0.47816006206249995	-0.3263652643453098
-0.47809902690624995	-0.3377073102921276
-0.47803799174999995	-0.3484604273626954
-0.47797695659374995	-0.3586047644781287
-0.47791592143749995	-0.36812166153176745
-0.47785488628124995	-0.3769937956941834
-0.47779385112499995	-0.38520458098836036
-0.47773281596874995	-0.3927387933252271
-0.47767178081249995	-0.3995826072462889
-0.47761074565624995	-0.4057231265342127
-0.47754971049999995	-0.41114883104903116
-0.47748867534374995	-0.4158495123868959
-0.47742764018749995	-0.41981623057027023
-0.47736660503124995	-0.4230413513356262
-0.47730556987499995	-0.42551852713174854
-0.47724453471874995	-0.42724282080225673
-0.47718349956249995	-0.428210639357306
-0.47712246440624995	-0.42841966390355884
-0.47706142924999995	-0.4278690008686862
-0.47700039409374995	-0.42655914830575226
-0.47693935893749995	-0.4244918892208446
-0.47687832378124995	-0.42167041038123615
-0.47681728862499995	-0.4180992533046485
-0.47675625346874995	-0.4137843062722779
-0.47669521831249995	-0.4087327985820336
-0.47663418315624995	-0.402953255723648
-0.47657314799999995	-0.39645552471832757
-0.47651211284374995	-0.38925084195396514
-0.47645107768749995	-0.3813515835228969
-0.47639004253124995	-0.3727713080280876
-0.47632900737499995	-0.363525183584418
-0.47626797221874995	-0.35362921588911234
-0.47620693706249995	-0.3431004860663942
-0.47614590190624995	-0.33195774566971725
-0.47608486674999995	-0.3202204820188808
-0.47602383159374995	-0.3079090876868036
-0.47596279643749995	-0.29504542551274615
-0.47590176128124995	-0.28165225224969637
-0.47584072612499995	-0.2677529490165805
-0.47577969096874995	-0.25337219324191607
-0.47571865581249995	-0.23853551588320412
-0.47565762065624995	-0.22326899143556883
-0.47559658549999995	-0.20759973859272082
-0.47553555034374995	-0.19155561363175136
-0.47547451518749995	-0.1751650192101912
-0.47541348003124995	-0.15845697445401674
-0.47535244487499995	-0.1414612978636745
-0.47529140971874995	-0.12420826691002734
-0.47523037456249995	-0.10672836103630201
-0.47516933940624995	-0.08905277997381184
-0.47510830424999995	-0.07121317396721091
-0.47504726909374995	-0.05324111694833927
-0.47498623393749995	-0.0351687757930492
-0.47492519878124995	-0.017028376686832634
-0.47486416362499995	0.0011478777111159127
-0.47480312846874995	0.019327109106393892
-0.47474209331249995	0.03747717503960608
-0.47468105815624995	0.05556588114250304
-0.47462002299999995	0.07356020799504874
-0.47455898784374995	0.09142825714173564
-0.47449795268749995	0.10913856221682128
-0.47443691753124995	0.12665877274814002
-0.47437588237499995	0.14395746966330322
-0.47431484721874995	0.161004269266881
-0.47425381206249995	0.17776829108154127
-0.47419277690624995	0.19421918902759916
-0.47413174174999995	0.21032786458364516
-0.47407070659374995	0.2260654344586693
-0.47400967143749995	0.24140336519552894
-0.47394863628124995	0.2563142651920757
-0.47388760112499995	0.2707713820192041
-0.47382656596874995	0.2847488349351397
-0.47376553081249995	0.29822137085407063
-0.47370449565624995	0.31116455556166644
-0.47364346049999995	0.3235556848145666
-0.47358242534374995	0.3353721271034733
-0.47352139018749995	0.3465923312033971
-0.47346035503124995	0.35719673547030256
-0.47339931987499995	0.36716587536140066
-0.47333828471874995	0.3764816322605336
-0.47327724956249995	0.3851276683823403
-0.47321621440624995	0.3930881214062258
-0.47315517924999995	0.4003485202577803
-0.47309414409374995	0.40689609866630205
-0.47303310893749995	0.4127188520102711
-0.47297207378124995	0.41780614725632864
-0.47291103862499995	0.4221490602237137
-0.47285000346874995	0.4257395843984954
-0.47278896831249995	0.42857115413021707
-0.47272793315624995	0.43063881516932107
-0.47266689799999995	0.4319387049235267
-0.47260586284374995	0.43246842026525745
-0.47254482768749995	0.432227072380008
-0.47248379253124995	0.4312150316965186
-0.47242275737499995	0.4294340435960597
-0.47236172221874995	0.42688738344568483
-0.47230068706249995	0.4235795996075448
-0.47223965190624995	0.41951657011541066
-0.47217861674999995	0.41470571049487015
-0.47211758159374995	0.40915563431731466
-0.47205654643749995	0.4028763425375972
-0.47199551128124995	0.3958791890734634
-0.47193447612499995	0.38817674145718434
-0.47187344096874995	0.3797829937899901
-0.47181240581249995	0.37071305730290516
-0.47175137065624995	0.3609832594771142
-0.47169033549999995	0.35061126911862817
-0.47162930034374995	0.3396158200584964
-0.47156826518749995	0.328016769933503
-0.47150723003124995	0.3158350842740389
-0.47144619487499995	0.30309281262313936
-0.47138515971874995	0.2898130776173235
-0.47132412456249995	0.2760198211842995
-0.47126308940624995	0.2617380654439361
-0.47120205424999995	0.24699368888339998
-0.47114101909374995	0.23181330522635438
-0.47107998393749995	0.21622465271023159
-0.47101894878124995	0.20025572164425295
-0.47095791362499995	0.18393544762024797
-0.47089687846874995	0.16729385327771182
-0.47083584331249995	0.15036062802471645
-0.47077480815624995	0.13316649910231118
-0.47071377299999995	0.1157431826708546
-0.47065273784374995	0.09812191217798913
-0.47059170268749995	0.08033439351855678
-0.47053066753124995	0.06241354227401212
-0.47046963237499995	0.04439181116884737
-0.47040859721874995	0.026301250991983657
