Time	Frequency
-0.5000009538125028	0.14338244281035278
-0.49993991865625276	0.16879781435798613
-0.49987888350000276	0.19371975982415196
-0.49981784834375276	0.21807778564100647
-0.49975681318750276	0.2418036041215414
-0.49969577803125276	0.2648298397557424
-0.49963474287500276	0.28709142012456235
-0.49957370771875276	0.3085258880086721
-0.49951267256250276	0.3290724201358854
-0.49945163740625276	0.3486729866336095
-0.49939060225000276	0.3672727560975178
-0.49932956709375276	0.384819033667415
-0.49926853193750276	0.40126225356079775
-0.49920749678125276	0.4165564571332456
-0.49914646162500276	0.43065861188167925
-0.49908542646875276	0.4435289646576377
-0.49902439131250276	0.4551316417703364
-0.49896335615625276	0.4654341677192051
-0.49890232100000276	0.47440768670927075
-0.49884128584375276	0.4820274640973342
-0.49878025068750276	0.48827238649021304
-0.49871921553125276	0.4931252657591584
-0.49865818037500276	0.4965730489437433
-0.49859714521875276	0.49860660927491174
-0.49853611006250276	0.499220860115611
-0.49847507490625276	0.49841482545670884
-0.49841403975000276	0.4961915726338428
-0.49835300459375276	0.4925582044202429
-0.49829196943750276	0.48752594551831574
-0.49823093428125276	0.48110996904080455
-0.49816989912500276	0.47332934703946206
-0.49810886396875276	0.46420723257147545
-0.49804782881250276	0.45377061465769986
-0.49798679365625276	0.4420499532292405
-0.49792575850000276	0.429079707593828
-0.49786472334375276	0.41489811386590647
-0.49780368818750276	0.3995462825181471
-0.49774265303125276	0.38306890347491346
-0.49768161787500276	0.3655145149352923
-0.49762058271875276	0.3469340149065192
-0.49755954756250276	0.3273810691007693
-0.49749851240625276	0.3069132405301077
-0.49743747725000276	0.28558985523525393
-0.49737644209375276	0.2634723771288924
-0.49731540693750276	0.24062569896261532
-0.49725437178125276	0.2171160787298458
-0.49719333662500276	0.19301151245003956
-0.49713230146875276	0.1683821282139656
-0.49707126631250276	0.14329950702851296
-0.49701023115625276	0.11783657078211406
-0.49694919600000276	0.09206680177026774
-0.49688816084375276	0.06606533895834875
-0.49682712568750276	0.0399079688650208
-0.49676609053125276	0.01366972274276767
-0.49670505537500276	-0.012572645559244434
-0.49664402021875276	-0.038742545449166874
-0.49658298506250276	-0.06476485298861959
-0.49652194990625276	-0.0905637721409696
-0.49646091475000276	-0.11606402732589492
-0.49639987959375276	-0.14119170331646713
-0.49633884443750276	-0.16587409238608627
-0.49627780928125276	-0.19003925785306383
-0.49621677412500276	-0.21361691226808213
-0.49615573896875276	-0.23653878284439087
-0.49609470381250276	-0.2587378953326274
-0.49603366865625276	-0.28014993686641054
-0.49597263350000276	-0.30071274241714
-0.49591159834375276	-0.3203660858616007
-0.49585056318750276	-0.3390529046337464
-0.49578952803125276	-0.3567190529432692
-0.49572849287500276	-0.3733128544165102
-0.49566745771875276	-0.38878573169863057
-0.49560642256250276	-0.4030927826073938
-0.49554538740625276	-0.4161923570368976
-0.49548435225000276	-0.42804601950062016
-0.49542331709375276	-0.43861892110132233
-0.49536228193750276	-0.4478804131863817
-0.49530124678125276	-0.4558033947664506
-0.49524021162500276	-0.46236417487989667
-0.49517917646875276	-0.4675436729103322
-0.49511814131250276	-0.47132670064793064
-0.49505710615625276	-0.4737016968624196
-0.49499607100000276	-0.4746615486536181
-0.49493503584375276	-0.4742032828043046
-0.49487400068750276	-0.47232780750240566
-0.49481296553125276	-0.46904028455057245
-0.49475193037500276	-0.4643500156481711
-0.49469089521875276	-0.45827025618871636
-0.49462986006250276	-0.45081842124898613
-0.49456882490625276	-0.44201595520200704
-0.49450778975000276	-0.43188798914306525
-0.49444675459375276	-0.4204636875335093
-0.49438571943750276	-0.4077762888533989
-0.49432468428125276	-0.39386215931456486
-0.49426364912500276	-0.37876137427156853
-0.49420261396875276	-0.3625179785995125
-0.49414157881250276	-0.34517886123115316
-0.49408054365625276	-0.326794152073981
-0.49401950850000276	-0.30741716376989925
-0.49395847334375276	-0.28710419643017054
-0.49389743818750276	-0.26591435885202447
-0.49383640303125276	-0.24390878980504788
-0.49377536787500276	-0.22115167561427218
-0.49371433271875276	-0.19770945981084231
-0.49365329756250276	-0.17364976887917494
-0.49359226240625276	-0.14904296289619717
-0.49353122725000276	-0.12396103101119381
-0.49347019209375276	-0.09847641301267752
-0.49340915693750276	-0.07266358785939515
-0.49334812178125276	-0.046598514394689386
-0.49328708662500276	-0.020356619340187586
-0.49322605146875276	0.0059856590116369665
-0.49316501631250276	0.032350494389081795
-0.49310398115625276	0.05866121857941635
-0.49304294600000276	0.08484098049432996
-0.49298191084375276	0.110812790906853
-0.49292087568750276	0.13650086724736496
-0.49285984053125276	0.161829464623139
-0.49279880537500276	0.1867240797650351
-0.49273777021875276	0.21111228601364526
-0.49267673506250276	0.2349220712013153
-0.49261569990625276	0.2580824708995276
-0.49255466475000276	0.2805261715888924
-0.49249362959375276	0.30218710627667866
-0.49243259443750276	0.32300008478789577
-0.49237155928125276	0.34290432354444816
-0.49231052412500276	0.3618410902412144
-0.49224948896875276	0.3797533090859779
-0.49218845381250276	0.39658792027108497
-0.49212741865625276	0.4122950652799687
-0.49206638350000276	0.4268274984217345
-0.49200534834375276	0.4401412644105231
-0.49194431318750276	0.4521965975757099
-0.49188327803125276	0.4629570699900585
-0.49182224287500276	0.47238945843733937
-0.49176120771875276	0.48046510399473713
-0.49170017256250276	0.4871590124684371
-0.49163913740625276	0.49244978600980555
-0.49157810225000276	0.4963206861084949
-0.49151706709375276	0.4987587892837964
-0.49145603193750276	0.49975509285122927
-0.49139499678125276	0.4993052028211559
-0.49133396162500276	0.49740866930443023
-0.49127292646875276	0.494069111693179
-0.49121189131250276	0.48929468723450315
-0.49115085615625276	0.48309744467552224
-0.49108982100000276	0.4754934565206429
-0.49102878584375276	0.466503280050496
-0.49096775068750276	0.45615125155790776
-0.49090671553125276	0.44446552838674125
-0.49084568037500276	0.43147841913824136
-0.49078464521875276	0.41722593934480545
-0.49072361006250276	0.40174771601028725
-0.49066257490625276	0.38508707167717643
-0.49060153975000276	0.36729065539493405
-0.49054050459375276	0.3484083831500586
-0.49047946943750276	0.328493807882069
-0.49041843428125276	0.30760304824785656
-0.49035739912500276	0.28579468610417624
-0.49029636396875276	0.26313119490935993
-0.49023532881250276	0.23967703491665268
-0.49017429365625276	0.21549788261187375
-0.49011325850000276	0.19066314875190832
-0.49005222334375276	0.16524409406502066
-0.48999118818750276	0.13931221804545757
-0.48993015303125276	0.11294179538997327
-0.48986911787500276	0.08620873829245865
-0.48980808271875276	0.05918892655608892
-0.48974704756250276	0.03195951998522056
-0.48968601240625276	0.004599012754235852
-0.48962497725000276	-0.022814300965608818
-0.48956394209375276	-0.050202419655405374
-0.48950290693750276	-0.0774860642839288
-0.48944187178125276	-0.10458685293631051
-0.48938083662500276	-0.13142782427628522
-0.48931980146875276	-0.15793099684123996
-0.48925876631250276	-0.1840199926117844
-0.48919773115625276	-0.20962066939967
-0.48913669600000276	-0.23465879111245228
-0.48907566084375276	-0.259061738563343
-0.48901462568750276	-0.2827599642210446
-0.48895359053125276	-0.3056850486853264
-0.48889255537500276	-0.32777020403024143
-0.48883152021875276	-0.3489522383541254
-0.48877048506250276	-0.369170032576974
-0.48870944990625276	-0.38836465788774943
-0.48864841475000276	-0.4064809703225155
-0.48858737959375276	-0.4234666104392724
-0.48852634443750276	-0.43927205581981904
-0.48846530928125276	-0.4538517117954667
-0.48840427412500276	-0.467163426613686
-0.48834323896875276	-0.4791683540083196
-0.48828220381250276	-0.4898315117739908
-0.48822116865625276	-0.49912212214007107
-0.48816013350000276	-0.5070131587421802
-0.48809909834375276	-0.5134812035919573
-0.48803806318750276	-0.5185075333615091
-0.48797702803125276	-0.5220775526102815
-0.48791599287500276	-0.5241803353003741
-0.48785495771875276	-0.5248096252788775
-0.48779392256250276	-0.5239634883022407
-0.48773288740625276	-0.5216439050842102
-0.48767185225000276	-0.5178573447153793
-0.48761081709375276	-0.5126145440518017
-0.48754978193750276	-0.5059302579175147
-0.48748874678125276	-0.4978235948850008
-0.48742771162500276	-0.48831779816097626
-0.48736667646875276	-0.477439964270585
-0.48730564131250276	-0.4652212305657275
-0.48724460615625276	-0.45169689594549317
-0.48718357100000276	-0.4369057263771349
-0.48712253584375276	-0.42089005373379595
-0.48706150068750276	-0.4036962537982042
-0.48700046553125276	-0.3853738163710276
-0.48693943037500276	-0.3659751910792612
-0.48687839521875276	-0.3455566404658106
-0.48681736006250276	-0.3241771664270351
-0.48675632490625276	-0.30189779701961517
-0.48669528975000276	-0.27878330628459375
-0.48663425459375276	-0.25490061815312726
-0.48657321943750276	-0.23031796695475565
-0.48651218428125276	-0.20510698829118376
-0.48645114912500276	-0.17934032308630543
-0.48639011396875276	-0.15309187187262396
-0.48632907881250276	-0.12643845290218747
-0.48626804365625276	-0.09945653894420832
-0.48620700850000276	-0.07222363447085477
-0.48614597334375276	-0.0448194549666357
-0.48608493818750276	-0.017322675286564268
-0.48602390303125276	0.010187491444531696
-0.48596286787500276	0.037630881579101064
-0.48590183271875276	0.06492848769883891
-0.48584079756250276	0.09200156201313943
-0.48577976240625276	0.11877152528938839
-0.48571872725000276	0.14516083471579183
-0.48565769209375276	0.17109390195776553
-0.48559665693750276	0.1964953349370597
-0.48553562178125276	0.22129102373917692
-0.48547458662500276	0.24541069839179186
-0.48541355146875276	0.2687840997075249
-0.48535251631250276	0.2913429343170855
-0.48529148115625276	0.3130232035014466
-0.48523044600000276	0.33376198950756497
-0.48516941084375276	0.35349904053881037
-0.48510837568750276	0.3721779734008682
-0.48504734053125276	0.38974486009984355
-0.48498630537500276	0.40614886676298123
-0.48492527021875276	0.4213431456144253
-0.48486423506250276	0.43528404495839607
-0.48480319990625276	0.44793129411857796
-0.48474216475000276	0.4592489688024584
-0.48468112959375276	0.46920481252262675
-0.48462009443750276	0.4777703175212798
-0.48455905928125276	0.4849213107225505
-0.48449802412500276	0.49063766945939247
-0.48443698896875276	0.494903534005205
-0.48437595381250276	0.4977072491895226
-0.48431491865625276	0.49904129870640807
-0.48425388350000276	0.49890270994272634
-0.48419284834375276	0.4972927815829966
-0.48413181318750276	0.4942169275235274
-0.48407077803125276	0.48968504161130927
-0.48400974287500276	0.48371132392092003
-0.48394870771875276	0.476314038297921
-0.48388767256250276	0.46751574061932655
-0.48382663740625276	0.4573430571498666
-0.48376560225000276	0.4458266864789509
-0.48370456709375276	0.43300130366130446
-0.48364353193750276	0.4189052140939016
-0.48358249678125276	0.40358083929810457
-0.48352146162500276	0.3870739188878795
-0.48346042646875276	0.36943352208408925
-0.48339939131250276	0.3507127136555724
-0.48333835615625276	0.33096711700734
-0.48327732100000276	0.3102553156110971
-0.48321628584375276	0.2886393714839561
-0.48315525068750276	0.2661835145617973
-0.48309421553125276	0.24295440480472347
-0.48303318037500276	0.21902148659684248
-0.48297214521875276	0.19445572266030242
-0.48291111006250276	0.16932990886691376
-0.48285007490625276	0.14371950127197486
-0.48278903975000276	0.11770037267184205
-0.48272800459375276	0.09134916462708287
-0.48266696943750276	0.06474516945975117
-0.48260593428125276	0.03796769718428851
-0.48254489912500276	0.01109535344525327
-0.48248386396875276	-0.01579144892371509
-0.48242282881250276	-0.04261200159996969
-0.48236179365625276	-0.0692873418929943
-0.48230075850000276	-0.0957380403431252
-0.48223972334375276	-0.12188477829142884
-0.48217868818750276	-0.14764992838058758
-0.48211765303125276	-0.1729568334112378
-0.48205661787500276	-0.19773014148882836
-0.48199558271875276	-0.22189557058619405
-0.48193454756250276	-0.24538104899566288
-0.48187351240625276	-0.2681171188595535
-0.48181247725000276	-0.2900352046940094
-0.48175144209375276	-0.311069637690039
-0.48169040693750276	-0.33115827732753783
-0.48162937178125276	-0.3502403257311827
-0.48156833662500276	-0.36825865885358877
-0.48150730146875276	-0.3851596264187817
-0.48144626631250276	-0.4008918724066784
-0.48138523115625276	-0.4154085077632237
-0.48132419600000276	-0.4286656985146454
-0.48126316084375276	-0.44062306815880714
-0.48120212568750276	-0.45124491525317173
-0.48114109053125276	-0.46049870780003527
-0.48108005537500276	-0.46835601933286186
-0.48101902021875276	-0.4747931369893678
-0.48095798506250276	-0.47978998418781393
-0.48089694990625276	-0.4833307003369097
-0.48083591475000276	-0.4854042188517247
-0.48077487959375276	-0.4860034753753792
-0.48071384443750276	-0.48512566239932753
-0.48065280928125276	-0.4827726458856864
-0.48059177412500276	-0.4789505374789884
-0.48053073896875276	-0.4736696845034381
-0.48046970381250276	-0.46694493082075306
-0.48040866865625276	-0.45879543271702794
-0.48034763350000276	-0.4492442828069494
-0.48028659834375276	-0.43831905013591377
-0.48022556318750276	-0.4260514606849201
-0.48016452803125276	-0.4124767555320704
-0.48010349287500276	-0.39763446342414516
-0.48004245771875276	-0.3815680370131453
-0.47998142256250276	-0.3643240890308519
-0.47992038740625276	-0.3459529555612795
-0.47985935225000276	-0.32650876289047803
-0.47979831709375276	-0.30604822714464835
-0.47973728193750276	-0.28463112385135936
-0.47967624678125276	-0.2623208986848664
-0.47961521162500276	-0.23918296846414855
-0.47955417646875276	-0.21528499130194928
-0.47949314131250276	-0.1906977303844904
-0.47943210615625276	-0.1654937967524114
-0.47937107100000276	-0.13974721538876983
-0.47931003584375276	-0.11353388446341435
-0.47924900068750276	-0.08693172723677278
-0.47918796553125276	-0.06001916854361032
-0.47912693037500276	-0.03287534492989767
-0.47906589521875276	-0.005581471857514686
-0.47900486006250276	0.0217820043571159
-0.47894382490625276	0.049134312929891885
-0.47888278975000276	0.07639346704440464
-0.47882175459375276	0.10347921444970991
-0.47876071943750276	0.13031094296551105
-0.47869968428125276	0.1568083412114579
-0.47863864912500276	0.18289316356521804
-0.47857761396875276	0.20848738653301263
-0.47851657881250276	0.23351466692879483
-0.47845554365625276	0.2579004799297735
-0.47839450850000276	0.28157154248609045
-0.47833347334375276	0.3044575157441832
-0.47827243818750276	0.3264896408859527
-0.47821140303125276	0.34760159340940877
-0.47815036787500276	0.367730471673621
-0.47808933271875276	0.3868152482509071
-0.47802829756250276	0.40479847817369846
-0.47796726240625276	0.4216261139384708
-0.47790622725000276	0.43724685486311216
-0.47784519209375276	0.4516134885381958
-0.47778415693750276	0.4646822469109655
-0.47772312178125276	0.47641292578277883
-0.47766208662500276	0.4867697930161216
-0.47760105146875276	0.49572073226187335
-0.47754001631250276	0.5032376298227935
-0.47747898115625276	0.5092970833088464
-0.47741794600000276	0.5138795685224402
-0.47735691084375276	0.5169699428156924
-0.47729587568750276	0.5185576864002563
-0.47723484053125276	0.5186364393193366
-0.47717380537500276	0.5172043528218595
-0.47711277021875276	0.5142642057547316
-0.47705173506250276	0.5098230672453578
-0.47699069990625276	0.5038922730494111
-0.47692966475000276	0.49648793657908713
-0.47686862959375276	0.487630416106381
-0.47680759443750276	0.4773439931743506
-0.47674655928125276	0.46565759113383204
-0.47668552412500276	0.4526043824890285
-0.47662448896875276	0.4382211071220443
-0.47656345381250276	0.4225485891773822
-0.47650241865625276	0.4056320117327493
-0.47644138350000276	0.38751963235926307
-0.47638034834375276	0.3682631440892668
-0.47631931318750276	0.34791854090466173
-0.47625827803125276	0.3265442206837756
-0.47619724287500276	0.3042016055834801
-0.47613620771875276	0.28095599913606206
-0.47607517256250276	0.2568741476918492
-0.47601413740625276	0.23202587645006906
-0.47595310225000276	0.2064840193148866
-0.47589206709375276	0.18032183706102486
-0.47583103193750276	0.15361581093211388
-0.47576999678125276	0.12644418340983254
-0.47570896162500276	0.09888521538339973
-0.47564792646875276	0.07101959690040383
-0.47558689131250276	0.04292885941991732
-0.47552585615625276	0.014694784006024428
-0.47546482100000276	-0.013600245927453914
-0.47540378584375276	-0.04187380068817708
-0.47534275068750276	-0.0700426528359915
-0.47528171553125276	-0.09802439476267527
-0.47522068037500276	-0.12573819144959852
-0.47515964521875276	-0.15310204210697623
-0.47509861006250276	-0.1800352485921295
-0.47503757490625276	-0.2064604692003065
-0.47497653975000276	-0.23229951645781483
-0.47491550459375276	-0.25747575875348866
-0.47485446943750276	-0.2819167922014332
-0.47479343428125276	-0.3055505338843761
-0.47473239912500276	-0.3283068734475562
-0.47467136396875276	-0.3501199416018781
-0.47461032881250276	-0.3709254804428079
-0.47454929365625276	-0.3906619486743454
-0.47448825850000276	-0.409272069485969
-0.47442722334375276	-0.4267009317378128
-0.47436618818750276	-0.4428969695913621
-0.47430515303125276	-0.45781315451370275
-0.47424411787500276	-0.4714055517681923
-0.47418308271875276	-0.4836339601446073
-0.47412204756250276	-0.4944627895005449
-0.47406101240625276	-0.5038601430278485
-0.47399997725000276	-0.5117982993044031
-0.47393894209375276	-0.5182542180739338
-0.47387790693750276	-0.5232089127326033
-0.47381687178125276	-0.5266477981829302
-0.47375583662500276	-0.5285609492472901
-0.47369480146875276	-0.5289428564721976
-0.47363376631250276	-0.5277925368859585
-0.47357273115625276	-0.525113540426406
-0.47351169600000276	-0.5209138246291677
-0.47345066084375276	-0.5152060159888924
-0.47338962568750276	-0.5080072572717974
-0.47332859053125276	-0.4993387063211874
-0.47326755537500276	-0.48922620815285695
-0.47320652021875276	-0.47770006658479075
-0.47314548506250276	-0.464794159590883
-0.47308444990625276	-0.45054691004833064
-0.47302341475000276	-0.43500083628815933
-0.47296237959375276	-0.41820174048188224
-0.47290134443750276	-0.4001996563716747
-0.47284030928125276	-0.38104811191509846
-0.47277927412500276	-0.3608037241717712
-0.47271823896875276	-0.33952665314588215
-0.47265720381250276	-0.3172801362269889
-0.47259616865625276	-0.2941302076254048
-0.47253513350000276	-0.2701453845546573
-0.47247409834375276	-0.2453969511436116
-0.47241306318750276	-0.219958562075072
-0.47235202803125276	-0.19390551320263372
-0.47229099287500276	-0.16731519431591224
-0.47222995771875276	-0.1402666562570695
-0.47216892256250276	-0.11283996592276863
-0.47210788740625276	-0.08511681181412133
-0.47204685225000276	-0.05717977156677067
-0.47198581709375276	-0.029111018118325362
-0.47192478193750276	-0.000994353282210562
-0.47186374678125276	0.027086101764293186
-0.47180271162500276	0.05504799783270166
-0.47174167646875276	0.0828078106903356
-0.47168064131250276	0.11028277319851978
-0.47161960615625276	0.13739185026186046
-0.47155857100000276	0.164054030692478
-0.47149753584375276	0.19019031554683913
-0.47143650068750276	0.21572320528625688
-0.47137546553125276	0.24057659790835131
-0.47131443037500276	0.2646766768173145
-0.47125339521875276	0.2879520214900862
-0.47119236006250276	0.3103336682026028
-0.47113132490625276	0.33175456378292767
-0.47107028975000276	0.3521515194133561
-0.47100925459375276	0.3714643526866412
-0.47094821943750276	0.3896348745460196
-0.47088718428125276	0.40660973532371536
-0.47082614912500276	0.422338796010468
-0.47076511396875276	0.43677480628938237
-0.47070407881250276	0.4498755156215425
-0.47064304365625276	0.4616021061687712
-0.47058200850000276	0.4719196047867681
-0.47052097334375276	0.48079786930895413
-0.47045993818750276	0.48821073289558947
-0.47039890303125276	0.4941362727161317
-0.47033786787500276	0.49855726698944913
