Time	Frequency
-0.5000042915937541	-0.37784914729328994
-0.49994325643750415	-0.3717930584377146
-0.49988222128125415	-0.3651554780062179
-0.49982118612500415	-0.35794679760469417
-0.49976015096875415	-0.3501783734068453
-0.49969911581250415	-0.3418624554286234
-0.49963808065625415	-0.33301218843994573
-0.49957704550000415	-0.323641523901646
-0.49951601034375415	-0.3137652548172982
-0.49945497518750415	-0.3033992396421655
-0.49939394003125415	-0.29255947893221895
-0.49933290487500415	-0.28126343687498134
-0.49927186971875415	-0.26952930609905495
-0.49921083456250415	-0.25737496300242063
-0.49914979940625415	-0.2448202809020783
-0.49908876425000415	-0.2318852705680279
-0.49902772909375415	-0.21859004850013472
-0.49896669393750415	-0.20495609180948587
-0.49890565878125415	-0.19100489914469754
-0.49884462362500415	-0.17675895666931213
-0.49878358846875415	-0.16224072952374935
-0.49872255331250415	-0.14747300640355848
-0.49866151815625415	-0.1324802494615998
-0.49860048300000415	-0.11728558387607332
-0.49853944784375415	-0.10191295953927398
-0.49847841268750415	-0.08638818900053856
-0.49841737753125415	-0.07073486327799444
-0.49835634237500415	-0.0549778370753555
-0.49829530721875415	-0.03914359831459302
-0.49823427206250415	-0.023256229527440834
-0.49817323690625415	-0.0073409701936343365
-0.49811220175000415	0.008575516358525126
-0.49805116659375415	0.024468765575977203
-0.49799013143750415	0.04031371120784862
-0.49792909628125415	0.05608382494421677
-0.49786806112500415	0.07175461589929011
-0.49780702596875415	0.08730147131684744
-0.49774599081250415	0.10269851279587372
-0.49768495565625415	0.11792166596577658
-0.49762392050000415	0.1329467880713992
-0.49756288534375415	0.14774926196234522
-0.49750185018750415	0.16230582331145146
-0.49744081503125415	0.17659306712635517
-0.49737977987500415	0.19058794916788896
-0.49731874471875415	0.20426830924327405
-0.49725770956250415	0.217612113519912
-0.49719667440625415	0.23059794730625144
-0.49713563925000415	0.2432050592928493
-0.49707460409375415	0.2554132656056507
-0.49701356893750415	0.26720304999262173
-0.49695253378125415	0.2785553782355514
-0.49689149862500415	0.2894520819885364
-0.49683046346875415	0.2998759634036882
-0.49676942831250415	0.30980998680135863
-0.49670839315625415	0.3192382439900455
-0.49664735800000415	0.3281460116853576
-0.49658632284375415	0.33651861980329806
-0.49652528768750415	0.3443426710905703
-0.49646425253125415	0.3516059495917783
-0.49640321737500415	0.3582965912105746
-0.49634218221875415	0.3644038135006951
-0.49628114706250415	0.36991802039020083
-0.49622011190625415	0.3748304006669372
-0.49615907675000415	0.3791329893915808
-0.49609804159375415	0.3828189138112608
-0.49603700643750415	0.3858824346326364
-0.49597597128125415	0.38831865585871606
-0.49591493612500415	0.39012357190980734
-0.49585390096875415	0.39129449984072795
-0.49579286581250415	0.3918296338190275
-0.49573183065625415	0.3917280503192815
-0.49567079550000415	0.39099011197976136
-0.49560976034375415	0.38961707000112356
-0.49554872518750415	0.387611173934389
-0.49548769003125415	0.38497576385944704
-0.49542665487500415	0.38171522106050365
-0.49536561971875415	0.37783486401923055
-0.49530458456250415	0.37334098520557385
-0.49524354940625415	0.36824106639550425
-0.49518251425000415	0.36254335823607997
-0.49512147909375415	0.3562571038309045
-0.49506044393750415	0.34939270485961027
-0.49499940878125415	0.3419612459234961
-0.49493837362500415	0.33397484282273365
-0.49487733846875415	0.32544658561849976
-0.49481630331250415	0.31639028558857746
-0.49475526815625415	0.306820794707907
-0.49469423300000415	0.2967535706446102
-0.49463319784375415	0.28620512335765597
-0.49457216268750415	0.2751927324658775
-0.49451112753125415	0.2637339437598974
-0.49445009237500415	0.2518479324033566
-0.49438905721875415	0.23955389751873668
-0.49432802206250415	0.22687143749812907
-0.49426698690625415	0.21382204266513954
-0.49420595175000415	0.2004263629883618
-0.49414491659375415	0.1867061922236577
-0.49408388143750415	0.17268465655712598
-0.49402284628125415	0.15838360820964031
-0.49396181112500415	0.1438269708889645
-0.49390077596875415	0.12903879288586942
-0.49383974081250415	0.11404215386553594
-0.49377870565625415	0.09886263344445471
-0.49371767050000415	0.08352469145573946
-0.49365663534375415	0.06805261639462643
-0.49359560018750415	0.052472989693437166
-0.49353456503125415	0.03681042771351294
-0.49347352987500415	0.02109029137625946
-0.49341249471875415	0.0053393282560171874
-0.49335145956250415	-0.010417752977956484
-0.49329042440625415	-0.0261547307012419
-0.49322938925000415	-0.04184557913234322
-0.49316835409375415	-0.05746533510232707
-0.49310731893750415	-0.07298763675584162
-0.49304628378125415	-0.08838752758086138
-0.49298524862500415	-0.10363974599813978
-0.49292421346875415	-0.11871893366877949
-0.49286317831250415	-0.13360093732601575
-0.49280214315625415	-0.14826063552555516
-0.49274110800000415	-0.16267444055003039
-0.49268007284375415	-0.17681889564525535
-0.49261903768750415	-0.19066974815666057
-0.49255800253125415	-0.20420525088626162
-0.49249696737500415	-0.21740300974807145
-0.49243593221875415	-0.23024037043436138
-0.49237489706250415	-0.2426972562487991
-0.49231386190625415	-0.2547528113410937
-0.49225282675000415	-0.26638661632420135
-0.49219179159375415	-0.2775801453009261
-0.49213075643750415	-0.2883145430543434
-0.49206972128125415	-0.2985720574349419
-0.49200868612500415	-0.30833579567703245
-0.49194765096875415	-0.3175893219808404
-0.49188661581250415	-0.32631762776025863
-0.49182558065625415	-0.33450592185440187
-0.49176454550000415	-0.3421404639084383
-0.49170351034375415	-0.34920882342054194
-0.49164247518750415	-0.3556989061547197
-0.49158144003125415	-0.361599861752189
-0.49152040487500415	-0.3669018036222055
-0.49145936971875415	-0.3715956638769164
-0.49139833456250415	-0.3756735832147489
-0.49133729940625415	-0.37912846873124856
-0.49127626425000415	-0.3819543339582129
-0.49121522909375415	-0.3841463623594938
-0.49115419393750415	-0.3857005263259133
-0.49109315878125415	-0.38661391537978856
-0.49103212362500415	-0.38688482421207276
-0.49097108846875415	-0.3865123776785533
-0.49091005331250415	-0.3854968039547557
-0.49084901815625415	-0.3838395254397116
-0.49078798300000415	-0.38154280576966637
-0.49072694784375415	-0.37861006145956594
-0.49066591268750415	-0.37504580201692694
-0.49060487753125415	-0.3708554202901261
-0.49054384237500415	-0.36604543555439445
-0.49048280721875415	-0.36062341941777726
-0.49042177206250415	-0.35459783627793745
-0.49036073690625415	-0.3479781529995333
-0.49029970175000415	-0.3407749549119796
-0.49023866659375415	-0.332999651532011
-0.49017763143750415	-0.3246644835483716
-0.49011659628125415	-0.31578295325048417
-0.49005556112500415	-0.3063692343875951
-0.48999452596875415	-0.29643811083527877
-0.48993349081250415	-0.2860059272395682
-0.48987245565625415	-0.2750892976953437
-0.48981142050000415	-0.2637054377658933
-0.48975038534375415	-0.2518731969956581
-0.48968935018750415	-0.23961139025350658
-0.48962831503125415	-0.22693971797977863
-0.48956727987500415	-0.2138787315081568
-0.48950624471875415	-0.20044953246353664
-0.48944520956250415	-0.18667406081752452
-0.48938417440625415	-0.1725740299007905
-0.48932313925000415	-0.1581728080403852
-0.48926210409375415	-0.14349381558713942
-0.48920106893750415	-0.12856013989422815
-0.48914003378125415	-0.11339685897812946
-0.48907899862500415	-0.09802826029630358
-0.48901796346875415	-0.08247896019580823
-0.48895692831250415	-0.06677494085510764
-0.48889589315625415	-0.05094133813420262
-0.48883485800000415	-0.03500380833089855
-0.48877382284375415	-0.01898866722706492
-0.48871278768750415	-0.0029218843712515872
-0.48865175253125415	0.013170427012193033
-0.48859071737500415	0.029261982661917218
-0.48852968221875415	0.04532641438046074
-0.48846864706250415	0.06133736535841719
-0.48840761190625415	0.07726903877179288
-0.48834657675000415	0.09309519127786167
-0.48828554159375415	0.10878948423605227
-0.48822450643750415	0.12432695950642443
-0.48816347128125415	0.13968183128788875
-0.48810243612500415	0.15482849679087035
-0.48804140096875415	0.16974283572814228
-0.48798036581250415	0.18439993403760227
-0.48791933065625415	0.19877560923611604
-0.48785829550000415	0.2128465917032057
-0.48779726034375415	0.22658934956520022
-0.48773622518750415	0.2399814875674533
-0.48767519003125415	0.2530009429157327
-0.48761415487500415	0.26562585346851914
-0.48755311971875415	0.2778359449212387
-0.48749208456250415	0.28961072039665225
-0.48743104940625415	0.3009303741214041
-0.48737001425000415	0.3117769121875971
-0.48730897909375415	0.32213176157791873
-0.48724794393750415	0.33197763172607697
-0.48718690878125415	0.3412987029331689
-0.48712587362500415	0.3500789977761747
-0.48706483846875415	0.3583038254045406
-0.48700380331250415	0.36595968048760236
-0.48694276815625415	0.37303363105017795
-0.48688173300000415	0.37951358957091286
-0.48682069784375415	0.3853888097696627
-0.48675966268750415	0.39064936105914966
-0.48669862753125415	0.39528603131537104
-0.48663759237500415	0.39929111866208766
-0.48657655721875415	0.40265763422806705
-0.48651552206250415	0.4053795380710893
-0.48645448690625415	0.4074522087931926
-0.48639345175000415	0.4088717343369619
-0.48633241659375415	0.4096353801095063
-0.48627138143750415	0.4097415866541298
-0.48621034628125415	0.40918967377647225
-0.48614931112500415	0.4079801932031877
-0.48608827596875415	0.40611469907711967
-0.48602724081250415	0.40359579719949434
-0.48596620565625415	0.400427231644084
-0.48590517050000415	0.3966137414391191
-0.48584413534375415	0.39216115148910563
-0.48578310018750415	0.38707630785227193
-0.48572206503125415	0.3813671668030956
-0.48566102987500415	0.3750425930278163
-0.48559999471875415	0.368112488924187
-0.48553895956250415	0.36058791854478145
-0.48547792440625415	0.35248060739580334
-0.48541688925000415	0.34380351202094556
-0.48535585409375415	0.3345704494053914
-0.48529481893750415	0.324795957238813
-0.48523378378125415	0.3144959106051584
-0.48517274862500415	0.3036865238255362
-0.48511171346875415	0.2923851096199936
-0.48505067831250415	0.28061004667160355
-0.48498964315625415	0.26837989474809626
-0.48492860800000415	0.25571444514198777
-0.48486757284375415	0.24263412950136648
-0.48480653768750415	0.22915988648180957
-0.48474550253125415	0.21531344377888673
-0.48468446737500415	0.20111715041541622
-0.48462343221875415	0.18659396063575098
-0.48456239706250415	0.17176710524937497
-0.48450136190625415	0.1566608280766401
-0.48444032675000415	0.14129945056812473
-0.48437929159375415	0.12570748467205653
-0.48431825643750415	0.1099107479619181
-0.48425722128125415	0.09393456678440748
-0.48419618612500415	0.07780441521778204
-0.48413515096875415	0.06154706361680433
-0.48407411581250415	0.04518871727639766
-0.48401308065625415	0.028755559181090982
-0.48395204550000415	0.012274564538153036
-0.48389101034375415	-0.004227474033986621
-0.48382997518750415	-0.020723774702348038
-0.48376894003125415	-0.037187862493931106
-0.48370790487500415	-0.05359259907228431
-0.48364686971875415	-0.06991109947660093
-0.48358583456250415	-0.08611767828173547
-0.48352479940625415	-0.10218518395322214
-0.48346376425000415	-0.11808742269814586
-0.48340272909375415	-0.1337993006838322
-0.48334169393750415	-0.1492944312393532
-0.48328065878125415	-0.16454769373419098
-0.48321962362500415	-0.1795347301503335
-0.48315858846875415	-0.1942306464447225
-0.48309755331250415	-0.208611335478697
-0.48303651815625415	-0.22265393668946834
-0.48297548300000415	-0.23633520832079902
-0.48291444784375415	-0.24963246040628762
-0.48285341268750415	-0.26252475044142687
-0.48279237753125415	-0.2749904775195103
-0.48273134237500415	-0.28700933423190433
-0.48267030721875415	-0.2985620630124538
-0.48260927206250415	-0.30962918679080126
-0.48254823690625415	-0.32019323498952373
-0.48248720175000415	-0.3302366851445638
-0.48242616659375415	-0.339742746316734
-0.48236513143750415	-0.3486966504331858
-0.48230409628125415	-0.3570832838138985
-0.48224306112500415	-0.36488867174702544
-0.48218202596875415	-0.3721007469872135
-0.48212099081250415	-0.37870728559822636
-0.48205995565625415	-0.3846972872176165
-0.48199892050000415	-0.39006151723244875
-0.48193788534375415	-0.3947908140201865
-0.48187685018750415	-0.39887739257540983
-0.48181581503125415	-0.40231490658202756
-0.48175477987500415	-0.40509749246899474
-0.48169374471875415	-0.40722060077106587
-0.48163270956250415	-0.4086809341470586
-0.48157167440625415	-0.4094760153534398
-0.48151063925000415	-0.4096045419305044
-0.48144960409375415	-0.40906643170631296
-0.48138856893750415	-0.4078625105838334
-0.48132753378125415	-0.40599481661077047
-0.48126649862500415	-0.40346648451366496
-0.48120546346875415	-0.4002816317976371
-0.48114442831250415	-0.3964455820566715
-0.48108339315625415	-0.3919646733165042
-0.48102235800000415	-0.38684629100201406
-0.48096132284375415	-0.38109885742695615
-0.48090028768750415	-0.37473194881910443
-0.48083925253125415	-0.36775608344328853
-0.48077821737500415	-0.36018257021730854
-0.48071718221875415	-0.3520241932602003
-0.48065614706250415	-0.3432944295306073
-0.48059511190625415	-0.3340072726366589
-0.48053407675000415	-0.3241785827348649
-0.48047304159375415	-0.3138244995835728
-0.48041200643750415	-0.3029616190776971
-0.48035097128125415	-0.29160864304431366
-0.48028993612500415	-0.2797839434747554
-0.48022890096875415	-0.2675067751558248
-0.48016786581250415	-0.2547981410580943
-0.48010683065625415	-0.24167850225600915
-0.48004579550000415	-0.22816962607129665
-0.47998476034375415	-0.2142940994085261
-0.47992372518750415	-0.20007463623240684
-0.47986269003125415	-0.18553487403814356
-0.47980165487500415	-0.1706988070562869
-0.47974061971875415	-0.15559111248486737
-0.47967958456250415	-0.1402366459249327
-0.47961854940625415	-0.12466087435240648
-0.47955751425000415	-0.10888976705785004
-0.47949647909375415	-0.09294920581383173
-0.47943544393750415	-0.07686558586261028
-0.47937440878125415	-0.06066592759893926
-0.47931337362500415	-0.04437677918141042
-0.47925233846875415	-0.028024862775935626
-0.47919130331250415	-0.011638093355906086
-0.47913026815625415	0.004756898225209293
-0.47906923300000415	0.021133241460443035
-0.47900819784375415	0.03746283845092555
-0.47894716268750415	0.05371913577042488
-0.47888612753125415	0.06987550173905872
-0.47882509237500415	0.08590431506037545
-0.47876405721875415	0.10177921502297883
-0.47870302206250415	0.11747442142733551
-0.47864198690625415	0.13296302375733227
-0.47858095175000415	0.1482194041754635
-0.47851991659375415	0.16321891777050035
-0.47845888143750415	0.17793575020594235
-0.47839784628125415	0.19234555165573125
-0.47833681112500415	0.2064250085813556
-0.47827577596875415	0.22014989542757055
-0.47821474081250415	0.23349739780930553
-0.47815370565625415	0.24644609008064255
-0.47809267050000415	0.25897346007300426
-0.47803163534375415	0.2710586494963173
-0.47797060018750415	0.2826824859109618
-0.47790956503125415	0.29382447852188903
-0.47784852987500415	0.30446617078059596
-0.47778749471875415	0.31459054428901934
-0.47772645956250415	0.32417988757833566
-0.47766542440625415	0.33321824776158104
-0.47760438925000415	0.341690928244552
-0.47754335409375415	0.3495833701019436
-0.47748231893750415	0.35688226854451294
-0.47742128378125415	0.3635756941717878
-0.47736024862500415	0.36965220174417895
-0.47729921346875415	0.37510143890844416
-0.47723817831250415	0.3799144504168028
-0.47717714315625415	0.3840830708629747
-0.47711610800000415	0.3876000562956631
-0.47705507284375415	0.3904595376120646
-0.47699403768750415	0.39265676176545283
-0.47693300253125415	0.3941877000931136
-0.47687196737500415	0.3950497694772161
-0.47681093221875415	0.3952415175423281
-0.47674989706250415	0.39476230914924987
-0.47668886190625415	0.39361292324937697
-0.47662782675000415	0.391795136333725
-0.47656679159375415	0.38931178939037137
-0.47650575643750415	0.38616698685228096
-0.47644472128125415	0.38236573172641264
-0.47638368612500415	0.37791428460054727
-0.47632265096875415	0.37282003677056436
-0.47626161581250415	0.367091141891374
-0.47620058065625415	0.3607371637672867
-0.47613954550000415	0.35376869876766887
-0.47607851034375415	0.346197020108743
-0.47601747518750415	0.3380346589482065
-0.47595644003125415	0.32929535957592276
-0.47589540487500415	0.3199935080390446
-0.47583436971875415	0.3101441919925174
-0.47577333456250415	0.29976417085260626
-0.47571229940625415	0.28887067960469126
-0.47565126425000415	0.27748139948691014
-0.47559022909375415	0.26561561736416955
-0.47552919393750415	0.2532930278810708
-0.47546815878125415	0.24053401263004545
-0.47540712362500415	0.2273599098076269
-0.47534608846875415	0.21379261370070232
-0.47528505331250415	0.19985472048350972
-0.47522401815625415	0.18556957595065088
-0.47516298300000415	0.17096095236476144
-0.47510194784375415	0.15605306332288288
-0.47504091268750415	0.1408710834554867
-0.47497987753125415	0.1254402495886791
-0.47491884237500415	0.10978626077922175
-0.47485780721875415	0.0939354278381579
-0.47479677206250415	0.07791412509051936
-0.47473573690625415	0.0617493661624738
-0.47467470175000415	0.04546808236223922
-0.47461366659375415	0.029097403520790176
-0.47455263143750415	0.012665007055251873
-0.47449159628125415	-0.0038015148655491946
-0.47443056112500415	-0.0202748411958742
-0.47436952596875415	-0.03672725419869146
-0.47430849081250415	-0.05313071161268746
-0.47424745565625415	-0.06945821347651973
-0.47418642050000415	-0.08568217419737366
-0.47412538534375415	-0.10177490451744046
-0.47406435018750415	-0.11770991949533416
-0.47400331503125415	-0.13346003933729184
-0.47394227987500415	-0.14899869009433345
-0.47388124471875415	-0.16430000681368515
-0.47382020956250415	-0.17933779334825445
-0.47375917440625415	-0.19408682240851555
-0.47369813925000415	-0.20852239673509684
-0.47363710409375415	-0.22261978141440367
-0.47357606893750415	-0.23635511989571337
-0.47351503378125415	-0.24970556737130545
-0.47345399862500415	-0.2626481626163662
-0.47339296346875415	-0.2751607935097578
-0.47333192831250415	-0.28722265430848487
-0.47327089315625415	-0.2988129948924094
-0.47320985800000415	-0.30991201534115104
-0.47314882284375415	-0.32050091738547587
-0.47308778768750415	-0.33056159741656743
-0.47302675253125415	-0.3400769169670777
-0.47296571737500415	-0.3490304021347416
-0.47290468221875415	-0.357406804935998
-0.47284364706250415	-0.3651918204803471
-0.47278261190625415	-0.3723717406692621
-0.47272157675000415	-0.37893433535079324
-0.47266054159375415	-0.38486825375584705
-0.47259950643750415	-0.39016291148812127
-0.47253847128125415	-0.3948092181855454
-0.47247743612500415	-0.39879889674471103
-0.47241640096875415	-0.4021247809443658
-0.47235536581250415	-0.40478093557677003
-0.47229433065625415	-0.4067623922875895
-0.47223329550000415	-0.40806541526767365
-0.47217226034375415	-0.4086873639934492
-0.47211122518750415	-0.4086267450603751
-0.47205019003125415	-0.407883145376416
-0.47198915487500415	-0.4064574046937446
-0.47192811971875415	-0.4043514525816253
-0.47186708456250415	-0.4015682562374993
-0.47180604940625415	-0.3981121251988416
-0.47174501425000415	-0.3939883445916929
-0.47168397909375415	-0.3892032839432873
-0.47162294393750415	-0.3837646124573052
-0.47156190878125415	-0.37768093045823453
-0.47150087362500415	-0.3709619237517027
-0.47143983846875415	-0.3636184658541149
-0.47137880331250415	-0.3556623807922253
-0.47131776815625415	-0.34710657965122155
-0.47125673300000415	-0.3379648696344558
-0.47119569784375415	-0.3282522064640953
-0.47113466268750415	-0.3179845358593022
-0.47107362753125415	-0.30717836073433163
-0.47101259237500415	-0.2958516117940191
-0.47095155721875415	-0.2840228978040679
-0.47089052206250415	-0.27171133673002595
-0.47082948690625415	-0.2589375075875334
-0.47076845175000415	-0.24572234613772606
-0.47070741659375415	-0.23208743394754708
-0.47064638143750415	-0.21805547230101133
-0.47058534628125415	-0.2036496401108442
-0.47052431112500415	-0.18889367809073096
-0.47046327596875415	-0.17381181317052466
