Time	Frequency
-0.500035796375002	2.4489246113495377e-24
-0.49997476121875195	2.5251748406735606e-24
-0.49991372606250195	2.5965794861700546e-24
-0.49985269090625195	2.6629964852967153e-24
-0.49979165575000195	2.7242946267472395e-24
-0.49973062059375195	2.780352711581323e-24
-0.49966958543750195	2.831059197405757e-24
-0.49960855028125195	2.876311401035577e-24
-0.49954751512500195	2.916018597638519e-24
-0.49948647996875195	2.9501010229853752e-24
-0.49942544481250195	2.9784884097882906e-24
-0.49936440965625195	3.0011217035162916e-24
-0.49930337450000195	3.0179532733446493e-24
-0.49924233934375195	3.028946682487184e-24
-0.49918130418750195	3.0340763001751075e-24
-0.49912026903125195	3.0333277467209638e-24
-0.49905923387500195	3.026698201718716e-24
-0.49899819871875195	3.01419614225773e-24
-0.49893716356250195	2.9958411941993032e-24
-0.49887612840625195	2.971664004042873e-24
-0.49881509325000195	2.9417070928218487e-24
-0.49875405809375195	2.9060237690201262e-24
-0.49869302293750195	2.8646775725307776e-24
-0.49863198778125195	2.817744673003914e-24
-0.49857095262500195	2.765310982313565e-24
-0.49850991746875195	2.7074721560857557e-24
-0.49844888231250195	2.6443362871526885e-24
-0.49838784715625195	2.5760204816364365e-24
-0.49832681200000195	2.5026519455055337e-24
-0.49826577684375195	2.4243676804618e-24
-0.49820474168750195	2.341314116589763e-24
-0.49814370653125195	2.2536484719463885e-24
-0.49808267137500195	2.161534182599068e-24
-0.49802163621875195	2.0651445385086472e-24
-0.49796060106250195	1.964663317928249e-24
-0.49789956590625195	1.860278490995962e-24
-0.49783853075000195	1.7521876941982565e-24
-0.49777749559375195	1.6405967739573132e-24
-0.49771646043750195	1.5257155562959856e-24
-0.49765542528125195	1.4077633181078148e-24
-0.49759439012500195	1.2869640617821191e-24
-0.49753335496875195	1.1635453393632335e-24
-0.49747231981250195	1.0377446286485741e-24
-0.49741128465625195	9.098007943994864e-25
-0.49735024950000195	7.799548181534417e-25
-0.49728921434375195	6.484579145535174e-25
-0.49722817918750195	5.15559856784502e-25
-0.49716714403125195	3.8151212683328284e-25
-0.49710610887500195	2.46573788628168e-25
-0.49704507371875195	1.1100099251515048e-25
-0.49698403856250195	-2.4946924894470336e-26
-0.49692300340625195	-1.610084904489745e-25
-0.49686196825000195	-2.969250886252738e-25
-0.49680093309375195	-4.324353063366038e-25
-0.49673989793750195	-5.672789721232937e-25
-0.49667886278125195	-7.011982939131666e-25
-0.49661782762500195	-8.339364766329697e-25
-0.49655679246875195	-9.652374983414845e-25
-0.49649575731250195	-1.094849388065354e-24
-0.49643472215625195	-1.2225247847246198e-24
-0.49637368700000195	-1.3480159433406168e-24
-0.49631265184375195	-1.471081084912459e-24
-0.49625161668750195	-1.5914857143163904e-24
-0.49619058153125195	-1.7089962077845478e-24
-0.49612954637500195	-1.823384898437121e-24
-0.49606851121875195	-1.9344333672369028e-24
-0.49600747606250195	-2.0419259924829588e-24
-0.49594644090625195	-2.1456544825095062e-24
-0.49588540575000195	-2.2454198892456448e-24
-0.49582437059375195	-2.3410275240311915e-24
-0.49576333543750195	-2.4322929164810667e-24
-0.49570230028125195	-2.5190395750025974e-24
-0.49564126512500195	-2.601097623211051e-24
-0.49558022996875195	-2.6783093746767633e-24
-0.49551919481250195	-2.7505238262268693e-24
-0.49545815965625195	-2.817599234566239e-24
-0.49539712450000195	-2.8794067560069813e-24
-0.49533608934375195	-2.9358242768063053e-24
-0.49527505418750195	-2.9867407493493883e-24
-0.49521401903125195	-3.0320574895265132e-24
-0.49515298387500195	-3.071684133869375e-24
-0.49509194871875195	-3.1055424182223148e-24
-0.49503091356250195	-3.1335654846346623e-24
-0.49496987840625195	-3.1556961749067656e-24
-0.49490884325000195	-3.1718900104129378e-24
-0.49484780809375195	-3.1821138686706596e-24
-0.49478677293750195	-3.186344878500586e-24
-0.49472573778125195	-3.1845726809671156e-24
-0.49466470262500195	-3.1767985028773422e-24
-0.49460366746875195	-3.1630345209796622e-24
-0.49454263231250195	-3.143304705488672e-24
-0.49448159715625195	-3.1176446092218144e-24
-0.49442056200000195	-3.0861011685876825e-24
-0.49435952684375195	-3.04873223993309e-24
-0.49429849168750195	-3.0056076133645814e-24
-0.49423745653125195	-2.9568078248285145e-24
-0.49417642137500195	-2.902423724084972e-24
-0.49411538621875195	-2.8425581675857664e-24
-0.49405435106250195	-2.7773239140828655e-24
-0.49399331590625195	-2.7068436889880084e-24
-0.49393228075000195	-2.6312511759799344e-24
-0.49387124559375195	-2.5506893858133455e-24
-0.49381021043750195	-2.4653111312956158e-24
-0.49374917528125195	-2.375278974532003e-24
-0.49368814012500195	-2.28076319993498e-24
-0.49362710496875195	-2.181943958596734e-24
-0.49356606981250195	-2.0790100091142604e-24
-0.49350503465625195	-1.9721568977804546e-24
-0.49344399950000195	-1.8615884496246952e-24
-0.49338296434375195	-1.747515186147228e-24
-0.49332192918750195	-1.6301559580402406e-24
-0.49326089403125195	-1.50973500158525e-24
-0.49319985887500195	-1.386480724413577e-24
-0.49313882371875195	-1.2606297789151616e-24
-0.49307778856250195	-1.1324244784178327e-24
-0.49301675340625195	-1.0021088495135648e-24
-0.49295571825000195	-8.699300986887987e-25
-0.49289468309375195	-7.36145454337586e-25
-0.49283364793750195	-6.010111738557198e-25
-0.49277261278125195	-4.647806148992404e-25
-0.49271157762500195	-3.277210407398775e-25
-0.49265054246875195	-1.900953395155895e-25
-0.49258950731250195	-5.216150482558959e-26
-0.49252847215625195	8.580989119326429e-26
-0.49246743700000195	2.2355439963303446e-25
-0.49240640184375195	3.608120058971846e-25
-0.49234536668750195	4.97314749534788e-25
-0.49228433153125195	6.328005558168047e-25
-0.49222329637500195	7.6701259374992995e-25
-0.49216226121875195	8.99689663919624e-25
-0.49210122606250195	1.0305771989322397e-24
-0.49204019090625195	1.1594255203811129e-24
-0.49197915575000195	1.2859841595331358e-24
-0.49191812059375195	1.4100117418795706e-24
-0.49185708543750195	1.5312698204897397e-24
-0.49179605028125195	1.6495225962126693e-24
-0.49173501512500195	1.7645455588566085e-24
-0.49167397996875195	1.8761168747912827e-24
-0.49161294481250195	1.9840196321343e-24
-0.49155190965625195	2.088048598319482e-24
-0.49149087450000195	2.1880032462865363e-24
-0.49142983934375195	2.2836902157964846e-24
-0.49136880418750195	2.3749261056176382e-24
-0.49130776903125195	2.461535476761483e-24
-0.49124673387500195	2.5433514538626818e-24
-0.49118569871875195	2.620216496747674e-24
-0.49112466356250195	2.691983564333024e-24
-0.49106362840625195	2.7585138899914654e-24
-0.49100259325000195	2.8196795191678117e-24
-0.49094155809375195	2.8753641878979795e-24
-0.49088052293750195	2.9254600345275674e-24
-0.49081948778125195	2.9698706284865593e-24
-0.49075845262500195	3.0085120270096598e-24
-0.49069741746875195	3.041310031208809e-24
-0.49063638231250195	3.0682014221243492e-24
-0.49057534715625195	3.089135640112386e-24
-0.49051431200000195	3.104073390538154e-24
-0.49045327684375195	3.1129862782094814e-24
-0.49039224168750195	3.115857979732067e-24
-0.49033120653125195	3.112684525777072e-24
-0.49027017137500195	3.103472930528697e-24
-0.49020913621875195	3.0882417209614288e-24
-0.49014810106250195	3.067022319927563e-24
-0.49008706590625195	3.039856633050808e-24
-0.49002603075000195	3.0067981867257354e-24
-0.48996499559375195	2.9679132829785966e-24
-0.48990396043750195	2.923277707279927e-24
-0.48984292528125195	2.8729794831932264e-24
-0.48978189012500195	2.8171183314460328e-24
-0.48972085496875195	2.7558028885019452e-24
-0.48965981981250195	2.6891539823465552e-24
-0.48959878465625195	2.6173030488481034e-24
-0.48953774950000195	2.5403901669417465e-24
-0.48947671434375195	2.4585661674305644e-24
-0.48941567918750195	2.3719923151255193e-24
-0.48935464403125195	2.28083792681731e-24
-0.48929360887500195	2.185280873413231e-24
-0.48923257371875195	2.0855094425390185e-24
-0.48917153856250195	1.9817196428884017e-24
-0.48911050340625195	1.874113138532123e-24
-0.48904946825000195	1.76290156119328e-24
-0.48898843309375195	1.6483044618489243e-24
-0.48892739793750195	1.5305443583559713e-24
-0.48886636278125195	1.4098525029595478e-24
-0.48880532762500195	1.2864665056029167e-24
-0.48874429246875195	1.1606272565539652e-24
-0.48868325731250195	1.0325825349837908e-24
-0.48862222215625195	9.0258227697008e-25
-0.48856118700000195	7.708818013412149e-25
-0.48850015184375195	6.377405541516239e-25
-0.48843911668750195	5.034186208639912e-25
-0.48837808153125195	3.6818007735843972e-25
-0.48831704637500195	2.3228979808666e-25
-0.48825601121875195	9.601561467315635e-26
-0.48819497606250195	-4.0375047339229173e-26
-0.48813394090625195	-1.7661555405386512e-25
-0.48807290575000195	-3.1243635629688634e-25
-0.48801187059375195	-4.475715818421855e-25
-0.48795083543750195	-5.81755785919856e-25
-0.48788980028125195	-7.147241520456946e-25
-0.48782876512500195	-8.462161928298008e-25
-0.48776772996875195	-9.759716113343044e-25
-0.48770669481250195	-1.1037366304855224e-24
-0.48764565965625195	-1.2292599865652084e-24
-0.48758462450000195	-1.3522912738963298e-24
-0.48752358934375195	-1.4725913607889495e-24
-0.48746255418750195	-1.5899227855109461e-24
-0.48740151903125195	-1.704050921310663e-24
-0.48734048387500195	-1.8147543379961344e-24
-0.48727944871875195	-1.921813889146297e-24
-0.48721841356250195	-2.0250144295860462e-24
-0.48715737840625195	-2.124155942919385e-24
-0.48709634325000195	-2.21904226336701e-24
-0.48703530809375195	-2.3094820969014028e-24
-0.48697427293750195	-2.3952989756392065e-24
-0.48691323778125195	-2.4763233786600815e-24
-0.48685220262500195	-2.5523920360049127e-24
-0.48679116746875195	-2.6233545394233227e-24
-0.48673013231250195	-2.6890716579900932e-24
-0.48666909715625195	-2.749410270651379e-24
-0.48660806200000195	-2.804249424990681e-24
-0.48654702684375195	-2.8534821890496395e-24
-0.48648599168750195	-2.8970077398664695e-24
-0.48642495653125195	-2.934738016738289e-24
-0.48636392137500195	-2.9665988878120127e-24
-0.48630288621875195	-2.992524085139571e-24
-0.48624185106250195	-3.012460552769934e-24
-0.48618081590625195	-3.0263677712225805e-24
-0.48611978075000195	-3.0342154449261732e-24
-0.48605874559375195	-3.035986166243557e-24
-0.48599771043750195	-3.0316743967442525e-24
-0.48593667528125195	-3.0212861786295142e-24
-0.48587564012500195	-3.004839671465665e-24
-0.48581460496875195	-2.9823650044028842e-24
-0.48575356981250195	-2.9539043226922565e-24
-0.48569253465625195	-2.9195110287941805e-24
-0.48563149950000195	-2.8792505326087352e-24
-0.48557046434375195	-2.833200398850674e-24
-0.48550942918750195	-2.781448189215166e-24
-0.48544839403125195	-2.7240936842433402e-24
-0.48538735887500195	-2.6612487132513e-24
-0.48532632371875195	-2.5930331202120732e-24
-0.48526528856250195	-2.5195794581626414e-24
-0.48520425340625195	-2.4410321297776546e-24
-0.48514321825000195	-2.3575411141931418e-24
-0.48508218309375195	-2.26926930401096e-24
-0.48502114793750195	-2.1763909703421238e-24
-0.48496011278125195	-2.0790843517911607e-24
-0.48489907762500195	-1.9775394035963754e-24
-0.48483804246875195	-1.87195689285904e-24
-0.48477700731250195	-1.7625408734837543e-24
-0.48471597215625195	-1.6495046273946401e-24
-0.48465493700000195	-1.5330721054090768e-24
-0.48459390184375195	-1.4134694687956135e-24
-0.48453286668750195	-1.2909298906901648e-24
-0.48447183153125195	-1.1656964984133734e-24
-0.48441079637500195	-1.0380127941985558e-24
-0.48434976121875195	-9.081291142802373e-25
-0.48428872606250195	-7.76303069194078e-25
-0.48422769090625195	-6.427902330170988e-25
-0.48416665575000195	-5.078549078558031e-25
-0.48410562059375195	-3.7176428878194324e-25
-0.48404458543750195	-2.3478152608576615e-25
-0.48398355028125195	-9.717983262546514e-26
-0.48392251512500195	4.076805585158601e-26
-0.48386147996875195	1.787958845355206e-25
-0.48380044481250195	3.1662736561692133e-25
-0.48373940965625195	4.539888441558557e-25
-0.48367837450000195	5.906145326568035e-25
-0.48361733934375195	7.262304319925823e-25
-0.48355630418750195	8.605680108529656e-25
-0.48349526903125195	9.933649658022857e-25
-0.48343423387500195	1.1243556470514763e-24
-0.48337319871875195	1.2532805563382246e-24
-0.48331216356250195	1.3798855468000455e-24
-0.48325112840625195	1.5039189635710464e-24
-0.48319009325000195	1.6251339401857598e-24
-0.48312905809375195	1.7432899228129676e-24
-0.48306802293750195	1.858152437748801e-24
-0.48300698778125195	1.9694921050729267e-24
-0.48294595262500195	2.077087792708777e-24
-0.48288491746875195	2.1807244582612072e-24
-0.48282388231250195	2.280194250029715e-24
-0.48276284715625195	2.3753005426783355e-24
-0.48270181200000195	2.4658513244237065e-24
-0.48264077684375195	2.5516640935404335e-24
-0.48257974168750195	2.63256887332256e-24
-0.48251870653125195	2.7084014714451385e-24
-0.48245767137500195	2.7790081849489667e-24
-0.48239663621875195	2.844247774515602e-24
-0.48233560106250195	2.90398752736715e-24
-0.48227456590625195	2.95810483736604e-24
-0.48221353075000195	3.006490173508978e-24
-0.48215249559375195	3.049044110977843e-24
-0.48209146043750195	3.0856780658531245e-24
-0.48203042528125195	3.1163161325950916e-24
-0.48196939012500195	3.1408932957935985e-24
-0.48190835496875195	3.1593571034642007e-24
-0.48184731981250195	3.171666710757273e-24
-0.48178628465625195	3.1777930050924177e-24
-0.48172524950000195	3.1777198647821845e-24
-0.48166421434375195	3.171442755675185e-24
-0.48160317918750195	3.1589692566884757e-24
-0.48154214403125195	3.140319486159633e-24
-0.48148110887500195	3.115525713882883e-24
-0.48142007371875195	3.0846318556182456e-24
-0.48135903856250195	3.0476941256660237e-24
-0.48129800340625195	3.0047811580072333e-24
-0.48123696825000195	2.955972413630269e-24
-0.48117593309375195	2.9013591435613604e-24
-0.48111489793750195	2.8410452973290114e-24
-0.48105386278125195	2.7751446767502497e-24
-0.48099282762500195	2.703781971284619e-24
-0.48093179246875195	2.6270943668581826e-24
-0.48087075731250195	2.545228242857518e-24
-0.48080972215625195	2.4583397611026995e-24
-0.48074868700000195	2.3665967680206653e-24
-0.48068765184375195	2.2701759616330883e-24
-0.48062661668750195	2.1692616730839032e-24
-0.48056558153125195	2.0640495957664005e-24
-0.48050454637500195	1.9547444878076836e-24
-0.48044351121875195	1.8415552639227845e-24
-0.48038247606250195	1.724701358417487e-24
-0.48032144090625195	1.604412171304004e-24
-0.48026040575000195	1.4809184550216414e-24
-0.48019937059375195	1.3544593475178458e-24
-0.48013833543750195	1.2252834153713067e-24
-0.48007730028125195	1.0936407310756707e-24
-0.48001626512500195	9.597859917413315e-25
-0.47995522996875195	8.2398165611558435e-25
-0.47989419481250195	6.8649251793201065e-25
-0.47983315965625195	5.475851646621849e-25
-0.47977212450000195	4.0753230777148936e-25
-0.47971108934375195	2.6660630073915397e-25
-0.47965005418750195	1.2508197857017259e-25
-0.47958901903125195	-1.676149217216764e-26
-0.47952798387500195	-1.586498548738225e-25
-0.47946694871875195	-3.0030534500050327e-25
-0.47940591356250195	-4.414466985233626e-25
-0.47934487840625195	-5.818021653828469e-25
-0.47928384325000195	-7.210967259383046e-25
-0.47922280809375195	-8.590527711552951e-25
-0.47916177293750195	-9.954038110911714e-25
-0.47910073778125195	-1.1298827817021208e-24
-0.47903970262500195	-1.2622232124019676e-24
-0.47897866746875195	-1.3921661110787195e-24
-0.47891763231250195	-1.5194574946210608e-24
-0.47885659715625195	-1.643846574299723e-24
-0.47879556200000195	-1.7650878856578963e-24
-0.47873452684375195	-1.8829447448964546e-24
-0.47867349168750195	-1.997184158634378e-24
-0.47861245653125195	-2.1075810164235654e-24
-0.47855142137500195	-2.2139197503060073e-24
-0.47849038621875195	-2.315989134511114e-24
-0.47842935106250195	-2.413587987858674e-24
-0.47836831590625195	-2.5065256369093554e-24
-0.47830728075000195	-2.5946175809851097e-24
-0.47824624559375195	-2.6776892810018877e-24
-0.47818521043750195	-2.7555781250592063e-24
-0.47812417528125195	-2.8281300276416506e-24
-0.47806314012500195	-2.8952006030113537e-24
-0.47800210496875195	-2.9566578834535817e-24
-0.47794106981250195	-3.0123806128137226e-24
-0.47788003465625195	-3.0622575490291506e-24
-0.47781899950000195	-3.1061900130035122e-24
-0.47775796434375195	-3.144091327291739e-24
-0.47769692918750195	-3.1758852965810454e-24
-0.47763589403125195	-3.201508999945525e-24
-0.47757485887500195	-3.2209114085370436e-24
-0.47751382371875195	-3.234052881325406e-24
-0.47745278856250195	-3.2409073779291655e-24
-0.47739175340625195	-3.2414605608963984e-24
-0.47733071825000195	-3.2357102732440908e-24
-0.47726968309375195	-3.223667378537678e-24
-0.47720864793750195	-3.205355019103432e-24
-0.47714761278125195	-3.180808422257895e-24
-0.47708657762500195	-3.150075091494318e-24
-0.47702554246875195	-3.1132155688277927e-24
-0.47696450731250195	-3.0703017034183596e-24
-0.47690347215625195	-3.0214167199930774e-24
-0.47684243700000195	-2.966657834173941e-24
-0.47678140184375195	-2.906132206501648e-24
-0.47672036668750195	-2.839957280448836e-24
-0.47665933153125195	-2.7682649483014944e-24
-0.47659829637500195	-2.6911963009762132e-24
-0.47653726121875195	-2.6089014045438487e-24
-0.47647622606250195	-2.5215432026087663e-24
-0.47641519090625195	-2.4292948897452007e-24
-0.47635415575000195	-2.3323370695101975e-24
-0.47629312059375195	-2.2308603918911246e-24
-0.47623208543750195	-2.1250669537094327e-24
-0.47617105028125195	-2.015164636675246e-24
-0.47611001512500195	-1.901369430263089e-24
-0.47604897996875195	-1.783907502030623e-24
-0.47598794481250195	-1.6630107567515886e-24
-0.47592690965625195	-1.5389172156004598e-24
-0.47586587450000195	-1.4118725945192853e-24
-0.47580483934375195	-1.2821293978785676e-24
-0.47574380418750195	-1.1499415114024369e-24
-0.47568276903125195	-1.015572367815322e-24
-0.47562173387500195	-8.79289593852823e-25
-0.47556069871875195	-7.413578685495584e-25
-0.47549966356250195	-6.02054751789438e-25
-0.47543862840625195	-4.616558861231061e-25
-0.47537759325000195	-3.2043591300867393e-25
-0.47531655809375195	-1.7867874824973515e-25
-0.47525552293750195	-3.6662857721780586e-26
-0.47519448778125195	1.0532987126809851e-25
-0.47513345262500195	2.4701625577862687e-25
-0.47507241746875195	3.8811816484033005e-25
-0.47501138231250195	5.283535694771115e-25
-0.47495034715625195	6.674437791601385e-25
-0.47488931200000195	8.05115061733115e-25
-0.47482827684375195	9.410927288803532e-25
-0.47476724168750195	1.0751056461644533e-24
-0.47470620653125195	1.206889676120784e-24
-0.47464517137500195	1.3361833471152438e-24
-0.47458413621875195	1.462726942435118e-24
-0.47452310106250195	1.5862707511331729e-24
-0.47446206590625195	1.706571282096582e-24
-0.47440103075000195	1.8233853255837027e-24
-0.47433999559375195	1.9364825670387423e-24
-0.47427896043750195	2.045639783749952e-24
-0.47421792528125195	2.1506359540635218e-24
-0.47415689012500195	2.2512654234404772e-24
-0.47409585496875195	2.3473274685381026e-24
-0.47403481981250195	2.4386281573454034e-24
-0.47397378465625195	2.5249889674782792e-24
-0.47391274950000195	2.6062372100965064e-24
-0.47385171434375195	2.6822093105116815e-24
-0.47379067918750195	2.7527548708292833e-24
-0.47372964403125195	2.8177344530197793e-24
-0.47366860887500195	2.877017219236465e-24
-0.47360757371875195	2.930484469668199e-24
-0.47354653856250195	2.9780311103724314e-24
-0.47348550340625195	3.0195612666641702e-24
-0.47342446825000195	3.0549921468046304e-24
-0.47336343309375195	3.0842533724056055e-24
-0.47330239793750195	3.1072859392250196e-24
-0.47324136278125195	3.1240443865255307e-24
-0.47318032762500195	3.1344949750588604e-24
-0.47311929246875195	3.1386165654564635e-24
-0.47305825731250195	3.136401123573985e-24
-0.47299722215625195	3.1278529779179735e-24
-0.47293618700000195	3.1129890696189433e-24
-0.47287515184375195	3.091838979320707e-24
-0.47281411668750195	3.0644448717652106e-24
-0.47275308153125195	3.03086183375359e-24
-0.47269204637500195	2.9911564506837763e-24
-0.47263101121875195	2.9454079485771194e-24
-0.47256997606250195	2.8937086130461604e-24
-0.47250894090625195	2.8361609118090168e-24
-0.47244790575000195	2.772880210820358e-24
-0.47238687059375195	2.703993453084235e-24
