Time	Frequency
-0.5000493362187513	-0.21244890524108748
-0.49998830106250125	-0.230696302030155
-0.49992726590625125	-0.24839605550096477
-0.49986623075000125	-0.26550812024930254
-0.49980519559375125	-0.28199374119057213
-0.49974416043750125	-0.29781559310577777
-0.49968312528125125	-0.31293779852201703
-0.49962209012500125	-0.32732606693470784
-0.49956105496875125	-0.3409478665140873
-0.49950001981250125	-0.35377223760485793
-0.49943898465625125	-0.3657700683711356
-0.49937794950000125	-0.37691423620297587
-0.49931691434375125	-0.38717938040718464
-0.49925587918750125	-0.3965421666175769
-0.49919484403125125	-0.4049814373189749
-0.49913380887500125	-0.4124779111749324
-0.49907277371875125	-0.4190145714027297
-0.49901173856250125	-0.4245766171524711
-0.49895070340625125	-0.42915125574035895
-0.49888966825000125	-0.43272816487175586
-0.49882863309375125	-0.43529918245748644
-0.49876759793750125	-0.4368583094302966
-0.49870656278125125	-0.43740206653235897
-0.49864552762500125	-0.4369291370160393
-0.49858449246875125	-0.4354405048733385
-0.49852345731250125	-0.43293953972083227
-0.49846242215625125	-0.42943184277369767
-0.49840138700000125	-0.4249253398940197
-0.49834035184375125	-0.4194301931963019
-0.49827931668750125	-0.41295886469939586
-0.49821828153125125	-0.40552603253777875
-0.49815724637500125	-0.39714842937307454
-0.49809621121875125	-0.3878451825310666
-0.49803517606250125	-0.3776374109289216
-0.49797414090625125	-0.3665480847106622
-0.49791310575000125	-0.3546026232831492
-0.49785207059375125	-0.34182812505662
-0.49779103543750125	-0.3282534435276114
-0.49773000028125125	-0.3139096339150227
-0.49766896512500125	-0.2988293483274282
-0.49760792996875125	-0.2830467497534654
-0.49754689481250125	-0.26659777384222016
-0.49748585965625125	-0.24952005544328132
-0.49742482450000125	-0.23185242273364706
-0.49736378934375125	-0.21363500853166367
-0.49730275418750125	-0.19490941829485123
-0.49724171903125125	-0.17571854788130828
-0.49718068387500125	-0.15610597691720615
-0.49711964871875125	-0.13611636582877276
-0.49705861356250125	-0.1157957497744459
-0.49699757840625125	-0.09519026693663042
-0.49693654325000125	-0.07434692680387593
-0.49687550809375125	-0.0533137122906219
-0.49681447293750125	-0.032138528315882535
-0.49675343778125125	-0.010869793449957331
-0.49669240262500125	0.010443677553240794
-0.49663136746875125	0.031752998022257804
-0.49657033231250125	0.05300943575219577
-0.49650929715625125	0.07416436233970429
-0.49644826200000125	0.09516888115283346
-0.49638722684375125	0.1159748934517768
-0.49632619168750125	0.1365348698346298
-0.49626515653125125	0.1568011296022827
-0.49620412137500125	0.17672719594895198
-0.49614308621875125	0.19626728616892636
-0.49608205106250125	0.21537606457344036
-0.49602101590625125	0.23400980813124547
-0.49595998075000125	0.25212530187998683
-0.49589894559375125	0.269680473619368
-0.49583791043750125	0.2866350650042481
-0.49577687528125125	0.3029495778324384
-0.49571584012500125	0.31858612981364165
-0.49565480496875125	0.33350845210112384
-0.49559376981250125	0.34768171820356597
-0.49553273465625125	0.3610730514691777
-0.49547169950000125	0.37365100228721065
-0.49541066434375125	0.3853859917402169
-0.49534962918750125	0.3962507340675445
-0.49528859403125125	0.40621943868686294
-0.49522755887500125	0.4152684454261683
-0.49516652371875125	0.4233764460794337
-0.49510548856250125	0.4305238692862691
-0.49504445340625125	0.4366935367699575
-0.49498341825000125	0.44187050853446314
-0.49492238309375125	0.44604195220858134
-0.49486134793750125	0.4491974098875347
-0.49480031278125125	0.4513286642428191
-0.49473927762500125	0.4524298876227801
-0.49467824246875125	0.4524975695704451
-0.49461720731250125	0.4515304819230694
-0.49455617215625125	0.44952982832992766
-0.49449513700000125	0.4464991317708078
-0.49443410184375125	0.44244423247537745
-0.49437306668750125	0.4373733632329661
-0.49431203153125125	0.43129700277087357
-0.49425099637500125	0.42422793604451087
-0.49418996121875125	0.4161812907007495
-0.49412892606250125	0.4071743053699498
-0.49406789090625125	0.3972264386805887
-0.49400685575000125	0.38635944285358953
-0.49394582059375125	0.3745969680767519
-0.49388478543750125	0.36196475447569276
-0.49382375028125125	0.3484907223212983
-0.49376271512500125	0.3342045403870588
-0.49370167996875125	0.3191376718601892
-0.49364064481250125	0.30332357233335916
-0.49357960965625125	0.28679744262360585
-0.49351857450000125	0.26959583403179377
-0.49345753934375125	0.2517570366023634
-0.49339650418750125	0.23332096929326526
-0.49333546903125125	0.21432868485815218
-0.49327443387500125	0.1948225493475489
-0.49321339871875125	0.17484625813192167
-0.49315236356250125	0.15444459692965606
-0.49309132840625125	0.13366315276842322
-0.49303029325000125	0.11254858927171787
-0.49296925809375125	0.09114842595979265
-0.49290822293750125	0.06951048388030236
-0.49284718778125125	0.04768355078927315
-0.49278615262500125	0.025716953559101117
-0.49272511746875125	0.003659728592350653
-0.49266408231250125	-0.018438248828178676
-0.49260304715625125	-0.0405269540956744
-0.49254201200000125	-0.0625568914752517
-0.49248097684375125	-0.08447808353059234
-0.49241994168750125	-0.10624113219396017
-0.49235890653125125	-0.1277969108707522
-0.49229787137500125	-0.14909646485380942
-0.49223683621875125	-0.1700918106790704
-0.49217580106250125	-0.19073526612822284
-0.49211476590625125	-0.2109801516050823
-0.49205373075000125	-0.2307805675439947
-0.49199269559375125	-0.25009149060627156
-0.49193166043750125	-0.2688692906357238
-0.49187062528125125	-0.28707112598325785
-0.49180959012500125	-0.3046556533482528
-0.49174855496875125	-0.321583069031433
-0.49168751981250125	-0.3378147156356505
-0.49162648465625125	-0.3533134624080053
-0.49156544950000125	-0.3680441728304496
-0.49150441434375125	-0.38197339401757424
-0.49144337918750125	-0.39506897297360455
-0.49138234403125125	-0.40730101148116704
-0.49132130887500125	-0.4186418177598524
-0.49126027371875125	-0.4290651678356338
-0.49119923856250125	-0.4385470308177582
-0.49113820340625125	-0.4470658549187742
-0.49107716825000125	-0.4546019076449384
-0.49101613309375125	-0.461137653493394
-0.49095509793750125	-0.46665807673608445
-0.49089406278125125	-0.47115030737156194
-0.49083302762500125	-0.47460372607172063
-0.49077199246875125	-0.477010171761104
-0.49071095731250125	-0.4783638604313974
-0.49064992215625125	-0.47866133043609227
-0.49058888700000125	-0.4779015120593374
-0.49052785184375125	-0.47608578949277824
-0.49046681668750125	-0.47321791150987436
-0.49040578153125125	-0.4693039708204142
-0.49034474637500125	-0.4643525174517313
-0.49028371121875125	-0.45837441087226516
-0.49022267606250125	-0.45138279391347635
-0.49016164090625125	-0.44339322975979206
-0.49010060575000125	-0.4344234947517019
-0.49003957059375125	-0.4244934706869107
-0.48997853543750125	-0.413625458322604
-0.48991750028125125	-0.40184381130702573
-0.48985646512500125	-0.3891747391500486
-0.48979542996875125	-0.37564681332911665
-0.48973439481250125	-0.3612904805408619
-0.48967335965625125	-0.34613778303461856
-0.48961232450000125	-0.3302229420317572
-0.48955128934375125	-0.31358191298516935
-0.48949025418750125	-0.29625192555190694
-0.48942921903125125	-0.27827214744516515
-0.48936818387500125	-0.25968322117580744
-0.48930714871875125	-0.24052698625062943
-0.48924611356250125	-0.22084671147335996
-0.48918507840625125	-0.2006867367269992
-0.48912404325000125	-0.18009279935203218
-0.48906300809375125	-0.15911142556255772
-0.48900197293750125	-0.1377897415330081
-0.48894093778125125	-0.11617624470593696
-0.48887990262500125	-0.09431997480858337
-0.48881886746875125	-0.07226992108030118
-0.48875783231250125	-0.05007618268133051
-0.48869679715625125	-0.027789337077945425
-0.48863576200000125	-0.005459314795358057
-0.48857472684375125	0.016863126248092514
-0.48851369168750125	0.0391271877349014
-0.48845265653125125	0.06128281899125415
-0.48839162137500125	0.08327964719839444
-0.48833058621875125	0.10506778786654059
-0.48826955106250125	0.12659795293196927
-0.48820851590625125	0.14782135288841936
-0.48814748075000125	0.16868991955571885
-0.48808644559375125	0.18915631093096058
-0.48802541043750125	0.2091741548657329
-0.48796437528125125	0.2286980633540458
-0.48790334012500125	0.24768396217103442
-0.48784230496875125	0.26608872324573096
-0.48778126981250125	0.2838705243596855
-0.48772023465625125	0.3009893400320935
-0.48765919950000125	0.3174063509887427
-0.48759816434375125	0.3330842421960007
-0.48753712918750125	0.34798767852256896
-0.48747609403125125	0.36208304750846615
-0.48741505887500125	0.37533828424937365
-0.48735402371875125	0.3877234626065688
-0.48729298856250125	0.3992108805297141
-0.48723195340625125	0.40977445683215186
-0.48717091825000125	0.4193902730636927
-0.48710988309375125	0.4280369985300806
-0.48704884793750125	0.4356951482793559
-0.48698781278125125	0.4423474272349364
-0.48692677762500125	0.44797919737744885
-0.48686574246875125	0.45257794556227926
-0.48680470731250125	0.4561334410094363
-0.48674367215625125	0.4586380553922704
-0.48668263700000125	0.4600864747877759
-0.48662160184375125	0.4604757350593297
-0.48656056668750125	0.4598054356465499
-0.48649953153125125	0.4580775256729325
-0.48643849637500125	0.45529639972798136
-0.48637746121875125	0.4514689235591922
-0.48631642606250125	0.4466042403185857
-0.48625539090625125	0.44071402727390796
-0.48619435575000125	0.4338122923051855
-0.48613332059375125	0.42591518134203776
-0.48607228543750125	0.4170414381949185
-0.48601125028125125	0.40721190428317383
-0.48595021512500125	0.3964494258578292
-0.48588917996875125	0.3847794261802722
-0.48582814481250125	0.37222913711439726
-0.48576710965625125	0.3588276645387856
-0.48570607450000125	0.3446065671570959
-0.48564503934375125	0.32959896108715864
-0.48558400418750125	0.31383958813381924
-0.48552296903125125	0.29736545820644633
-0.48546193387500125	0.2802148902457465
-0.48540089871875125	0.2624276362695163
-0.48533986356250125	0.2440453864506032
-0.48527882840625125	0.22511078965256331
-0.48521779325000125	0.20566776110341684
-0.48515675809375125	0.1857619517786634
-0.48509572293750125	0.16543946693998324
-0.48503468778125125	0.14474731910503838
-0.48497365262500125	0.12373425350112673
-0.48491261746875125	0.10244891685948977
-0.48485158231250125	0.08094048667584632
-0.48479054715625125	0.05925967320745106
-0.48472951200000125	0.03745675304878639
-0.48466847684375125	0.015582039801607807
-0.48460744168750125	-0.006313003614533547
-0.48454640653125125	-0.02817724089319293
-0.48448537137500125	-0.04996029228086211
-0.48442433621875125	-0.07161127398605241
-0.48436330106250125	-0.09307910108989814
-0.48430226590625125	-0.11431425327982576
-0.48424123075000125	-0.13526753031678834
-0.48418019559375125	-0.15588920788484095
-0.48411916043750125	-0.1761314794136064
-0.48405812528125125	-0.19594743771799644
-0.48399709012500125	-0.21529042821363958
-0.48393605496875125	-0.23411526056717114
-0.48387501981250125	-0.2523778919871531
-0.48381398465625125	-0.27003587572294696
-0.48375294950000125	-0.2870476023727204
-0.48369191434375125	-0.3033730797323199
-0.48363087918750125	-0.3189745967985906
-0.48356984403125125	-0.33381503985579225
-0.48350880887500125	-0.3478595053194759
-0.48344777371875125	-0.361075524184771
-0.48338673856250125	-0.373431557181494
-0.48332570340625125	-0.3848984001592423
-0.48326466825000125	-0.3954493718877776
-0.48320363309375125	-0.40505932924370186
-0.48314259793750125	-0.41370534503839534
-0.48308156278125125	-0.42136714353915317
-0.48302052762500125	-0.4280263803041448
-0.48295949246875125	-0.4336669599994196
-0.48289845731250125	-0.43827548577595915
-0.48283742215625125	-0.44184073331766777
-0.48277638700000125	-0.44435383899914394
-0.48271535184375125	-0.44580855168558153
-0.48265431668750125	-0.4462009824858294
-0.48259328153125125	-0.44552969686676713
-0.48253224637500125	-0.443795808064211
-0.48247121121875125	-0.4410028214036624
-0.48241017606250125	-0.43715668895719806
-0.48234914090625125	-0.4322659325161003
-0.48228810575000125	-0.426341459050662
-0.48222707059375125	-0.4193964132246506
-0.48216603543750125	-0.4114465490031975
-0.48210500028125125	-0.40250999824315775
-0.48204396512500125	-0.39260687325000054
-0.48198292996875125	-0.38175976678794804
-0.48192189481250125	-0.3699936419074325
-0.48186085965625125	-0.35733532778359944
-0.48179982450000125	-0.3438136895323198
-0.48173878934375125	-0.32945994162614595
-0.48167775418750125	-0.31430717580212486
-0.48161671903125125	-0.29839001666773995
-0.48155568387500125	-0.2817451778646246
-0.48149464871875125	-0.26441123046688175
-0.48143361356250125	-0.2464280333873493
-0.48137257840625125	-0.22783709036558444
-0.48131154325000125	-0.20868146487417696
-0.48125050809375125	-0.18900544987275664
-0.48118947293750125	-0.16885458779014345
-0.48112843778125125	-0.1482755582708064
-0.48106740262500125	-0.12731608898174732
-0.48100636746875125	-0.10602476382187564
-0.48094533231250125	-0.08445109381827472
-0.48088429715625125	-0.06264512460998216
-0.48082326200000125	-0.040657465931485684
-0.48076222684375125	-0.018539489268814942
-0.48070119168750125	0.0036575323770669374
-0.48064015653125125	0.025881889650565298
-0.48057912137500125	0.04808164010874182
-0.48051808621875125	0.0702051628819761
-0.48045705106250125	0.09220073707471
-0.48039601590625125	0.11401709316329967
-0.48033498075000125	0.13560315304503925
-0.48027394559375125	0.1569083989595626
-0.48021291043750125	0.17788313511741638
-0.48015187528125125	0.19847806797364637
-0.48009084012500125	0.2186449366395787
-0.48002980496875125	0.23833646734161923
-0.47996876981250125	0.257506373357106
-0.47990773465625125	0.2761096127569898
-0.47984669950000125	0.29410230366231266
-0.47978566434375125	0.3114420850375926
-0.47972462918750125	0.3280881630377054
-0.47966359403125125	0.3440009864312233
-0.47960255887500125	0.35914294740799096
-0.47954152371875125	0.37347835814904495
-0.47948048856250125	0.38697285352538385
-0.47941945340625125	0.3995943888028381
-0.47935841825000125	0.41131308391733296
-0.47929738309375125	0.42210056508571936
-0.47923634793750125	0.43193101457185246
-0.47917531278125125	0.44078088221743505
-0.47911427762500125	0.44862847641818143
-0.47905324246875125	0.4554547968676249
-0.47899220731250125	0.46124308571994094
-0.47893117215625125	0.4659788118492946
-0.47887013700000125	0.4696501133360776
-0.47880910184375125	0.4722474808234772
-0.47874806668750125	0.47376387182798624
-0.47868703153125125	0.47419477695675427
-0.47862599637500125	0.473538175000528
-0.47856496121875125	0.4717946075434911
-0.47850392606250125	0.46896710174424233
-0.47844289090625125	0.46506117398433655
-0.47838185575000125	0.4600849169037212
-0.47832082059375125	0.45404887320085513
-0.47825978543750125	0.4469659599721422
-0.47819875028125125	0.4388516995036726
-0.47813771512500125	0.42972395143411113
-0.47807667996875125	0.4196027453574605
-0.47801564481250125	0.40851074722288094
-0.47795460965625125	0.39647274334131966
-0.47789357450000125	0.38351552223685603
-0.47783253934375125	0.36966837196677516
-0.47777150418750125	0.354962548173293
-0.47771046903125125	0.33943108231569746
-0.47764943387500125	0.3231091366630347
-0.47758839871875125	0.3060339650072246
-0.47752736356250125	0.2882440956198111
-0.47746632840625125	0.26977983203321954
-0.47740529325000125	0.2506836472588619
-0.47734425809375125	0.23099877377590172
-0.47728322293750125	0.21076999600117216
-0.47722218778125125	0.19004378330553792
-0.47716115262500125	0.16886736308843517
-0.47710011746875125	0.14728925016393915
-0.47703908231250125	0.12535872809509344
-0.47697804715625125	0.10312606467043547
-0.47691701200000125	0.08064237148669394
-0.47685597684375125	0.05795902033034497
-0.47679494168750125	0.03512824866329972
-0.47673390653125125	0.01220241220916552
-0.47667287137500125	-0.010765959584719176
-0.47661183621875125	-0.033723675782935385
-0.47655080106250125	-0.056618162923097674
-0.47648976590625125	-0.0793969956188148
-0.47642873075000125	-0.102007192777621
-0.47636769559375125	-0.12439687410859128
-0.47630666043750125	-0.14651478143812086
-0.47624562528125125	-0.16830947988702458
-0.47618459012500125	-0.18973079323965644
-0.47612355496875125	-0.21072948918031875
-0.47606251981250125	-0.23125700628811263
-0.47600148465625125	-0.251265869443777
-0.47594044950000125	-0.27070987684601633
-0.47587941434375125	-0.2895442910269457
-0.47581837918750125	-0.3077253956920534
-0.47575734403125125	-0.3252111503027119
-0.47569630887500125	-0.3419612472530279
-0.47563527371875125	-0.357936839903046
-0.47557423856250125	-0.3731010328200847
-0.47551320340625125	-0.3874186751037436
-0.47545216825000125	-0.4008565882499609
-0.47539113309375125	-0.4133837171523275
-0.47533009793750125	-0.42497105506358024
-0.47526906278125125	-0.4355917271989445
-0.47520802762500125	-0.4452210434285387
-0.47514699246875125	-0.45383678324910837
-0.47508595731250125	-0.4614189887527843
-0.47502492215625125	-0.4679499746564689
-0.47496388700000125	-0.47341461887203845
-0.47490285184375125	-0.4778003076205015
-0.47484181668750125	-0.48109683355758787
-0.47478078153125125	-0.48329648498239125
-0.47471974637500125	-0.48439421881733397
-0.47465871121875125	-0.48438750998906005
-0.47459767606250125	-0.4832763117345924
-0.47453664090625125	-0.48106322985439565
-0.47447560575000125	-0.47775346990963274
-0.47441457059375125	-0.47335465676181365
-0.47435353543750125	-0.46787700972770524
-0.47429250028125125	-0.4613333765358034
-0.47423146512500125	-0.45373891916994863
-0.47417042996875125	-0.44511123749902237
-0.47410939481250125	-0.435470537689912
-0.47404835965625125	-0.42483924963960934
-0.47398732450000125	-0.4132419828756615
-0.47392628934375125	-0.4007059367588628
-0.47386525418750125	-0.3872602533313274
-0.47380421903125125	-0.3729360868881898
-0.47374318387500125	-0.3577671029127054
-0.47368214871875125	-0.3417884344331693
-0.47362111356250125	-0.32503733799036816
-0.47356007840625125	-0.3075531397203185
-0.47349904325000125	-0.2893761135072741
-0.47343800809375125	-0.2705489595308423
-0.47337697293750125	-0.2511158646810784
-0.47331593778125125	-0.2311214975138269
-0.47325490262500125	-0.21061286465548207
-0.47319386746875125	-0.18963817323803397
-0.47313283231250125	-0.16824572784310932
-0.47307179715625125	-0.14648562434092668
-0.47301076200000125	-0.12440920957527454
-0.47294972684375125	-0.10206747824921586
-0.47288869168750125	-0.07951244510597878
-0.47282765653125125	-0.05679742055700758
-0.47276662137500125	-0.033975211953476935
-0.47270558621875125	-0.011098754671489842
-0.47264455106250125	0.011778061691635122
-0.47258351590625125	0.03460172341872494
-0.47252248075000125	0.05731925253420918
-0.47246144559375125	0.07987734755031156
-0.47240041043750125	0.10222317134307665
-0.47233937528125125	0.12430466940847879
-0.47227834012500125	0.1460701088274913
-0.47221730496875125	0.16746856942049124
-0.47215626981250125	0.18845009337897864
-0.47209523465625125	0.20896551445016798
-0.47203419950000125	0.22896688572082183
-0.47197316434375125	0.24840746899657112
-0.47191212918750125	0.2672416730099922
-0.47185109403125125	0.2854254705542304
-0.47179005887500125	0.3029164282156642
-0.47172902371875125	0.3196735222232989
-0.47166798856250125	0.33565744963241007
-0.47160695340625125	0.35083106050568413
-0.47154591825000125	0.3651587498144539
-0.47148488309375125	0.3786068267824721
-0.47142384793750125	0.39114413667043957
-0.47136281278125125	0.4027412306210495
-0.47130177762500125	0.4133709132362929
-0.47124074246875125	0.4230085105695136
-0.47117970731250125	0.431631402279953
-0.47111867215625125	0.43921952374371237
-0.47105763700000125	0.4457551655436487
-0.47099660184375125	0.4512230714303693
-0.47093556668750125	0.4556106362023829
-0.47087453153125125	0.4589075940715434
-0.47081349637500125	0.46110637810107624
-0.47075246121875125	0.46220203759364376
-0.47069142606250125	0.4621920816028858
-0.47063039090625125	0.4610767164679849
-0.47056935575000125	0.4588587995917824
-0.47050832059375125	0.45554367899749426
-0.47044728543750125	0.451139306652139
