Time	Frequency
-0.5000010579999952	0.40745066384903833
-0.49994002284374517	0.405394304249105
-0.49987898768749517	0.40266486276749397
-0.49981795253124517	0.3992664434621795
-0.49975691737499517	0.3952042419125583
-0.49969588221874517	0.3904846903428486
-0.49963484706249517	0.3851152178402682
-0.49957381190624517	0.3791043087580351
-0.49951277674999517	0.37246171159969055
-0.49945174159374517	0.3651980929234141
-0.49939070643749517	0.3573251225543835
-0.49932967128124517	0.34885567048406196
-0.49926863612499517	0.3398034710973325
-0.49920760096874517	0.3301833161962726
-0.49914656581249517	0.320010954070904
-0.49908553065624517	0.30930288962326075
-0.49902449549999517	0.2980769183084716
-0.49896346034374517	0.2863514171025386
-0.49890242518749517	0.2741455061646174
-0.49884139003124517	0.26147952992064116
-0.49878035487499517	0.24837419297734167
-0.49871931971874517	0.23485132126253147
-0.49865828456249517	0.22093315470097274
-0.49859724940624517	0.20664244204414742
-0.49853621424999517	0.192003496790343
-0.49847517909374517	0.17704004900883638
-0.49841414393749517	0.1617767634023033
-0.49835310878124517	0.14623967114017233
-0.49829207362499517	0.13045390534048149
-0.49823103846874517	0.11444579077927898
-0.49817000331249517	0.09824234052392411
-0.49810896815624517	0.0818700003073642
-0.49804793299999517	0.06535624379092538
-0.49798689784374517	0.04872861633880226
-0.49792586268749517	0.03201462881098658
-0.49786482753124517	0.015242301409296591
-0.49780379237499517	-0.0015605657505731387
-0.49774275721874517	-0.018365794342367365
-0.49768172206249517	-0.035145491863108794
-0.49762068690624517	-0.05187165947747081
-0.49755965174999517	-0.06851608342368666
-0.49749861659374517	-0.0850514849203599
-0.49743758143749517	-0.10144987391403952
-0.49737654628124517	-0.11768371346504827
-0.49731551112499517	-0.13372640324303015
-0.49725447596874517	-0.14955065648887272
-0.49719344081249517	-0.16513009966001543
-0.49713240565624517	-0.18043882607024012
-0.49707137049999517	-0.19545099621564885
-0.49701033534374517	-0.21014173858886784
-0.49694930018749517	-0.224486241707742
-0.49688826503124517	-0.23846045733225693
-0.49682722987499517	-0.2520412638171973
-0.49676619471874517	-0.2652056048440036
-0.49670515956249517	-0.2779315325062604
-0.49664412440624517	-0.2901978132363097
-0.49658308924999517	-0.3019836280671216
-0.49652205409374517	-0.3132695283833776
-0.49646101893749517	-0.32403647285560977
-0.49639998378124517	-0.33426617356129334
-0.49633894862499517	-0.3439418060363114
-0.49627791346874517	-0.35304708057481154
-0.49621687831249517	-0.3615665245871287
-0.49615584315624517	-0.36948596064298556
-0.49609480799999517	-0.37679224720857135
-0.49603377284374517	-0.38347293598183557
-0.49597273768749517	-0.3895168003721085
-0.49591170253124517	-0.3949139435255186
-0.49585066737499517	-0.3996551069011302
-0.49578963221874517	-0.4037323467121886
-0.49572859706249517	-0.40713901926713375
-0.49566756190624517	-0.409869256546549
-0.49560652674999517	-0.4119185332175215
-0.49554549159374517	-0.413283526041223
-0.49548445643749517	-0.41396188709367976
-0.49542342128124517	-0.4139525666862647
-0.49536238612499517	-0.413255627850723
-0.49530135096874517	-0.41187225174225844
-0.49524031581249517	-0.40980491467354635
-0.49517928065624517	-0.4070570746967051
-0.49511824549999517	-0.403633402222325
-0.49505721034374517	-0.3995398719485905
-0.49499617518749517	-0.39478330755531976
-0.49493514003124517	-0.38937179615796097
-0.49487410487499517	-0.3833146908852059
-0.49481306971874517	-0.3766221250884044
-0.49475203456249517	-0.3693054703147844
-0.49469099940624517	-0.3613773117038822
-0.49462996424999517	-0.3528509315406371
-0.49456892909374517	-0.34374085315294106
-0.49450789393749517	-0.334062681663075
-0.49444685878124517	-0.3238326112305375
-0.49438582362499517	-0.31306821051620665
-0.49432478846874517	-0.30178775428489774
-0.49426375331249517	-0.29001014962464927
-0.49420271815624517	-0.2777557334694068
-0.49414168299999517	-0.26504521814729315
-0.49408064784374517	-0.2518999720757915
-0.49401961268749517	-0.23834257491588545
-0.49395857753124517	-0.22439610173796243
-0.49389754237499517	-0.21008403477086265
-0.49383650721874517	-0.19543074342484515
-0.49377547206249517	-0.18046134652706175
-0.49371443690624517	-0.16520107657335587
-0.49365340174999517	-0.14967587517615716
-0.49359236659374517	-0.1339123342998475
-0.49353133143749517	-0.1179370494254964
-0.49347029628124517	-0.1017773644705405
-0.49340926112499517	-0.08546067721444423
-0.49334822596874517	-0.0690146086505475
-0.49328719081249517	-0.0524677039494065
-0.49322615565624517	-0.035847455181400124
-0.49316512049999517	-0.01918221920001852
-0.49310408534374517	-0.002501260906602809
-0.49304305018749517	0.01416812617856754
-0.49298201503124517	0.030797286668711857
-0.49292097987499517	0.047357111462652264
-0.49285994471874517	0.06382024968319402
-0.49279890956249517	0.08015853559972416
-0.49273787440624517	0.09634365882014084
-0.49267683924999517	0.11234822756658472
-0.49261580409374517	0.12814527778963436
-0.49255476893749517	0.14370746816674987
-0.49249373378124517	0.15900816194154438
-0.49243269862499517	0.17402175799996983
-0.49237166346874517	0.18872215721182228
-0.49231062831249517	0.2030843225567558
-0.49224959315624517	0.2170840162337861
-0.49218855799999517	0.2306969622418036
-0.49212752284374517	0.24390011102436054
-0.49206648768749517	0.25667089368287627
-0.49200545253124517	0.26898727011855456
-0.49194441737499517	0.2808284383313459
-0.49188338221874517	0.29217409223620733
-0.49182234706249517	0.3030045694609208
-0.49176131190624517	0.31330159093810717
-0.49170027674999517	0.3230475404636721
-0.49163924159374517	0.3322254866380491
-0.49157820643749517	0.3408198803956602
-0.49151717128124517	0.3488159411026221
-0.49145613612499517	0.3561999559575817
-0.49139510096874517	0.3629592799159617
-0.49133406581249517	0.36908216857071535
-0.49127303065624517	0.37455825235337276
-0.49121199549999517	0.3793781081873516
-0.49115096034374517	0.383533306344107
-0.49108992518749517	0.38701675490584675
-0.49102889003124517	0.38982249768915084
-0.49096785487499517	0.39194558491865705
-0.49090681971874517	0.39338233333411465
-0.49084578456249517	0.394130295472459
-0.49078474940624517	0.3941880608213769
-0.49072371424999517	0.3935554835684864
-0.49066267909374517	0.39223363770457975
-0.49060164393749517	0.3902246771949885
-0.49054060878124517	0.38753199048668613
-0.49047957362499517	0.384160176937331
-0.49041853846874517	0.38011492908190875
-0.49035750331249517	0.3754030984121484
-0.49029646815624517	0.3700327804717894
-0.49023543299999517	0.36401310333689674
-0.49017439784374517	0.35735424016055634
-0.49011336268749517	0.3500677521833182
-0.49005232753124517	0.34216602586080314
-0.48999129237499517	0.3336623461696352
-0.48993025721874517	0.3245716345410545
-0.48986922206249517	0.31490936073279185
-0.48980818690624517	0.30469171218222485
-0.48974715174999517	0.2939366637184894
-0.48968611659374517	0.2826625977942901
-0.48962508143749517	0.2708884464570446
-0.48956404628124517	0.2586348260873029
-0.48950301112499517	0.2459227568289816
-0.48944197596874517	0.23277377291305285
-0.48938094081249517	0.2192106819504471
-0.48931990565624517	0.2052568017222094
-0.48925887049999517	0.19093611738538685
-0.48919783534374517	0.17627310792415873
-0.48913680018749517	0.16129307427013082
-0.48907576503124517	0.14602211706732032
-0.48901472987499517	0.1304859911725603
-0.48895369471874517	0.11471164936935042
-0.48889265956249517	0.09872676927176105
-0.48883162440624517	0.08255813580752859
-0.48877058924999517	0.0662339441631007
-0.48870955409374517	0.049782793907441045
-0.48864851893749517	0.033232363338554345
-0.48858748378124517	0.016611651884146667
-0.48852644862499517	-5.05502097497767e-05
-0.48846541346874517	-0.01672581226616624
-0.48840437831249517	-0.033384909144966966
-0.48834334315624517	-0.04999920515802213
-0.48828230799999517	-0.06653997541158987
-0.48822127284374517	-0.0829784173552633
-0.48816023768749517	-0.0992861787269064
-0.48809920253124517	-0.11543493172466757
-0.48803816737499517	-0.131396603467956
-0.48797713221874517	-0.14714353531906368
-0.48791609706249517	-0.16264844439522036
-0.48785506190624517	-0.1778842103795841
-0.48779402674999517	-0.19282433606895358
-0.48773299159374517	-0.2074430678908362
-0.48767195643749517	-0.22171464275811004
-0.48761092128124517	-0.235614135721209
-0.48754988612499517	-0.2491176191582385
-0.48748885096874517	-0.262201206513611
-0.48742781581249517	-0.27484200037205175
-0.48736678065624517	-0.2870180820714271
-0.48730574549999517	-0.2987078804223933
-0.48724471034374517	-0.309890912823848
-0.48718367518749517	-0.32054767372694726
-0.48712264003124517	-0.33065916771631054
-0.48706160487499517	-0.3402075333902673
-0.48700056971874517	-0.34917618456851407
-0.48693953456249517	-0.3575489717362321
-0.48687849940624517	-0.36531083810871295
-0.48681746424999517	-0.3724483637441828
-0.48675642909374517	-0.37894856586972586
-0.48669539393749517	-0.38479952735760997
-0.48663435878124517	-0.38999103249770506
-0.48657332362499517	-0.39451348496792055
-0.48651228846874517	-0.3983584184457115
-0.48645125331249517	-0.4015189083921316
-0.48639021815624517	-0.4039888993588547
-0.48632918299999517	-0.40576350542446904
-0.48626814784374517	-0.4068392435895291
-0.48620711268749517	-0.4072136750664658
-0.48614607753124517	-0.4068855523674957
-0.48608504237499517	-0.4058549469393752
-0.48602400721874517	-0.40412303654868226
-0.48596297206249517	-0.40169225997909086
-0.48590193690624517	-0.39856624386071765
-0.48584090174999517	-0.394749761216003
-0.48577986659374517	-0.3902489150193554
-0.48571883143749517	-0.38507083060580577
-0.48565779628124517	-0.3792238415689783
-0.48559676112499517	-0.37271755930474365
-0.48553572596874517	-0.36556254388573706
-0.48547469081249517	-0.35777061859683695
-0.48541365565624517	-0.3493546621455175
-0.48535262049999517	-0.3403285427779892
-0.48529158534374517	-0.33070747215133434
-0.48523055018749517	-0.320507297581557
-0.48516951503124517	-0.309745029788006
-0.48510847987499517	-0.2984390860616801
-0.48504744471874517	-0.28660795439253756
-0.48498640956249517	-0.2742715933678019
-0.48492537440624517	-0.26145128407107493
-0.48486433924999517	-0.2481680048539916
-0.48480330409374517	-0.23444426073318564
-0.48474226893749517	-0.22030375156970547
-0.48468123378124517	-0.20576989953512223
-0.48462019862499517	-0.1908672385286088
-0.48455916346874517	-0.17562152063888803
-0.48449812831249517	-0.16005830072025498
-0.48443709315624517	-0.14420375220382792
-0.48437605799999517	-0.12808538561864838
-0.48431502284374517	-0.11173022667593954
-0.48425398768749517	-0.09516591001131723
-0.48419295253124517	-0.07842135893784484
-0.48413191737499517	-0.06152440468594024
-0.48407088221874517	-0.04450387028279554
-0.48400984706249517	-0.027389496434420516
-0.48394881190624517	-0.01020979320389934
-0.48388777674999517	0.007005824039017529
-0.48382674159374517	0.024227527282829172
-0.48376570643749517	0.041426191464391506
-0.48370467128124517	0.05857239375364935
-0.48364363612499517	0.07563661311927644
-0.48358260096874517	0.09258974130275834
-0.48352156581249517	0.10940278748814439
-0.48346053065624517	0.12604670103641535
-0.48339949549999517	0.14249309794536427
-0.48333846034374517	0.1587138926975111
-0.48327742518749517	0.1746808077767772
-0.48321639003124517	0.19036673492421857
-0.48315535487499517	0.20574484526726275
-0.48309431971874517	0.22078814358430834
-0.48303328456249517	0.23547120461226173
-0.48297224940624517	0.24976879868759394
-0.48291121424999517	0.26365582373856966
-0.48285017909374517	0.2771086595278186
-0.48278914393749517	0.2901042780153674
-0.48272810878124517	0.3026198608673167
-0.48266707362499517	0.3146338095786678
-0.48260603846874517	0.3261257784879106
-0.48254500331249517	0.33707552847471095
-0.48248396815624517	0.3474640070622105
-0.48242293299999517	0.35727353614355456
-0.48236189784374517	0.3664869516640408
-0.48230086268749517	0.3750882182287059
-0.48223982753124517	0.38306232111605415
-0.48217879237499517	0.3903955528799372
-0.48211775721874517	0.397075100687567
-0.48205672206249517	0.4030890545646926
-0.48199568690624517	0.4084271662484767
-0.48193465174999517	0.413079983365686
-0.48187361659374517	0.41703917229729826
-0.48181258143749517	0.4202979040496272
-0.48175154628124517	0.4228502854942332
-0.48169051112499517	0.4246916885826177
-0.48162947596874517	0.4258188166010247
-0.48156844081249517	0.4262294710737654
-0.48150740565624517	0.4259227440389386
-0.48144637049999517	0.42489897416020705
-0.48138533534374517	0.42315967186410536
-0.48132430018749517	0.420707679487956
-0.48126326503124517	0.4175469816927231
-0.48120222987499517	0.4136827518506271
-0.48114119471874517	0.40912157151501416
-0.48108015956249517	0.4038709931231883
-0.48101912440624517	0.3979397933711364
-0.48095808924999517	0.39133821749047926
-0.48089705409374517	0.3840771946882128
-0.48083601893749517	0.3761690564833743
-0.48077498378124517	0.36762753535895154
-0.48071394862499517	0.35846677534023397
-0.48065291346874517	0.34870244914905696
-0.48059187831249517	0.3383515164379863
-0.48053084315624517	0.3274313390212745
-0.48046980799999517	0.3159604654579455
-0.48040877284374517	0.30395883737026236
-0.48034773768749517	0.2914469127637486
-0.48028670253124517	0.2784457337768355
-0.48022566737499517	0.26497800065213256
-0.48016463221874517	0.25106674268488577
-0.48010359706249517	0.236735400340585
-0.48004256190624517	0.22200905987685696
-0.47998152674999517	0.20691279217811298
-0.47992049159374517	0.19147229556704204
-0.47985945643749517	0.1757144682556095
-0.47979842128124517	0.1596661685697496
-0.47973738612499517	0.14335488022311663
-0.47967635096874517	0.1268089452810783
-0.47961531581249517	0.11005662604315325
-0.47955428065624517	0.09312652139352498
-0.47949324549999517	0.07604833006308075
-0.47943221034374517	0.05885115346039439
-0.47937117518749517	0.041564132123094254
-0.47931014003124517	0.024217931349730402
-0.47924910487499517	0.006842080637581789
-0.47918806971874517	-0.01053405041923548
-0.47912703456249517	-0.02787963605924998
-0.47906599940624517	-0.045165061245027026
-0.47900496424999517	-0.06236094370458018
-0.47894392909374517	-0.07943703328568147
-0.47888289393749517	-0.09636405068371286
-0.47882185878124517	-0.11311304377483408
-0.47876082362499517	-0.12965475827735595
-0.47869978846874517	-0.14596069421825514
-0.47863875331249517	-0.1620029577544678
-0.47857771815624517	-0.17775354654126588
-0.47851668299999517	-0.19318523628259693
-0.47845564784374517	-0.20827171732829883
-0.47839461268749517	-0.22298656550128385
-0.47833357753124517	-0.2373043209491746
-0.47827254237499517	-0.25120064666495906
-0.47821150721874517	-0.26465116144944334
-0.47815047206249517	-0.27763252038974867
-0.47808943690624517	-0.29012266516682417
-0.47802840174999517	-0.3020997959545171
-0.47796736659374517	-0.3135430360423798
-0.47790633143749517	-0.3244328257040281
-0.47784529628124517	-0.33475032160871887
-0.47778426112499517	-0.344477527162014
-0.47772322596874517	-0.3535976948317001
-0.47766219081249517	-0.36209516231075944
-0.47760115565624517	-0.3699550756335904
-0.47754012049999517	-0.37716384920440554
-0.47747908534374517	-0.3837092126741565
-0.47741805018749517	-0.3895796836594444
-0.47735701503124517	-0.39476510676339427
-0.47729597987499517	-0.3992567016494186
-0.47723494471874517	-0.40304660586907987
-0.47717390956249517	-0.40612827716519756
-0.47711287440624517	-0.408496523007119
-0.47705183924999517	-0.4101472360206833
-0.47699080409374517	-0.41107759768404806
-0.47692976893749517	-0.4112861244422522
-0.47686873378124517	-0.410772476075522
-0.47680769862499517	-0.4095376174751519
-0.47674666346874517	-0.4075838480495666
-0.47668562831249517	-0.40491457565066935
-0.47662459315624517	-0.40153450257184037
-0.47656355799999517	-0.3974497296347221
-0.47650252284374517	-0.39266736183035805
-0.47644148768749517	-0.38719574574887833
-0.47638045253124517	-0.3810446920676147
-0.47631941737499517	-0.3742249180240621
-0.47625838221874517	-0.3667482870218314
-0.47619734706249517	-0.3586281390426878
-0.47613631190624517	-0.3498786829679322
-0.47607527674999517	-0.34051507608898113
-0.47601424159374517	-0.33055403339470313
-0.47595320643749517	-0.3200129659519333
-0.47589217128124517	-0.30891015767347196
-0.47583113612499517	-0.2972654552881521
-0.47577010096874517	-0.28509905281857634
-0.47570906581249517	-0.2724323017311792
-0.47564803065624517	-0.2592877104876922
-0.47558699549999517	-0.2456879884189274
-0.47552596034374517	-0.23165726198227996
-0.47546492518749517	-0.21722022665309013
-0.47540389003124517	-0.20240195342992973
-0.47534285487499517	-0.1872288190735389
-0.47528181971874517	-0.1717273350150261
-0.47522078456249517	-0.1559245662861606
-0.47515974940624517	-0.1398487459422757
-0.47509871424999517	-0.12352784308355604
-0.47503767909374517	-0.1069903387051081
-0.47497664393749517	-0.09026589619323017
-0.47491560878124517	-0.07338368420505058
-0.47485457362499517	-0.056373120108934416
-0.47479353846874517	-0.0392645952484477
-0.47473250331249517	-0.022088182975458236
-0.47467146815624517	-0.004873907301717717
-0.47461043299999517	0.012347788741267103
-0.47454939784374517	0.02954639679078281
-0.47448836268749517	0.04669165169598281
-0.47442732753124517	0.06375350761177442
-0.47436629237499517	0.08070160660205147
-0.47430525721874517	0.09750597259148173
-0.47424422206249517	0.11413729048420809
-0.47418318690624517	0.13056581562678993
-0.47412215174999517	0.14676246309700133
-0.47406111659374517	0.16269907062184769
-0.47400008143749517	0.17834689482431137
-0.47393904628124517	0.19367832267119892
-0.47387801112499517	0.20866664191985665
-0.47381697596874517	0.2232847410056435
-0.47375594081249517	0.23750683931625627
-0.47369490565624517	0.2513078914916725
-0.47363387049999517	0.264663261004565
-0.47357283534374517	0.27754912156549316
-0.47351180018749517	0.28994255112928286
-0.47345076503124517	0.3018217330678963
-0.47338972987499517	0.31316522332503494
-0.47332869471874517	0.3239527722922582
-0.47326765956249517	0.334165325704748
-0.47320662440624517	0.3437844736899854
-0.47314558924999517	0.3527929322024131
-0.47308455409374517	0.36117459550997316
-0.47302351893749517	0.36891444487842523
-0.47296248378124517	0.3759984370297471
-0.47290144862499517	0.38241375356564605
-0.47284041346874517	0.38814885666309606
-0.47277937831249517	0.3931932278427771
-0.47271834315624517	0.3975376271219534
-0.47265730799999517	0.40117409887755284
-0.47259627284374517	0.40409581447291276
-0.47253523768749517	0.4062973078657219
-0.47247420253124517	0.4077743248197706
-0.47241316737499517	0.408523839871443
-0.47235213221874517	0.4085442270730735
-0.47229109706249517	0.4078350302503232
-0.47223006190624517	0.4063971010127654
-0.47216902674999517	0.4042326443614381
-0.47210799159374517	0.4013450342641332
-0.47204695643749517	0.3977389940811545
-0.47198592128124517	0.39342052137075373
-0.47192488612499517	0.38839679792572973
-0.47186385096874517	0.3826763192599644
-0.47180281581249517	0.37626879709079974
-0.47174178065624517	0.36918511476860977
-0.47168074549999517	0.361437425509342
-0.47161971034374517	0.35303900707339686
-0.47155867518749517	0.34400423006253533
-0.47149764003124517	0.33434877603047714
-0.47143660487499517	0.3240892745525824
-0.47137556971874517	0.3132433455710501
-0.47131453456249517	0.30182996587636174
-0.47125349940624517	0.2898688551585944
-0.47119246424999517	0.27738060085895366
-0.47113142909374517	0.2643871829223455
-0.47107039393749517	0.25091117012953473
-0.47100935878124517	0.2369757313455637
-0.47094832362499517	0.22260542776700828
-0.47088728846874517	0.2078254326557522
-0.47082625331249517	0.19266123766254592
-0.47076521815624517	0.17713941394205845
-0.47070418299999517	0.16128729516388188
-0.47064314784374517	0.14513251274398872
-0.47058211268749517	0.1287031911594891
-0.47052107753124517	0.1120282865111198
-0.47046004237499517	0.09513703814285873
-0.47039900721874517	0.0780589434043326
-0.47033797206249517	0.06082414755695713
