Time	Frequency
-0.5000543592500009	0.07866497829372451
-0.49999332409375086	0.06355247132473492
-0.49993228893750086	0.04835346606946594
-0.49987125378125086	0.03309172208872591
-0.49981021862500086	0.017790946971713358
-0.49974918346875086	0.0024754693029474303
-0.49968814831250086	-0.012830890958919577
-0.49962711315625086	-0.02810432533963265
-0.49956607800000086	-0.043320454337355034
-0.49950504284375086	-0.05845574525813959
-0.49944400768750086	-0.073486517122868
-0.49938297253125086	-0.08838874527779572
-0.49932193737500086	-0.10313946070019187
-0.49926090221875086	-0.11771553139124384
-0.49919986706250086	-0.13209363556605067
-0.49913883190625086	-0.14625153940190824
-0.49907779675000086	-0.16016708051010362
-0.49901676159375086	-0.17381806168916672
-0.49895572643750086	-0.18718318909687634
-0.49889469128125086	-0.20024153919391177
-0.49883365612500086	-0.21297244904329055
-0.49877262096875086	-0.22535588084719324
-0.49871158581250086	-0.2373723815249801
-0.49865055065625086	-0.24900309999546671
-0.49858951550000086	-0.260229610508515
-0.49852848034375086	-0.2710341887588981
-0.49846744518750086	-0.2813999783315965
-0.49840641003125086	-0.2913105402491048
-0.49834537487500086	-0.30075013194106825
-0.49828433971875086	-0.30970401886265836
-0.49822330456250086	-0.3181580486084867
-0.49816226940625086	-0.32609872155558406
-0.49810123425000086	-0.3335136175680861
-0.49804019909375086	-0.3403910260806249
-0.49797916393750086	-0.3467199016085013
-0.49791812878125086	-0.3524903682154051
-0.49785709362500086	-0.35769327711086696
-0.49779605846875086	-0.362320208846879
-0.49773502331250086	-0.3663639691175931
-0.49767398815625086	-0.3698180935998823
-0.49761295300000086	-0.3726769591499885
-0.49755191784375086	-0.3749361091370577
-0.49749088268750086	-0.3765918670081832
-0.49742984753125086	-0.377641507973953
-0.49736881237500086	-0.37808335690729317
-0.49730777721875086	-0.37791660879239863
-0.49724674206250086	-0.3771414457644545
-0.49718570690625086	-0.37575903361586066
-0.49712467175000086	-0.3737714448861857
-0.49706363659375086	-0.3711817339057203
-0.49700260143750086	-0.3679939576595259
-0.49694156628125086	-0.36421300538387286
-0.49688053112500086	-0.3598447521647361
-0.49681949596875086	-0.3548961234824359
-0.49675846081250086	-0.3493747352978612
-0.49669742565625086	-0.34328922156554287
-0.49663639050000086	-0.3366492740634316
-0.49657535534375086	-0.329465128539493
-0.49651432018750086	-0.32174808140139394
-0.49645328503125086	-0.3135103992208756
-0.49639224987500086	-0.3047648706573218
-0.49633121471875086	-0.29552528102077535
-0.49627017956250086	-0.2858062383534976
-0.49620914440625086	-0.27562297332466235
-0.49614810925000086	-0.26499153427889477
-0.49608707409375086	-0.2539287386305207
-0.49602603893750086	-0.242451946802787
-0.49596500378125086	-0.23057925648868957
-0.49590396862500086	-0.21832954926167886
-0.49584293346875086	-0.20572198848254536
-0.49578189831250086	-0.1927765323701151
-0.49572086315625086	-0.17951375328868605
-0.49565982800000086	-0.1659544538685731
-0.49559879284375086	-0.15212018351416653
-0.49553775768750086	-0.1380327942605109
-0.49547672253125086	-0.12371457248301859
-0.49541568737500086	-0.10918826059554158
-0.49535465221875086	-0.09447673784201649
-0.49529361706250086	-0.0796034343196968
-0.49523258190625086	-0.064591940969183
-0.49517154675000086	-0.04946594719042007
-0.49511051159375086	-0.03424954010146124
-0.49504947643750086	-0.018966929318244494
-0.49498844128125086	-0.0036422838247063653
-0.49492740612500086	0.011700046382320311
-0.49486637096875086	0.02703553614865606
-0.49480533581250086	0.042339908899751436
-0.49474430065625086	0.05758886633365524
-0.49468326550000086	0.07275797104328552
-0.49462223034375086	0.08782308045256168
-0.49456119518750086	0.10276034210896394
-0.49450016003125086	0.11754584216855893
-0.49443912487500086	0.13215583727328345
-0.49437808971875086	0.14656719650133124
-0.49431705456250086	0.16075690992488198
-0.49425601940625086	0.17470209839791676
-0.49419498425000086	0.1883805566513927
-0.49413394909375086	0.20177047164738657
-0.49407291393750086	0.21485023465674538
-0.49401187878125086	0.22759888799200875
-0.49395084362500086	0.2399960994006619
-0.49388980846875086	0.2520218021552131
-0.49382877331250086	0.26365665051759035
-0.49376773815625086	0.2748820655832567
-0.49370670300000086	0.28567979418041806
-0.49364566784375086	0.2960323933971659
-0.49358463268750086	0.30592327095382305
-0.49352359753125086	0.31533630742445046
-0.49346256237500086	0.32425619397109184
-0.49340152721875086	0.33266853197616547
-0.49334049206250086	0.3405595802989343
-0.49327945690625086	0.3479164124189451
-0.49321842175000086	0.35472704765674845
-0.49315738659375086	0.3609802391368021
-0.49309635143750086	0.36666567981035597
-0.49303531628125086	0.371774012499679
-0.49297428112500086	0.37629662127485486
-0.49291324596875086	0.3802259505544852
-0.49285221081250086	0.3835553968066311
-0.49279117565625086	0.38627916273072777
-0.49273014050000086	0.38839251593281837
-0.49266910534375086	0.38989168742921004
-0.49260807018750086	0.3907738140495784
-0.49254703503125086	0.3910370548296995
-0.49248599987500086	0.39068053079735643
-0.49242496471875086	0.3897043441902235
-0.49236392956250086	0.38810959622574664
-0.49230289440625086	0.3858983156423887
-0.49224185925000086	0.3830735629698645
-0.49218082409375086	0.3796393634762451
-0.49211978893750086	0.3756006429725543
-0.49205875378125086	0.3709634018934381
-0.49199771862500086	0.3657344827032516
-0.49193668346875086	0.35992168649131934
-0.49187564831250086	0.3535338709538581
-0.49181461315625086	0.3465805779520442
-0.49175357800000086	0.33907240637499386
-0.49169254284375086	0.3310209223155715
-0.49163150768750086	0.3224382688731132
-0.49157047253125086	0.31333765878655906
-0.49150943737500086	0.30373322834804445
-0.49144840221875086	0.29363956886192527
-0.49138736706250086	0.2830722918373439
-0.49132633190625086	0.2720479018750564
-0.49126529675000086	0.26058327121517666
-0.49120426159375086	0.24869619878010088
-0.49114322643750086	0.23640525515890698
-0.49108219128125086	0.2237294199878979
-0.49102115612500086	0.21068841918427755
-0.49096012096875086	0.19730262136440668
-0.49089908581250086	0.18359284747793497
-0.49083805065625086	0.16958046588711723
-0.49077701550000086	0.15528735675251595
-0.49071598034375086	0.14073590870577207
-0.49065494518750086	0.12594884098825107
-0.49059391003125086	0.11094915706699486
-0.49053287487500086	0.09576057191630657
-0.49047183971875086	0.08040684194955856
-0.49041080456250086	0.0649117397584686
-0.49034976940625086	0.0492999332634265
-0.49028873425000086	0.03359589553308371
-0.49022769909375086	0.01782395664481311
-0.49016666393750086	0.002009246058961414
-0.49010562878125086	-0.01382342713951126
-0.49004459362500086	-0.02964940569995637
-0.48998355846875086	-0.04544347543267205
-0.48992252331250086	-0.06118086975654585
-0.48986148815625086	-0.07683698338198779
-0.48980045300000086	-0.09238684921090815
-0.48973941784375086	-0.10780607018189688
-0.48967838268750086	-0.12307048462984538
-0.48961734753125086	-0.1381557074846562
-0.48955631237500086	-0.15303804251085076
-0.48949527721875086	-0.16769418198279656
-0.48943424206250086	-0.18210062327195375
-0.48937320690625086	-0.1962346831177994
-0.48931217175000086	-0.2100742596833625
-0.48925113659375086	-0.22359713528499472
-0.48919010143750086	-0.23678192805249804
-0.48912906628125086	-0.24960795707934966
-0.48906803112500086	-0.26205472799442586
-0.48900699596875086	-0.274102474572684
-0.48894596081250086	-0.2857322083685941
-0.48888492565625086	-0.2969253662498795
-0.48882389050000086	-0.3076641396145271
-0.48876285534375086	-0.31793162296250776
-0.48870182018750086	-0.3277113094106156
-0.48864078503125086	-0.336987618202302
-0.48857974987500086	-0.34574598589629574
-0.48851871471875086	-0.35397225525134823
-0.48845767956250086	-0.36165328761601656
-0.48839664440625086	-0.368776963652738
-0.48833560925000086	-0.3753317785569149
-0.48827457409375086	-0.38130726239377066
-0.48821353893750086	-0.38669384314706234
-0.48815250378125086	-0.39148282078611113
-0.48809146862500086	-0.3956665894932994
-0.48803043346875086	-0.3992383015645174
-0.48796939831250086	-0.402192148261318
-0.48790836315625086	-0.40452343853110656
-0.48784732800000086	-0.40622824636477867
-0.48778629284375086	-0.40730374348748055
-0.48772525768750086	-0.40774814838474077
-0.48766422253125086	-0.40756056431219506
-0.48760318737500086	-0.40674118247907026
-0.48754215221875086	-0.4052911673387323
-0.48748111706250086	-0.403212664469117
-0.48742008190625086	-0.40050886886686504
-0.48735904675000086	-0.39718389977359503
-0.48729801159375086	-0.39324291758839613
-0.48723697643750086	-0.3886920621184265
-0.48717594128125086	-0.38353836769029204
-0.48711490612500086	-0.37778995196881004
-0.48705387096875086	-0.3714557734698752
-0.48699283581250086	-0.3645457266129664
-0.48693180065625086	-0.357070767393611
-0.48687076550000086	-0.3490425230486843
-0.48680973034375086	-0.3404736513116234
-0.48674869518750086	-0.3313777317911341
-0.48668766003125086	-0.32176897773372193
-0.48662662487500086	-0.3116625967783973
-0.48656558971875086	-0.3010745227373895
-0.48650455456250086	-0.2900215097704814
-0.48644351940625086	-0.2785210153455573
-0.48638248425000086	-0.26659105018860796
-0.48632144909375086	-0.2542507481967148
-0.48626041393750086	-0.2415195863974131
-0.48619937878125086	-0.2284173639892586
-0.48613834362500086	-0.21496525230054495
-0.48607730846875086	-0.20118457181155291
-0.48601627331250086	-0.18709667012872683
-0.48595523815625086	-0.17272430750777742
-0.48589420300000086	-0.1580903721498458
-0.48583316784375086	-0.1432176201585209
-0.48577213268750086	-0.1281299477149315
-0.48571109753125086	-0.11285138702365731
-0.48565006237500086	-0.09740594792534561
-0.48558902721875086	-0.08181833033513143
-0.48552799206250086	-0.06611323918828378
-0.48546695690625086	-0.050315598782136615
-0.48540592175000086	-0.03445066747151502
-0.48534488659375086	-0.018543491799394813
-0.48528385143750086	-0.002619386325708162
-0.48522281628125086	0.013296138497247032
-0.48516178112500086	0.029177912018062493
-0.48510074596875086	0.04500072047537897
-0.48503971081250086	0.06073919717000679
-0.48497867565625086	0.07636834649759341
-0.48491764050000086	0.09186335958931272
-0.48485660534375086	0.1071994918949625
-0.48479557018750086	0.12235226375215902
-0.48473453503125086	0.13729753775276185
-0.48467349987500086	0.15201163926818093
-0.48461246471875086	0.16647093732087298
-0.48455142956250086	0.18065231547308916
-0.48449039440625086	0.1945334278070685
-0.48442935925000086	0.2080919544714648
-0.48436832409375086	0.22130616447999266
-0.48430728893750086	0.23415513408156508
-0.48424625378125086	0.24661836213253677
-0.48418521862500086	0.25867585661705167
-0.48412418346875086	0.2703083154476116
-0.48406314831250086	0.28149734872169285
-0.48400211315625086	0.2922249930884104
-0.48394107800000086	0.30247398496807615
-0.48388004284375086	0.31222814850982006
-0.48381900768750086	0.3214718398428223
-0.48375797253125086	0.330190193039165
-0.48369693737500086	0.33836933948781545
-0.48363590221875086	0.3459962688567746
-0.48357486706250086	0.3530587165641823
-0.48351383190625086	0.35954532847819587
-0.48345279675000086	0.3654458926709147
-0.48339176159375086	0.3707509003353747
-0.48333072643750086	0.375451798411059
-0.48326969128125086	0.37954120987846796
-0.48320865612500086	0.38301252958834137
-0.48314762096875086	0.38586019358426143
-0.48308658581250086	0.3880797179475223
-0.48302555065625086	0.38966753890743605
-0.48296451550000086	0.39062112864194903
-0.48290348034375086	0.39093898480782946
-0.48284244518750086	0.390620639576352
-0.48278141003125086	0.38966662852550515
-0.48272037487500086	0.38807848938550293
-0.48265933971875086	0.38585882192809223
-0.48259830456250086	0.3830112359066132
-0.48253726940625086	0.3795403027261773
-0.48247623425000086	0.3754516458079489
-0.48241519909375086	0.37075189547446097
-0.48235416393750086	0.36544860419141917
-0.48229312878125086	0.3595503445717115
-0.48223209362500086	0.3530666634942557
-0.48217105846875086	0.34600799297730667
-0.48211002331250086	0.3383857433504384
-0.48204898815625086	0.3302122463966298
-0.48198795300000086	0.3215006459215794
-0.48192691784375086	0.3122650341571241
-0.48186588268750086	0.30252038373847684
-0.48180484753125086	0.2922823332605952
-0.48174381237500086	0.2815674504291036
-0.48168277721875086	0.27039316060488444
-0.48162174206250086	0.25877736658898876
-0.48156070690625086	0.24673888482196082
-0.48149967175000086	0.2342972942283324
-0.48143863659375086	0.22147255908038332
-0.48137760143750086	0.20828549966762144
-0.48131656628125086	0.19475748769154186
-0.48125553112500086	0.1809103006698419
-0.48119449596875086	0.16676646195948702
-0.48113346081250086	0.15234887162958094
-0.48107242565625086	0.13768078037511372
-0.48101139050000086	0.12278601784385736
-0.48095035534375086	0.1076887648441648
-0.48088932018750086	0.09241342955898264
-0.48082828503125086	0.07698477587126996
-0.48076724987500086	0.061427835645546255
-0.48070621471875086	0.04576790570771879
-0.48064517956250086	0.03003040596134662
-0.48058414440625086	0.014240711796436205
-0.48052310925000086	-0.0015753330073689966
-0.48046207409375086	-0.017391981365859902
-0.48040103893750086	-0.033183811919292115
-0.48034000378125086	-0.04892491585368063
-0.48027896862500086	-0.0645896626744718
-0.48021793346875086	-0.08015272534903509
-0.48015689831250086	-0.0955886494047957
-0.48009586315625086	-0.11087231490745483
-0.48003482800000086	-0.1259787809171183
-0.47997379284375086	-0.14088350079019035
-0.47991275768750086	-0.15556213768884017
-0.47985172253125086	-0.169990531192335
-0.47979068737500086	-0.18414542880919
-0.47972965221875086	-0.1980036410061772
-0.47966861706250086	-0.21154211875868223
-0.47960758190625086	-0.2247391461011167
-0.47954654675000086	-0.23757315720682132
-0.47948551159375086	-0.2500226030454846
-0.47942447643750086	-0.26206741997421423
-0.47936344128125086	-0.27368802664997227
-0.47930240612500086	-0.28486484427012465
-0.47924137096875086	-0.29557968688965425
-0.47918033581250086	-0.30581513668339483
-0.47911930065625086	-0.31555393498992074
-0.47905826550000086	-0.3247801240649622
-0.47899723034375086	-0.3334786240978621
-0.47893619518750086	-0.341634748492207
-0.47887516003125086	-0.3492350098958765
-0.47881412487500086	-0.35626690736943034
-0.47875308971875086	-0.3627185631960422
-0.47869205456250086	-0.36857911254884496
-0.47863101940625086	-0.3738388325802456
-0.47856998425000086	-0.37848881945871754
-0.47850894909375086	-0.38252105334662934
-0.47844791393750086	-0.3859287053493784
-0.47838687878125086	-0.3887059079419015
-0.47832584362500086	-0.3908476919771739
-0.47826480846875086	-0.3923502306851129
-0.47820377331250086	-0.3932107309995489
-0.47814273815625086	-0.3934273637584269
-0.47808170300000086	-0.3929993938485112
-0.47802066784375086	-0.3919271367504988
-0.47795963268750086	-0.3902119077799739
-0.47789859753125086	-0.38785610531618897
-0.47783756237500086	-0.38486316771842055
-0.47777652721875086	-0.3812375031690957
-0.47771549206250086	-0.3769846287285327
-0.47765445690625086	-0.3721110814705594
-0.47759342175000086	-0.3666242827908982
-0.47753238659375086	-0.36053277628552166
-0.47747135143750086	-0.353846152521216
-0.47741031628125086	-0.34657472224539293
-0.47734928112500086	-0.33872990273082365
-0.47728824596875086	-0.33032425705106805
-0.47722721081250086	-0.3213708128575786
-0.47716617565625086	-0.31188371536233556
-0.47710514050000086	-0.3018782809137697
-0.47704410534375086	-0.29137010904566296
-0.47698307018750086	-0.280375892598045
-0.47692203503125086	-0.2689134074813223
-0.47686099987500086	-0.2570006774991922
-0.47679996471875086	-0.24465664443596358
-0.47673892956250086	-0.23190132916725467
-0.47667789440625086	-0.21875492386991743
-0.47661685925000086	-0.20523832651241558
-0.47655582409375086	-0.19137352414507036
-0.47649478893750086	-0.17718254781862158
-0.47643375378125086	-0.16268803815306584
-0.47637271862500086	-0.14791355192564867
-0.47631168346875086	-0.13288267558172276
-0.47625064831250086	-0.1176194714323008
-0.47618961315625086	-0.10214868903974382
-0.47612857800000086	-0.08649516769854376
-0.47606754284375086	-0.07068401344953859
-0.47600650768750086	-0.054740874784749
-0.47594547253125086	-0.03869140185607223
-0.47588443737500086	-0.02256137439840133
-0.47582340221875086	-0.006377056894427452
-0.47576236706250086	0.009835526675019928
-0.47570133190625086	0.026050254209997646
-0.47564029675000086	0.04224068957429672
-0.47557926159375086	0.058380817284120985
-0.47551822643750086	0.07444444405599603
-0.47545719128125086	0.09040544455397218
-0.47539615612500086	0.10623815251331836
-0.47533512096875086	0.12191675667119395
-0.47527408581250086	0.13741573713525373
-0.47521305065625086	0.15271011319170283
-0.47515201550000086	0.1677749834616106
-0.47509098034375086	0.1825856911251778
-0.47502994518750086	0.1971183614513796
-0.47496891003125086	0.21134931519274702
-0.47490787487500086	0.22525514983189127
-0.47484683971875086	0.2388134717432378
-0.47478580456250086	0.2520021262113076
-0.47472476940625086	0.26479936327946035
-0.47466373425000086	0.27718450765485303
-0.47460269909375086	0.2891373156595396
-0.47454166393750086	0.3006380636574116
-0.47448062878125086	0.31166802553899786
-0.47441959362500086	0.3222091441365379
-0.47435855846875086	0.3322440676531452
-0.47429752331250086	0.34175630507318505
-0.47423648815625086	0.35073023732073844
-0.47417545300000086	0.3591510859020275
-0.47411441784375086	0.36700488914217744
-0.47405338268750086	0.37427875618033
-0.47399234753125086	0.38096059405005017
-0.47393131237500086	0.387039237855543
-0.47387027721875086	0.3925046968698885
-0.47380924206250086	0.39734775141139844
-0.47374820690625086	0.4015602416262767
-0.47368717175000086	0.4051351430827314
-0.47362613659375086	0.40806631243898767
-0.47356510143750086	0.4103487034925123
-0.47350406628125086	0.41197835797511584
-0.47344303112500086	0.4129523195004049
-0.47338199596875086	0.4132687117565121
-0.47332096081250086	0.41292672817414283
-0.47325992565625086	0.4119266299502072
-0.47319889050000086	0.41026975226088136
-0.47313785534375086	0.4079584530480987
-0.47307682018750086	0.4049962233543252
-0.47301578503125086	0.40138758522040746
-0.47295474987500086	0.397138020452201
-0.47289371471875086	0.39225422988396785
-0.47283267956250086	0.3867438390268625
-0.47277164440625086	0.38061540721534964
-0.47271060925000086	0.37387871474561235
-0.47264957409375086	0.3665443872523708
-0.47258853893750086	0.3586240021564318
-0.47252750378125086	0.35013019772960396
-0.47246646862500086	0.3410764855435282
-0.47240543346875086	0.3314773177780158
-0.47234439831250086	0.3213479852252543
-0.47228336315625086	0.3107046920385608
-0.47222232800000086	0.2995645443951212
-0.47216129284375086	0.2879453062376816
-0.47210025768750086	0.27586563775125333
-0.47203922253125086	0.2633450001767335
-0.47197818737500086	0.2504033884970575
-0.47191715221875086	0.23706174443026282
-0.47185611706250086	0.22334147326156764
-0.47179508190625086	0.20926455962558102
-0.47173404675000086	0.19485396661209217
-0.47167301159375086	0.180132668024376
-0.47161197643750086	0.16512439790971808
-0.47155094128125086	0.14985365998207653
-0.47148990612500086	0.134344844059546
-0.47142887096875086	0.11862302024230999
-0.47136783581250086	0.1027137518075274
-0.47130680065625086	0.08664271194740286
-0.47124576550000086	0.07043577056434687
-0.47118473034375086	0.054119244176236564
-0.47112369518750086	0.03771970378477744
-0.47106266003125086	0.021263441910214245
-0.47100162487500086	0.004777194601426043
-0.47094058971875086	-0.011712119430285444
-0.47087955456250086	-0.028178004957496432
-0.47081851940625086	-0.04459367429254592
-0.47075748425000086	-0.06093240806065705
-0.47069644909375086	-0.07716786321385409
-0.47063541393750086	-0.09327349153284586
-0.47057437878125086	-0.10922320792292396
-0.47051334362500086	-0.1249912344800872
-0.47045230846875086	-0.14055170803790704
