Time	Frequency
-0.500023579062514	0.000636287451072451
-0.49996254390626405	-0.02387554882640887
-0.49990150875001405	-0.04835201869151415
-0.49984047359376405	-0.07272718754136318
-0.49977943843751405	-0.0969366363077943
-0.49971840328126405	-0.12091626063998072
-0.49965736812501405	-0.14460161587048895
-0.49959633296876405	-0.16792991318794068
-0.49953529781251405	-0.19083889009776228
-0.49947426265626405	-0.2132672570684009
-0.49941322750001405	-0.2351554507653824
-0.49935219234376405	-0.2564446836332527
-0.49929115718751405	-0.27707793345275544
-0.49923012203126405	-0.2970002776514891
-0.49916908687501405	-0.31615812132415094
-0.49910805171876405	-0.3344999961938425
-0.49904701656251405	-0.35197669224160555
-0.49898598140626405	-0.36854122910929377
-0.49892494625001405	-0.3841490189316485
-0.49886391109376405	-0.3987577870800332
-0.49880287593751405	-0.412327970001203
-0.49874184078126405	-0.42482311229090014
-0.49868080562501405	-0.4362091167538602
-0.49861977046876405	-0.44645458247057473
-0.49855873531251405	-0.45553193568722883
-0.49849770015626405	-0.46341615746106407
-0.49843666500001405	-0.47008509378683916
-0.49837562984376405	-0.4755203521465706
-0.49831459468751405	-0.4797065873399936
-0.49825355953126405	-0.48263166302930866
-0.49819252437501405	-0.48428678379230566
-0.49813148921876405	-0.4846665919055778
-0.49807045406251405	-0.4837691109285185
-0.49800941890626405	-0.4815956221756693
-0.49794838375001405	-0.47815089437913805
-0.49788734859376405	-0.4734430426288341
-0.49782631343751405	-0.46748341146714134
-0.49776527828126405	-0.46028684780381784
-0.49770424312501405	-0.451871485828186
-0.49764320796876405	-0.44225830296406776
-0.49758217281251405	-0.4314719159915465
-0.49752113765626405	-0.4195401607611559
-0.49746010250001405	-0.4064931558495741
-0.49739906734376405	-0.39236465088638545
-0.49733803218751405	-0.3771914542577451
-0.49727699703126405	-0.36101231017978735
-0.49721596187501405	-0.3438693490579313
-0.49715492671876405	-0.3258071988455028
-0.49709389156251405	-0.30687243333674946
-0.49703285640626405	-0.2871148672291417
-0.49697182125001405	-0.26658565418624036
-0.49691078609376405	-0.2453379297248458
-0.49684975093751405	-0.22342809315180703
-0.49678871578126405	-0.2009131130760464
-0.49672768062501405	-0.17785099273581592
-0.49666664546876405	-0.1543030775891382
-0.49660561031251405	-0.1303313993267185
-0.49654457515626405	-0.10599719888092424
-0.49648354000001405	-0.08136550238362879
-0.49642250484376405	-0.05650144744366913
-0.49636146968751405	-0.03146844495530897
-0.49630043453126405	-0.006333885089235956
-0.49623939937501405	0.018836190686088664
-0.49617836421876405	0.043977080796135014
-0.49611732906251405	0.06902114579850958
-0.49605629390626405	0.09390264127992949
-0.49599525875001405	0.11855700883248899
-0.49593422359376405	0.142918586602963
-0.49587318843751405	0.16692299389361626
-0.49581215328126405	0.19050745922675608
-0.49575111812501405	0.21360973318756019
-0.49569008296876405	0.23616845858634428
-0.49562904781251405	0.25812451898965755
-0.49556801265626405	0.2794200277196622
-0.49550697750001405	0.2999981707948432
-0.49544594234376405	0.31980513022296503
-0.49538490718751405	0.3387886079923844
-0.49532387203126405	0.35689801669961957
-0.49526283687501405	0.3740857573398198
-0.49520180171876405	0.39030626089371356
-0.49514076656251405	0.40551674784403086
-0.49507973140626405	0.4196769664548477
-0.49501869625001405	0.43274912317251424
-0.49495766109376405	0.44469891282095386
-0.49489662593751405	0.45549473330155643
-0.49483559078126405	0.4651076905829704
-0.49477455562501405	0.4735124287271575
-0.49471352046876405	0.4806867816313956
-0.49465248531251405	0.48661154028559384
-0.49459145015626405	0.49127099875679037
-0.49453041500001405	0.49465287022099175
-0.49446937984376405	0.4967480744635158
-0.49440834468751405	0.497551018266145
-0.49434730953126405	0.49705956171471927
-0.49428627437501405	0.49527498315503193
-0.49422523921876405	0.4922019512561213
-0.49416420406251405	0.4878485482204514
-0.49410316890626405	0.48222637384914296
-0.49404213375001405	0.4753502732247715
-0.49398109859376405	0.4672383779659287
-0.49392006343751405	0.45791232918718444
-0.49385902828126405	0.4473967728228087
-0.49379799312501405	0.43571956295628567
-0.49373695796876405	0.42291183447599445
-0.49367592281251405	0.4090073444999282
-0.49361488765626405	0.39404315142051316
-0.49355385250001405	0.3780591772420278
-0.49349281734376405	0.36109746163497347
-0.49343178218751405	0.34320316084355873
-0.49337074703126405	0.32442429812203216
-0.49330971187501405	0.30481032730946667
-0.49324867671876405	0.2844131404840279
-0.49318764156251405	0.26328766982068597
-0.49312660640626405	0.241489769234661
-0.49306557125001405	0.21907723357012926
-0.49300453609376405	0.1961098200311877
-0.49294350093751405	0.17264860704451804
-0.49288246578126405	0.14875654675196368
-0.49282143062501405	0.12449640269301135
-0.49276039546876405	0.0999328102606592
-0.49269936031251405	0.07513223151611194
-0.49263832515626405	0.05015980578502841
-0.49257729000001405	0.025081659022379972
-0.49251625484376405	-3.4388408097195214e-05
-0.49245521968751405	-0.02512153309206799
-0.49239418453126405	-0.05011389997031259
-0.49233314937501405	-0.07494420453985727
-0.49227211421876405	-0.09954560170098016
-0.49221107906251405	-0.12385377484531707
-0.49215004390626405	-0.14780366417175433
-0.49208900875001405	-0.1713301883079877
-0.49202797359376405	-0.19437190146970987
-0.49196693843751405	-0.21686753146162074
-0.49190590328126405	-0.2387556948979884
-0.49184486812501405	-0.2599789360845161
-0.49178383296876405	-0.2804809199796695
-0.49172279781251405	-0.30020617555621454
-0.49166176265626405	-0.31910251126319145
-0.49160072750001405	-0.33711944177031206
-0.49153969234376405	-0.354208805183417
-0.49147865718751405	-0.3703251580633802
-0.49141762203126405	-0.38542529486385674
-0.49135658687501405	-0.3994691482503883
-0.49129555171876405	-0.4124190768002411
-0.49123451656251405	-0.4242404943912455
-0.49117348140626405	-0.4349022136574046
-0.49111244625001405	-0.44437545244087034
-0.49105141109376405	-0.45263500152262987
-0.49099037593751405	-0.45965912332055564
-0.49092934078126405	-0.4654289410112628
-0.49086830562501405	-0.4699291110846257
-0.49080727046876405	-0.47314780566742975
-0.49074623531251405	-0.47507653320388
-0.49068520015626405	-0.4757102182281214
-0.49062416500001405	-0.4750473493372259
-0.49056312984376405	-0.4730898504166842
-0.49050209468751405	-0.4698431597945881
-0.49044105953126405	-0.4653161330267078
-0.49038002437501405	-0.45952101238236026
-0.49031898921876405	-0.4524736822807547
-0.49025795406251405	-0.44419314399354537
-0.49019691890626405	-0.43470173808311996
-0.49013588375001405	-0.42402528767247777
-0.49007484859376405	-0.4121926335205563
-0.49001381343751405	-0.3992356291812185
-0.48995277828126405	-0.3851893647754806
-0.48989174312501405	-0.37009199390709413
-0.48983070796876405	-0.3539840008456487
-0.48976967281251405	-0.33690896437920054
-0.48970863765626405	-0.3189133032972906
-0.48964760250001405	-0.3000453614851579
-0.48958656734376405	-0.2803562286744212
-0.48952553218751405	-0.259899178510298
-0.48946449703126405	-0.23872939158384976
-0.48940346187501405	-0.21690431146519332
-0.48934242671876405	-0.19448283869374744
-0.48928139156251405	-0.17152552354682005
-0.48922035640626405	-0.14809482214115743
-0.48915932125001405	-0.1242538960038579
-0.48909828609376405	-0.10006709674857456
-0.48903725093751405	-0.0756005641262139
-0.48897621578126405	-0.05092020114390171
-0.48891518062501405	-0.026092429359470357
-0.48885414546876405	-0.0011853644158846073
-0.48879311031251405	0.023733497456415203
-0.48873207515626405	0.048597283421937136
-0.48867104000001405	0.07333804332939416
-0.48861000484376405	0.09788817366192255
-0.48854896968751405	0.1221817304716458
-0.48848793453126405	0.1461523319359374
-0.48842689937501405	0.16973435065049336
-0.48836586421876405	0.19286458182139468
-0.48830482906251405	0.21547938010669268
-0.48824379390626405	0.23751667814518196
-0.48818275875001405	0.2589174483702427
-0.48812172359376405	0.2796227059504357
-0.48806068843751405	0.299575568539101
-0.48799965328126405	0.3187221218479363
-0.48793861812501405	0.3370095193997948
-0.48787758296876405	0.3543876447536839
-0.48781654781251405	0.3708090931510911
-0.48775551265626405	0.38622841989440265
-0.48769447750001405	0.40060327220194575
-0.48763344234376405	0.41389398387526355
-0.48757240718751405	0.42606376152288156
-0.48751137203126405	0.43707890763076207
-0.48745033687501405	0.44690863444657103
-0.48738930171876405	0.4555256102611962
-0.48732826656251405	0.46290551799248403
-0.48726723140626405	0.4690273591440415
-0.48720619625001405	0.47387382211216084
-0.48714516109376405	0.4774307155704208
-0.48708412593751405	0.47968733168706396
-0.48702309078126405	0.48063664614709595
-0.48696205562501405	0.480275060353401
-0.48690102046876405	0.4786025012650564
-0.48683998531251405	0.47562239404941337
-0.48677895015626405	0.4713417483686268
-0.48671791500001405	0.46577117901030984
-0.48665687984376405	0.4589245747346592
-0.48659584468751405	0.45081930776957013
-0.48653480953126405	0.4414764674271561
-0.48647377437501405	0.4309201513941508
-0.48641273921876405	0.4191775978668881
-0.48635170406251405	0.40627993764147186
-0.48629066890626405	0.3922608346136124
-0.48622963375001405	0.3771568547733332
-0.48616859859376405	0.36100845995700354
-0.48610756343751405	0.3438578866777128
-0.48604652828126405	0.325750303905946
-0.48598549312501405	0.3067344946887133
-0.48592445796876405	0.28686042119275645
-0.48586342281251405	0.2661806105482037
-0.48580238765626405	0.24475077637136453
-0.48574135250001405	0.22262782411350399
-0.48568031734376405	0.19987040330893238
-0.48561928218751405	0.17653948567377145
-0.48555824703126405	0.15269750551087294
-0.48549721187501405	0.12840813448308622
-0.48543617671876405	0.1037362631457617
-0.48537514156251405	0.07874799570277434
-0.48531410640626405	0.05351027067125093
-0.48525307125001405	0.028090932320483198
-0.48519203609376405	0.002558034451856485
-0.48513100093751405	-0.02302016080116951
-0.48506996578126405	-0.04857432621236689
-0.48500893062501405	-0.07403617161980196
-0.48494789546876405	-0.09933739003075824
-0.48488686031251405	-0.12440924510820826
-0.48482582515626405	-0.14918493534674523
-0.48476479000001405	-0.17359749608417158
-0.48470375484376405	-0.1975805436990397
-0.48464271968751405	-0.22107014641038114
-0.48458168453126405	-0.24400281091328258
-0.48452064937501405	-0.2663159602967461
-0.48445961421876405	-0.2879497526877486
-0.48439857906251405	-0.3088458596061872
-0.48433754390626405	-0.32894721571382846
-0.48427650875001405	-0.34819965088683186
-0.48421547359376405	-0.3665509244901195
-0.48415443843751405	-0.3839511260942624
-0.48409340328126405	-0.40035321093831766
-0.48403236812501405	-0.4157122507981242
-0.48397133296876405	-0.42998662713589
-0.48391029781251405	-0.44313737432365374
-0.48384926265626405	-0.45512843401067943
-0.48378822750001405	-0.46592726671912865
-0.48372719234376405	-0.4755038993291267
-0.48366615718751405	-0.48383205243143923
-0.48360512203126405	-0.49088902063541506
-0.48354408687501405	-0.4966548738343008
-0.48348305171876405	-0.5011134414330086
-0.48342201656251405	-0.5042523757868256
-0.48336098140626405	-0.5060624898836819
-0.48329994625001405	-0.5065381429010709
-0.48323891109376405	-0.5056775859620685
-0.48317787593751405	-0.5034825055171576
-0.48311684078126405	-0.4999580563443419
-0.48305580562501405	-0.4951132171326102
-0.48299477046876405	-0.4889604271271477
-0.48293373531251405	-0.48151550912429975
-0.48287270015626405	-0.47279799957351665
-0.48281166500001405	-0.46283083064669767
-0.48275062984376405	-0.451640136955074
-0.48268959468751405	-0.43925550558950116
-0.48262855953126405	-0.42570975402293826
-0.48256752437501405	-0.4110388238836504
-0.48250648921876405	-0.3952817479594835
-0.48244545406251405	-0.3784802195714091
-0.48238441890626405	-0.360679136174857
-0.48232338375001405	-0.3419261643216082
-0.48226234859376405	-0.3222709867980927
-0.48220131343751405	-0.3017661712491433
-0.48214027828126405	-0.2804667598252618
-0.48207924312501405	-0.25842956691984653
-0.48201820796876405	-0.23571338040068238
-0.48195717281251405	-0.2123792577066959
-0.48189613765626405	-0.18848986385136562
-0.48183510250001405	-0.1641088015670631
-0.48177406734376405	-0.13930146504590815
-0.48171303218751405	-0.11413493038419298
-0.48165199703126405	-0.08867652986464633
-0.48159096187501405	-0.06299383806593008
-0.48152992671876405	-0.03715666271572712
-0.48146889156251405	-0.011234809687641298
-0.48140785640626405	0.014703489308025581
-0.48134682125001405	0.04058773187482582
-0.48128578609376405	0.06634759533939594
-0.48122475093751405	0.091915161451871
-0.48116371578126405	0.11722129578871825
-0.48110268062501405	0.14219697118880048
-0.48104164546876405	0.1667760762179119
-0.48098061031251405	0.19089257160974502
-0.48091957515626405	0.21448031391438868
-0.48085854000001405	0.23747692006825474
-0.48079750484376405	0.2598207030258313
-0.48073646968751405	0.2814501930447046
-0.48067543453126405	0.3023082070775426
-0.48061439937501405	0.3223388454072755
-0.48055336421876405	0.3414871629446856
-0.48049232906251405	0.3597021150300689
-0.48043129390626405	0.37693517036610324
-0.48037025875001405	0.3931393088648012
-0.48030922359376405	0.408270781760976
-0.48024818843751405	0.42228970605941096
-0.48018715328126405	0.43515796081102104
-0.48012611812501405	0.44684046945072536
-0.48006508296876405	0.4573067129114826
-0.48000404781251405	0.46652839978223437
-0.47994301265626405	0.4744803134373952
-0.47988197750001405	0.48114169926329625
-0.47982094234376405	0.48649486291988997
-0.47975990718751405	0.49052525929728996
-0.47969887203126405	0.4932223686097205
-0.47963783687501405	0.49457935841911815
-0.47957680171876405	0.4945927288700178
-0.47951576656251405	0.49326274408616955
-0.47945473140626405	0.49059345865852355
-0.47939369625001405	0.4865923676760239
-0.47933266109376405	0.48127067036256305
-0.47927162593751405	0.47464327380667654
-0.47921059078126405	0.4667283881432138
-0.47914955562501405	0.45754790976364923
-0.47908852046876405	0.44712728558518966
-0.47902748531251405	0.4354949682520207
-0.47896645015626405	0.4226830862630641
-0.47890541500001405	0.4087268997033442
-0.47884437984376405	0.39366452671266006
-0.47878334468751405	0.3775375781482531
-0.47872230953126405	0.3603901240774883
-0.47866127437501405	0.34226918203679085
-0.47860023921876405	0.3232247504314427
-0.47853920406251405	0.3033086614806544
-0.47847816890626405	0.2825757274085316
-0.47841713375001405	0.26108305506008783
-0.47835609859376405	0.23888909557356636
-0.47829506343751405	0.2160549564109637
-0.47823402828126405	0.19264349113203877
-0.47817299312501405	0.16871846733269721
-0.47811195796876405	0.14434580589094043
-0.47805092281251405	0.11959249639459349
-0.47798988765626405	0.09452596881253633
-0.47792885250001405	0.06921541450181586
-0.47786781734376405	0.043730368390478794
-0.47780678218751405	0.018140475730698106
-0.47774574703126405	-0.007483794089193148
-0.47768471187501405	-0.03307221114929147
-0.47762367671876405	-0.058554274730592965
-0.47756264156251405	-0.08385991393305944
-0.47750160640626405	-0.1089200996694981
-0.47744057125001405	-0.13366538210140083
-0.47737953609376405	-0.15802759150054033
-0.47731850093751405	-0.18194047106320788
-0.47725746578126405	-0.20533761094700448
-0.47719643062501405	-0.22815427749770037
-0.47713539546876405	-0.2503284060767415
-0.47707436031251405	-0.27179872499597757
-0.47701332515626405	-0.29250543171875815
-0.47695229000001405	-0.3123917427848742
-0.47689125484376405	-0.331403247274139
-0.47683021968751405	-0.34948687518469673
-0.47676918453126405	-0.36659239843878016
-0.47670814937501405	-0.3826732036600064
-0.47664711421876405	-0.3976845436460705
-0.47658607906251405	-0.41158436793689496
-0.47652504390626405	-0.42433447134662067
-0.47646400875001405	-0.4358994521338688
-0.47640297359376405	-0.44624701961267
-0.47634193843751405	-0.45534823026087246
-0.47628090328126405	-0.4631775770003501
-0.47621986812501405	-0.46971328414053376
-0.47615883296876405	-0.4749368067001637
-0.47609779781251405	-0.47883318425796056
-0.47603676265626405	-0.481391296622243
-0.47597572750001405	-0.4826036014864364
-0.47591469234376405	-0.4824662287190221
-0.47585365718751405	-0.48097899917781134
-0.47579262203126405	-0.47814544477829923
-0.47573158687501405	-0.4739728822745609
-0.47567055171876405	-0.46847223111752784
-0.47560951656251405	-0.4616579247457373
-0.47554848140626405	-0.45354830698510057
-0.47548744625001405	-0.44416524150450326
-0.47542641109376405	-0.4335336469974645
-0.47536537593751405	-0.4216823770104291
-0.47530434078126405	-0.4086438093471792
-0.47524330562501405	-0.3944528786338861
-0.47518227046876405	-0.37914811262420633
-0.47512123531251405	-0.362771436199748
-0.47506020015626405	-0.34536722333826136
-0.47499916500001405	-0.3269828344945372
-0.47493812984376405	-0.307668478721596
-0.47487709468751405	-0.28747685875944656
-0.47481605953126405	-0.2664631909779473
-0.47475502437501405	-0.2446847507809569
-0.47469398921876405	-0.2222010995934425
-0.47463295406251405	-0.19907410259866198
-0.47457191890626405	-0.1753668078508871
-0.47451088375001405	-0.15114400697162325
-0.47444984859376405	-0.12647248729292682
-0.47438881343751405	-0.10141988573440741
-0.47432777828126405	-0.07605484929833319
-0.47426674312501405	-0.05044693042987212
-0.47420570796876405	-0.024666610727082573
-0.47414467281251405	0.0012148733193959032
-0.47408363765626405	0.027126756013500668
-0.47402260250001405	0.05299787614898901
-0.47396156734376405	0.07875632525235839
-0.47390053218751405	0.10433135498611633
-0.47383949703126405	0.12965294519389667
-0.47377846187501405	0.1546506184065744
-0.47371742671876405	0.17925525767747472
-0.47365639156251405	0.20339956808398477
-0.47359535640626405	0.22701625706770656
-0.47353432125001405	0.250039787179788
-0.47347328609376405	0.2724070010943333
-0.47341225093751405	0.29405552924017064
-0.47335121578126405	0.31492516227381273
-0.47329018062501405	0.3349582722225249
-0.47322914546876405	0.3540990524590367
-0.47316811031251405	0.3722939769199622
-0.47310707515626405	0.3894926046517491
-0.47304604000001405	0.4056469852502121
-0.47298500484376405	0.4207115736109326
-0.47292396968751405	0.4346444390083829
-0.47286293453126405	0.4474064567372835
-0.47280189937501405	0.45896146760972767
-0.47274086421876405	0.4692771282942571
-0.47267982906251405	0.47832395901688135
-0.47261879390626405	0.4860760675234721
-0.47255775875001405	0.492511540363411
-0.47249672359376405	0.4976114812734899
-0.47243568843751405	0.5013607959003183
-0.47237465328126405	0.5037483870458821
-0.47231361812501405	0.5047666168135512
-0.47225258296876405	0.5044116020148808
-0.47219154781251405	0.5026833035462074
-0.47213051265626405	0.4995854890384011
-0.47206947750001405	0.4951256417621402
-0.47200844234376405	0.48931487033940363
-0.47194740718751405	0.48216816751516883
-0.47188637203126405	0.47370429415745285
-0.47182533687501405	0.46394524634124934
-0.47176430171876405	0.45291682217299706
-0.47170326656251405	0.4406486411416435
-0.47164223140626405	0.42717315181367743
-0.47158119625001405	0.4125263084116422
-0.47152016109376405	0.39674769151400224
-0.47145912593751405	0.3798796087124773
-0.47139809078126405	0.3619673825219339
-0.47133705562501405	0.34305938848137063
-0.47127602046876405	0.32320676876122684
-0.47121498531251405	0.30246322328963277
-0.47115395015626405	0.2808847882779623
-0.47109291500001405	0.2585300436899042
-0.47103187984376405	0.23545976729093046
-0.47097084468751405	0.21173641425049902
-0.47090980953126405	0.1874244912063664
-0.47084877437501405	0.1625902485651364
-0.47078773921876405	0.1373011903572165
-0.47072670406251405	0.11162621243991841
-0.47066566890626405	0.08563518544674596
-0.47060463375001405	0.059399109198489286
-0.47054359859376405	0.03298963349014811
-0.47048256343751405	0.00647863619580364
-0.47042152828126405	-0.020061463231529457
