Time	Frequency
-0.5000258641562567	0.40632695941867086
-0.4999648290000067	0.401486083611452
-0.4999037938437567	0.39595965619047546
-0.4998427586875067	0.38975710245139467
-0.4997817235312567	0.3828892880124587
-0.4997206883750067	0.37536814715543115
-0.4996596532187567	0.36720657077261715
-0.4995986180625067	0.35841877952586915
-0.4995375829062567	0.3490202221968305
-0.4994765477500067	0.33902699084374327
-0.4994155125937567	0.32845640781548785
-0.4993544774375067	0.31732723818318676
-0.4992934422812567	0.3056584745037243
-0.4992324071250067	0.2934704612987465
-0.4991713719687567	0.2807847088733439
-0.4991103368125067	0.2676229245944709
-0.4990493016562567	0.25400832701067605
-0.4989882665000067	0.23996458225490788
-0.4989272313437567	0.2255159413509893
-0.4988661961875067	0.21068798747114373
-0.4988051610312567	0.19550637541184687
-0.4987441258750067	0.1799974550179271
-0.4986830907187567	0.16418848203745118
-0.4986220555625067	0.14810716836871676
-0.4985610204062567	0.13178134398973032
-0.4984999852500067	0.1152393656233298
-0.4984389500937567	0.09851072893850035
-0.4983779149375067	0.08162426351941746
-0.4983168797812567	0.06460913116376787
-0.4982558446250067	0.04749587800478656
-0.4981948094687567	0.030313945314812782
-0.4981337743125067	0.013093129988296575
-0.4980727391562567	-0.004135839824306286
-0.4980117040000067	-0.02134319745713451
-0.4979506688437567	-0.03849886846966733
-0.4978896336875067	-0.05557268772614253
-0.4978285985312567	-0.0725348132893377
-0.4977675633750067	-0.08935552239660527
-0.4977065282187567	-0.10600550713728257
-0.4976454930625067	-0.12245541125877812
-0.4975844579062567	-0.13867654782134675
-0.4975234227500067	-0.1546405132627063
-0.4974623875937567	-0.17031921280241877
-0.4974013524375067	-0.1856853564496725
-0.4973403172812567	-0.20071181871847799
-0.4972792821250067	-0.21537241735979154
-0.4972182469687567	-0.22964145147511783
-0.4971572118125067	-0.24349363686926373
-0.4970961766562567	-0.256905110961046
-0.4970351415000067	-0.26985213749789994
-0.4969741063437567	-0.2823117130717668
-0.4969130711875067	-0.29426258637174674
-0.4968520360312567	-0.3056834913592758
-0.4967910008750067	-0.3165540608482946
-0.4967299657187567	-0.32685581185615437
-0.4966689305625067	-0.3365704339589081
-0.4966078954062567	-0.34568062919709125
-0.4965468602500067	-0.35417078066850655
-0.4964858250937567	-0.3620258603897083
-0.4964247899375067	-0.36923198533091356
-0.4963637547812567	-0.37577665430031765
-0.4963027196250067	-0.3816483314893065
-0.4962416844687567	-0.38683671710769474
-0.4961806493125067	-0.3913327454156684
-0.4961196141562567	-0.39512852100424833
-0.4960585790000067	-0.39821740598421096
-0.4959975438437567	-0.4005940137773699
-0.4959365086875067	-0.4022542129223435
-0.4958754735312567	-0.40319510168407474
-0.4958144383750067	-0.4034150817092115
-0.4957534032187567	-0.4029138285473021
-0.4956923680625067	-0.40169225979178474
-0.4956313329062567	-0.3997526012974338
-0.4955702977500067	-0.3970983203462358
-0.4955092625937567	-0.39373413921053846
-0.4954482274375067	-0.3896660851901258
-0.4953871922812567	-0.38490140227324066
-0.4953261571250067	-0.37944850124410284
-0.4952651219687567	-0.3733171222322906
-0.4952040868125067	-0.36651820743657826
-0.4951430516562567	-0.35906369300759944
-0.4950820165000067	-0.35096692704796345
-0.4950209813437567	-0.34224233918065206
-0.4949599461875067	-0.33290518736194163
-0.4948989110312567	-0.3229722913411074
-0.4948378758750067	-0.3124612885577001
-0.4947768407187567	-0.3013905657881551
-0.4947158055625067	-0.28978010007831095
-0.4946547704062567	-0.2776504089816297
-0.4945937352500067	-0.26502293396064724
-0.4945327000937567	-0.2519203213484141
-0.4944716649375067	-0.2383655908001268
-0.4944106297812567	-0.22438308995661446
-0.4943495946250067	-0.2099976196779886
-0.4942885594687567	-0.19523447945940609
-0.4942275243125067	-0.1801204011273557
-0.4941664891562567	-0.16468196716987799
-0.4941054540000067	-0.1489465419283595
-0.4940444188437567	-0.13294252821036265
-0.4939833836875067	-0.11669814624027298
-0.4939223485312567	-0.10024221716401911
-0.4938613133750067	-0.08360430800392589
-0.4938002782187567	-0.06681411230785356
-0.4937392430625067	-0.04990123373449822
-0.4936782079062567	-0.03289596289091645
-0.4936171727500067	-0.01582889537890303
-0.4935561375937567	0.0012698183904362407
-0.4934951024375067	0.018369662469815817
-0.4934340672812567	0.035439886882335805
-0.4933730321250067	0.052450117883906903
-0.4933119969687567	0.06936999431775384
-0.4932509618125067	0.08616918171996128
-0.4931899266562567	0.10281773431465484
-0.4931288915000067	0.11928566401136817
-0.4930678563437567	0.1355436352303236
-0.4930068211875067	0.15156265562286
-0.4929457860312567	0.16731356864855199
-0.4928847508750067	0.18276852953181008
-0.4928237157187567	0.1978997797121385
-0.4927626805625067	0.2126797580342755
-0.4927016454062567	0.22708235766918194
-0.4926406102500067	0.2410814611033494
-0.4925795750937567	0.25465176587235977
-0.4925185399375067	0.26776907900245744
-0.4924575047812567	0.28040950121674074
-0.4923964696250067	0.29255029968945473
-0.4923354344687567	0.3041695684499677
-0.4922743993125067	0.31524624678239765
-0.4922133641562567	0.32576023482890076
-0.4921523290000067	0.33569234934006287
-0.4920912938437567	0.3450247964331584
-0.4920302586875067	0.35374040365751497
-0.4919692235312567	0.3618230498831237
-0.4919081883750067	0.36925830107212176
-0.4918471532187567	0.376032395369143
-0.4917861180625067	0.382132587541541
-0.4917250829062567	0.3875478290451427
-0.4916640477500067	0.3922680566114074
-0.4916030125937567	0.3962842164948913
-0.4915419774375067	0.39958877947022187
-0.4914809422812567	0.4021754690711032
-0.4914199071250067	0.40403911899899003
-0.4913588719687567	0.40517591137530934
-0.4912978368125067	0.4055834039487553
-0.4912368016562567	0.40526034955885987
-0.4911757665000067	0.40420680815278
-0.4911147313437567	0.40242420766839465
-0.4910536961875067	0.3999151723933229
-0.4909926610312567	0.39668369445076235
-0.4909316258750067	0.3927350709221746
-0.4908705907187567	0.38807573739293605
-0.4908095555625067	0.38271355587577605
-0.4907485204062567	0.3766576298681592
-0.4906874852500067	0.36991810363923405
-0.4906264500937567	0.36250660268692875
-0.4905654149375067	0.3544358707402101
-0.4905043797812567	0.3457196123984459
-0.4904433446250067	0.33637308393705917
-0.4903823094687567	0.32641239396346433
-0.4903212743125067	0.31585465961330855
-0.4902602391562567	0.30471849586730737
-0.4901992040000067	0.2930231155473671
-0.4901381688437567	0.2807888537065697
-0.4900771336875067	0.2680372775213331
-0.4900160985312567	0.254790487417138
-0.4899550633750067	0.24107171166246116
-0.4898940282187567	0.22690508160254583
-0.4898329930625067	0.21231529385685083
-0.4897719579062567	0.19732805535848766
-0.4897109227500067	0.18196971278945023
-0.4896498875937567	0.1662671477326183
-0.4895888524375067	0.15024817355833645
-0.4895278172812567	0.13394092612884376
-0.4894667821250067	0.11737395476127502
-0.4894057469687567	0.10057688556648652
-0.4893447118125067	0.08357911103995262
-0.4892836766562567	0.06641042837432176
-0.4892226415000067	0.04910175951979471
-0.4891616063437567	0.03168330821995453
-0.4891005711875067	0.01418574330696955
-0.4890395360312567	-0.0033594792500260427
-0.4889785008750067	-0.02092147302766282
-0.4889174657187567	-0.03846936002789689
-0.4888564305625067	-0.055971783332992894
-0.4887953954062567	-0.0733974747707309
-0.4887343602500067	-0.09071589006821998
-0.4886733250937567	-0.10789612088589452
-0.4886122899375067	-0.1249074308901347
-0.4885512547812567	-0.14171986604633147
-0.4884902196250067	-0.15830319378105398
-0.4884291844687567	-0.17462802912038852
-0.4883681493125067	-0.1906654549803055
-0.4883071141562567	-0.20638643689631953
-0.4882460790000067	-0.22176323136836273
-0.4881850438437567	-0.2367684072974463
-0.4881240086875067	-0.2513748755463751
-0.4880629735312567	-0.26555676749865864
-0.4880019383750067	-0.27928860465890826
-0.4879409032187567	-0.29254569195766655
-0.4878798680625067	-0.30530440509850965
-0.4878188329062567	-0.3175418260247518
-0.4877577977500067	-0.32923579678843357
-0.4876967625937567	-0.3403654120662661
-0.4876357274375067	-0.3509107631535858
-0.4875746922812567	-0.36085251524294737
-0.4875136571250067	-0.37017287096331425
-0.4874526219687567	-0.37885508841840354
-0.4873915868125067	-0.3868831818712931
-0.4873305516562567	-0.39424272977442465
-0.4872695165000067	-0.40092027944727804
-0.4872084813437567	-0.4069035600037404
-0.4871474461875067	-0.41218174205499125
-0.4870864110312567	-0.41674493051192685
-0.4870253758750067	-0.4205847003003308
-0.4869643407187567	-0.42369397629416194
-0.4869033055625067	-0.426066706049544
-0.4868422704062567	-0.42769835341426926
-0.4867812352500067	-0.42858569750038106
-0.4867202000937567	-0.4287267087503325
-0.4866591649375067	-0.4281207814368231
-0.4865981297812567	-0.42676861387467524
-0.4865370946250067	-0.4246722121943212
-0.4864760594687567	-0.4218349341395722
-0.4864150243125067	-0.41826142651250153
-0.4863539891562567	-0.41395764400655055
-0.4862929540000067	-0.4089309122844852
-0.4862319188437567	-0.40318972284574656
-0.4861708836875067	-0.3967438944677938
-0.4861098485312567	-0.38960464633815045
-0.4860488133750067	-0.38178413517087517
-0.4859877782187567	-0.37329593729625987
-0.4859267430625067	-0.3641549266654013
-0.4858657079062567	-0.3543768048754926
-0.4858046727500067	-0.34397868534273024
-0.4857436375937567	-0.332978825107969
-0.4856826024375067	-0.32139623303822396
-0.4856215672812567	-0.30925128845550987
-0.4855605321250067	-0.2965654392104406
-0.4854994969687567	-0.28336055673743854
-0.4854384618125067	-0.269660031854061
-0.4853774266562567	-0.2554881228913086
-0.4853163915000067	-0.2408693317394901
-0.4852553563437567	-0.2258296858802444
-0.4851943211875067	-0.21039554960283052
-0.4851332860312567	-0.19459406641240226
-0.4850722508750067	-0.17845337898061184
-0.4850112157187567	-0.162001445157215
-0.4849501805625067	-0.1452676901279168
-0.4848891454062567	-0.12828171810373246
-0.4848281102500067	-0.11107309099404396
-0.4847670750937567	-0.09367268894685088
-0.4847060399375067	-0.07611101031353835
-0.4846450047812567	-0.05841916016214554
-0.4845839696250067	-0.040628597185085984
-0.4845229344687567	-0.022770456622862773
-0.4844618993125067	-0.004876749457248483
-0.4844008641562567	0.013020965378692614
-0.4843398290000067	0.03089120192946638
-0.4842787938437567	0.048701969325393356
-0.4842177586875067	0.06642176906477457
-0.4841567235312567	0.08401933670026533
-0.4840956883750067	0.10146337406272875
-0.4840346532187567	0.11872276610857
-0.4839736180625067	0.13576708678730376
-0.4839125829062567	0.15256615615729313
-0.4838515477500067	0.16908976403896808
-0.4837905125937567	0.18530887328863926
-0.4837294774375067	0.20119487059892174
-0.4836684422812567	0.21671890951374878
-0.4836074071250067	0.23185381777356842
-0.4835463719687567	0.2465729674920127
-0.4834853368125067	0.2608495129334697
-0.4834243016562567	0.27465852241097416
-0.4833632665000067	0.28797552226482404
-0.4833022313437567	0.30077642462919174
-0.4832411961875067	0.3130388819535086
-0.4831801610312567	0.3247408819707602
-0.4831191258750067	0.33586154442919347
-0.4830580907187567	0.3463813158477418
-0.4829970555625067	0.35628130482482756
-0.4829360204062567	0.365543991418629
-0.4828749852500067	0.3741528584317297
-0.4828139500937567	0.3820926284988818
-0.4827529149375067	0.38934923976707164
-0.4826918797812567	0.3959097015805026
-0.4826308446250067	0.40176245227461327
-0.4825698094687567	0.4068970484298611
-0.4825087743125067	0.41130442395891437
-0.4824477391562567	0.41497682234054967
-0.4823867040000067	0.4179076409491436
-0.4823256688437567	0.4200918031751005
-0.4822646336875067	0.42152551948471656
-0.4822035985312567	0.42220623247934375
-0.4821425633750067	0.4221328451277229
-0.4820815282187567	0.421305600274057
-0.4820204930625067	0.4197260666399721
-0.4819594579062567	0.4173971400778915
-0.4818984227500067	0.4143231149593231
-0.4818373875937567	0.41050963328125833
-0.4817763524375067	0.40596353573304583
-0.4817153172812567	0.4006931646516295
-0.4816542821250067	0.39470807649359835
-0.4815932469687567	0.38801899419306046
-0.4815322118125067	0.3806381781196094
-0.4814711766562567	0.37257891093374296
-0.4814101415000067	0.36385570892420394
-0.4813491063437567	0.35448443962334536
-0.4812880711875067	0.344481996202917
-0.4812270360312567	0.33386648724988593
-0.4811660008750067	0.32265699146730153
-0.4811049657187567	0.31087386355767027
-0.4810439305625067	0.2985384770995384
-0.4809828954062567	0.2856728609018753
-0.4809218602500067	0.27230046503740163
-0.4808608250937567	0.2584454923905118
-0.4807997899375067	0.24413279676615904
-0.4807387547812567	0.2293883835686252
-0.4806777196250067	0.21423887980450104
-0.4806166844687567	0.19871166418391104
-0.4805556493125067	0.18283479507669895
-0.4804946141562567	0.16663700433528633
-0.4804335790000067	0.1501476400057251
-0.4803725438437567	0.13339638834288112
-0.4803115086875067	0.11641367639688693
-0.4802504735312567	0.09923027609128554
-0.4801894383750067	0.08187712236556229
-0.4801284032187567	0.06438575363628113
-0.4800673680625067	0.04678784541614433
-0.4800063329062567	0.029115228507235476
-0.4799452977500067	0.011399920196577725
-0.4798842625937567	-0.006326001782726855
-0.4798232274375067	-0.024030306944109864
-0.4797621922812567	-0.041681000450317286
-0.4797011571250067	-0.05924609052399488
-0.4796401219687567	-0.07669363371852359
-0.4795790868125067	-0.09399197353816888
-0.4795180516562567	-0.11110977741326646
-0.4794570165000067	-0.12801603217089072
-0.4793959813437567	-0.14467979087255917
-0.4793349461875067	-0.16107093493224145
-0.4792739110312567	-0.17715987363386565
-0.4792128758750067	-0.1929169493794547
-0.4791518407187567	-0.20831366307352137
-0.4790908055625067	-0.22332228480850577
-0.4790297704062567	-0.23791508985566134
-0.4789687352500067	-0.2520655431796136
-0.4789077000937567	-0.26574824090986354
-0.4788466649375067	-0.278937876223475
-0.4787856297812567	-0.29161030509146035
-0.4787245946250067	-0.303742840195238
-0.4786635594687567	-0.3153129776284188
-0.4786025243125067	-0.3262995235101416
-0.4785414891562567	-0.3366826802989445
-0.4784804540000067	-0.34644317682591586
-0.4784194188437567	-0.3555632012892481
-0.4783583836875067	-0.3640260807902059
-0.4782973485312567	-0.3718161574126575
-0.4782363133750067	-0.37891918150455206
-0.4781752782187567	-0.3853220397723678
-0.4781142430625067	-0.39101286219526754
-0.4780532079062567	-0.3959811408482055
-0.4779921727500067	-0.40021767081696374
-0.4779311375937567	-0.40371447998152804
-0.4778701024375067	-0.40646501127206097
-0.4778090672812567	-0.4084640920871311
-0.4777480321250067	-0.4097078032007906
-0.4776869969687567	-0.41019367845666377
-0.4776259618125067	-0.4099206169132969
-0.4775649266562567	-0.4088888631218556
-0.4775038915000067	-0.40710006238503077
-0.4774428563437567	-0.40455721173950576
-0.4773818211875067	-0.4012647410124023
-0.4773207860312567	-0.39722835937962186
-0.4772597508750067	-0.39245515797386554
-0.4771987157187567	-0.38695363023250723
-0.4771376805625067	-0.3807335004635726
-0.4770766454062567	-0.3738058564151309
-0.4770156102500067	-0.36618308908095937
-0.4769545750937567	-0.3578788075562016
-0.4768935399375067	-0.34890787196969386
-0.4768325047812567	-0.3392864699181588
-0.4767714696250067	-0.3290318336820032
-0.4767104344687567	-0.31816231346044027
-0.4766493993125067	-0.30669766243863383
-0.4765883641562567	-0.2946584881352983
-0.4765273290000067	-0.2820663745484711
-0.4764662938437567	-0.26894421387262196
-0.4764052586875067	-0.2553157041574471
-0.4763442235312567	-0.2412053248841431
-0.4762831883750067	-0.22663877534231905
-0.4762221532187567	-0.21164246316303606
-0.4761611180625067	-0.19624323952824763
-0.4761000829062567	-0.1804693139745699
-0.4760390477500067	-0.16434940027132877
-0.4759780125937567	-0.1479122019031751
-0.4759169774375067	-0.1311880161416988
-0.4758559422812567	-0.11420740286966027
-0.4757949071250067	-0.09700047792682004
-0.4757338719687567	-0.07959910967211793
-0.4756728368125067	-0.062035111991873976
-0.4756118016562567	-0.044339713185158246
-0.4755507665000067	-0.026545783918852983
-0.4754897313437567	-0.00868568480749843
-0.4754286961875067	0.009208511834873583
-0.4753676610312567	0.027103571527910562
-0.4753066258750067	0.04496712443560216
-0.4752455907187567	0.0627667208138633
-0.4751845555625067	0.08046940611641304
-0.4751235204062567	0.0980431974046906
-0.4750624852500067	0.11545590713294614
-0.4750014500937567	0.13267536816709277
-0.4749404149375067	0.1496704100262739
-0.4748793797812567	0.1664098191630612
-0.4748183446250067	0.18286266875557317
-0.4747573094687567	0.19899894303651064
-0.4746962743125067	0.21478914509656352
-0.4746352391562567	0.23020406350540196
-0.4745742040000067	0.24521521689336084
-0.4745131688437567	0.2597953417038306
-0.4744521336875067	0.2739174224629024
-0.4743910985312567	0.2875551523796157
-0.4743300633750067	0.3006837261705055
-0.4742690282187567	0.3132787615881314
-0.4742079930625067	0.3253167580235364
-0.4741469579062567	0.3367756466287197
-0.4740859227500067	0.3476340874852494
-0.4740248875937567	0.35787177863301606
-0.4739638524375067	0.3674697833669124
-0.4739028172812567	0.37641016212355155
-0.4738417821250067	0.3846760722649949
-0.4737807469687567	0.3922521141079488
-0.4737197118125067	0.39912402514588513
-0.4736586766562567	0.40527866855328554
-0.4735976415000067	0.4107044651515227
-0.4735366063437567	0.41539105596743603
-0.4734755711875067	0.41932927724866403
-0.4734145360312567	0.42251151097200074
-0.4733535008750067	0.4249314782309695
-0.4732924657187567	0.4265841894304243
-0.4732314305625067	0.42746609826195
-0.4731703954062567	0.42757510282226063
-0.4731093602500067	0.4269104727058942
-0.4730483250937567	0.425472822787103
-0.4729872899375067	0.4232642791386377
-0.4729262547812567	0.4202883431275191
-0.4728652196250067	0.4165498080372461
-0.4728041844687567	0.41205503288491435
-0.4727431493125067	0.4068116547954559
-0.4726821141562567	0.40082860648760904
-0.4726210790000067	0.39411635994782834
-0.4725600438437567	0.38668657523113303
-0.4724990086875067	0.37855222460428606
-0.4724379735312567	0.3697276532276325
-0.4723769383750067	0.3602284127487924
-0.4723159032187567	0.3500713177950489
-0.4722548680625067	0.3392743227606165
-0.4721938329062567	0.32785664868368347
-0.4721327977500067	0.31583863860774447
-0.4720717625937567	0.30324165568302036
-0.4720107274375067	0.2900882196726001
-0.4719496922812567	0.2764018467420016
-0.4718886571250067	0.26220704127373295
-0.4718276219687567	0.24752917031288735
-0.4717665868125067	0.23239467554686835
-0.4717055516562567	0.21683068707800868
-0.4716445165000067	0.20086499424397256
-0.4715834813437567	0.1845266037459294
-0.4715224461875067	0.1678448581968871
-0.4714614110312567	0.15084955025059393
-0.4714003758750067	0.1335714887656546
-0.4713393407187567	0.11604205968573872
-0.4712783055625067	0.09829259745693054
-0.4712172704062567	0.08035501297469311
-0.4711562352500067	0.062262230845879604
-0.4710952000937567	0.0440467021544775
-0.4710341649375067	0.025741100363750668
-0.4709731297812567	0.007378979993909353
-0.4709120946250067	-0.011006503899539796
-0.4708510594687567	-0.029382231618332137
-0.4707900243125067	-0.047714727454276074
-0.4707289891562567	-0.06597073255493416
-0.4706679540000067	-0.08411724979447445
-0.4706069188437567	-0.1021212485739201
-0.4705458836875067	-0.11994994367138243
-0.4704848485312567	-0.1375711505054012
-0.4704238133750067	-0.15495276431153376
-0.4703627782187567	-0.17206300639665972
-0.4703017430625067	-0.1888709365836842
-0.4702407079062567	-0.20534594475755272
-0.4701796727500067	-0.22145797470939077
-0.4701186375937567	-0.23717766706839036
-0.4700576024375067	-0.25247632485977495
-0.4699965672812567	-0.2673262607671858
-0.4699355321250067	-0.2817002062330058
-0.4698744969687567	-0.29557175783663603
-0.4698134618125067	-0.30891602162201676
-0.4697524266562567	-0.3217083537205823
-0.4696913915000067	-0.3339251251413611
