Time	Frequency
-0.5000596040312502	-0.1258448138277454
-0.49999856887500016	-0.11060068201473805
-0.49993753371875016	-0.09517318836765434
-0.49987649856250016	-0.07958709190004841
-0.49981546340625016	-0.06386775572061469
-0.49975442825000016	-0.048041049900310155
-0.49969339309375016	-0.03213276564057594
-0.49963235793750016	-0.016168828377986295
-0.49957132278125016	-0.00017504054000528745
-0.49951028762500016	0.015822038128819924
-0.49944925246875016	0.03179635340355681
-0.49938821731250016	0.04772227526611971
-0.49932718215625016	0.06357306637450524
-0.49926614700000016	0.07932314250404705
-0.49920511184375016	0.09494698947743824
-0.49914407668750016	0.1104183780482415
-0.49908304153125016	0.12571251385290838
-0.49902200637500016	0.14080424879339537
-0.49896097121875016	0.15566842863608113
-0.49889993606250016	0.17028130641267736
-0.49883890090625016	0.18461851932298007
-0.49877786575000016	0.19865632506616718
-0.49871683059375016	0.21237231337983944
-0.49865579543750016	0.22574343792911944
-0.49859476028125016	0.23874763466833068
-0.49853372512500016	0.2513640044866239
-0.49847268996875016	0.26357140597717377
-0.49841165481250016	0.27534971115361767
-0.49835061965625016	0.28667972663002456
-0.49828958450000016	0.29754261783589087
-0.49822854934375016	0.3079204845566998
-0.49816751418750016	0.31779616138480365
-0.49810647903125016	0.3271533185366105
-0.49804544387500016	0.3359765939519619
-0.49798440871875016	0.3442511197108735
-0.49792337356250016	0.35196329949319843
-0.49786233840625016	0.3591005220000923
-0.49780130325000016	0.36565047151168173
-0.49774026809375016	0.37160248579136024
-0.49767923293750016	0.3769467998755416
-0.49761819778125016	0.38167402880838697
-0.49755716262500016	0.38577646241142405
-0.49749612746875016	0.38924727958406663
-0.49743509231250016	0.3920803413123062
-0.49737405715625016	0.3942708968391425
-0.49731302200000016	0.3958151888362152
-0.49725198684375016	0.3967103942145448
-0.49719095168750016	0.39695484210166926
-0.49712991653125016	0.39654792175680464
-0.49706888137500016	0.39549007493576704
-0.49700784621875016	0.3937828193671527
-0.49694681106250016	0.3914286951904762
-0.49688577590625016	0.388431370197216
-0.49682474075000016	0.38479558495776917
-0.49676370559375016	0.3805269487670408
-0.49670267043750016	0.37563232162721727
-0.49664163528125016	0.3701196376609302
-0.49658060012500016	0.3639974431199196
-0.49651956496875016	0.3572757288348108
-0.49645852981250016	0.3499654670588963
-0.49639749465625016	0.34207809302708814
-0.49633645950000016	0.33362657769886817
-0.49627542434375016	0.32462461317014296
-0.49621438918750016	0.3150865795506975
-0.49615335403125016	0.3050281719824899
-0.49609231887500016	0.2944655262561438
-0.49603128371875016	0.28341581798604315
-0.49597024856250016	0.2718971980977278
-0.49590921340625016	0.25992818081913066
-0.49584817825000016	0.2475282541604437
-0.49578714309375016	0.23471778842743393
-0.49572610793750016	0.22151761924906554
-0.49566507278125016	0.2079491149125054
-0.49560403762500016	0.1940345169247756
-0.49554300246875016	0.17979666278124232
-0.49548196731250016	0.16525869713967242
-0.49542093215625016	0.15044429934492073
-0.49535989700000016	0.13537779515177062
-0.49529886184375016	0.12008396668339916
-0.49523782668750016	0.1045876201011466
-0.49517679153125016	0.08891410826671445
-0.49511575637500016	0.07308942064262267
-0.49505472121875016	0.05713922617072461
-0.49499368606250016	0.041089605945064396
-0.49493265090625016	0.02496725583190327
-0.49487161575000016	0.008798256631035247
-0.49481058059375016	-0.007390727175784465
-0.49474954543750016	-0.023572868955456856
-0.49468851028125016	-0.039722076143785576
-0.49462747512500016	-0.05581132729987654
-0.49456643996875016	-0.07181432534620275
-0.49450540481250016	-0.0877049924383111
-0.49444436965625016	-0.10345666297692904
-0.49438333450000016	-0.11904394665191351
-0.49432229934375016	-0.13444080678934886
-0.49426126418750016	-0.14962183928683193
-0.49420022903125016	-0.16456255398541997
-0.49413919387500016	-0.1792374778534262
-0.49407815871875016	-0.19362293747495038
-0.49401712356250016	-0.20769543071921656
-0.49395608840625016	-0.22143082485015023
-0.49389505325000016	-0.23480718613976898
-0.49383401809375016	-0.24780238340946192
-0.49377298293750016	-0.2603942607518237
-0.49371194778125016	-0.27256267760710223
-0.49365091262500016	-0.2842872887593148
-0.49358987746875016	-0.29554826311340876
-0.49352884231250016	-0.30632747157552476
-0.49346780715625016	-0.3166068059872823
-0.49340677200000016	-0.3263689947504975
-0.49334573684375016	-0.3355980856269782
-0.49328470168750016	-0.3442786079761346
-0.49322366653125016	-0.35239607205318024
-0.49316263137500016	-0.359936953225431
-0.49310159621875016	-0.36688864160419743
-0.49304056106250016	-0.37323955439264883
-0.49297952590625016	-0.3789789831740674
-0.49291849075000016	-0.38409727945282107
-0.49285745559375016	-0.38858584725135914
-0.49279642043750016	-0.3924371051837936
-0.49273538528125016	-0.39564446106719287
-0.49267435012500016	-0.39820243443261755
-0.49261331496875016	-0.4001066620209835
-0.49255227981250016	-0.40135372549494086
-0.49249124465625016	-0.4019413884753484
-0.49243020950000016	-0.4018685147203455
-0.49236917434375016	-0.4011349483948587
-0.49230813918750016	-0.3997417305638267
-0.49224710403125016	-0.3976909619324136
-0.49218606887500016	-0.3949857703658009
-0.49212503371875016	-0.3916304611710443
-0.49206399856250016	-0.38763033249441703
-0.49200296340625016	-0.3829917741519951
-0.49194192825000016	-0.37772228783718526
-0.49188089309375016	-0.37183027359239174
-0.49181985793750016	-0.3653253405774597
-0.49175882278125016	-0.35821804096815596
-0.49169778762500016	-0.3505197609101541
-0.49163675246875016	-0.3422432154628431
-0.49157571731250016	-0.33340181982460804
-0.49151468215625016	-0.3240098134389951
-0.49145364700000016	-0.31408282032739004
-0.49139261184375016	-0.3036369290572833
-0.49133157668750016	-0.2926889804720982
-0.49127054153125016	-0.28125733408862824
-0.49120950637500016	-0.2693605700074283
-0.49114847121875016	-0.2570177258305701
-0.49108743606250016	-0.24424973127849328
-0.49102640090625016	-0.23107738570747752
-0.49096536575000016	-0.21752169041424188
-0.49090433059375016	-0.2036057024313758
-0.49084329543750016	-0.18935209960811764
-0.49078226028125016	-0.17478391200968957
-0.49072122512500016	-0.15992558472754664
-0.49066018996875016	-0.1448013863484362
-0.49059915481250016	-0.12943623090115053
-0.49053811965625016	-0.11385544874653859
-0.49047708450000016	-0.09808464428085273
-0.49041604934375016	-0.0821500515841906
-0.49035501418750016	-0.06607772072672444
-0.49029397903125016	-0.04989415650558548
-0.49023294387500016	-0.03362636631657613
-0.49017190871875016	-0.017301027042439524
-0.49011087356250016	-0.0009449421309439385
-0.49004983840625016	0.01541456694031293
-0.48998880325000016	0.03175039274516588
-0.48992776809375016	0.048035901492177645
-0.48986673293750016	0.06424390849067824
-0.48980569778125016	0.08034734347859288
-0.48974466262500016	0.09631999029516089
-0.48968362746875016	0.11213518097412625
-0.48962259231250016	0.12776653171570557
-0.48956155715625016	0.14318839576090595
-0.48950052200000016	0.15837510766133542
-0.48943948684375016	0.17330136746152094
-0.48937845168750016	0.18794241394596348
-0.48931741653125016	0.20227416838875134
-0.48925638137500016	0.21627250853010463
-0.48919534621875016	0.22991412282467102
-0.48913431106250016	0.24317682633354112
-0.48907327590625016	0.25603799805277344
-0.48901224075000016	0.2684763011035681
-0.48895120559375016	0.28047148119540255
-0.48889017043750016	0.29200295981059526
-0.48882913528125016	0.3030517221582402
-0.48876810012500016	0.31359960399949716
-0.48870706496875016	0.32362848665806226
-0.48864602981250016	0.33312193823309877
-0.48858499465625016	0.3420641557086163
-0.48852395950000016	0.35043975943958444
-0.48846292434375016	0.3582351001447251
-0.48840188918750016	0.3654370430960061
-0.48834085403125016	0.37203320184091726
-0.48827981887500016	0.3780127993409534
-0.48821878371875016	0.38336564881228014
-0.48815774856250016	0.3880825913377973
-0.48809671340625016	0.39215579189481026
-0.48803567825000016	0.3955782209757929
-0.48797464309375016	0.39834406219775914
-0.48791360793750016	0.40044857072672624
-0.48785257278125016	0.40188800975274275
-0.48779153762500016	0.40265988948200104
-0.48773050246875016	0.4027627257308032
-0.48766946731250016	0.40219614448762947
-0.48760843215625016	0.4009609634875973
-0.48754739700000016	0.3990590039571613
-0.48748636184375016	0.3964932786206284
-0.48742532668750016	0.39326791283028606
-0.48736429153125016	0.3893879933607818
-0.48730325637500016	0.3848598805792729
-0.48724222121875016	0.37969094975237927
-0.48718118606250016	0.3738895031158522
-0.48712015090625016	0.36746513052631063
-0.48705911575000016	0.36042834933921003
-0.48699808059375016	0.3527906129978484
-0.48693704543750016	0.3445645420644857
-0.48687601028125016	0.3357636117208901
-0.48681497512500016	0.32640237568408503
-0.48675393996875016	0.3164962378303835
-0.48669290481250016	0.30606140299083145
-0.48663186965625016	0.29511532533887147
-0.48657083450000016	0.2836759718708674
-0.48650979934375016	0.27176216995472924
-0.48644876418750016	0.25939375184269176
-0.48638772903125016	0.24659112721699197
-0.48632669387500016	0.2333755998223756
-0.48626565871875016	0.2197688127940803
-0.48620462356250016	0.20579355162186821
-0.48614358840625016	0.19147312144980247
-0.48608255325000016	0.17683074602559967
-0.48602151809375016	0.16189128184487056
-0.48596048293750016	0.1466794776738433
-0.48589944778125016	0.1312201113852938
-0.48583841262500016	0.1155394954120799
-0.48577737746875016	0.09966352028193391
-0.48571634231250016	0.0836182217571722
-0.48565530715625016	0.06743081383023578
-0.48559427200000016	0.05112816881469392
-0.48553323684375016	0.03473703232172731
-0.48547220168750016	0.018285075501313603
-0.48541116653125016	0.0017998665760483332
-0.48535013137500016	-0.014691529987646336
-0.48528909621875016	-0.031161457332260525
-0.48522806106250016	-0.04758213977699373
-0.48516702590625016	-0.06392650572845171
-0.48510599075000016	-0.08016720486183644
-0.48504495559375016	-0.09627688267526724
-0.48498392043750016	-0.11222888075743818
-0.48492288528125016	-0.12799635924754338
-0.48486185012500016	-0.143552907227776
-0.48480081496875016	-0.1588726760579232
-0.48473977981250016	-0.17392987763118478
-0.48467874465625016	-0.1886991958466329
-0.48461770950000016	-0.2031559871603374
-0.48455667434375016	-0.21727623030388551
-0.48449563918750016	-0.23103578562822022
-0.48443460403125016	-0.24441161273317213
-0.48437356887500016	-0.25738186207226016
-0.48431253371875016	-0.26992403072617155
-0.48425149856250016	-0.28201700347013126
-0.48419046340625016	-0.29364115966694176
-0.48412942825000016	-0.30477628112161803
-0.48406839309375016	-0.3154035559644956
-0.48400735793750016	-0.3255055918772607
-0.48394632278125016	-0.33506489089074387
-0.48388528762500016	-0.34406531889307257
-0.48382425246875016	-0.35249191685910647
-0.48376321731250016	-0.36033014494013127
-0.48370218215625016	-0.3675667603120269
-0.48364114700000016	-0.3741895854079457
-0.48358011184375016	-0.3801872028115911
-0.48351907668750016	-0.38554941432092
-0.48345804153125016	-0.39026707868934213
-0.48339700637500016	-0.3943320288863737
-0.48333597121875016	-0.3977373016936618
-0.48327493606250016	-0.4004769527041862
-0.48321390090625016	-0.40254614622005597
-0.48315286575000016	-0.40394125206292236
-0.48309183059375016	-0.4046596722017974
-0.48303079543750016	-0.40469997657385015
-0.48296976028125016	-0.4040618753450936
-0.48290872512500016	-0.4027461953595628
-0.48284768996875016	-0.4007549454341669
-0.48278665481250016	-0.39809115933513123
-0.48272561965625016	-0.39475911327005697
-0.48266458450000016	-0.39076421247461063
-0.48260354934375016	-0.3861127537311144
-0.48254251418750016	-0.38081244858964725
-0.48248147903125016	-0.37487198848244496
-0.48242044387500016	-0.3683008432157159
-0.48235940871875016	-0.36111009195430616
-0.48229837356250016	-0.3533115070399132
-0.48223733840625016	-0.34491764311368955
-0.48217630325000016	-0.3359428434670883
-0.48211526809375016	-0.32640165812103167
-0.48205423293750016	-0.3163096475399041
-0.48199319778125016	-0.3056841345069102
-0.48193216262500016	-0.2945422852401286
-0.48187112746875016	-0.2829025118086987
-0.48181009231250016	-0.2707845717250803
-0.48174905715625016	-0.25820833602784515
-0.48168802200000016	-0.24519465020662692
-0.48162698684375016	-0.23176528617078407
-0.48156595168750016	-0.21794280946817407
-0.48150491653125016	-0.2037499136670831
-0.48144388137500016	-0.18921020794988913
-0.48138284621875016	-0.17434855878187747
-0.48132181106250016	-0.1591892178500604
-0.48126077590625016	-0.14375732253228166
-0.48119974075000016	-0.1280794149806326
-0.48113870559375016	-0.11218125866007725
-0.48107767043750016	-0.09608903269448629
-0.48101663528125016	-0.07983042652177912
-0.48095560012500016	-0.06343246772848514
-0.48089456496875016	-0.046922026999652394
-0.48083352981250016	-0.03032741265122629
-0.48077249465625016	-0.013676414943577476
-0.48071145950000016	0.0030035114313638122
-0.48065042434375016	0.01968402606646826
-0.48058938918750016	0.03633710923883181
-0.48052835403125016	0.05293500605208274
-0.48046731887500016	0.06944972047511648
-0.48040628371875016	0.0858535042497181
-0.48034524856250016	0.10211881878812375
-0.48028421340625016	0.11821819503322249
-0.48022317825000016	0.13412477632988687
-0.48016214309375016	0.14981161242672236
-0.48010110793750016	0.16525215366113497
-0.48004007278125016	0.18042081245297992
-0.47997903762500016	0.1952915641209235
-0.47991800246875016	0.20983950606503302
-0.47985696731250016	0.2240403586274765
-0.47979593215625016	0.23786956893423838
-0.47973489700000016	0.2513042025592529
-0.47967386184375016	0.26432162561395534
-0.47961282668750016	0.27689941634663284
-0.47955179153125016	0.28901655699455875
-0.47949075637500016	0.3006526126807501
-0.47942972121875016	0.31178761850899217
-0.47936868606250016	0.3224027644673938
-0.47930765090625016	0.3324802016432426
-0.47924661575000016	0.34200258693333185
-0.47918558059375016	0.3509537646260156
-0.47912454543750016	0.3593186210748591
-0.47906351028125016	0.36708273803469915
-0.47900247512500016	0.3742329323075276
-0.47894143996875016	0.38075696153618765
-0.47888040481250016	0.3866435949838608
-0.47881936965625016	0.3918828059805831
-0.47875833450000016	0.39646547821512146
-0.47869729934375016	0.4003836922400797
-0.47863626418750016	0.40363067397834695
-0.47857522903125016	0.4062006975630263
-0.47851419387500016	0.40808922297728534
-0.47845315871875016	0.40929282408284234
-0.47839212356250016	0.4098092618708307
-0.47833108840625016	0.4096374466249362
-0.47827005325000016	0.4087774116001119
-0.47820901809375016	0.4072303636707067
-0.47814798293750016	0.40499871964095546
-0.47808694778125016	0.4020859943317474
-0.47802591262500016	0.3984968040532701
-0.47796487746875016	0.39423705491656186
-0.47790384231250016	0.38931367017828417
-0.47784280715625016	0.38373465081285296
-0.47778177200000016	0.37750927468546835
-0.47772073684375016	0.37064777902765117
-0.47765970168750016	0.3631614654167773
-0.47759866653125016	0.35506278976336103
-0.47753763137500016	0.34636519289854184
-0.47747659621875016	0.33708313325714706
-0.47741556106250016	0.3272319924309359
-0.47735452590625016	0.3168282660455634
-0.47729349075000016	0.3058893491090503
-0.47723245559375016	0.29443330444460575
-0.47717142043750016	0.2824794758229063
-0.47711038528125016	0.2700478372030947
-0.47704935012500016	0.25715899679432574
-0.47698831496875016	0.2438348207496535
-0.47692727981250016	0.23009739212335595
-0.47686624465625016	0.21596981336802845
-0.47680520950000016	0.20147603893386354
-0.47674417434375016	0.1866398732076026
-0.47668313918750016	0.1714866149543826
-0.47662210403125016	0.15604187312776838
-0.47656106887500016	0.14033107034702014
-0.47650003371875016	0.12438104389620583
-0.47643899856250016	0.10821861983674563
-0.47637796340625016	0.09187075282171106
-0.47631692825000016	0.07536526730308685
-0.47625589309375016	0.05872975145087151
-0.47619485793750016	0.04199229006745669
-0.47613382278125016	0.025181335931220638
-0.47607278762500016	0.008324831368886211
-0.47601175246875016	-0.008548539823802175
-0.47595071731250016	-0.02541002571018769
-0.47588968215625016	-0.04223172525280812
-0.47582864700000016	-0.05898497845649734
-0.47576761184375016	-0.07564101274027481
-0.47570657668750016	-0.09217231990464797
-0.47564554153125016	-0.10855087207668024
-0.47558450637500016	-0.12474831625226751
-0.47552347121875016	-0.14073784784134158
-0.47546243606250016	-0.15649244094919415
-0.47540140090625016	-0.17198478601455278
-0.47534036575000016	-0.18718907278912536
-0.47527933059375016	-0.2020797040841774
-0.47521829543750016	-0.21663088631198416
-0.47515726028125016	-0.23081806943471814
-0.47509622512500016	-0.24461760056438778
-0.47503518996875016	-0.2580055188362106
-0.47497415481250016	-0.27095904505865537
-0.47491311965625016	-0.2834566502691548
-0.47485208450000016	-0.2954765719023384
-0.47479104934375016	-0.30699842308523134
-0.47473001418750016	-0.3180028540911135
-0.47466897903125016	-0.328470695804476
-0.47460794387500016	-0.33838429278233684
-0.47454690871875016	-0.347726820122464
-0.47448587356250016	-0.35648196988657777
-0.47442483840625016	-0.3646349947943304
-0.47436380325000016	-0.3721719877002858
-0.47430276809375016	-0.3790797093264633
-0.47424173293750016	-0.38534652057236934
-0.47418069778125016	-0.3909616448537485
-0.47411966262500016	-0.39591517879038174
-0.47405862746875016	-0.4001987453662467
-0.47399759231250016	-0.4038048324203375
-0.47393655715625016	-0.4067270528717239
-0.47387552200000016	-0.40896041937740935
-0.47381448684375016	-0.4105008547020364
-0.47375345168750016	-0.4113455223413493
-0.47369241653125016	-0.4114929068404965
-0.47363138137500016	-0.4109424734558602
-0.47357034621875016	-0.40969497556122403
-0.47350931106250016	-0.407752391510541
-0.47344827590625016	-0.4051177246506982
-0.47338724075000016	-0.4017953364769564
-0.47332620559375016	-0.39779066292164794
-0.47326517043750016	-0.3931102162977028
-0.47320413528125016	-0.38776190039042346
-0.47314310012500016	-0.38175450270659095
-0.47308206496875016	-0.37509798774692094
-0.47302102981250016	-0.36780370126790973
-0.47295999465625016	-0.3598835833474619
-0.47289895950000016	-0.35135095560983853
-0.47283792434375016	-0.3422204364440556
-0.47277688918750016	-0.3325069479667085
-0.47271585403125016	-0.3222269574286606
-0.47265481887500016	-0.3113980303075262
-0.47259378371875016	-0.30003809081669075
-0.47253274856250016	-0.28816635137635455
-0.47247171340625016	-0.27580297527496606
-0.47241067825000016	-0.26296877624856474
-0.47234964309375016	-0.24968536888331946
-0.47228860793750016	-0.2359752693655765
-0.47222757278125016	-0.22186168465484477
-0.47216653762500016	-0.20736845058083872
-0.47210550246875016	-0.1925201251787163
-0.47204446731250016	-0.17734189698182884
-0.47198343215625016	-0.1618594598753691
-0.47192239700000016	-0.14609895260913783
-0.47186136184375016	-0.1300873715078196
-0.47180032668750016	-0.11385173671584924
-0.47173929153125016	-0.09741941734501527
-0.47167825637500016	-0.08081874888496585
-0.47161722121875016	-0.06407764956792816
-0.47155618606250016	-0.04722450206437549
-0.47149515090625016	-0.030288321688579242
-0.47143411575000016	-0.01329758312122125
-0.47137308059375016	0.003718752774927897
-0.47131204543750016	0.020731424890592123
-0.47125101028125016	0.03771180602976271
-0.47118997512500016	0.0546309167570385
-0.47112893996875016	0.07145956267261598
-0.47106790481250016	0.08816943649192382
-0.47100686965625016	0.1047320452266577
-0.47094583450000016	0.12111872268773527
-0.47088479934375016	0.137301814870945
-0.47082376418750016	0.15325367401553183
-0.47076272903125016	0.16894685973807338
-0.47070169387500016	0.18435476919951593
-0.47064065871875016	0.1994507700932529
-0.47057962356250016	0.21420914145395295
-0.47051858840625016	0.22860491798041
