Time	Frequency
-0.5000502281874901	0.27172837736459493
-0.4999891930312401	0.28655802987133805
-0.4999281578749901	0.3007920817730636
-0.4998671227187401	0.3144017950875636
-0.4998060875624901	0.327359230195099
-0.4997450524062401	0.33963822404904553
-0.4996840172499901	0.3512139576688845
-0.4996229820937401	0.3620627997409749
-0.4995619469374901	0.3721627873692192
-0.4995009117812401	0.38149336745983586
-0.4994398766249901	0.390035643672248
-0.4993788414687401	0.3977723134568155
-0.4993178063124901	0.40468752819082754
-0.4992567711562401	0.41076737834392435
-0.4991957359999901	0.4159995294134274
-0.4991347008437401	0.4203732355970018
-0.4990736656874901	0.42387975532524
-0.4990126305312401	0.4265119864892782
-0.4989515953749901	0.4282644985767307
-0.4988905602187401	0.42913384509447466
-0.4988295250624901	0.42911830848169524
-0.4987684899062401	0.42821789739289673
-0.4987074547499901	0.4264345366194308
-0.4986464195937401	0.42377190424933203
-0.4985853844374901	0.4202354284476166
-0.4985243492812401	0.4158324524793621
-0.4984633141249901	0.4105719593767722
-0.4984022789687401	0.4044646548281721
-0.4983412438124901	0.39752323874234546
-0.4982802086562401	0.3897617912140848
-0.4982191734999901	0.38119619060890286
-0.4981581383437401	0.37184414465047166
-0.4980971031874901	0.36172463385546555
-0.4980360680312401	0.35085850468631063
-0.4979750328749901	0.3392680266113348
-0.4979139977187401	0.32697681581053906
-0.4978529625624901	0.31401023756352137
-0.4977919274062401	0.30039483732371497
-0.4977308922499901	0.28615840701607836
-0.4976698570937401	0.2713302652762739
-0.4976088219374901	0.2559408050237215
-0.4975477867812401	0.24002157748442465
-0.4974867516249901	0.2236052525547471
-0.4974257164687401	0.20672551369948927
-0.4973646813124901	0.1894171035203314
-0.4973036461562401	0.17171538182522028
-0.4972426109999901	0.15365688847889647
-0.4971815758437401	0.13527875273493867
-0.4971205406874901	0.11661844364566179
-0.4970595055312401	0.09771467082876421
-0.4969984703749901	0.07860631394447956
-0.4969374352187401	0.05933231962087939
-0.4968764000624901	0.03993255747709545
-0.4968153649062401	0.020447235083867844
-0.4967543297499901	0.0009161826700116785
-0.4966932945937401	-0.018620579666473815
-0.4966322594374901	-0.03812230739505959
-0.4965712242812401	-0.05754885144199708
-0.4965101891249901	-0.07686061280560495
-0.4964491539687401	-0.09601728320377281
-0.4963881188124901	-0.11497928716770738
-0.4963270836562401	-0.13370786135995316
-0.4962660484999901	-0.15216392402977058
-0.4962050133437401	-0.17030936098994362
-0.4961439781874901	-0.1881068646284382
-0.4960829430312401	-0.20551934199422145
-0.4960219078749901	-0.22251072240883782
-0.4959608727187401	-0.23904593362592266
-0.4958998375624901	-0.2550906202518586
-0.4958388024062401	-0.2706113404045109
-0.4957777672499901	-0.2855759274877237
-0.4957167320937401	-0.2999532900535201
-0.4956556969374901	-0.3137134101889864
-0.4955946617812401	-0.3268276113509675
-0.4955336266249901	-0.33926846902617847
-0.4954725914687401	-0.3510101022637919
-0.4954115563124901	-0.3620278494618447
-0.4953505211562401	-0.37229839679325594
-0.4952894859999901	-0.38180047565287895
-0.4952284508437401	-0.3905139530690077
-0.4951674156874901	-0.39842015333497965
-0.4951063805312401	-0.4055025963678949
-0.4950453453749901	-0.41174616109250023
-0.4949843102187401	-0.4171372423857467
-0.4949232750624901	-0.42166437042063065
-0.4948622399062401	-0.4253177289381529
-0.4948012047499901	-0.42808902824027567
-0.4947401695937401	-0.429972108998606
-0.4946791344374901	-0.4309625566292378
-0.4946180992812401	-0.4310576046335066
-0.4945570641249901	-0.4302565164174617
-0.4944960289687401	-0.4285603709366424
-0.4944349938124901	-0.4259719812918114
-0.4943739586562401	-0.422496051879519
-0.4943129234999901	-0.41813916810709995
-0.4942518883437401	-0.4129096418081582
-0.4941908531874901	-0.40681758125790984
-0.4941298180312401	-0.39987490677553195
-0.4940687828749901	-0.3920953686660911
-0.4940077477187401	-0.38349425072019244
-0.4939467125624901	-0.37408856133265367
-0.4938856774062401	-0.363897320913973
-0.4938246422499901	-0.35294067158964376
-0.4937636070937401	-0.34124044681649174
-0.4937025719374901	-0.32882048101233646
-0.4936415367812401	-0.3157055438146991
-0.4935805016249901	-0.30192190504575517
-0.4935194664687401	-0.287497607784469
-0.4934584313124901	-0.27246177320429654
-0.4933973961562401	-0.2568445944160676
-0.4933363609999901	-0.24067779031755868
-0.4932753258437401	-0.22399423267842478
-0.4932142906874901	-0.20682761867069502
-0.4931532555312401	-0.18921277640830494
-0.4930922203749901	-0.17118551694337916
-0.4930311852187401	-0.15278261857360173
-0.4929701500624901	-0.13404138162413362
-0.4929091149062401	-0.11499983527975503
-0.4928480797499901	-0.09569708655254405
-0.4927870445937401	-0.07617236749542117
-0.4927260094374901	-0.056465317539751765
-0.4926649742812401	-0.036616333899167575
-0.4926039391249901	-0.016666011724119367
-0.4925429039687401	0.0033449677123299944
-0.4924818688124901	0.023375795414746162
-0.4924208336562401	0.04338530029921525
-0.4923597984999901	0.06333255639227726
-0.4922987633437401	0.08317685302390367
-0.4922377281874901	0.10287741257334708
-0.4921766930312401	0.12239384531939634
-0.4921156578749901	0.1416860236110532
-0.4920546227187401	0.1607145920426914
-0.4919935875624901	0.17944039965947106
-0.4919325524062401	0.19782461623343753
-0.4918715172499901	0.21582987643479717
-0.4918104820937401	0.23341911411207691
-0.4917494469374901	0.25055571809170135
-0.4916884117812401	0.26720474653756776
-0.4916273766249901	0.2833319208874575
-0.4915663414687401	0.29890357703810533
-0.4915053063124901	0.31388792117520115
-0.4914442711562401	0.3282540242072934
-0.4913832359999901	0.3419718033510947
-0.4913222008437401	0.3550132161562338
-0.4912611656874901	0.36735115229453524
-0.4912001305312401	0.3789598569329903
-0.4911390953749901	0.38981551627028127
-0.4910780602187401	0.39989526980010265
-0.4910170250624901	0.40917816469306517
-0.4909559899062401	0.41764507745613505
-0.4908949547499901	0.42527798291744295
-0.4908339195937401	0.43206095922494775
-0.4907728844374901	0.43797986670555483
-0.4907118492812401	0.4430220464531024
-0.4906508141249901	0.4471768267359417
-0.4905897789687401	0.45043531940631976
-0.4905287438124901	0.4527904483121487
-0.4904677086562401	0.45423699750786317
-0.4904066734999901	0.45477158863856293
-0.4903456383437401	0.4543927709594828
-0.4902846031874901	0.453100925453999
-0.4902235680312401	0.45089826283813755
-0.4901625328749901	0.4477889692744897
-0.4901014977187401	0.4437790433221278
-0.4900404625624901	0.43887624804670333
-0.4899794274062401	0.43309033231459854
-0.4899183922499901	0.42643281583366094
-0.4898573570937401	0.41891688400163307
-0.4897963219374901	0.4105576500318327
-0.4897352867812401	0.4013719648064149
-0.4896742516249901	0.3913782335122309
-0.4896132164687401	0.3805966262022407
-0.4895521813124901	0.3690489815287219
-0.4894911461562401	0.35675866171194814
-0.4894301109999901	0.34375052354800767
-0.4893690758437401	0.33005097323731003
-0.4893080406874901	0.3156878904914841
-0.4892470055312401	0.3006903052886158
-0.4891859703749901	0.28508889913702196
-0.4891249352187401	0.26891547696880513
-0.4890639000624901	0.2522025456455031
-0.4890028649062401	0.2349846579132219
-0.4889418297499901	0.21729695729835902
-0.4888807945937401	0.19917490707528487
-0.4888197594374901	0.1806560813465352
-0.4887587242812401	0.16177834019059611
-0.4886976891249901	0.1425797729887083
-0.4886366539687401	0.12309992162634971
-0.4885756188124901	0.10337877682324041
-0.4885145836562401	0.08345638981813279
-0.4884535484999901	0.06337350991708192
-0.4883925133437401	0.04317162553651429
-0.4883314781874901	0.02289176560000104
-0.4882704430312401	0.002575374238186248
-0.4882094078749901	-0.01773546401508093
-0.4881483727187401	-0.03799949054684763
-0.4880873375624901	-0.05817517008311798
-0.4880263024062401	-0.07822085183689206
-0.4879652672499901	-0.09809572852023063
-0.4879042320937401	-0.11775884383943819
-0.4878431969374901	-0.13716981759042285
-0.4877821617812401	-0.15628907955951046
-0.4877211266249901	-0.17507700827042916
-0.4876600914687401	-0.19349522945801825
-0.4875990563124901	-0.21150609308971913
-0.4875380211562401	-0.22907216915952958
-0.4874769859999901	-0.24615771149047158
-0.4874159508437401	-0.26272768245117417
-0.4873549156874901	-0.2787476764143825
-0.4872938805312401	-0.29418504279132934
-0.4872328453749901	-0.30900813398579696
-0.4871718102187401	-0.32318622994518703
-0.4871107750624901	-0.33669029514074283
-0.4870497399062401	-0.34949276844054505
-0.4869887047499901	-0.361567075274418
-0.4869276695937401	-0.37288846243801343
-0.4868666344374901	-0.3834338999146139
-0.4868055992812401	-0.39318141850693117
-0.4867445641249901	-0.40211113609877835
-0.4866835289687401	-0.4102048347694354
-0.4866224938124901	-0.41744574508555327
-0.4865614586562401	-0.42381908720657635
-0.4865004234999901	-0.4293118108918892
-0.4864393883437401	-0.4339127379898557
-0.4863783531874901	-0.4376124165065405
-0.4863173180312401	-0.44040331006591843
-0.4862562828749901	-0.44227985477459686
-0.4861952477187401	-0.44323825868772093
-0.4861342125624901	-0.4432766576666235
-0.4860731774062401	-0.442395130974721
-0.4860121422499901	-0.44059564726519723
-0.4859511070937401	-0.43788207140568486
-0.4858900719374901	-0.4342601620695589
-0.4858290367812401	-0.4297375439672683
-0.4857680016249901	-0.42432380671873304
-0.4857069664687401	-0.4180302673449686
-0.4856459313124901	-0.4108700645739555
-0.4855848961562401	-0.40285835471773285
-0.4855238609999901	-0.3940117953234149
-0.4854628258437401	-0.38434883536819525
-0.4854017906874901	-0.37388984923546204
-0.4853407555312401	-0.3626566084003996
-0.4852797203749901	-0.3506725221619976
-0.4852186852187401	-0.33796273088645806
-0.4851576500624901	-0.3245538224562502
-0.4850966149062401	-0.3104736939271011
-0.4850355797499901	-0.29575178320516327
-0.4849745445937401	-0.28041897700917645
-0.4849135094374901	-0.2645071956160291
-0.4848524742812401	-0.24804965272168567
-0.4847914391249901	-0.23108089075420343
-0.4847304039687401	-0.2136362648552756
-0.4846693688124901	-0.19575213958702523
-0.4846083336562401	-0.17746619823528917
-0.4845472984999901	-0.15881648258286177
-0.4844862633437401	-0.1398418594348758
-0.4844252281874901	-0.1205822802541831
-0.4843641930312401	-0.10107789901257881
-0.4843031578749901	-0.08136967620514265
-0.4842421227187401	-0.06149860347395815
-0.4841810875624901	-0.04150626251208025
-0.4841200524062401	-0.021435120132872496
-0.4840590172499901	-0.0013265314562522757
-0.4839979820937401	0.01877741760566098
-0.4839369469374901	0.03883378422811326
-0.4838759117812401	0.05880122453236246
-0.4838148766249901	0.07863797742042274
-0.4837538414687401	0.0983017399363406
-0.4836928063124901	0.11775172311547244
-0.4836317711562401	0.13694719619943765
-0.4835707359999901	0.15584748109221946
-0.4835097008437401	0.17441298363721922
-0.4834486656874901	0.19260487823938097
-0.4833876305312401	0.2103847541121523
-0.4833265953749901	0.22771500073058143
-0.4832655602187401	0.244559481358134
-0.4832045250624901	0.26088263278656626
-0.4831434899062401	0.27664979702566195
-0.4830824547499901	0.2918279304862345
-0.4830214195937401	0.3063850049150924
-0.4829603844374901	0.3202901991118013
-0.4828993492812401	0.3335141112762966
-0.4828383141249901	0.3460287040171847
-0.4827772789687401	0.35780755619884197
-0.4827162438124901	0.3688256707716549
-0.4826552086562401	0.3790595383388593
-0.4825941734999901	0.3884874448965964
-0.4825331383437401	0.3970892761361098
-0.4824721031874901	0.40484667661969703
-0.4824110680312401	0.4117429798135871
-0.4823500328749901	0.4177633262833869
-0.4822889977187401	0.4228948051084121
-0.4822279625624901	0.4271261725220043
-0.4821669274062401	0.4304481723187528
-0.4821058922499901	0.4328534883885674
-0.4820448570937401	0.43433658576455325
-0.4819838219374901	0.4348939471490101
-0.4819227867812401	0.4345240033448934
-0.4818617516249901	0.4332270815488199
-0.4818007164687401	0.4310054427344329
-0.4817396813124901	0.4278633110841235
-0.4816786461562401	0.42380686676703955
-0.4816176109999901	0.41884415935632147
-0.4815565758437401	0.4129850609804081
-0.4814955406874901	0.406241550583124
-0.4814345055312401	0.3986273614834549
-0.4813734703749901	0.3901577559547696
-0.4813124352187401	0.38085030266299663
-0.4812514000624901	0.37072418612961017
-0.4811903649062401	0.35979990303683435
-0.4811293297499901	0.34810011033569954
-0.4810682945937401	0.3356490783460501
-0.4810072594374901	0.3224723255225274
-0.4809462242812401	0.3085971165547735
-0.4808851891249901	0.2940523411060709
-0.4808241539687401	0.27886801971008757
-0.4807631188124901	0.26307553002031114
-0.4807020836562401	0.24670795574502816
-0.4806410484999901	0.22979922678638465
-0.4805800133437401	0.21238409828317925
-0.4805189781874901	0.19449940464948473
-0.4804579430312401	0.1761822910212584
-0.4803969078749901	0.1574702651021633
-0.4803358727187401	0.13840319685393881
-0.4802748375624901	0.11902067381208375
-0.4802138024062401	0.0993625375098309
-0.4801527672499901	0.07947060025978427
-0.4800917320937401	0.059386288292075214
-0.4800306969374901	0.039151157535750096
-0.4799696617812401	0.018808041495753065
-0.4799086266249901	-0.0016005101179896982
-0.4798475914687401	-0.02203220559025602
-0.4797865563124901	-0.0424437005533373
-0.4797255211562401	-0.06279219492738815
-0.4796644859999901	-0.08303551876088114
-0.4796034508437401	-0.10313068899919531
-0.4795424156874901	-0.12303551109743505
-0.4794813805312401	-0.14270838525231144
-0.4794203453749901	-0.16210772035505178
-0.4793593102187401	-0.18119281503921586
-0.4792982750624901	-0.19992345392986946
-0.4792372399062401	-0.2182600290189541
-0.4791762047499901	-0.23616401447721094
-0.4791151695937401	-0.2535975950587824
-0.4790541344374901	-0.27052389519990877
-0.4789930992812401	-0.28690719577312424
-0.4789320641249901	-0.3027126761248892
-0.4788710289687401	-0.31790704277016707
-0.4788099938124901	-0.33245810561190753
-0.4787489586562401	-0.34633466599983187
-0.4786879234999901	-0.35950750885884564
-0.4786268883437401	-0.37194862409704826
-0.4785658531874901	-0.38363126959716537
-0.4785048180312401	-0.3945306430037477
-0.4784437828749901	-0.4046234102191293
-0.4783827477187401	-0.4138878976530572
-0.4783217125624901	-0.42230418463593034
-0.4782606774062401	-0.4298541046519018
-0.4781996422499901	-0.43652135636504347
-0.4781386070937401	-0.4422913402041187
-0.4780775719374901	-0.44715142778105427
-0.4780165367812401	-0.4510909551514605
-0.4779555016249901	-0.4541009921406684
-0.4778944664687401	-0.45617467222594205
-0.4778334313124901	-0.45730713331817385
-0.4777723961562401	-0.45749534167927736
-0.4777113609999901	-0.45673833444224954
-0.4776503258437401	-0.45503712613346603
-0.4775892906874901	-0.45239466103852627
-0.4775282555312401	-0.4488158936476862
-0.4774672203749901	-0.44430772652707634
-0.4774061852187401	-0.4388790257506345
-0.4773451500624901	-0.43254058610817997
-0.4772841149062401	-0.42530505678416625
-0.4772230797499901	-0.4171870837845049
-0.4771620445937401	-0.40820311574139534
-0.4771010094374901	-0.3983713271157117
-0.4770399742812401	-0.38771183404490817
-0.4769789391249901	-0.37624644254997364
-0.4769179039687401	-0.36399861320008914
-0.4768568688124901	-0.3509934336304218
-0.4767958336562401	-0.33725770261294086
-0.4767347984999901	-0.3228197869978726
-0.4766737633437401	-0.30770929443517775
-0.4766127281874901	-0.29195737390510534
-0.4765516930312401	-0.2755968233273605
-0.4764906578749901	-0.2586614027460135
-0.4764296227187401	-0.2411858667328065
-0.4763685875624901	-0.2232067666245456
-0.4763075524062401	-0.20476145966215015
-0.4762465172499901	-0.18588775709474278
-0.4761854820937401	-0.16662516156006724
-0.4761244469374901	-0.14701396376006187
-0.4760634117812401	-0.12709427704143822
-0.4760023766249901	-0.10690780644560023
-0.4759413414687401	-0.08649713830933299
-0.4758803063124901	-0.06590391299543209
-0.4758192711562401	-0.04517117700100959
-0.4757582359999901	-0.024342847842121092
-0.4756972008437401	-0.0034616417061059668
-0.4756361656874901	0.01742887242021153
-0.4755751305312401	0.03828463539736805
-0.4755140953749901	0.05906237737072379
-0.4754530602187401	0.0797188354029575
-0.4753920250624901	0.10021072943502976
-0.4753309899062401	0.12049505255271242
-0.4752699547499901	0.14052959551201102
-0.4752089195937401	0.16027260113155384
-0.4751478844374901	0.17968246478733216
-0.4750868492812401	0.1987186029963314
-0.4750258141249901	0.2173413846560958
-0.4749647789687401	0.23551168017862698
-0.4749037438124901	0.25319133413716466
-0.4748427086562401	0.27034341194884887
-0.4747816734999901	0.2869320275425798
-0.4747206383437401	0.3029222762273726
-0.4746596031874901	0.3182805474407473
-0.4745985680312401	0.3329749063520476
-0.4745375328749901	0.34697435913965247
-0.4744764977187401	0.36024928374567433
-0.4744154625624901	0.37277228605013296
-0.4743544274062401	0.3845168245815676
-0.4742933922499901	0.39545794190489614
-0.4742323570937401	0.4055732125190772
-0.4741713219374901	0.41484110910238314
-0.4741102867812401	0.42324186498892424
-0.4740492516249901	0.43075829178288105
-0.4739882164687401	0.43737438529294054
-0.4739271813124901	0.4430760420410559
-0.4738661461562401	0.4478515597075441
-0.4738051109999901	0.45169073092310036
-0.4737440758437401	0.454585406745849
-0.4736830406874901	0.4565296360040968
-0.4736220055312401	0.4575192384090559
-0.4735609703749901	0.45755209588875567
-0.4734999352187401	0.4566281850007219
-0.4734389000624901	0.45474944200854495
-0.4733778649062401	0.4519197683829385
-0.4733168297499901	0.44814516771059887
-0.4732557945937401	0.4434336189558237
-0.4731947594374901	0.4377949437308642
-0.4731337242812401	0.4312411085888042
-0.4730726891249901	0.4237860127252153
-0.4730116539687401	0.41544517150314075
-0.4729506188124901	0.4062362965393618
-0.4728895836562401	0.39617897570697985
-0.4728285484999901	0.3852941554001011
-0.4727675133437401	0.37360493248376625
-0.4727064781874901	0.36113612649336085
-0.4726454430312401	0.3479139228386824
-0.4725844078749901	0.3339662663568355
-0.4725233727187401	0.31932266103677986
-0.4724623375624901	0.3040141924061633
-0.4724013024062401	0.28807299566089556
-0.4723402672499901	0.27153286912208885
-0.4722792320937401	0.25442905416953643
-0.4722181969374901	0.23679727539149475
-0.4721571617812401	0.21867512322360508
-0.4720961266249901	0.20010120725295474
-0.4720350914687401	0.18111433414831968
-0.4719740563124901	0.16175486513805198
-0.4719130211562401	0.14206423031733534
-0.4718519859999901	0.1220837976559388
-0.4717909508437401	0.10185569043157526
-0.4717299156874901	0.08142323071431821
-0.4716688805312401	0.06082972591549303
-0.4716078453749901	0.04011854186099833
-0.4715468102187401	0.01933372632856665
-0.4714857750624901	-0.0014803625294391657
-0.4714247399062401	-0.02227975095612459
-0.4713637047499901	-0.04302040526154146
-0.4713026695937401	-0.06365794853267585
-0.4712416344374901	-0.08414869667606595
-0.4711805992812401	-0.10444927419558848
-0.4711195641249901	-0.12451619317968318
-0.4710585289687401	-0.14430689912281025
-0.4709974938124901	-0.16377957466739737
-0.4709364586562401	-0.18289238899684288
-0.4708754234999901	-0.2016047119256049
-0.4708143883437401	-0.21987706721761074
-0.4707533531874901	-0.23767015290285012
-0.4706923180312401	-0.25494603597380366
-0.4706312828749901	-0.2716682085157186
-0.4705702477187401	-0.28780086046503117
-0.4705092125624901	-0.3033093523860575
-0.4704481774062401	-0.31816079472802783
-0.4703871422499901	-0.3323236026712964
-0.4703261070937401	-0.3457671987241176
-0.4702650719374901	-0.3584629558379158
-0.4702040367812401	-0.370383829331888
-0.4701430016249901	-0.38150414302071867
-0.4700819664687401	-0.3918001401527954
-0.4700209313124901	-0.4012496701588474
-0.4699598961562401	-0.40983250088861256
-0.4698988609999901	-0.4175302189749606
-0.4698378258437401	-0.4243260904014081
-0.4697767906874901	-0.43020557059310094
-0.4697157555312401	-0.4351559591392538
