Time	Frequency
-0.5000300407500049	-0.5032264440641027
-0.4999690055937549	-0.49901773497424795
-0.4999079704375049	-0.4931825780280062
-0.4998469352812549	-0.48573991260807625
-0.4997859001250049	-0.4767139110200794
-0.4997248649687549	-0.46613381409354626
-0.4996638298125049	-0.45403388301158265
-0.4996027946562549	-0.44045341402087995
-0.4995417595000049	-0.4254364186273229
-0.4994807243437549	-0.40903145838750243
-0.4994196891875049	-0.3912919059346364
-0.4993586540312549	-0.3722753483314161
-0.4992976188750049	-0.35204324738319165
-0.4992365837187549	-0.33066119103731745
-0.4991755485625049	-0.30819892349142775
-0.4991145134062549	-0.2847293702562216
-0.4990534782500049	-0.2603281615303137
-0.4989924430937549	-0.23507484853382024
-0.4989314079375049	-0.2090517990181989
-0.4988703727812549	-0.18234321039399687
-0.4988093376250049	-0.15503586312668333
-0.4987483024687549	-0.12721840813557886
-0.4986872673125049	-0.098981654648839
-0.4986262321562549	-0.0704175611496356
-0.4985651970000049	-0.04161830758465291
-0.4985041618437549	-0.012678121327245875
-0.4984431266875049	0.016308396195518868
-0.4983820915312549	0.04524752718578723
-0.4983210563750049	0.07404481656909338
-0.4982600212187549	0.10260604750909687
-0.4981989860625049	0.13083833810520473
-0.4981379509062549	0.15864964278542718
-0.4980769157500049	0.18594917457673113
-0.4980158805937549	0.21264765936639818
-0.4979548454375049	0.23865774203027812
-0.4978938102812549	0.2638947871731079
-0.4978327751250049	0.28827612649439416
-0.4977717399687549	0.31172155491190906
-0.4977107048125049	0.3341545332498647
-0.4976496696562549	0.3555017483924518
-0.4975886345000049	0.37569283984851415
-0.4975275993437549	0.3946613352475385
-0.4974665641875049	0.4123450972921232
-0.4974055290312549	0.4286858640030888
-0.4973444938750049	0.44362964796098786
-0.4972834587187549	0.45712691354006046
-0.4972224235625049	0.46913299427095656
-0.4971613884062549	0.47960822106645035
-0.4971003532500049	0.4885173676415902
-0.4970393180937549	0.4958304516441506
-0.4969782829375049	0.5015230382213132
-0.4969172477812549	0.5055756054081709
-0.4968562126250049	0.507973808745849
-0.4967951774687549	0.5087089709103798
-0.4967341423125049	0.5077778169115337
-0.4966731071562549	0.5051822755993152
-0.4966120720000049	0.5009297014404241
-0.4965510368437549	0.4950330214669933
-0.4964900016875049	0.4875104911303798
-0.4964289665312549	0.4783853534472132
-0.4963679313750049	0.4676863576242768
-0.4963068962187549	0.455447535295752
-0.4962458610625049	0.4417073993693723
-0.4961848259062549	0.42650970780921343
-0.4961237907500049	0.40990328524439323
-0.4960627555937549	0.39194091255021934
-0.4960017204375049	0.3726799357862684
-0.4959406852812549	0.3521825996485528
-0.4958796501250049	0.3305145825963745
-0.4958186149687549	0.3077451263469336
-0.4957575798125049	0.28394800786666285
-0.4956965446562549	0.25919982135891295
-0.4956355095000049	0.2335799474064654
-0.4955744743437549	0.20717147861058932
-0.4955134391875049	0.18005963134568914
-0.4954524040312549	0.15233168345148898
-0.4953913688750049	0.12407757589327975
-0.4953303337187549	0.09538875837005725
-0.4952692985625049	0.06635775018755344
-0.4952082634062549	0.037078905764050575
-0.4951472282500049	0.007647224185565407
-0.4950861930937549	-0.02184246930348532
-0.4950251579375049	-0.05129404658057698
-0.4949641227812549	-0.08061153939015164
-0.4949030876250049	-0.10970053696541808
-0.4948420524687549	-0.13846632801787437
-0.4947810173125049	-0.1668147132386679
-0.4947199821562549	-0.19465408773739257
-0.4946589470000049	-0.22189393628222237
-0.4945979118437549	-0.24844497708105673
-0.4945368766875049	-0.27422121416798945
-0.4944758415312549	-0.299138402243106
-0.4944148063750049	-0.32311475996120403
-0.4943537712187549	-0.3460728545172513
-0.4942927360625049	-0.3679373264663563
-0.4942317009062549	-0.38863605065905393
-0.4941706657500049	-0.40810202507931215
-0.4941096305937549	-0.42627126730774184
-0.4940485954375049	-0.44308382202791013
-0.4939875602812549	-0.4584848552227198
-0.4939265251250049	-0.4724234921194367
-0.4938654899687549	-0.4848536296701589
-0.4938044548125049	-0.4957344127167856
-0.4937434196562549	-0.5050297703181423
-0.4936823845000049	-0.5127085697847229
-0.4936213493437549	-0.5187451497539605
-0.4935603141875049	-0.5231193067437612
-0.4934992790312549	-0.5258159173435756
-0.4934382438750049	-0.5268253450156982
-0.4933772087187549	-0.526143663338688
-0.4933161735625049	-0.5237722962416522
-0.4932551384062549	-0.5197180376006207
-0.4931941032500049	-0.5139933236903611
-0.4931330680937549	-0.5066160390165468
-0.4930720329375049	-0.4976093238010903
-0.4930109977812549	-0.48700160793154745
-0.4929499626250049	-0.47482665351964765
-0.4928889274687549	-0.46112345741131466
-0.4928278923125049	-0.4459355855385072
-0.4927668571562549	-0.42931164884797407
-0.4927058220000049	-0.411305323546694
-0.4926447868437549	-0.3919741560907214
-0.4925837516875049	-0.37138036854260664
-0.4925227165312549	-0.3495904998089019
-0.4924616813750049	-0.32667450893017197
-0.4924006462187549	-0.3027063724174401
-0.4923396110625049	-0.27776359784720234
-0.4922785759062549	-0.25192673375148317
-0.4922175407500049	-0.22527913116257006
-0.4921565055937549	-0.19790695533005057
-0.4920954704375049	-0.1698990282685161
-0.4920344352812549	-0.1413459059407501
-0.4919734001250049	-0.11233978517372041
-0.4919123649687549	-0.08297495389217678
-0.4918513298125049	-0.05334660704851039
-0.4917902946562549	-0.023550531202330194
-0.4917292595000049	0.006316412303887565
-0.4916682243437549	0.036157445076261216
-0.4916071891875049	0.06587556314950023
-0.4915461540312549	0.09537428764593221
-0.4914851188750049	0.12455827196682635
-0.4914240837187549	0.15333216090820814
-0.4913630485625049	0.18160244502074058
-0.4913020134062549	0.20927776912407628
-0.4912409782500049	0.23626788376626243
-0.4911799430937549	0.2624848760918282
-0.4911189079375049	0.2878435901535665
-0.4910578727812549	0.31226172364349863
-0.4909968376250049	0.33565964257778974
-0.4909358024687549	0.3579610651862281
-0.4908747673125049	0.37909386365643877
-0.4908137321562549	0.3989889143818793
-0.4907526970000049	0.4175813044183389
-0.4906916618437549	0.43481092597887433
-0.4906306266875049	0.4506213760920798
-0.4905695915312549	0.46496122012269603
-0.4905085563750049	0.47778389935177795
-0.4904475212187549	0.48904740606654257
-0.4903864860625049	0.49871526408696926
-0.4903254509062549	0.5067560222051045
-0.4902644157500049	0.5131433431012286
-0.4902033805937549	0.5178566145882432
-0.4901423454375049	0.5208805046061978
-0.4900813102812549	0.5222051440698492
-0.4900202751250049	0.5218264385388633
-0.4899592399687549	0.5197456505669179
-0.4898982048125049	0.5159696373257509
-0.4898371696562549	0.510510987265459
-0.4897761345000049	0.5033875534747251
-0.4897150993437549	0.49462270994667473
-0.4896540641875049	0.4842453640026657
-0.4895930290312549	0.47228957047046677
-0.4895319938750049	0.4587944545036647
-0.4894709587187549	0.4438043387725644
-0.4894099235625049	0.4273686083410694
-0.4893488884062549	0.4095410094283861
-0.4892878532500049	0.3903800783468483
-0.4892268180937549	0.36994882280780794
-0.4891657829375049	0.3483141859943074
-0.4891047477812549	0.3255473940118783
-0.4890437126250049	0.30172294068507577
-0.4889826774687549	0.2769192334670573
-0.4889216423125049	0.25121804725136876
-0.4888606071562549	0.22470311156131412
-0.4887995720000049	0.1974619925038135
-0.4887385368437549	0.16958465514440518
-0.4886775016875049	0.14116185774739698
-0.4886164665312549	0.11228746195288802
-0.4885554313750049	0.08305683236299193
-0.4884943962187549	0.05356536063348691
-0.4884333610625049	0.023910610099124326
-0.4883723259062549	-0.0058096810483396965
-0.4883112907500049	-0.03549849672960248
-0.4882502555937549	-0.06505729618072027
-0.4881892204375049	-0.09438859650132223
-0.4881281852812549	-0.12339662641281111
-0.4880671501250049	-0.15198519049028886
-0.4880061149687549	-0.18005982666888096
-0.4879450798125049	-0.20752859045077007
-0.4878840446562549	-0.23430046161040805
-0.4878230095000049	-0.2602868695237358
-0.4877619743437549	-0.2854026559720146
-0.4877009391875049	-0.30956446370813573
-0.4876399040312549	-0.3326922038082579
-0.4875788688750049	-0.3547099599780556
-0.4875178337187549	-0.37554462869242955
-0.4874567985625049	-0.39512712688229745
-0.4873957634062549	-0.41339278627108733
-0.4873347282500049	-0.43028099976213735
-0.4872736930937549	-0.44573569275431263
-0.4872126579375049	-0.4597055064342345
-0.4871516227812549	-0.47214408837458
-0.4870905876250049	-0.48300994891630505
-0.4870295524687549	-0.49226674367519546
-0.4869685173125049	-0.49988359579776553
-0.4869074821562549	-0.5058349053871863
-0.4868464470000049	-0.5101004910431745
-0.4867854118437549	-0.5126658280843934
-0.4867243766875049	-0.5135220122859593
-0.4866633415312549	-0.512665620535244
-0.4866023063750049	-0.5100989405522071
-0.4865412712187549	-0.5058300289598324
-0.4864802360625049	-0.49987240069791555
-0.4864192009062549	-0.49224510289500484
-0.4863581657500049	-0.48297285836559634
-0.4862971305937549	-0.47208579260905437
-0.4862360954375049	-0.4596192446392052
-0.4861750602812549	-0.4456138337159689
-0.4861140251250049	-0.43011532034028643
-0.4860529899687549	-0.4131744767391301
-0.4859919548125049	-0.39484664736425046
-0.4859309196562549	-0.37519176717536606
-0.4858698845000049	-0.35427459504514813
-0.4858088493437549	-0.33216361041291703
-0.4857478141875049	-0.30893129174144707
-0.4856867790312549	-0.2846542296777247
-0.4856257438750049	-0.2594121404241568
-0.4855647087187549	-0.23328814758495037
-0.4855036735625049	-0.20636810881589238
-0.4854426384062549	-0.1787406064902344
-0.4853816032500049	-0.15049714949343523
-0.4853205680937549	-0.12173058070316055
-0.4852595329375049	-0.0925353189044414
-0.4851984977812549	-0.06300832946666433
-0.4851374626250049	-0.033247243210689406
-0.4850764274687549	-0.0033496853697784603
-0.4850153923125049	0.026585300744421662
-0.4849543571562549	0.056458384294889634
-0.4848933220000049	0.08617099916777368
-0.4848322868437549	0.11562495769300574
-0.4847712516875049	0.14472261647374682
-0.4847102165312549	0.17336738079754205
-0.4846491813750049	0.20146442929332847
-0.4845881462187549	0.22892076126285066
-0.4845271110625049	0.25564508670911007
-0.4844660759062549	0.28154844689111436
-0.4844050407500049	0.30654492643186904
-0.4843440055937549	0.33055164531358205
-0.4842829704375049	0.3534883848962586
-0.4842219352812549	0.37527846659041275
-0.4841609001250049	0.3958497504755148
-0.4840998649687549	0.41513355526709034
-0.4840388298125049	0.43306476898635304
-0.4839777946562549	0.44958371335294933
-0.4839167595000049	0.46463537369504243
-0.4838557243437549	0.4781686210530992
-0.4837946891875049	0.49013781267854
-0.4837336540312549	0.5005028899343407
-0.4836726188750049	0.5092284654240405
-0.4836115837187549	0.5162845733782117
-0.4835505485625049	0.5216471174470905
-0.4834895134062549	0.5252973661288166
-0.4834284782500049	0.5272221432131328
-0.4833674430937549	0.5274140920294577
-0.4833064079375049	0.5258715814711925
-0.4832453727812549	0.5225986485052494
-0.4831843376250049	0.5176050189463764
-0.4831233024687549	0.5109061955216918
-0.4830622673125049	0.5025233043856967
-0.4830012321562549	0.492482931849867
-0.4829401970000049	0.48081724281017113
-0.4828791618437549	0.46756385536945766
-0.4828181266875049	0.45276550883318656
-0.4827570915312549	0.4364700959081301
-0.4826960563750049	0.4187305075749739
-0.4826350212187549	0.3996044745334425
-0.4825739860625049	0.379154388762709
-0.4825129509062549	0.35744666989111756
-0.4824519157500049	0.33455220484043974
-0.4823908805937549	0.3105462894679226
-0.4823298454375049	0.28550711673012186
-0.4822688102812549	0.2595163528893046
-0.4822077751250049	0.2326596789739575
-0.4821467399687549	0.20502518338765136
-0.4820857048125049	0.1767031887908288
-0.4820246696562549	0.1477867851397644
-0.4819636345000049	0.11837113273407718
-0.4819025993437549	0.0885528307628613
-0.4818415641875049	0.05842990217156194
-0.4817805290312549	0.02810157363653937
-0.4817194938750049	-0.002332393220408296
-0.4816584587187549	-0.032771954840255836
-0.4815974235625049	-0.06311650207890883
-0.4815363884062549	-0.09326589652184915
-0.4814753532500049	-0.12312127144100864
-0.4814143180937549	-0.1525839344008249
-0.4813532829375049	-0.18155624988273278
-0.4812922477812549	-0.20994282984718726
-0.4812312126250049	-0.23765022366352284
-0.4811701774687549	-0.2645865839240485
-0.4811091423125049	-0.29066259712958353
-0.4810481071562549	-0.3157926486830633
-0.4809870720000049	-0.33989329778911936
-0.4809260368437549	-0.3628844929904698
-0.4808650016875049	-0.3846907007107672
-0.4808039665312549	-0.40523937704345
-0.4807429313750049	-0.4244622544753164
-0.4806818962187549	-0.4422958874194362
-0.4806208610625049	-0.45868107427978766
-0.4805598259062549	-0.4735632256347288
-0.4804987907500049	-0.4868930289610444
-0.4804377555937549	-0.49862629294934613
-0.4803767204375049	-0.5087236737735732
-0.4803156852812549	-0.5171516959189026
-0.4802546501250049	-0.5238823184971944
-0.4801936149687549	-0.5288927393369617
-0.4801325798125049	-0.5321663349954929
-0.4800715446562549	-0.5336920279519317
-0.4800105095000049	-0.533464322378614
-0.4799494743437549	-0.5314838705373878
-0.4798884391875049	-0.5277569679058162
-0.4798274040312549	-0.5222956297552415
-0.4797663688750049	-0.5151177678088249
-0.4797053337187549	-0.5062469126155154
-0.4796442985625049	-0.49571219814708434
-0.4795832634062549	-0.4835483022369539
-0.4795222282500049	-0.4697953206515851
-0.4794611930937549	-0.45449869653309655
-0.4794001579375049	-0.43770887760519045
-0.4793391227812549	-0.41948122948783906
-0.4792780876250049	-0.3998762093075995
-0.4792170524687549	-0.37895863352282255
-0.4791560173125049	-0.35679755219632203
-0.4790949821562549	-0.33346652785498426
-0.4790339470000049	-0.30904269553359504
-0.4789729118437549	-0.28360701348943945
-0.4789118766875049	-0.25724395320146615
-0.4788508415312549	-0.2300406134130661
-0.4787898063750049	-0.20208736869063143
-0.4787287712187549	-0.1734771284181904
-0.4786677360625049	-0.14430451658653312
-0.4786067009062549	-0.11466640041364785
-0.4785456657500049	-0.08466171182326399
-0.4784846305937549	-0.054389552129808096
-0.4784235954375049	-0.023950184143030545
-0.4783625602812549	0.0065541376821505876
-0.4783015251250049	0.03702263292860174
-0.4782404899687549	0.06735457395058891
-0.4781794548125049	0.09744809634557337
-0.4781184196562549	0.12720333610280876
-0.4780573845000049	0.1565218515667625
-0.4779963493437549	0.18530541779140378
-0.4779353141875049	0.213458189024764
-0.4778742790312549	0.24088704553193938
-0.4778132438750049	0.26750000216780845
-0.4777522087187549	0.2932082886423864
-0.4776911735625049	0.3179268586553984
-0.4776301384062549	0.34157279270934
-0.4775691032500049	0.364067040607176
-0.4775080680937549	0.3853351174810165
-0.4774470329375049	0.40530574161056804
-0.4773859977812549	0.4239118855888853
-0.4773249626250049	0.44109193461510987
-0.4772639274687549	0.45678828345317224
-0.4772028923125049	0.4709481545565648
-0.4771418571562549	0.4835245481572084
-0.4770808220000049	0.49447511675789535
-0.4770197868437549	0.5037631373341445
-0.4769587516875049	0.511357655642275
-0.4768977165312549	0.5172328795593095
-0.4768366813750049	0.5213690511242537
-0.4767756462187549	0.5237523157046801
-0.4767146110625049	0.5243744006602913
-0.4766535759062549	0.523232975409122
-0.4765925407500049	0.5203317139987317
-0.4765315055937549	0.5156801140345136
-0.4764704704375049	0.5092934423476917
-0.4764094352812549	0.5011928302068107
-0.4763484001250049	0.4914051663944099
-0.4762873649687549	0.4799629975752405
-0.4762263298125049	0.4669042767257918
-0.4761652946562549	0.45227240986130773
-0.4761042595000049	0.43611637219201793
-0.4760432243437549	0.41848979099574646
-0.4759821891875049	0.3994513574795781
-0.4759211540312549	0.3790649283494386
-0.4758601188750049	0.35739825534477937
-0.4757990837187549	0.3345236732354059
-0.4757380485625049	0.3105178179875878
-0.4756770134062549	0.28546071893025726
-0.4756159782500049	0.25943624633015183
-0.4755549430937549	0.23253140555414514
-0.4754939079375049	0.20483610605194255
-0.4754328727812549	0.1764432442484251
-0.4753718376250049	0.14744772783743584
-0.4753108024687549	0.11794668447354104
-0.4752497673125049	0.08803909029409872
-0.4751887321562549	0.05782495019237719
-0.4751276970000049	0.027405759905096326
-0.4750666618437549	-0.003116514930496434
-0.4750056266875049	-0.033639509937157225
-0.4749445915312549	-0.06406045116564076
-0.4748835563750049	-0.09427773076959318
-0.4748225212187549	-0.12418959726293563
-0.4747614860625049	-0.15369493870706338
-0.4747004509062549	-0.18269536992325036
-0.4746394157500049	-0.21109325659848538
-0.4745783805937549	-0.23879226182078472
-0.4745173454375049	-0.2656995599662172
-0.4744563102812549	-0.291724862165912
-0.4743952751250049	-0.31677983137523286
-0.4743342399687549	-0.3407798741872145
-0.4742732048125049	-0.3636444501279761
-0.4742121696562549	-0.38529591937922164
-0.4741511345000049	-0.40566093733107045
-0.4740900993437549	-0.42467085098125695
-0.4740290641875049	-0.44226094714987335
-0.4739680290312549	-0.45837154547765724
-0.4739069938750049	-0.4729479267186204
-0.4738459587187549	-0.4859402643715977
-0.4737849235625049	-0.4973042460924673
-0.4737238884062549	-0.5070009269188517
-0.4736628532500049	-0.5149968676979614
-0.4736018180937549	-0.5212643500701346
-0.4735407829375049	-0.5257814898720816
-0.4734797477812549	-0.5285322343581165
-0.4734187126250049	-0.5295063850715048
-0.4733576774687549	-0.5286997760881847
-0.4732966423125049	-0.526114173766442
-0.4732356071562549	-0.5217572986213727
-0.4731745720000049	-0.5156428912015235
-0.4731135368437549	-0.5077904546857506
-0.4730525016875049	-0.4982254060998555
-0.4729914665312549	-0.48697907335130824
-0.4729304313750049	-0.47408810675075463
-0.4728693962187549	-0.45959486545083256
-0.4728083610625049	-0.4435473447259017
-0.4727473259062549	-0.42599828828888475
-0.4726862907500049	-0.4070057698076395
-0.4726252555937549	-0.3866329605603513
-0.4725642204375049	-0.3649472146118988
-0.4725031852812549	-0.3420205269128231
-0.4724421501250049	-0.31792933460834333
-0.4723811149687549	-0.29275378171424987
-0.4723200798125049	-0.2665774661978488
-0.4722590446562549	-0.2394877784805575
-0.4721980095000049	-0.2115753474422349
-0.4721369743437549	-0.18293289605802932
-0.4720759391875049	-0.1536561920325544
-0.4720149040312549	-0.12384337496629211
-0.4719538688750049	-0.09359367393309696
-0.4718928337187549	-0.06300853588017555
-0.4718317985625049	-0.032190429721187394
-0.4717707634062549	-0.0012421392398839367
-0.4717097282500049	0.029732171887314855
-0.4716486930937549	0.06062886675936142
-0.4715876579375049	0.09134470861528753
-0.4715266227812549	0.12177592133611592
-0.4714655876250049	0.15182076869498787
-0.4714045524687549	0.1813786558642111
-0.4713435173125049	0.21034948701676973
-0.4712824821562549	0.23863648232935536
-0.4712214470000049	0.2661446561477532
-0.4711604118437549	0.29278058845277694
-0.4710993766875049	0.3184552286916635
-0.4710383415312549	0.34308229220661
-0.4709773063750049	0.3665781862981807
-0.4709162712187549	0.38886383681981246
-0.4708552360625049	0.4098641222593054
-0.4707942009062549	0.4295080633196705
-0.4707331657500049	0.44772914347829196
-0.4706721305937549	0.46446572008220166
-0.4706110954375049	0.4796610879348935
-0.4705500602812549	0.4932636007345403
-0.4704890251250049	0.5052271691316839
-0.4704279899687549	0.5155108306145237
-0.4703669548125049	0.5240795001564265
-0.4703059196562549	0.5309040101450341
-0.4702448845000049	0.5359605363866873
-0.4701838493437549	0.5392315026779231
-0.4701228141875049	0.540705454923287
-0.4700617790312549	0.5403766929147173
-0.4700007438750049	0.5382456956926142
-0.4699397087187549	0.5343190009655259
-0.4698786735625049	0.5286091263321696
-0.4698176384062549	0.5211347670731675
-0.4697566032500049	0.5119203682891955
-0.4696955680937549	0.5009961285131864
-0.4696345329375049	0.48839840855796113
