Time	Frequency
-0.5000329019062519	-0.353676436543531
-0.49997186675000194	-0.36013186383020757
-0.49991083159375194	-0.36601737124873285
-0.49984979643750194	-0.37132380036113183
-0.49978876128125194	-0.3760429847830778
-0.49972772612500194	-0.3801672346063952
-0.49966669096875194	-0.38369030704761725
-0.49960565581250194	-0.38660683056057116
-0.49954462065625194	-0.388911917702122
-0.49948358550000194	-0.39060229788725465
-0.49942255034375194	-0.39167534519687824
-0.49936151518750194	-0.3921292649226356
-0.49930048003125194	-0.39196360952419734
-0.49923944487500194	-0.39117865591760637
-0.49917840971875194	-0.38977569564518194
-0.49911737456250194	-0.38775709024836497
-0.49905633940625194	-0.3851261030080346
-0.49899530425000194	-0.3818869670566617
-0.49893426909375194	-0.3780449325675688
-0.49887323393750194	-0.3736061733654145
-0.49881219878125194	-0.3685777914909186
-0.49875116362500194	-0.36296785206566956
-0.49869012846875194	-0.35678537276506916
-0.49862909331250194	-0.35004024922637833
-0.49856805815625194	-0.3427431911414875
-0.49850702300000194	-0.33490595429713266
-0.49844598784375194	-0.326541126152492
-0.49838495268750194	-0.31766189807696393
-0.49832391753125194	-0.3082825607349055
-0.49826288237500194	-0.2984182485057561
-0.49820184721875194	-0.28808442328549055
-0.49814081206250194	-0.2772977920145267
-0.49807977690625194	-0.26607570626945853
-0.49801874175000194	-0.2544357459427058
-0.49795770659375194	-0.24239680470781466
-0.49789667143750194	-0.22997814189256635
-0.49783563628125194	-0.21719936197251505
-0.49777460112500194	-0.20408104925257295
-0.49771356596875194	-0.19064425819698666
-0.49765253081250194	-0.17691032087574038
-0.49759149565625194	-0.16290118942460985
-0.49753046050000194	-0.148639459056561
-0.49746942534375194	-0.13414773050201562
-0.49740839018750194	-0.11944925192370703
-0.49734735503125194	-0.10456773480318313
-0.49728631987500194	-0.08952663709309736
-0.49722528471875194	-0.07435024328480005
-0.49716424956250194	-0.059063006265174876
-0.49710321440625194	-0.0436891464525618
-0.49704217925000194	-0.028253287474294505
-0.49698114409375194	-0.012780286151008378
-0.49692010893750194	0.0027048378680609485
-0.49685907378125194	0.018177780599387277
-0.49679803862500194	0.03361358593923485
-0.49673700346875194	0.048986920081366715
-0.49667596831250194	0.06427387365505892
-0.49661493315625194	0.07944972805087024
-0.49655389800000194	0.0944896969714139
-0.49649286284375194	0.10937011766664485
-0.49643182768750194	0.12406686573940946
-0.49637079253125194	0.1385563556183
-0.49630975737500194	0.15281538758307178
-0.49624872221875194	0.166820684571312
-0.49618768706250194	0.18055023067182463
-0.49612665190625194	0.193981687171206
-0.49606561675000194	0.20709302819907974
-0.49600458159375194	0.21986390944554646
-0.49594354643750194	0.2322732517417398
-0.49588251128125194	0.2443008719437555
-0.49582147612500194	0.2559278813130774
-0.49576044096875194	0.26713517686633603
-0.49569940581250194	0.2779046388037217
-0.49563837065625194	0.288218908605483
-0.49557733550000194	0.2980613858826443
-0.49551630034375194	0.30741602702328474
-0.49545526518750194	0.3162675675185686
-0.49539423003125194	0.32460186083782055
-0.49533319487500194	0.3324052543086265
-0.49527215971875194	0.3396649780822153
-0.49521112456250194	0.34636927634823134
-0.49515008940625194	0.3525072163835928
-0.49508905425000194	0.3580687619089902
-0.49502801909375194	0.36304465762604965
-0.49496698393750194	0.3674268345479589
-0.49490594878125194	0.37120811669810044
-0.49484491362500194	0.37438201066696775
-0.49478387846875194	0.37694336318813004
-0.49472284331250194	0.37888783955541966
-0.49466180815625194	0.3802120058507059
-0.49460077300000194	0.38091361376790495
-0.49453973784375194	0.38099122437596755
-0.49447870268750194	0.3804445323242838
-0.49441766753125194	0.3792742107438331
-0.49435663237500194	0.37748179720716635
-0.49429559721875194	0.375070084530025
-0.49423456206250194	0.3720426326907068
-0.49417352690625194	0.3684039946238763
-0.49411249175000194	0.36416000498044154
-0.49405145659375194	0.3593170469001036
-0.49399042143750194	0.35388266961752307
-0.49392938628125194	0.3478655909849495
-0.49386835112500194	0.34127502945994304
-0.49380731596875194	0.3341213703669974
-0.49374628081250194	0.3264160666297349
-0.49368524565625194	0.3181711250726853
-0.49362421050000194	0.3093995563114372
-0.49356317534375194	0.30011537799143245
-0.49350214018750194	0.29033328514559814
-0.49344110503125194	0.2800686920586976
-0.49338006987500194	0.2693379492757609
-0.49331903471875194	0.25815829155474823
-0.49325799956250194	0.24654726585573358
-0.49319696440625194	0.23452339505196665
-0.49313592925000194	0.22210612879453073
-0.49307489409375194	0.20931492936520232
-0.49301385893750194	0.1961702607576346
-0.49295282378125194	0.18269345135525378
-0.49289178862500194	0.16890565189775328
-0.49283075346875194	0.1548289645362518
-0.49276971831250194	0.14048625390148584
-0.49270868315625194	0.12590009720564269
-0.49264764800000194	0.11109396238535468
-0.49258661284375194	0.09609178369507294
-0.49252557768750194	0.08091736622914066
-0.49246454253125194	0.06559517022292177
-0.49240350737500194	0.05014984816465035
-0.49234247221875194	0.03460612285060102
-0.49228143706250194	0.01898902918489867
-0.49222040190625194	0.003323680992402286
-0.49215936675000194	-0.012364758019249963
-0.49209833159375194	-0.02805094076860081
-0.49203729643750194	-0.043709618442563714
-0.49197626128125194	-0.059315700052930784
-0.49191522612500194	-0.07484384994631557
-0.49185419096875194	-0.09026891545014719
-0.49179315581250194	-0.1055662614950287
-0.49173212065625194	-0.12071114307120222
-0.49167108550000194	-0.13567868751199968
-0.49161005034375194	-0.15044508175327162
-0.49154901518750194	-0.1649865184656287
-0.49148798003125194	-0.17927879703202393
-0.49142694487500194	-0.1932994126704451
-0.49136590971875194	-0.20702547833572976
-0.49130487456250194	-0.2204342056993058
-0.49124383940625194	-0.23350457384521076
-0.49118280425000194	-0.24621471583845664
-0.49112176909375194	-0.2585440557936408
-0.49106073393750194	-0.27047298415503684
-0.49099969878125194	-0.2819811524335516
-0.49093866362500194	-0.2930503808606475
-0.49087762846875194	-0.3036627114230603
-0.49081659331250194	-0.31380007629118456
-0.49075555815625194	-0.32344631503586424
-0.49069452300000194	-0.33258560290191935
-0.49063348784375194	-0.3412027020840595
-0.49057245268750194	-0.3492833754320304
-0.49051141753125194	-0.3568143507894211
-0.49045038237500194	-0.36378322470243546
-0.49038934721875194	-0.3701781062622247
-0.49032831206250194	-0.3759885486588646
-0.49026727690625194	-0.3812048015895564
-0.49020624175000194	-0.38581783004253256
-0.49014520659375194	-0.3898200593249705
-0.49008417143750194	-0.3932044814726819
-0.49002313628125194	-0.3959651637836981
-0.48996210112500194	-0.39809739256252735
-0.48990106596875194	-0.3995971415090132
-0.48984003081250194	-0.4004615696551741
-0.48977899565625194	-0.40068890663833207
-0.48971796050000194	-0.4002782476593082
-0.48965692534375194	-0.399229810638366
-0.48959589018750194	-0.3975448286339866
-0.48953485503125194	-0.3952255262001459
-0.48947381987500194	-0.39227520432346996
-0.48941278471875194	-0.38869807632968995
-0.48935174956250194	-0.3844994452520493
-0.48929071440625194	-0.3796856927411601
-0.48922967925000194	-0.37426392924902424
-0.48916864409375194	-0.3682424712189665
-0.48910760893750194	-0.3616306968700884
-0.48904657378125194	-0.35443852636934176
-0.48898553862500194	-0.34667713257315835
-0.48892450346875194	-0.33835881076924007
-0.48886346831250194	-0.329496155221436
-0.48880243315625194	-0.3201029708847573
-0.48874139800000194	-0.3101943301960099
-0.48868036284375194	-0.2997853984060359
-0.48861932768750194	-0.28889233862930774
-0.48855829253125194	-0.2775327097491155
-0.48849725737500194	-0.26572422882154056
-0.48843622221875194	-0.2534850712150658
-0.48837518706250194	-0.24083500601259064
-0.48831415190625194	-0.2277940980345695
-0.48825311675000194	-0.21438227317444516
-0.48819208159375194	-0.20062125811966053
-0.48813104643750194	-0.18653305892796693
-0.48807001128125194	-0.17213919793180435
-0.48800897612500194	-0.1574630689558227
-0.48794794096875194	-0.14252808922424348
-0.48788690581250194	-0.12735730124952468
-0.48782587065625194	-0.11197539421463872
-0.48776483550000194	-0.09640665228099518
-0.48770380034375194	-0.08067566908566577
-0.48764276518750194	-0.06480772861362358
-0.48758173003125194	-0.04882774466213842
-0.48752069487500194	-0.03276168447835338
-0.48745965971875194	-0.0166347440815008
-0.48739862456250194	-0.00047248663408523385
-0.48733758940625194	0.015698574419328284
-0.48727655425000194	0.03185334453020012
-0.48721551909375194	0.04796591256167544
-0.48715448393750194	0.06401013174758591
-0.48709344878125194	0.0799607079809669
-0.48703241362500194	0.0957921996159153
-0.48697137846875194	0.1114790891121517
-0.48691034331250194	0.12699618758209563
-0.48684930815625194	0.14231899618270547
-0.48678827300000194	0.15742272067087565
-0.48672723784375194	0.17228320311278048
-0.48666620268750194	0.18687672596851784
-0.48660516753125194	0.20117965500379542
-0.48654413237500194	0.21516943623999796
-0.48648309721875194	0.22882329797173415
-0.48642206206250194	0.24211933198244834
-0.48636102690625194	0.2550365463214572
-0.48629999175000194	0.2675536438132383
-0.48623895659375194	0.2796509429721662
-0.48617792143750194	0.291309033312838
-0.48611688628125194	0.3025085619961601
-0.48605585112500194	0.31323228863686253
-0.48599481596875194	0.3234626540147201
-0.48593378081250194	0.33318275221371163
-0.48587274565625194	0.34237768867925333
-0.48581171050000194	0.35103218696130456
-0.48575067534375194	0.3591321731740553
-0.48568964018750194	0.36666509999979235
-0.48562860503125194	0.37361828098210476
-0.48556756987500194	0.37998065489250527
-0.48550653471875194	0.38574225571059445
-0.48544549956250194	0.3908932345940409
-0.48538446440625194	0.39542553343171916
-0.48532342925000194	0.39933197238289675
-0.48526239409375194	0.40260584390673887
-0.48520135893750194	0.40524202407455384
-0.48514032378125194	0.4072363070660852
-0.48507928862500194	0.40858521314361007
-0.48501825346875194	0.40928663075505045
-0.48495721831250194	0.4093394408517077
-0.48489618315625194	0.40874335009255436
-0.48483514800000194	0.4074993847639505
-0.48477411284375194	0.40560949064972984
-0.48471307768750194	0.40307655771343853
-0.48465204253125194	0.3999047789366033
-0.48459100737500194	0.39609910808929744
-0.48452997221875194	0.39166560785112564
-0.48446893706250194	0.3866115304522226
-0.48440790190625194	0.38094483740050783
-0.48434686675000194	0.37467464594042976
-0.48428583159375194	0.3678111350273377
-0.48422479643750194	0.3603652432384009
-0.48416376128125194	0.35234891432005994
-0.48410272612500194	0.3437751991749153
-0.48404169096875194	0.3346578009305142
-0.48398065581250194	0.32501133950484357
-0.48391962065625194	0.3148515552654386
-0.48385858550000194	0.3041947151229168
-0.48379755034375194	0.293057902189659
-0.48373651518750194	0.2814593107015875
-0.48367548003125194	0.26941757825451257
-0.48361444487500194	0.2569519721558629
-0.48355340971875194	0.24408288508500076
-0.48349237456250194	0.2308310049244775
-0.48343133940625194	0.21721766898892017
-0.48337030425000194	0.20326493169911292
-0.48330926909375194	0.18899544125462825
-0.48324823393750194	0.1744322702917871
-0.48318719878125194	0.1595986141755401
-0.48312616362500194	0.14451902108423206
-0.48306512846875194	0.12921776638155222
-0.48300409331250194	0.11371906986634472
-0.48294305815625194	0.09804878199845558
-0.48288202300000194	0.08223198197089944
-0.48282098784375194	0.06629402438249206
-0.48275995268750194	0.050261227206602865
-0.48269891753125194	0.03415916039021383
-0.48263788237500194	0.018014133245609857
-0.48257684721875194	0.0018524434666396094
-0.48251581206250194	-0.014300125276182367
-0.48245477690625194	-0.030416968495027244
-0.48239374175000194	-0.046471910770601095
-0.48233270659375194	-0.06243931677858904
-0.48227167143750194	-0.07829291719103845
-0.48221063628125194	-0.09400689349209139
-0.48214960112500194	-0.10955608287096827
-0.48208856596875194	-0.12491501851696649
-0.48202753081250194	-0.1400586110421914
-0.48196649565625194	-0.15496252000991456
-0.48190546050000194	-0.16960246416088315
-0.48184442534375194	-0.1839544035435138
-0.48178339018750194	-0.19799527916872456
-0.48172235503125194	-0.21170222659560464
-0.48166131987500194	-0.22505270021581988
-0.48160028471875194	-0.23802521571765886
-0.48153924956250194	-0.2505987373075205
-0.48147821440625194	-0.2627524275330086
-0.48141717925000194	-0.27446675884935795
-0.48135614409375194	-0.28572286000917646
-0.48129510893750194	-0.29650178618796835
-0.48123407378125194	-0.3067865070074137
-0.48117303862500194	-0.316560266577658
-0.48111200346875194	-0.32580657344448044
-0.48105096831250194	-0.3345109930011372
-0.48098993315625194	-0.3426590768031041
-0.48092889800000194	-0.3502373341297753
-0.48086786284375194	-0.35723377206012147
-0.48080682768750194	-0.36363666124528643
-0.48074579253125194	-0.3694356916423027
-0.48068475737500194	-0.37462144900449035
-0.48062372221875194	-0.3791852216812345
-0.48056268706250194	-0.3831198047388743
-0.48050165190625194	-0.3864186829120332
-0.48044061675000194	-0.3890763452419269
-0.48037958159375194	-0.3910885843883443
-0.48031854643750194	-0.3924520539871013
-0.48025751128125194	-0.3931644801596241
-0.48019647612500194	-0.39322471510505774
-0.48013544096875194	-0.3926326710105891
-0.48007440581250194	-0.3913892460118399
-0.48001337065625194	-0.3894964960128141
-0.47995233550000194	-0.386957548551442
-0.47989130034375194	-0.38377642100281956
-0.47983026518750194	-0.37995842866134016
-0.47976923003125194	-0.37550978956998265
-0.47970819487500194	-0.37043764993502215
-0.47964715971875194	-0.3647505225492961
-0.47958612456250194	-0.3584575054142881
-0.47952508940625194	-0.3515689292485694
-0.47946405425000194	-0.344096303044504
-0.47940301909375194	-0.3360514913169238
-0.47934198393750194	-0.32744783981171866
-0.47928094878125194	-0.3182996654725474
-0.47921991362500194	-0.3086215887879703
-0.47915887846875194	-0.2984295837486042
-0.47909784331250194	-0.28774061215688995
-0.47903680815625194	-0.27657187942418254
-0.47897577300000194	-0.26494186222633526
-0.47891473784375194	-0.2528697189003078
-0.47885370268750194	-0.2403749798098247
-0.47879266753125194	-0.22747862833896318
-0.47873163237500194	-0.21420151526663578
-0.47867059721875194	-0.20056523559950964
-0.47860956206250194	-0.18659296802552672
-0.47854852690625194	-0.17230705633182458
-0.47848749175000194	-0.15773078764846674
-0.47842645659375194	-0.14288909749397385
-0.47836542143750194	-0.12780562859994476
-0.47830438628125194	-0.1125050334294836
-0.47824335112500194	-0.09701345689415673
-0.47818231596875194	-0.08135567952195502
-0.47812128081250194	-0.06555740284396323
-0.47806024565625194	-0.04964530128227355
-0.47799921050000194	-0.033645221135377774
-0.47793817534375194	-0.017583442772622828
-0.47787714018750194	-0.0014867613313248294
-0.47781610503125194	0.014618307003299054
-0.47775506987500194	0.03070527350216206
-0.47769403471875194	0.04674753557364909
-0.47763299956250194	0.06271845804527387
-0.47757196440625194	0.07859160761648148
-0.47751092925000194	0.09434095196649037
-0.47744989409375194	0.1099402555996689
-0.47738885893750194	0.1253635054407563
-0.47732782378125194	0.1405854096438284
-0.47726678862500194	0.1555807803993073
-0.47720575346875194	0.1703243694212819
-0.47714471831250194	0.1847918795002233
-0.47708368315625194	0.19895960220955403
-0.47702264800000194	0.21280341564312735
-0.47696161284375194	0.22630052778805435
-0.47690057768750194	0.23942876377127173
-0.47683954253125194	0.25216572032103335
-0.47677850737500194	0.2644904432044683
-0.47671747221875194	0.2763824346956106
-0.47665643706250194	0.2878215784937327
-0.47659540190625194	0.29878889213503357
-0.47653436675000194	0.30926595636063403
-0.47647333159375194	0.3192352306571381
-0.47641229643750194	0.32867990375468087
-0.47635126128125194	0.33758406095393473
-0.47629022612500194	0.34593288012852774
-0.47622919096875194	0.35371198025446143
-0.47616815581250194	0.3609083045451981
-0.47610712065625194	0.36750978509156274
-0.47604608550000194	0.3735048527977607
-0.47598505034375194	0.37888345398001566
-0.47592401518750194	0.3836363829198153
-0.47586298003125194	0.38775521848470373
-0.47580194487500194	0.39123288547415214
-0.47574090971875194	0.39406330158942876
-0.47567987456250194	0.39624128290303773
-0.47561883940625194	0.3977628457715656
-0.47555780425000194	0.39862512927674626
-0.47549676909375194	0.3988262311480857
-0.47543573393750194	0.3983654051081097
-0.47537469878125194	0.3972429957342602
-0.47531366362500194	0.3954604280239771
-0.47525262846875194	0.3930201924383066
-0.47519159331250194	0.3899258991667133
-0.47513055815625194	0.3861822409029486
-0.47506952300000194	0.381794877024417
-0.47500848784375194	0.3767707163657261
-0.47494745268750194	0.37111762973667045
-0.47488641753125194	0.3648443049384967
-0.47482538237500194	0.357960931808496
-0.47476434721875194	0.35047841690420084
-0.47470331206250194	0.34240835807731773
-0.47464227690625194	0.3337640828534557
-0.47458124175000194	0.32455931770393953
-0.47452020659375194	0.31480854155171156
-0.47445917143750194	0.3045278891691121
-0.47439813628125194	0.2937337737215525
-0.47433710112500194	0.2824433469530721
-0.47427606596875194	0.2706752803340128
-0.47421503081250194	0.25844850613021475
-0.47415399565625194	0.2457825350717586
-0.47409296050000194	0.23269828155163552
-0.47403192534375194	0.21921699436038272
-0.47397089018750194	0.20536027902437057
-0.47390985503125194	0.1911508401910019
-0.47384881987500194	0.17661208118289018
-0.47378778471875194	0.16176732361969015
-0.47372674956250194	0.14664075577045996
-0.47366571440625194	0.13125750489093718
-0.47360467925000194	0.11564239328357809
-0.47354364409375194	0.09982076796596712
-0.47348260893750194	0.08381881702680251
-0.47342157378125194	0.06766285225331034
-0.47336053862500194	0.051378796492242786
-0.47329950346875194	0.034993648856215524
-0.47323846831250194	0.018534667225520954
-0.47317743315625194	0.0020280170335169457
-0.47311639800000194	-0.014498642326654378
-0.47305536284375194	-0.03101805568662691
-0.47299432768750194	-0.04750359316299532
-0.47293329253125194	-0.06392772353976109
-0.47287225737500194	-0.08026354218459349
-0.47281122221875194	-0.09648421239196343
-0.47275018706250194	-0.11256298231555512
-0.47268915190625194	-0.12847328551609188
-0.47262811675000194	-0.14418899084844802
-0.47256708159375194	-0.15968417324184206
-0.47250604643750194	-0.17493305505604084
-0.47244501128125194	-0.189910711737105
-0.47238397612500194	-0.2045922393727724
-0.47232294096875194	-0.2189533209453393
-0.47226190581250194	-0.23297033305416726
-0.47220087065625194	-0.24661984166148487
-0.47213983550000194	-0.25987945467350626
-0.47207880034375194	-0.2727270813016652
-0.47201776518750194	-0.28514124266571167
-0.47195673003125194	-0.2971016145279731
-0.47189569487500194	-0.3085880556032079
-0.47183465971875194	-0.319581530162038
-0.47177362456250194	-0.3300638538072596
-0.47171258940625194	-0.3400171790954777
-0.47165155425000194	-0.3494252985804328
-0.47159051909375194	-0.35827237235500375
-0.47152948393750194	-0.3665431707406964
-0.47146844878125194	-0.37422445942382165
-0.47140741362500194	-0.38130300198164124
-0.47134637846875194	-0.3877666277655194
-0.47128534331250194	-0.3936049482234535
-0.47122430815625194	-0.3988076972887371
-0.47116327300000194	-0.40336602906039065
-0.47110223784375194	-0.4072723829237494
-0.47104120268750194	-0.4105197931472695
-0.47098016753125194	-0.41310270852559533
-0.47091913237500194	-0.4150166179181557
-0.47085809721875194	-0.4162579917633858
-0.47079706206250194	-0.4168245370595117
-0.47073602690625194	-0.4167150057400873
-0.47067499175000194	-0.4159292668114995
-0.47061395659375194	-0.4144683242205635
-0.47055292143750194	-0.4123343053004656
-0.47049188628125194	-0.4095303852603408
-0.47043085112500194	-0.406060901159815
