Time	Frequency
-0.5000400543437564	0.2888556886223832
-0.4999790191875064	0.27810064085168607
-0.4999179840312564	0.26690180347091935
-0.4998569488750064	0.2552765239010919
-0.4997959137187564	0.24324371374470777
-0.4997348785625064	0.23082213862573137
-0.4996738434062564	0.2180312361352433
-0.4996128082500064	0.20489175975939403
-0.4995517730937564	0.191424175481131
-0.4994907379375064	0.1776497495734508
-0.4994297027812564	0.16359060516736745
-0.4993686676250064	0.14926898231634916
-0.4993076324687564	0.13470743086284023
-0.4992465973125064	0.11992908934354451
-0.4991855621562564	0.10495772648004192
-0.4991245270000064	0.08981688589956122
-0.4990634918437564	0.07453050586224613
-0.4990024566875064	0.05912320762295064
-0.4989414215312564	0.04361942960685176
-0.4988803863750064	0.02804362450265411
-0.4988193512187564	0.012420732918584726
-0.4987583160625064	-0.003224114063118181
-0.4986972809062564	-0.018866378876273723
-0.4986362457500064	-0.03448116089831615
-0.4985752105937564	-0.050043000166147385
-0.4985141754375064	-0.0655275291278856
-0.4984531402812564	-0.080910250125471
-0.4983921051250064	-0.09616597280780294
-0.4983310699687564	-0.11127067196807111
-0.4982700348125064	-0.12620043694870448
-0.4982089996562564	-0.14093095797066982
-0.4981479645000064	-0.1554388899675252
-0.4980869293437564	-0.1697011649062475
-0.4980258941875064	-0.18369471380425115
-0.4979648590312564	-0.19739713107298038
-0.4979038238750064	-0.21078669670751465
-0.4978427887187564	-0.22384186165161518
-0.4977817535625064	-0.23654142298764774
-0.4977207184062564	-0.24886530120421615
-0.4976596832500064	-0.26079377205876164
-0.4975986480937564	-0.27230738015807426
-0.4975376129375064	-0.28338771714225836
-0.4974765777812564	-0.2940171295614115
-0.4974155426250064	-0.3041784048698016
-0.4973545074687564	-0.3138550035203249
-0.4972934723125064	-0.32303156780594855
-0.4972324371562564	-0.33169328133047254
-0.4971714020000064	-0.3398258646303647
-0.4971103668437564	-0.3474164999037798
-0.4970493316875064	-0.35445282159658437
-0.4969882965312564	-0.36092314778986534
-0.4969272613750064	-0.36681734008605515
-0.4968662262187564	-0.3721256428968913
-0.4968051910625064	-0.3768392511967116
-0.4967441559062564	-0.3809507178653623
-0.4966831207500064	-0.3844531073765663
-0.4966220855937564	-0.3873406457217548
-0.4965610504375064	-0.3896086174298331
-0.4965000152812564	-0.391253109202781
-0.4964389801250064	-0.39227135749093456
-0.4963779449687564	-0.3926615181373503
-0.4963169098125064	-0.39242276908977014
-0.4962558746562564	-0.39155533178220514
-0.4961948395000064	-0.390060354067892
-0.4961338043437564	-0.3879400425414399
-0.4960727691875064	-0.38519765335337725
-0.4960117340312564	-0.3818373151276997
-0.4959506988750064	-0.37786418809397676
-0.4958896637187564	-0.3732845612142857
-0.4958286285625064	-0.36810549749980354
-0.4957675934062564	-0.3623350333731866
-0.4957065582500064	-0.35598234520717953
-0.4956455230937564	-0.3490574136176557
-0.4955844879375064	-0.3415710237929542
-0.4955234527812564	-0.3335350766785046
-0.4954624176250064	-0.3249623570800588
-0.4954013824687564	-0.31586623086548454
-0.4953403473125064	-0.3062611881715785
-0.4952793121562564	-0.2961625830516081
-0.4952182770000064	-0.2855862385770454
-0.4951572418437564	-0.2745490197599721
-0.4950962066875064	-0.2630685322257216
-0.4950351715312564	-0.2511629414260397
-0.4949741363750064	-0.23885128628133803
-0.4949131012187564	-0.22615303442880844
-0.4948520660625064	-0.21308849307356373
-0.4947910309062564	-0.19967862256530003
-0.4947299957500064	-0.1859445061584697
-0.4946689605937564	-0.17190830770761953
-0.4946079254375064	-0.1575924089300914
-0.4945468902812564	-0.14301947359258094
-0.4944858551250064	-0.12821311822913078
-0.4944248199687564	-0.11319672372305999
-0.4943637848125064	-0.09799436254162813
-0.4943027496562564	-0.08263064762108357
-0.4942417145000064	-0.06712970340170003
-0.4941806793437564	-0.051516564437220365
-0.4941196441875064	-0.03581659382596802
-0.4940586090312564	-0.02005434716095157
-0.4939975738750064	-0.00425528536468747
-0.4939365387187564	0.011554769543896856
-0.4938755035625064	0.027351088317015687
-0.4938144684062564	0.04310817001272839
-0.4937534332500064	0.0588002224500051
-0.4936923980937564	0.07440270299851681
-0.4936313629375064	0.08989031939566244
-0.4935703277812564	0.1052376034181307
-0.4935092926250064	0.12042078499603104
-0.4934482574687564	0.13541511310567633
-0.4933872223125064	0.15019568780499873
-0.4933261871562564	0.16473983300134062
-0.4932651520000064	0.1790237421478582
-0.4932041168437564	0.19302370488543344
-0.4931430816875064	0.20671812403873813
-0.4930820465312564	0.22008441430795095
-0.4930210113750064	0.23310078963818817
-0.4929599762187564	0.2457468229596968
-0.4928989410625064	0.258001465660367
-0.4928379059062564	0.2698451617755573
-0.4927768707500064	0.281258933734845
-0.4927158355937564	0.2922238511569113
-0.4926548004375064	0.3027224702244621
-0.4925937652812564	0.3127377174090207
-0.4925327301250064	0.32225321691737
-0.4924716949687564	0.331253577641599
-0.4924106598125064	0.3397241445624901
-0.4923496246562564	0.3476511819934093
-0.4922885895000064	0.3550216461766041
-0.4922275543437564	0.3618235372320461
-0.4921665191875064	0.36804584168453663
-0.4921054840312564	0.37367822381919347
-0.4920444488750064	0.3787113962339242
-0.4919834137187564	0.38313723611963735
-0.4919223785625064	0.38694832438382254
-0.4918613434062564	0.3901382410801031
-0.4918003082500064	0.3927017877643339
-0.4917392730937564	0.3946345797048689
-0.4916782379375064	0.3959332767722983
-0.4916172027812564	0.39659560108049313
-0.4915561676250064	0.3966202552846696
-0.4914951324687564	0.39600703196412196
-0.4914340973125064	0.3947566615993704
-0.4913730621562564	0.39287096456936965
-0.4913120270000064	0.3903527761884908
-0.4912509918437564	0.38720591867724263
-0.4911899566875064	0.3834352984145162
-0.4911289215312564	0.3790467151545999
-0.4910678863750064	0.3740470767092025
-0.4910068512187564	0.3684442601530674
-0.4909458160625064	0.36224702515824336
-0.4908847809062564	0.3554652050062024
-0.4908237457500064	0.34810949794008006
-0.4907627105937564	0.3401916502554964
-0.4907016754375064	0.33172417640696866
-0.4906406402812564	0.3227204055840268
-0.4905796051250064	0.31319495760409527
-0.4905185699687564	0.3031629140643832
-0.4904575348125064	0.2926400119692496
-0.4903964996562564	0.2816433781946384
-0.4903354645000064	0.2701906104978006
-0.4902744293437564	0.258299728203778
-0.4902133941875064	0.2459899116826012
-0.4901523590312564	0.2332809876658826
-0.4900913238750064	0.22019320535750525
-0.4900302887187564	0.20674750566444608
-0.4899692535625064	0.19296552038278525
-0.4899082184062564	0.178869401888665
-0.4898471832500064	0.164481718365224
-0.4897861480937564	0.14982564864902792
-0.4897251129375064	0.1349246906228602
-0.4896640777812564	0.11980278572825936
-0.4896030426250064	0.10448442141129291
-0.4895420074687564	0.08899411594886168
-0.4894809723125064	0.07335672514175598
-0.4894199371562564	0.057597662777467765
-0.4893589020000064	0.041742280942124496
-0.4892978668437564	0.025815922118577975
-0.4892368316875064	0.009844491920102838
-0.4891757965312564	-0.006146204505252496
-0.4891147613750064	-0.022130571551652576
-0.4890537262187564	-0.038082629550060275
-0.4889926910625064	-0.05397660981240578
-0.4889316559062564	-0.06978695172247093
-0.4888706207500064	-0.08548795823282412
-0.4888095855937564	-0.10105423158654073
-0.4887485504375064	-0.11646075679329887
-0.4886875152812564	-0.13168243388567355
-0.4886264801250064	-0.14669455396362685
-0.4885654449687564	-0.161473056474652
-0.4885044098125064	-0.17599372469149382
-0.4884433746562564	-0.1902330919497484
-0.4883823395000064	-0.2041682634123842
-0.4883213043437564	-0.21777619358584832
-0.4882602691875064	-0.2310351064413903
-0.4881992340312564	-0.24392359457528778
-0.4881381988750064	-0.25642023331512864
-0.4880771637187564	-0.26850502109863655
-0.4880161285625064	-0.2801583574793419
-0.4879550934062564	-0.2913610314903457
-0.4878940582500064	-0.3020949525816489
-0.4878330230937564	-0.3123425181750261
-0.4877719879375064	-0.3220870838122924
-0.4877109527812564	-0.33131277725605746
-0.4876499176250064	-0.34000429313166247
-0.4875888824687564	-0.34814765393176
-0.4875278473125064	-0.35572951489051
-0.4874668121562564	-0.36273716609119994
-0.4874057770000064	-0.36915936823246953
-0.4873447418437564	-0.37498559564803136
-0.4872837066875064	-0.3802059266856555
-0.4872226715312564	-0.3848119608960597
-0.4871616363750064	-0.3887961874235403
-0.4871006012187564	-0.392151646046564
-0.4870395660625064	-0.3948728820724513
-0.4869785309062564	-0.39695546559778955
-0.4869174957500064	-0.3983955685547016
-0.4868564605937564	-0.39919077752160903
-0.4867954254375064	-0.3993397408198369
-0.4867343902812564	-0.39884185979400755
-0.4866733551250064	-0.3976978165177159
-0.4866123199687564	-0.3959093576319163
-0.4865512848125064	-0.3934791043561164
-0.4864902496562564	-0.3904108369181093
-0.4864292145000064	-0.3867094086921322
-0.4863681793437564	-0.38238057330705394
-0.4863071441875064	-0.37743121153260506
-0.4862461090312564	-0.3718692005156111
-0.4861850738750064	-0.3657033104176912
-0.4861240387187564	-0.3589434807625545
-0.4860630035625064	-0.35160047626482094
-0.4860019684062564	-0.3436859695688698
-0.4859409332500064	-0.33521277995119475
-0.4858798980937564	-0.32619446101848176
-0.4858188629375064	-0.3166454234390808
-0.4857578277812564	-0.3065811078200843
-0.4856967926250064	-0.2960177264051303
-0.4856357574687564	-0.28497223143785494
-0.4855747223125064	-0.2734624549252548
-0.4855136871562564	-0.2615069530083163
-0.4854526520000064	-0.24912508175346368
-0.4853916168437564	-0.23633679580959277
-0.4853305816875064	-0.22316265722631617
-0.4852695465312564	-0.20962421472888224
-0.4852085113750064	-0.19574319423420494
-0.4851474762187564	-0.18154197059693508
-0.4850864410625064	-0.16704385576033282
-0.4850254059062564	-0.15227204205426234
-0.4849643707500064	-0.13725054478569146
-0.4849033355937564	-0.12200392073982068
-0.4848423004375064	-0.10655656415025516
-0.4847812652812564	-0.09093378695646455
-0.4847202301250064	-0.07516097278555332
-0.4846591949687564	-0.059263525544371046
-0.4845981598125064	-0.04326749546968171
-0.4845371246562564	-0.027198774354128867
-0.4844760895000064	-0.011083506973760955
-0.4844150543437564	0.005051997465510053
-0.4843540191875064	0.021181667175422036
-0.4842929840312564	0.03727913866470589
-0.4842319488750064	0.053318030983838034
-0.4841709137187564	0.06927243886066084
-0.4841098785625064	0.08511642599173481
-0.4840488434062564	0.10082385397036853
-0.4839878082500064	0.11636915809262552
-0.4839267730937564	0.13172727757326436
-0.4838657379375064	0.14687291974250713
-0.4838047027812564	0.16178109152577874
-0.4837436676250064	0.17642784331109143
-0.4836826324687564	0.19078921220702677
-0.4836215973125064	0.20484128588525088
-0.4835605621562564	0.21856144219541437
-0.4834995270000064	0.2319272567053379
-0.4834384918437564	0.24491645840482645
-0.4833774566875064	0.25750812864706873
-0.4833164215312564	0.26968151139646895
-0.4832553863750064	0.28141639803703333
-0.4831943512187564	0.29269393149084766
-0.4831333160625064	0.30349527631818235
-0.4830722809062564	0.3138026240576104
-0.4830112457500064	0.323599342460301
-0.4829502105937564	0.3328689643065408
-0.4828891754375064	0.34159629162227806
-0.4828281402812564	0.34976707039520266
-0.4827671051250064	0.35736754027123574
-0.4827060699687564	0.36438528988957325
-0.4826450348125064	0.37080876451686773
-0.4825839996562564	0.37662698184698523
-0.4825229645000064	0.3818305184226202
-0.4824619293437564	0.3864107685971584
-0.4824008941875064	0.39035969356539024
-0.4823398590312564	0.3936709334767506
-0.4822788238750064	0.39633892176502006
-0.4822177887187564	0.3983588528220426
-0.4821567535625064	0.3997274025304178
-0.4820957184062564	0.40044213371559345
-0.4820346832500064	0.40050158832000243
-0.4819736480937564	0.39990550820168885
-0.4819126129375064	0.3986546650122003
-0.4818515777812564	0.3967509034306056
-0.4817905426250064	0.3941970851737753
-0.4817295074687564	0.39099721235447255
-0.4816684723125064	0.38715634824921363
-0.4816074371562564	0.3826804594542286
-0.4815464020000064	0.3775767586574003
-0.4814853668437564	0.37185340871411215
-0.4814243316875064	0.3655194198629081
-0.4813632965312564	0.358585121119759
-0.4813022613750064	0.35106164477768304
-0.4812412262187564	0.34296094548995426
-0.4811801910625064	0.33429626898383374
-0.4811191559062564	0.32508158415916766
-0.4810581207500064	0.3153316647570855
-0.4809970855937564	0.305062443595401
-0.4809360504375064	0.29429045673379534
-0.4808750152812564	0.2830331698401155
-0.4808139801250064	0.27130901771303373
-0.4807529449687564	0.2591367446882562
-0.4806919098125064	0.24653631573920798
-0.4806308746562564	0.23352836756615658
-0.4805698395000064	0.22013364614607853
-0.4805088043437564	0.20637431766556058
-0.4804477691875064	0.19227277994338465
-0.4803867340312564	0.17785168829578749
-0.4803256988750064	0.1631349539393843
-0.4802646637187564	0.1481463554364634
-0.4802036285625064	0.13291039127525803
-0.4801425934062564	0.11745209334015416
-0.4800815582500064	0.10179627503277981
-0.4800205230937564	0.08596911883143876
-0.4799594879375064	0.06999627714212474
-0.4798984527812564	0.05390336322099364
-0.4798374176250064	0.03771759511429049
-0.4797763824687564	0.02146500352161924
-0.4797153473125064	0.005171921822666093
-0.4796543121562564	-0.011134327400875502
-0.4795932770000064	-0.027427390177180995
-0.4795322418437564	-0.04368057344770537
-0.4794712066875064	-0.05986708421496594
-0.4794101715312564	-0.07596033259675516
-0.4793491363750064	-0.09193398694005608
-0.4792881012187564	-0.10776191502905803
-0.4792270660625064	-0.1234177361034056
-0.4791660309062564	-0.1388760751634904
-0.4791049957500064	-0.15411149101207272
-0.4790439605937564	-0.1690985559248096
-0.4789829254375064	-0.18381299010817267
-0.4789218902812564	-0.19823044914296983
-0.4788608551250064	-0.21232702953208427
-0.4787998199687564	-0.22607959779644168
-0.4787387848125064	-0.2394655350622715
-0.4786777496562564	-0.2524626672397711
-0.4786167145000064	-0.2650494236134965
-0.4785556793437564	-0.2772052100812284
-0.4784946441875064	-0.2889098079759762
-0.4784336090312564	-0.300143834888056
-0.4783725738750064	-0.31088874560783913
-0.4783115387187564	-0.32112664851151473
-0.4782505035625064	-0.33084065554901365
-0.4781894684062564	-0.3400145625908276
-0.4781284332500064	-0.3486331236577477
-0.4780673980937564	-0.3566820422340459
-0.4780063629375064	-0.36414784478681367
-0.4779453277812564	-0.3710180646826649
-0.4778842926250064	-0.3772812972672408
-0.4778232574687564	-0.3829269837410067
-0.4777622223125064	-0.3879455334515565
-0.4777011871562564	-0.3923286994660043
-0.4776401520000064	-0.39606896829043414
-0.4775791168437564	-0.39915982773010816
-0.4775180816875064	-0.40159621011151586
-0.4774570465312564	-0.40337379678921786
-0.4773960113750064	-0.40448934373935785
-0.4773349762187564	-0.4049409402760226
-0.4772739410625064	-0.404727553129797
-0.4772129059062564	-0.4038492717897543
-0.4771518707500064	-0.402307389440623
-0.4770908355937564	-0.4001041795542864
-0.4770298004375064	-0.3972430067328407
-0.4769687652812564	-0.39372842757020926
-0.4769077301250064	-0.3895659807269903
-0.4768466949687564	-0.384762210477699
-0.4767856598125064	-0.3793249406809672
-0.4767246246562564	-0.37326285601780496
-0.4766635895000064	-0.36658559404242985
-0.4766025543437564	-0.359304142905211
-0.4765415191875064	-0.35143023190537176
-0.4764804840312564	-0.3429764171465688
-0.4764194488750064	-0.3339566538944876
-0.4763584137187564	-0.32438565189287505
-0.4762973785625064	-0.31427869615179804
-0.4762363434062564	-0.30365240730776005
-0.4761753082500064	-0.2925241981624181
-0.4761142730937564	-0.2809121850875924
-0.4760532379375064	-0.268835202275762
-0.4759922027812564	-0.2563129114558149
-0.4759311676250064	-0.24336631622413432
-0.4758701324687564	-0.23001608469714566
-0.4758090973125064	-0.2162839290058616
-0.4757480621562564	-0.20219312568033365
-0.4756870270000064	-0.18776609185780568
-0.4756259918437564	-0.1730264923174579
-0.4755649566875064	-0.15799906204097822
-0.4755039215312564	-0.1427079776898337
-0.4754428863750064	-0.127178397954411
-0.4753818512187564	-0.11143607153090367
-0.4753208160625064	-0.09550684274014397
-0.4752597809062564	-0.07941671285834045
-0.4751987457500064	-0.06319212513144289
-0.4751377105937564	-0.0468603130413326
-0.4750766754375064	-0.03044765811230159
-0.4750156402812564	-0.013981029614939898
-0.4749546051250064	0.0025116154101933012
-0.4748935699687564	0.019003735678826298
-0.4748325348125064	0.03546826698149921
-0.4747714996562564	0.05187732812534871
-0.4747104645000064	0.06820430955319948
-0.4746494293437564	0.08442239945202695
-0.4745883941875064	0.10050438106101756
-0.4745273590312564	0.1164237388337661
-0.4744663238750064	0.1321544584503448
-0.4744052887187564	0.14767034964564799
-0.4743442535625064	0.16294541677795446
-0.4742832184062564	0.17795479615146562
-0.4742221832500064	0.1926735950004938
-0.4741611480937564	0.2070770353670681
-0.4741001129375064	0.2211415618182132
-0.4740390777812564	0.23484386027756748
-0.4739780426250064	0.24816092270954848
-0.4739170074687564	0.26107081461225157
-0.4738559723125064	0.27355216487497663
-0.4737949371562564	0.2855839419023291
-0.4737339020000064	0.29714626890668283
-0.4736728668437564	0.3082201238283532
-0.4736118316875064	0.31878664438089266
-0.4735507965312564	0.32882827069850434
-0.4734897613750064	0.3383286977709785
-0.4734287262187564	0.34727156657361047
-0.4733676910625064	0.3556418496792859
-0.4733066559062564	0.36342609455527464
-0.4732456207500064	0.3706107922074679
-0.4731845855937564	0.37718381572903303
-0.4731235504375064	0.38313452281240795
-0.4730625152812564	0.3884525212070749
-0.4730014801250064	0.39312888022185777
-0.4729404449687564	0.39715585756037297
-0.4728794098125064	0.4005263533045525
-0.4728183746562564	0.40323470679084084
-0.4727573395000064	0.4052762832909394
-0.4726963043437564	0.40664737033395204
-0.4726352691875064	0.40734559512237506
-0.4725742340312564	0.4073695951226045
-0.4725131988750064	0.40671906876600766
-0.4724521637187564	0.4053949313977631
-0.4723911285625064	0.4033991925904579
-0.4723300934062564	0.40073493075036465
-0.4722690582500064	0.39740632160140066
-0.4722080230937564	0.39341876938283554
-0.4721469879375064	0.3887786495905289
-0.4720859527812564	0.3834933745075501
-0.4720249176250064	0.37757164272582927
-0.4719638824687564	0.37102302587999514
-0.4719028473125064	0.3638581298863614
-0.4718418121562564	0.35608877160902386
-0.4717807770000064	0.3477275321041889
-0.4717197418437564	0.33878817444439113
-0.4716587066875064	0.3292854123345823
-0.4715976715312564	0.319234590530017
-0.4715366363750064	0.3086525228823856
-0.4714756012187564	0.2975565053195951
-0.4714145660625064	0.28596457142738846
-0.4713535309062564	0.2738962157481056
-0.4712924957500064	0.26137101753620257
-0.4712314605937564	0.2484096170888057
-0.4711704254375064	0.2350336976603345
-0.4711093902812564	0.22126503958537191
-0.4710483551250064	0.2071264489789233
-0.4709873199687564	0.19264137428899064
-0.4709262848125064	0.1778337672324861
-0.4708652496562564	0.16272806747489327
-0.4708042145000064	0.14734916276834956
-0.4707431793437564	0.1317227851959961
-0.4706821441875064	0.11587469469866668
-0.4706211090312564	0.09983100214604564
-0.4705600738750064	0.0836185354416375
-0.4704990387187564	0.06726412784797028
-0.4704380035625064	0.05079481400954129
-0.4703769684062564	0.03423804844899072
-0.4703159332500064	0.01762130570947734
-0.4702548980937564	0.0009720691330127304
-0.4701938629375064	-0.015681702978002858
-0.4701328277812564	-0.03231254672713057
-0.4700717926250064	-0.0488930154905808
-0.4700107574687564	-0.06539484268574022
-0.4699497223125064	-0.0817910384327865
-0.4698886871562564	-0.09805462539950988
-0.4698276520000064	-0.11415762072301623
-0.4697666168437564	-0.13007368183381213
-0.4697055816875064	-0.14577666002993725
