Time	Frequency
-0.5000128740937555	0.26485723653025706
-0.4999518389375055	0.24711196051973564
-0.4998908037812555	0.22880965526506983
-0.4998297686250055	0.20999222670537238
-0.4997687334687555	0.19070262381764802
-0.4997076983125055	0.17098558836632918
-0.4996466631562555	0.1508863611983708
-0.4995856280000055	0.1304506743118131
-0.4995245928437555	0.1097258598075296
-0.4994635576875055	0.08875970624295475
-0.4994025225312555	0.0676000358610188
-0.4993414873750055	0.04629548333556137
-0.4992804522187555	0.024895318579265847
-0.4992194170625055	0.003448654784279315
-0.4991583819062555	-0.01799535188891765
-0.4990973467500055	-0.03938719339234974
-0.4990363115937555	-0.06067772617610903
-0.4989752764375055	-0.08181791642361061
-0.4989142412812555	-0.10275893960056612
-0.4988532061250055	-0.12345288314029564
-0.4987921709687555	-0.14385195234126458
-0.4987311358125055	-0.16390881899253368
-0.4986701006562555	-0.18357764073536356
-0.4986090655000055	-0.20281299873634046
-0.4985480303437555	-0.22157021104186714
-0.4984869951875055	-0.23980625326989027
-0.4984259600312555	-0.257478984491403
-0.4983649248750055	-0.27454736133183727
-0.4983038897187555	-0.29097206007577786
-0.4982428545625055	-0.3067151217717946
-0.4981818194062555	-0.3217399602530041
-0.4981207842500055	-0.3360117502627467
-0.4980597490937555	-0.34949745743775673
-0.4979987139375055	-0.3621657980176805
-0.4979376787812555	-0.373987159795106
-0.4978766436250055	-0.38493411378215264
-0.4978156084687555	-0.39498122853486706
-0.4977545733125055	-0.40410482769800304
-0.4976935381562555	-0.4122837146028825
-0.4976325030000055	-0.4194986534062897
-0.4975714678437555	-0.42573253954597506
-0.4975104326875055	-0.43097081602386395
-0.4974493975312555	-0.43520088737901147
-0.4973883623750055	-0.4384125527798762
-0.4973273272187555	-0.4405981140486034
-0.4972662920625055	-0.441752019584681
-0.4972052569062555	-0.441871156585412
-0.4971442217500055	-0.4409548373649304
-0.4970831865937555	-0.4390046667284803
-0.4970221514375055	-0.43602468588770715
-0.4969611162812555	-0.43202129860271893
-0.4969000811250055	-0.4270032320719733
-0.4968390459687555	-0.4209815254854672
-0.4967780108125055	-0.413969639376347
-0.4967169756562555	-0.40598328064596073
-0.4966559405000055	-0.3970401659925611
-0.4965949053437555	-0.38716061474837454
-0.4965338701875055	-0.37636696666100095
-0.4964728350312555	-0.3646833236733644
-0.4964117998750055	-0.35213643747993484
-0.4963507647187555	-0.33875472890712294
-0.4962897295625055	-0.3245683002641624
-0.4962286944062555	-0.3096098207299074
-0.4961676592500055	-0.29391319558936774
-0.4961066240937555	-0.27751378900978946
-0.4960455889375055	-0.260449621313478
-0.4959845537812555	-0.24275953416975843
-0.4959235186250055	-0.2244832632368101
-0.4958624834687555	-0.20566331184807465
-0.4958014483125055	-0.18634282441272365
-0.4957404131562555	-0.16656524811965767
-0.4956793780000055	-0.14637643493059405
-0.4956183428437555	-0.12582281371029022
-0.4955573076875055	-0.10495106003639655
-0.4954962725312555	-0.08380941713645164
-0.4954352373750055	-0.062446260453965875
-0.4953742022187555	-0.04091068145601512
-0.4953131670625055	-0.01925250505763089
-0.4952521319062555	0.002478928179287322
-0.4951910967500055	0.0242333028883219
-0.4951300615937555	0.045960347508916456
-0.4950690264375055	0.06761040047214048
-0.4950079912812555	0.08913319560942334
-0.4949469561250055	0.11047909857932962
-0.4948859209687555	0.13159891228114376
-0.4948248858125055	0.15244371184080618
-0.4947638506562555	0.17296537594869377
-0.4947028155000055	0.1931162725043724
-0.4946417803437555	0.21284977368124966
-0.4945807451875055	0.23212015392269938
-0.4945197100312555	0.2508826026926106
-0.4944586748750055	0.26909362679043786
-0.4943976397187555	0.286710779416427
-0.4943366045625055	0.30369295615695535
-0.4942755694062555	0.3200008242594043
-0.4942145342500055	0.3355961965634719
-0.4941534990937555	0.3504423417376796
-0.4940924639375055	0.3645048742490458
-0.4940314287812555	0.3777507636111362
-0.4939703936250055	0.3901485306381546
-0.4939093584687555	0.4016692363694167
-0.4938483233125055	0.41228574933115103
-0.4937872881562555	0.4219726544729489
-0.4937262530000055	0.4307068986483739
-0.4936652178437555	0.43846782812399987
-0.4936041826875055	0.44523669853494036
-0.4935431475312555	0.45099691530236247
-0.4934821123750055	0.45573456312525307
-0.4934210772187555	0.4594379161505142
-0.4933600420625055	0.4620974275283135
-0.4932990069062555	0.46370615782802177
-0.4932379717500055	0.4642595332001156
-0.4931769365937555	0.4637552934947153
-0.4931159014375055	0.46219371379636454
-0.4930548662812555	0.4595774588864078
-0.4929938311250055	0.4559115602520347
-0.4929327959687555	0.45120355575750654
-0.4928717608125055	0.44546329609251895
-0.4928107256562555	0.4387030231334575
-0.4927496905000055	0.430937387919634
-0.4926886553437555	0.42218321534762
-0.4926276201875055	0.4124597838045693
-0.4925665850312555	0.4017884967959791
-0.4925055498750055	0.39019283824060386
-0.4924445147187555	0.3776987518802911
-0.4923834795625055	0.36433397087843405
-0.4923224444062555	0.3501281900133639
-0.4922614092500055	0.3351133418178767
-0.4922003740937555	0.31932312503355925
-0.4921393389375055	0.3027927924224338
-0.4920783037812555	0.2855595231253492
-0.4920172686250055	0.2676624023899434
-0.4919562334687555	0.24914140741510585
-0.4918951983125055	0.23003837609558989
-0.4918341631562555	0.21039684687142451
-0.4917731280000055	0.19026068226174533
-0.4917120928437555	0.16967568616943904
-0.4916510576875055	0.1486887923302467
-0.4915900225312555	0.12734693130870942
-0.4915289873750055	0.1056988968110272
-0.4914679522187555	0.08379405059351808
-0.4914069170625055	0.06168156350041654
-0.4913458819062555	0.03941203619787278
-0.4912848467500055	0.01703623392484906
-0.4912238115937555	-0.0053953145766556165
-0.4911627764375055	-0.027831231934069587
-0.4911017412812555	-0.05022045693990724
-0.4910407061250055	-0.07251229237330538
-0.4909796709687555	-0.09465543247229836
-0.4909186358125055	-0.1165995225400383
-0.4908576006562555	-0.13829495029674538
-0.4907965655000055	-0.15969153159203797
-0.4907355303437555	-0.18074055313664295
-0.4906744951875055	-0.20139440505114425
-0.4906134600312555	-0.22160530521396163
-0.4905524248750055	-0.2413271515401205
-0.4904913897187555	-0.26051514513093904
-0.4904303545625055	-0.2791250683148371
-0.4903693194062555	-0.29711430855243826
-0.4903082842500055	-0.31444186201274527
-0.4902472490937555	-0.3310679550638892
-0.4901862139375055	-0.3469542936853869
-0.4901251787812555	-0.36206467753646976
-0.4900641436250055	-0.37636446901058646
-0.4900031084687555	-0.3898205954839341
-0.4899420733125055	-0.40240230117199083
-0.4898810381562555	-0.4140807874020199
-0.4898200030000055	-0.4248291202619637
-0.4897589678437555	-0.43462247309199986
-0.4896979326875055	-0.4434384405138934
-0.4896368975312555	-0.4512567822088861
-0.4895758623750055	-0.45805931836267816
-0.4895148272187555	-0.46383042167784955
-0.4894537920625055	-0.46855680459901466
-0.4893927569062555	-0.4722274982267203
-0.4893317217500055	-0.4748339741261655
-0.4892706865937555	-0.47637015451345965
-0.4892096514375055	-0.47683246031067456
-0.4891486162812555	-0.4762197101103521
-0.4890875811250055	-0.47453320690475176
-0.4890265459687555	-0.4717767433152531
-0.4889655108125055	-0.4679566079619627
-0.4889044756562555	-0.4630814380316701
-0.4888434405000055	-0.4571622850135098
-0.4887824053437555	-0.45021286130677607
-0.4887213701875055	-0.44224893485492517
-0.4886603350312555	-0.4332885848781333
-0.4885992998750055	-0.42335265745835304
-0.4885382647187555	-0.41246378433628017
-0.4884772295625055	-0.4006467165621247
-0.4884161944062555	-0.38792889946381826
-0.4883551592500055	-0.37433947205901297
-0.4882941240937555	-0.3599093472300668
-0.4882330889375055	-0.3446719559033228
-0.4881720537812555	-0.3286623923939338
-0.4881110186250055	-0.3119170533769637
-0.4880499834687555	-0.29447471544838544
-0.4879889483125055	-0.27637563810894805
-0.4879279131562555	-0.2576611108652937
-0.4878668780000055	-0.23837430832496426
-0.4878058428437555	-0.21855972204874397
-0.4877448076875055	-0.19826296846104385
-0.4876837725312555	-0.1775306125705232
-0.4876227373750055	-0.1564103893212878
-0.4875617022187555	-0.13495122898885872
-0.4875006670625055	-0.11320236566210289
-0.4874396319062555	-0.0912136797317305
-0.4873785967500055	-0.06903626146815678
-0.4873175615937555	-0.046721186509305165
-0.4872565264375055	-0.024319400008595716
-0.4871954912812555	-0.0018830424695435227
-0.4871344561250055	0.020536116236616116
-0.4870734209687555	0.042886849554314065
-0.4870123858125055	0.0651172098849188
-0.4869513506562555	0.08717597890144435
-0.4868903155000055	0.10901246851755994
-0.4868292803437555	0.13057604910594794
-0.4867682451875055	0.15181712306379777
-0.4867072100312555	0.17268669415355645
-0.4866461748750055	0.1931365338013859
-0.4865851397187555	0.21311948616555076
-0.4865241045625055	0.23258936574498063
-0.4864630694062555	0.2515014331460892
-0.4864020342500055	0.2698119080538198
-0.4863409990937555	0.2874784393575838
-0.4862799639375055	0.304460519075765
-0.4862189287812555	0.320718779844383
-0.4861578936250055	0.33621577530435726
-0.4860968584687555	0.35091581895310453
-0.4860358233125055	0.36478480643360134
-0.4859747881562555	0.37779104361346155
-0.4859137530000055	0.38990445913023536
-0.4858527178437555	0.40109695634591713
-0.4857916826875055	0.4113430623120189
-0.4857306475312555	0.42061910211629616
-0.4856696123750055	0.4289036247673589
-0.4856085772187555	0.43617778495636605
-0.4855475420625055	0.4424248746847922
-0.4854865069062555	0.4476305440286569
-0.4854254717500055	0.4517830121036043
-0.4853644365937555	0.454872834925603
-0.4853034014375055	0.45689302366807105
-0.4852423662812555	0.457839211222417
-0.4851813311250055	0.45770942846274704
-0.4851202959687555	0.45650415094386726
-0.4850592608125055	0.45422652116294393
-0.4849982256562555	0.45088211030812647
-0.4849371905000055	0.44647885415970484
-0.4848761553437555	0.44102735493295286
-0.4848151201875055	0.4345406159228788
-0.4847540850312555	0.4270338815442421
-0.4846930498750055	0.4185249656284044
-0.4846320147187555	0.4090340405322577
-0.4845709795625055	0.3985834199733731
-0.4845099444062555	0.3871976929461918
-0.4844489092500055	0.3749038138102134
-0.4843878740937555	0.3617306835948211
-0.4843268389375055	0.3477091672186761
-0.4842658037812555	0.33287250857215844
-0.4842047686250055	0.3172554676790543
-0.4841437334687555	0.3008946885620106
-0.4840826983125055	0.2838289094444166
-0.4840216631562555	0.26609806987429363
-0.4839606280000055	0.24774385221508413
-0.4838995928437555	0.2288095805791966
-0.4838385576875055	0.20933972545411883
-0.4837775225312555	0.1893799572152391
-0.4837164873750055	0.16897743355186579
-0.4836554522187555	0.1481800872867763
-0.4835944170625055	0.12703666369484018
-0.4835333819062555	0.10559732005086375
-0.4834723467500055	0.08391222668254787
-0.4834113115937555	0.06203237592036741
-0.4833502764375055	0.0400096578440224
-0.4832892412812555	0.01789555302332501
-0.4832282061250055	-0.004257572685965459
-0.4831671709687555	-0.026397470866720774
-0.4831061358125055	-0.04847240054727536
-0.4830451006562555	-0.07042969613360978
-0.4829840655000055	-0.0922176976373187
-0.4829230303437555	-0.11378542522062775
-0.4828619951875055	-0.13508148854391672
-0.4828009600312555	-0.15605562523347458
-0.4827399248750055	-0.1766584397137298
-0.4826788897187555	-0.19684118810810627
-0.4826178545625055	-0.21655603663904513
-0.4825568194062555	-0.23575628827459594
-0.4824957842500055	-0.2543966336469244
-0.4824347490937555	-0.27243277964324747
-0.4823737139375055	-0.2898218496656555
-0.4823126787812555	-0.30652278532980176
-0.4822516436250055	-0.3224957994772706
-0.4821906084687555	-0.3377027361775781
-0.4821295733125055	-0.3521076987232087
-0.4820685381562555	-0.36567619031294235
-0.4820075030000055	-0.3783756596291471
-0.4819464678437555	-0.3901760432202261
-0.4818854326875055	-0.401048936271947
-0.4818243975312555	-0.4109681052227773
-0.4817633623750055	-0.4199098594330635
-0.4817023272187555	-0.4278526020040939
-0.4816412920625055	-0.43477689452248014
-0.4815802569062555	-0.4406660167961087
-0.4815192217500055	-0.4455055608814638
-0.4814581865937555	-0.4492833303605001
-0.4813971514375055	-0.45198998796247125
-0.4813361162812555	-0.45361851501304484
-0.4812750811250055	-0.454164354535886
-0.4812140459687555	-0.4536256951548488
-0.4811530108125055	-0.45200306984375405
-0.4810919756562555	-0.44929966563179174
-0.4810309405000055	-0.44552126000018927
-0.4809699053437555	-0.4406759470917195
-0.4809088701875055	-0.43477456282238564
-0.4808478350312555	-0.4278304309295827
-0.4807867998750055	-0.4198590148443668
-0.4807257647187555	-0.41087851476920484
-0.4806647295625055	-0.40090962107041755
-0.4806036944062555	-0.38997492885211504
-0.4805426592500055	-0.3780994289263724
-0.4804816240937555	-0.3653108072891673
-0.4804205889375055	-0.3516384880268777
-0.4803595537812555	-0.33711365860269604
-0.4802985186250055	-0.32177029919939093
-0.4802374834687555	-0.3056440810550385
-0.4801764483125055	-0.2887719922091495
-0.4801154131562555	-0.27119343461115003
-0.4800543780000055	-0.2529493540071149
-0.4799933428437555	-0.2340821164214338
-0.4799323076875055	-0.21463569193697643
-0.4798712725312555	-0.19465525235824133
-0.4798102373750055	-0.1741876949977676
-0.4797492022187555	-0.153280715271195
-0.4796881670625055	-0.13198300192625784
-0.4796271319062555	-0.11034454068580835
-0.4795660967500055	-0.08841581908727947
-0.4795050615937555	-0.06624840441175
-0.4794440264375055	-0.04389408025634226
-0.4793829912812555	-0.02140508013623968
-0.4793219561250055	0.0011654390270177332
-0.4792609209687555	0.023764679253470502
-0.4791998858125055	0.046339665668701756
-0.4791388506562555	0.0688372071345539
-0.4790778155000055	0.09120434051395947
-0.4790167803437555	0.11338841393692622
-0.4789557451875055	0.1353373674645466
-0.4788947100312555	0.15699927946479464
-0.4788336748750055	0.17832298698656643
-0.4787726397187555	0.1992583660474242
-0.4787116045625055	0.21975584281402352
-0.4786505694062555	0.2397668602168453
-0.4785895342500055	0.2592442288775719
-0.4785284990937555	0.27814180056397453
-0.4784674639375055	0.29641448517037605
-0.4784064287812555	0.31401927477232483
-0.4783453936250055	0.33091433795399827
-0.4782843584687555	0.34705899560719283
-0.4782233233125055	0.3624152863832566
-0.4781622881562555	0.37694651927855694
-0.4781012530000055	0.3906176622014727
-0.4780402178437555	0.4033962728275346
-0.4779791826875055	0.41525153780267804
-0.4779181475312555	0.4261549898815179
-0.4778571123750055	0.43608039909825047
-0.4777960772187555	0.44500355808787945
-0.4777350420625055	0.4529029165920886
-0.4776740069062555	0.4597591789528314
-0.4776129717500055	0.4655553333112545
-0.4775519365937555	0.4702771084029218
-0.4774909014375055	0.4739126205988872
-0.4774298662812555	0.47645239091372077
-0.4773688311250055	0.47788974218370817
-0.4773077959687555	0.4782204751988754
-0.4772467608125055	0.4774428736025373
-0.4771857256562555	0.4755579924745238
-0.4771246905000055	0.47256943981934546
-0.4770636553437555	0.46848326061195733
-0.4770026201875055	0.4633082709275182
-0.4769415850312555	0.45705585273389465
-0.4768805498750055	0.4497396318403642
-0.4768195147187555	0.44137607948241286
-0.4767584795625055	0.4319840472610043
-0.4766974444062555	0.42158452799225093
-0.4766364092500055	0.4102013456342454
-0.4765753740937555	0.3978603414782098
-0.4765143389375055	0.3845894959146939
-0.4764533037812555	0.37041946033192424
-0.4763922686250055	0.3553826269011631
-0.4763312334687555	0.3395133280814335
-0.4762701983125055	0.32284836840825054
-0.4762091631562555	0.30542598902565515
-0.4761481280000055	0.28728624768817684
-0.4760870928437555	0.268471458170189
-0.4760260576875055	0.249024609652938
-0.4759650225312555	0.22899078148930072
-0.4759039873750055	0.20841697976032778
-0.4758429522187555	0.187350037675479
-0.4757819170625055	0.16583911644572552
-0.4757208819062555	0.14393468186614716
-0.4756598467500055	0.12168669132941738
-0.4755988115937555	0.09914745695612144
-0.4755377764375055	0.07636956522371688
-0.4754767412812555	0.053405119894666085
-0.4754157061250055	0.030308525775618014
-0.4753546709687555	0.007133423060452605
-0.4752936358125055	-0.01606699434391983
-0.4752326006562555	-0.03923765780206504
-0.4751715655000055	-0.06232471727909886
-0.4751105303437555	-0.08527494109055773
-0.4750494951875055	-0.10803418329594228
-0.4749884600312555	-0.13054918767300605
-0.4749274248750055	-0.15276776717243543
-0.4748663897187555	-0.17463801283537467
-0.4748053545625055	-0.19610835593586853
-0.4747443194062555	-0.21712886952820165
-0.4746832842500055	-0.23765063040959042
-0.4746222490937555	-0.25762510138952716
-0.4745612139375055	-0.2770058558323326
-0.4745001787812555	-0.29574756894856896
-0.4744391436250055	-0.313806057050888
-0.4743781084687555	-0.331139342582024
-0.4743170733125055	-0.3477066048773471
-0.4742560381562555	-0.3634690138797835
-0.4741950030000055	-0.37838977927718814
-0.4741339678437555	-0.392433696973162
-0.4740729326875055	-0.4055679818759456
-0.4740118975312555	-0.41776182127135775
-0.4739508623750055	-0.4289864490451852
-0.4738898272187555	-0.4392156400243436
-0.4738287920625055	-0.4484254354633937
-0.4737677569062555	-0.4565940767205986
-0.4737067217500055	-0.4637024040643593
-0.4736456865937555	-0.4697338492167603
-0.4735846514375055	-0.4746741004204042
-0.4735236162812555	-0.4785115663682672
-0.4734625811250055	-0.48123735809575696
-0.4734015459687555	-0.4828449544079567
-0.4733405108125055	-0.48333058071910934
-0.4732794756562555	-0.4826932063183432
-0.4732184405000055	-0.48093426981632215
-0.4731574053437555	-0.4780578957523736
-0.4730963701875055	-0.4740709775151779
-0.4730353350312555	-0.46898283352936543
-0.4729742998750055	-0.4628054363252503
-0.4729132647187555	-0.4555534767534488
-0.4728522295625055	-0.447243957118059
-0.4727911944062555	-0.4378965001564673
-0.4727301592500055	-0.42753314709316975
-0.4726691240937555	-0.41617836862797364
-0.4726080889375055	-0.4038590975057929
-0.4725470537812555	-0.3906040545360385
-0.4724860186250055	-0.37644475532440164
-0.4724249834687555	-0.3614148874319504
-0.4723639483125055	-0.3455494299634316
-0.4723029131562555	-0.3288860759899946
-0.4722418780000055	-0.3114643176006358
-0.4721808428437555	-0.29332518589409995
-0.4721198076875055	-0.2745115776475704
-0.4720587725312555	-0.2550677675127128
-0.4719977373750055	-0.23504001260345692
-0.4719367022187555	-0.2144756469717375
-0.4718756670625055	-0.19342293800743746
-0.4718146319062555	-0.1719319170762205
-0.4717535967500055	-0.15005368382670112
-0.4716925615937555	-0.12783949585113571
-0.4716315264375055	-0.10534199332579422
-0.4715704912812555	-0.08261496747699686
-0.4715094561250055	-0.05971152606390212
-0.4714484209687555	-0.036686041587864336
-0.4713873858125055	-0.013593504112142649
-0.4713263506562555	0.009511972873292241
-0.4712653155000055	0.032575504841982
-0.4712042803437555	0.055542280133975205
-0.4711432451875055	0.07835807992350073
-0.4710822100312555	0.1009686877025617
-0.4710211748750055	0.12332072563227646
-0.4709601397187555	0.14536114978404177
-0.4708991045625055	0.16703736115516515
-0.4708380694062555	0.18829849165908735
-0.4707770342500055	0.20909402961256832
-0.4707159990937555	0.22937416860595522
-0.4706549639375055	0.2490913012585805
-0.4705939287812555	0.2681986801644484
-0.4705328936250055	0.2866505820243016
-0.4704718584687555	0.3044034479344348
-0.4704108233125055	0.3214152527834161
-0.4703497881562555	0.33764539436044744
-0.4702887530000055	0.35305546927621884
-0.4702277178437555	0.36760896384635117
-0.4701666826875055	0.38127110942198456
-0.4701056475312555	0.3940095945951392
-0.4700446123750055	0.4057942886928801
-0.4699835772187555	0.41659702925839365
-0.4699225420625055	0.4263921590256256
-0.4698615069062555	0.4351565474507313
-0.4698004717500055	0.4428693472194212
-0.4697394365937555	0.44951218207659155
-0.4696784014375055	0.4550693362810808
