Time	Frequency
-0.5000326338125092	-2.212750110484171e-24
-0.4999715986562592	-2.226937961157913e-24
-0.4999105635000092	-2.235358689934443e-24
-0.4998495283437592	-2.2379901228182338e-24
-0.4997884931875092	-2.234824455314615e-24
-0.4997274580312592	-2.2258691772377384e-24
-0.4996664228750092	-2.2111461302715444e-24
-0.4996053877187592	-2.1906916110539933e-24
-0.4995443525625092	-2.1645572741011768e-24
-0.4994833174062592	-2.1328087924010158e-24
-0.4994222822500092	-2.0955253930442375e-24
-0.4993612470937592	-2.0528016561283354e-24
-0.4993002119375092	-2.0047462112460574e-24
-0.4992391767812592	-1.951479426140782e-24
-0.4991781416250092	-1.893136093616551e-24
-0.4991171064687592	-1.829865471526607e-24
-0.4990560713125092	-1.7618272311808006e-24
-0.4989950361562592	-1.6891929069758184e-24
-0.4989340010000092	-1.6121482531230563e-24
-0.4988729658437592	-1.5308893449877136e-24
-0.4988119306875092	-1.4456213889159394e-24
-0.4987508955312592	-1.35656131652793e-24
-0.4986898603750092	-1.2639369161958366e-24
-0.4986288252187592	-1.1679833675720104e-24
-0.4985677900625092	-1.0689437911706836e-24
-0.4985067549062592	-9.6707232809865e-25
-0.4984457197500092	-8.626285138670695e-25
-0.4983846845937592	-7.558763430438425e-25
-0.4983236494375092	-6.470904856255359e-25
-0.4982626142812592	-5.365493261661313e-25
-0.4982015791250092	-4.245319282054695e-25
-0.4981405439687592	-3.113263183108721e-25
-0.4980795088125092	-1.972232175103755e-25
-0.4980184736562592	-8.251177112897556e-26
-0.4979574385000092	3.251341562381804e-26
-0.4978964033437592	1.4755697234994115e-25
-0.4978353681875092	2.623254545697e-25
-0.4977743330312592	3.7652498240522413e-25
-0.4977132978750092	4.898616745652767e-25
-0.4976522627187592	6.020446373891878e-25
-0.4975912275625092	7.127874539766661e-25
-0.4975301924062592	8.2180391187581775e-25
-0.4974691572500092	9.288143226683367e-25
-0.4974081220937592	1.0335442689295872e-24
-0.4973470869375092	1.1357216394241952e-24
-0.4972860517812592	1.2350856105105533e-24
-0.4972250166250092	1.3313792151248617e-24
-0.4971639814687592	1.4243520673387009e-24
-0.4971029463125092	1.5137663288081735e-24
-0.4970419111562592	1.5993884029118918e-24
-0.4969808760000092	1.6809972736437206e-24
-0.4969198408437592	1.7583821362862986e-24
-0.4968588056875092	1.8313387889520065e-24
-0.4967977705312592	1.8996798533675905e-24
-0.4967367353750092	1.9632266839389788e-24
-0.4966757002187592	2.0218105225529004e-24
-0.4966146650625092	2.0752798208388846e-24
-0.4965536299062592	2.123493549677083e-24
-0.4964925947500092	2.166322749387304e-24
-0.4964315595937592	2.2036539119203825e-24
-0.4963705244375092	2.2353874947729272e-24
-0.4963094892812592	2.2614373525288583e-24
-0.4962484541250092	2.281731372126827e-24
-0.4961874189687592	2.2962130729989115e-24
-0.4961263838125092	2.3048406473182417e-24
-0.4960653486562592	2.307586183899163e-24
-0.4960043135000092	2.304437431260393e-24
-0.4959432783437592	2.2953975087894145e-24
-0.4958822431875092	2.280483719601629e-24
-0.4958212080312592	2.259728449571952e-24
-0.4957601728750092	2.2331794360840286e-24
-0.4956991377187592	2.200899145213303e-24
-0.4956381025625092	2.1629640507362912e-24
-0.4955770674062592	2.119465387678124e-24
-0.4955160322500092	2.070509184606971e-24
-0.4954549970937592	2.016214455759076e-24
-0.4953939619375092	1.956714530493575e-24
-0.4953329267812592	1.8921559172139094e-24
-0.4952718916250092	1.8226973358388708e-24
-0.4952108564687592	1.7485119707877048e-24
-0.4951498213125092	1.6697835230942194e-24
-0.4950887861562592	1.5867065479896403e-24
-0.4950277510000092	1.4994897084210391e-24
-0.4949667158437592	1.408350243107192e-24
-0.4949056806875092	1.3135147983234039e-24
-0.4948446455312592	1.215222326862572e-24
-0.4947836103750092	1.1137179687966805e-24
-0.4947225752187592	1.0092555742981203e-24
-0.4946615400625092	9.02100060249871e-25
-0.4946005049062592	7.925189877459073e-25
-0.4945394697500092	6.80785838059343e-25
-0.4944784345937592	5.671855595250865e-25
-0.4944173994375092	4.520041779177558e-25
-0.4943563642812592	3.3552838222957756e-25
-0.4942953291250092	2.1805482864288516e-25
-0.4942342939687592	9.988101797112639e-26
-0.4941732588125092	-1.869682152871856e-26
-0.4941122236562592	-1.3737780678068345e-25
-0.4940511885000092	-2.5586231941849536e-25
-0.4939901533437592	-3.7384937203837875e-25
-0.4939291181875092	-4.9103966190934915e-25
-0.4938680830312592	-6.071394151312317e-25
-0.4938070478750092	-7.218516299784248e-25
-0.4937460127187592	-8.34883568622566e-25
-0.4936849775625092	-9.459521584609115e-25
-0.4936239424062592	-1.0547739435631003e-24
-0.4935629072500092	-1.1610698393020317e-24
-0.4935018720937592	-1.264572512120394e-24
-0.4934408369375092	-1.3650181230580034e-24
-0.4933798017812592	-1.4621482852969289e-24
-0.4933187666250092	-1.5557180992075758e-24
-0.4932577314687592	-1.6454890790873928e-24
-0.4931966963125092	-1.731229707614746e-24
-0.4931356611562592	-1.8127223248460278e-24
-0.4930746260000092	-1.8897591863624354e-24
-0.4930135908437592	-1.962141994810237e-24
-0.4929525556875092	-2.0296857070569736e-24
-0.4928915205312592	-2.0922173649845528e-24
-0.4928304853750092	-2.1495753706838712e-24
-0.4927694502187592	-2.2016129339275223e-24
-0.4927084150625092	-2.2481961261856472e-24
-0.4926473799062592	-2.289203426431341e-24
-0.4925863447500092	-2.324529550590916e-24
-0.4925253095937592	-2.3540824083629545e-24
-0.4924642744375092	-2.3777840620874208e-24
-0.4924032392812592	-2.3955727921168023e-24
-0.4923422041250092	-2.4074008282353143e-24
-0.4922811689687592	-2.413235598755745e-24
-0.4922201338125092	-2.4130601531158886e-24
-0.4921590986562592	-2.406872428813061e-24
-0.4920980635000092	-2.3946858558838645e-24
-0.4920370283437592	-2.3765289243886762e-24
-0.4919759931875092	-2.3524454830270604e-24
-0.4919149580312592	-2.3224944788321973e-24
-0.4918539228750092	-2.2867490892469004e-24
-0.4917928877187592	-2.2452984591062222e-24
-0.4917318525625092	-2.198245777502592e-24
-0.4916708174062592	-2.1457073444015677e-24
-0.4916097822500092	-2.0878152189133448e-24
-0.4915487470937592	-2.024714746016557e-24
-0.4914877119375092	-1.9565629199484913e-24
-0.4914266767812592	-1.8835313883197528e-24
-0.4913656416250092	-1.8058051959044152e-24
-0.4913046064687592	-1.7235775133151336e-24
-0.4912435713125092	-1.637055587873029e-24
-0.4911825361562592	-1.546460991909692e-24
-0.4911215010000092	-1.4520183453893538e-24
-0.4910604658437592	-1.3539654378946999e-24
-0.4909994306875092	-1.252554813510719e-24
-0.4909383955312592	-1.1480390059600852e-24
-0.4908773603750092	-1.0406802729511757e-24
-0.4908163252187592	-9.307549295687408e-25
-0.4907552900625092	-8.185395812206173e-25
-0.4906942549062592	-7.043146533984635e-25
-0.4906332197500092	-5.883731764719021e-25
-0.4905721845937592	-4.710094279163574e-25
-0.4905111494375092	-3.5251656610599193e-25
-0.4904501142812592	-2.3319760720506757e-25
-0.4903890791250092	-1.133560706800581e-25
-0.4903280439687592	6.707305532304612e-27
-0.4902670088125092	1.266862722866082e-25
-0.4902059736562592	2.462760527438902e-25
-0.4901449385000092	3.651745273436916e-25
-0.4900839033437592	4.830795768674401e-25
-0.4900228681875092	5.996921856005616e-25
-0.4899618330312592	7.1471591019120795e-25
-0.4899007978750092	8.278593121364918e-25
-0.4898397627187592	9.388352039574892e-25
-0.4897787275625092	1.047361841959425e-24
-0.4897176924062592	1.1531640886393738e-24
-0.4896566572500092	1.2559718682600666e-24
-0.4895956220937592	1.3555265321090562e-24
-0.4895345869375092	1.4515751156496322e-24
-0.4894735517812592	1.5438705431746292e-24
-0.4894125166250092	1.6321825397887741e-24
-0.4893514814687592	1.7162873728733337e-24
-0.4892904463125092	1.7959674114145222e-24
-0.4892294111562592	1.871023675834862e-24
-0.4891683760000092	1.941267451098859e-24
-0.4891073408437592	2.0065176381266815e-24
-0.4890463056875092	2.066609985018511e-24
-0.4889852705312592	2.1213937691729404e-24
-0.4889242353750092	2.170729767943841e-24
-0.4888632002187592	2.2144930386048485e-24
-0.4888021650625092	2.252573916843476e-24
-0.4887411299062592	2.284877214910977e-24
-0.4886800947500092	2.3113211274717556e-24
-0.4886190595937592	2.331840074875588e-24
-0.4885580244375092	2.3463840383949254e-24
-0.4884969892812592	2.3549169750503263e-24
-0.4884359541250092	2.357419024709345e-24
-0.4883749189687592	2.353886129460508e-24
-0.4883138838125092	2.3443289304732123e-24
-0.4882528486562592	2.3287739799282836e-24
-0.4881918135000092	2.3072634763382337e-24
-0.4881307783437592	2.279854193499067e-24
-0.4880697431875092	2.2466184387904325e-24
-0.4880087080312592	2.207644152166611e-24
-0.4879476728750092	2.1630329986243328e-24
-0.4878866377187592	2.112900952797149e-24
-0.4878256025625092	2.0573797309479328e-24
-0.4877645674062592	1.996614056630757e-24
-0.4877035322500092	1.930760906819383e-24
-0.4876424970937592	1.8599922484777836e-24
-0.4875814619375092	1.7844929012425268e-24
-0.4875204267812592	1.7044573011205317e-24
-0.4874593916250092	1.620093498003651e-24
-0.4873983564687592	1.5316222183629553e-24
-0.4873373213125092	1.439271367752882e-24
-0.4872762861562592	1.3432803653418684e-24
-0.4872152510000092	1.2438992566567395e-24
-0.4871542158437592	1.141385274132621e-24
-0.4870931806875092	1.0360044215474756e-24
-0.4870321455312592	9.280297286912209e-25
-0.4869711103750092	8.177416749017626e-25
-0.4869100752187592	7.05425465077426e-25
-0.4868490400625092	5.913727307834281e-25
-0.4867880049062592	4.758807538704001e-25
-0.4867269697500092	3.5924644178707642e-25
-0.4866659345937592	2.417733308301904e-25
-0.4866048994375092	1.2376771955002665e-25
-0.4865438642812592	5.53387559782367e-27
-0.4864828291250092	-1.126210444594727e-25
-0.4864217939687592	-2.3038985745471507e-25
-0.4863607588125092	-3.4746682970323234e-25
-0.4862997236562592	-4.635487228762213e-25
-0.4862386885000092	-5.7833389101252765e-25
-0.4861776533437592	-6.915234922845259e-25
-0.4861166181875092	-8.028241633134391e-25
-0.4860555830312592	-9.119466734014946e-25
-0.4859945478750092	-1.0186073247972438e-24
-0.4859335127187592	-1.1225284122685163e-24
-0.4858724775625092	-1.223439966019303e-24
-0.4858114424062592	-1.3210797159526989e-24
-0.4857504072500092	-1.415192870117929e-24
-0.4856893720937592	-1.5055351770475022e-24
-0.4856283369375092	-1.5918707332428674e-24
-0.4855673017812592	-1.6739739053844364e-24
-0.4855062666250092	-1.7516324344843653e-24
-0.4854452314687592	-1.8246426982306214e-24
-0.4853841963125092	-1.892812609521885e-24
-0.4853231611562592	-1.9559664116616244e-24
-0.4852621260000092	-2.013938623910217e-24
-0.4852010908437592	-2.0665753645969433e-24
-0.4851400556875092	-2.113740552512288e-24
-0.4850790205312592	-2.1553107589367433e-24
-0.4850179853750092	-2.191174803941087e-24
-0.4849569502187592	-2.2212392175968696e-24
-0.4848959150625092	-2.2454250217494582e-24
-0.4848348799062592	-2.2636667188601877e-24
-0.4847738447500092	-2.275915853134868e-24
-0.4847128095937592	-2.2821395165986244e-24
-0.4846517744375092	-2.2823194953910808e-24
-0.4845907392812592	-2.2764539137407007e-24
-0.4845297041250092	-2.2645564658690574e-24
-0.4844686689687592	-2.2466562707389554e-24
-0.4844076338125092	-2.222798804635474e-24
-0.4843465986562592	-2.193044279735835e-24
-0.4842855635000092	-2.1574678574303976e-24
-0.4842245283437592	-2.116161395112038e-24
-0.4841634931875092	-2.0692307972059876e-24
-0.4841024580312592	-2.016795776435837e-24
-0.4840414228750092	-1.958991648877385e-24
-0.4839803877187592	-1.895967572367223e-24
-0.4839193525625092	-1.8278861348657716e-24
-0.4838583174062592	-1.7549227943041647e-24
-0.4837972822500092	-1.6772657607415497e-24
-0.4837362470937592	-1.5951167933744283e-24
-0.4836752119375092	-1.5086882383544694e-24
-0.4836141767812592	-1.4182029029640685e-24
-0.4835531416250092	-1.3238969639865831e-24
-0.4834921064687592	-1.2260142460604141e-24
-0.4834310713125092	-1.1248072545328241e-24
-0.4833700361562592	-1.0205416405897932e-24
-0.4833090010000092	-9.134865529359817e-25
-0.4832479658437592	-8.039192740914339e-25
-0.4831869306875092	-6.921273112616863e-25
-0.4831258955312592	-5.783991571531796e-25
-0.4830648603750092	-4.630315788541993e-25
-0.4830038252187592	-3.4632674817152317e-25
-0.4829427900625092	-2.285862019795494e-25
-0.4828817549062592	-1.1011758623620162e-25
-0.4828207197500092	8.768348349657754e-27
-0.4827596845937592	1.2776255847468082e-25
-0.4826986494375092	2.465548514191746e-25
-0.4826376142812592	3.6483384449513305e-25
-0.4825765791250092	4.822897585392221e-25
-0.4825155439687592	5.986162324416906e-25
-0.4824545088125092	7.135092351773997e-25
-0.4823934736562592	8.266658468650886e-25
-0.4823324385000092	9.377894820962247e-25
-0.4822714033437592	1.0465909033394177e-24
-0.4822103681875092	1.1527827461601106e-24
-0.4821493330312592	1.2560845484916073e-24
-0.4820882978750092	1.3562264402606396e-24
-0.4820272627187592	1.4529436454439298e-24
-0.4819662275625092	1.5459817859661035e-24
-0.4819051924062592	1.6350956380736266e-24
-0.4818441572500092	1.7200465280485303e-24
-0.4817831220937592	1.8006127743813914e-24
-0.4817220869375092	1.876581134206017e-24
-0.4816610517812592	1.947746000630741e-24
-0.4816000166250092	2.0139206088312755e-24
-0.4815389814687592	2.0749287166211596e-24
-0.4814779463125092	2.130604793531471e-24
-0.4814169111562592	2.1808003699945006e-24
-0.4813558760000092	2.225380479345799e-24
-0.4812948408437592	2.264223010581847e-24
-0.4812338056875092	2.2972222271987867e-24
-0.4811727705312592	2.3242875564499945e-24
-0.4811117353750092	2.345342365564236e-24
-0.4810507002187592	2.3603270896126e-24
-0.4809896650625092	2.3691974447561123e-24
-0.4809286299062592	2.3719242251171528e-24
-0.4808675947500092	2.3684953923907355e-24
-0.4808065595937592	2.3589140578187027e-24
-0.4807455244375092	2.343199355295703e-24
-0.4806844892812592	2.3213871358850228e-24
-0.4806234541250092	2.2935278821495802e-24
-0.4805624189687592	2.259688460808072e-24
-0.4805013838125092	2.219952219028353e-24
-0.4804403486562592	2.174416027273879e-24
-0.4803793135000092	2.123192568947173e-24
-0.4803182783437592	2.0664108479726092e-24
-0.4802572431875092	2.0042123640012487e-24
-0.4801962080312592	1.9367531660273244e-24
-0.4801351728750092	1.8642043178601357e-24
-0.4800741377187592	1.7867488080878533e-24
-0.4800131025625092	1.7045832367825045e-24
-0.4799520674062592	1.6179162130200114e-24
-0.4798910322500092	1.5269682575262386e-24
-0.4798299970937592	1.4319717413033402e-24
-0.4797689619375092	1.3331681122715402e-24
-0.4797079267812592	1.2308104457969566e-24
-0.4796468916250092	1.1251612916961224e-24
-0.4795858564687592	1.016490310717953e-24
-0.4795248213125092	9.050758566092432e-25
-0.4794637861562592	7.912051405920386e-25
-0.4794027510000092	6.751701991031924e-25
-0.4793417158437592	5.572678511496741e-25
-0.4792806806875092	4.378035014527834e-25
-0.4792196455312592	3.170841287949487e-25
-0.4791586103750092	1.954192332849255e-25
-0.4790975752187592	7.312459544551141e-26
-0.4790365400625092	-4.948544393295611e-26
-0.4789755049062592	-1.7209482014088093e-25
-0.4789144697500092	-2.943852500284565e-25
-0.4788534345937592	-4.160427023269235e-25
-0.4787923994375092	-5.3675141731476665e-25
-0.4787313642812592	-6.561985452053825e-25
-0.4786703291250092	-7.740768348350889e-25
-0.4786092939687592	-8.900787243706783e-25
-0.4785482588125092	-1.0039051661837025e-24
-0.4784872236562592	-1.1152610396579323e-24
-0.4784261885000092	-1.2238549138137392e-24
-0.4783651533437592	-1.3294087857879798e-24
-0.4783041181875092	-1.4316467555546652e-24
-0.4782430830312592	-1.5303004794574162e-24
-0.4781820478750092	-1.6251176678143559e-24
-0.4781210127187592	-1.715850102556222e-24
-0.4780599775625092	-1.802259378619217e-24
-0.4779989424062592	-1.8841230012827554e-24
-0.4779379072500092	-1.9612268391401786e-24
-0.4778768720937592	-2.0333683074316112e-24
-0.4778158369375092	-2.1003601360232018e-24
-0.4777548017812592	-2.162027265703377e-24
-0.4776937666250092	-2.2182075201690976e-24
-0.4776327314687592	-2.2687532342136824e-24
-0.4775716963125092	-2.31353255549616e-24
-0.4775106611562592	-2.3524277354918097e-24
-0.4774496260000092	-2.3853347406909457e-24
-0.4773885908437592	-2.4121674198253734e-24
-0.4773275556875092	-2.432854659016659e-24
-0.4772665205312592	-2.4473399374723212e-24
-0.4772054853750092	-2.4555843848411837e-24
-0.4771444502187592	-2.457564800046056e-24
-0.4770834150625092	-2.4532739541608087e-24
-0.4770223799062592	-2.442721255856189e-24
-0.4769613447500092	-2.4259320753220943e-24
-0.4769003095937592	-2.4029482961391966e-24
-0.4768392744375092	-2.3738281005344794e-24
-0.4767782392812592	-2.338644573542334e-24
-0.4767172041250092	-2.2974872999504038e-24
-0.4766561689687592	-2.2504628773068832e-24
-0.4765951338125092	-2.197690231600582e-24
-0.4765340986562592	-2.1393042663257984e-24
-0.4764730635000092	-2.0754571669905234e-24
-0.4764120283437592	-2.006311769989157e-24
-0.4763509931875092	-1.932045946466314e-24
-0.4762899580312592	-1.852852122177424e-24
-0.4762289228750092	-1.768933752015358e-24
-0.4761678877187592	-1.680508428492257e-24
-0.4761068525625092	-1.587804085579339e-24
-0.4760458174062592	-1.4910604095771552e-24
-0.4759847822500092	-1.3905281216085571e-24
-0.4759237470937592	-1.2864659205236084e-24
-0.4758627119375092	-1.1791459872712662e-24
-0.4758016767812592	-1.0688451243396539e-24
-0.4757406416250092	-9.558461644056375e-25
-0.4756796064687592	-8.404468417177908e-25
-0.4756185713125092	-7.229449061749093e-25
-0.4755575361562592	-6.036424995340108e-25
-0.4754965010000092	-4.82852854060251e-25
-0.4754354658437592	-3.608873907514374e-25
-0.4753744306875092	-2.380626337474613e-25
-0.4753133955312592	-1.1469999857572147e-25
-0.4752523603750092	8.883117717605837e-27
-0.4751913252187592	1.323651764059064e-25
-0.4751302900625092	2.5542269078366996e-25
-0.4750692549062592	3.777374913950258e-25
-0.4750082197500092	4.98993734453739e-25
-0.4749471845937592	6.188731383201071e-25
-0.4748861494375092	7.370630734881674e-25
-0.4748251142812592	8.532607125989467e-25
-0.4747640791250092	9.671603165775379e-25
-0.4747030439687592	1.078464746285738e-24
-0.4746420088125092	1.1868885628270857e-24
-0.4745809736562592	1.292145825882486e-24
-0.4745199385000092	1.393963467415237e-24
-0.4744589033437592	1.492078676415504e-24
-0.4743978681875092	1.5862335938841593e-24
-0.4743368330312592	1.6761844212723917e-24
-0.4742757978750092	1.7616974011741035e-24
-0.4742147627187592	1.8425494170484616e-24
-0.4741537275625092	1.918530627911589e-24
-0.4740926924062592	1.989443355754398e-24
-0.4740316572500092	2.055103588089232e-24
-0.4739706220937592	2.1153399463406732e-24
-0.4739095869375092	2.1699967701058656e-24
-0.4738485517812592	2.2189326384016644e-24
-0.4737875166250092	2.2620191781813986e-24
-0.4737264814687592	2.299146089644005e-24
-0.4736654463125092	2.330217601831509e-24
-0.4736044111562592	2.355152690594113e-24
-0.4735433760000092	2.3738881098193412e-24
-0.4734823408437592	2.3863760025869488e-24
-0.4734213056875092	2.392584854230376e-24
-0.4733602705312592	2.3924999979520408e-24
-0.4732992353750092	2.3861229293796067e-24
-0.4732382002187592	2.373472028508918e-24
-0.4731771650625092	2.354581872897021e-24
-0.4731161299062592	2.3295033061879364e-24
-0.4730550947500092	2.2983039262960416e-24
-0.4729940595937592	2.261067099601008e-24
-0.4729330244375092	2.2178920734538985e-24
-0.4728719892812592	2.1688936500941685e-24
-0.4728109541250092	2.114202172694081e-24
-0.4727499189687592	2.0539631624891718e-24
-0.4726888838125092	1.9883359620011317e-24
-0.4726278486562592	1.9174949681527073e-24
-0.4725668135000092	1.8416280323221635e-24
-0.4725057783437592	1.760935968724154e-24
-0.4724447431875092	1.6756330027193317e-24
-0.4723837080312592	1.58594436697515e-24
-0.4723226728750092	1.4921086802486614e-24
-0.4722616377187592	1.3943739969509858e-24
-0.4722006025625092	1.2929980736181124e-24
-0.4721395674062592	1.1882521537450537e-24
-0.4720785322500092	1.0804110968801853e-24
-0.4720174970937592	9.69760441098192e-25
-0.4719564619375092	8.565969023871914e-25
-0.4718954267812592	7.412158257994141e-25
-0.4718343916250092	6.239241236507262e-25
-0.4717733564687592	5.050358027615699e-25
