Time	Frequency
-0.5000448706562395	0.252368925609893
-0.4999838354999895	0.2295704250195196
-0.4999228003437395	0.20613031953226407
-0.4998617651874895	0.1821149371021843
-0.4998007300312395	0.15759247220192243
-0.4997396948749895	0.13263239527524384
-0.4996786597187395	0.10730535383200718
-0.4996176245624895	0.08168345286828607
-0.4995565894062395	0.05583923538339159
-0.4994955542499895	0.02984602983756267
-0.4994345190937395	0.0037775158812230402
-0.4993734839374895	-0.02229222202474599
-0.4993124487812395	-0.04828880130060478
-0.4992514136249895	-0.07413895583237698
-0.4991903784687395	-0.09976920496859838
-0.4991293433124895	-0.1251061048964372
-0.4990683081562395	-0.15007815421457438
-0.4990072729999895	-0.1746145163246229
-0.4989462378437395	-0.1986448442902761
-0.4988852026874895	-0.22210102536472534
-0.4988241675312395	-0.2449165361251662
-0.4987631323749895	-0.26702613559901334
-0.4987020972187395	-0.2883669591659426
-0.4986410620624895	-0.30887818038935627
-0.4985800269062395	-0.3285013316699574
-0.4985189917499895	-0.3471805994837821
-0.4984579565937395	-0.36486253688057807
-0.4983969214374895	-0.38149672201699936
-0.4983358862812395	-0.3970356891411529
-0.4982748511249895	-0.41143501848896347
-0.4982138159687395	-0.4246535899965943
-0.4981527808124895	-0.4366534242414095
-0.4980917456562395	-0.4474002407242055
-0.4980307104999895	-0.4568633737274987
-0.4979696753437395	-0.4650153944415059
-0.4979086401874895	-0.47183284524586955
-0.4978476050312395	-0.47729628679729436
-0.4977865698749895	-0.4813897734667019
-0.4977255347187395	-0.48410129122990814
-0.4976644995624895	-0.4854229374919453
-0.4976034644062395	-0.4853506665286214
-0.4975424292499895	-0.48388436850451144
-0.4974813940937395	-0.48102793764731766
-0.4974203589374895	-0.47678924082760415
-0.4973593237812395	-0.4711800322157008
-0.4972982886249895	-0.46421603473379075
-0.4972372534687395	-0.45591681515406024
-0.4971762183124895	-0.44630568376897317
-0.4971151831562395	-0.4354098537829726
-0.4970541479999895	-0.423260027425363
-0.4969931128437395	-0.4098905735425359
-0.4969320776874895	-0.39533943549400186
-0.4968710425312395	-0.3796477042860427
-0.4968100073749895	-0.36286010615802367
-0.4967489722187395	-0.3450241511999871
-0.4966879370624895	-0.3261902356340638
-0.4966269019062395	-0.30641243082022923
-0.4965658667499895	-0.2857468051175258
-0.4965048315937395	-0.264251604373866
-0.4964437964374895	-0.2419885592904453
-0.4963827612812395	-0.21902128248997954
-0.4963217261249895	-0.19541450297187068
-0.4962606909687395	-0.1712356552117466
-0.4961996558124895	-0.1465543335397718
-0.4961386206562395	-0.1214404007385542
-0.4960775854999895	-0.09596515063710799
-0.4960165503437395	-0.07020206988183429
-0.4959555151874895	-0.0442246692254818
-0.4958944800312395	-0.018106528879627742
-0.4958334448749895	0.00807721971425916
-0.4957724097187395	0.0342514816441872
-0.4957113745624895	0.06034188491951558
-0.4956503394062395	0.08627342180908024
-0.4955893042499895	0.1119717295471676
-0.4955282690937395	0.1373635629858482
-0.4954672339374895	0.16237575304560128
-0.4954061987812395	0.1869365526200888
-0.4953451636249895	0.21097580701860852
-0.4952841284687395	0.23442404682262682
-0.4952230933124895	0.2572139905351164
-0.4951620581562395	0.2792804841438601
-0.4951010229999895	0.30055940593905667
-0.4950399878437395	0.3209895745386286
-0.4949789526874895	0.34051263314713637
-0.4949179175312395	0.35907165534539687
-0.4948568823749895	0.3766129229186732
-0.4947958472187395	0.3930862291197163
-0.4947348120624895	0.4084435013593436
-0.4946737769062395	0.4226400143792762
-0.4946127417499895	0.4356349025627373
-0.4945517065937395	0.44738995911968776
-0.4944906714374895	0.45787082345994445
-0.4944296362812395	0.4670471328286252
-0.4943686011249895	0.47489144007334105
-0.4943075659687395	0.4813805296281544
-0.4942465308124895	0.48649536966636714
-0.4941854956562395	0.49022021125252163
-0.4941244604999895	0.49254347571364865
-0.4940634253437395	0.4934578429945721
-0.4940023901874895	0.49295974263718034
-0.4939413550312395	0.49104965074502693
-0.4938803198749895	0.4877321724207294
-0.4938192847187395	0.4830158798418168
-0.4937582495624895	0.476913368867625
-0.4936972144062395	0.4694411754603695
-0.4936361792499895	0.46061968968830513
-0.4935751440937395	0.4504733216294017
-0.4935141089374895	0.43903025334885076
-0.4934530737812395	0.4263221384529032
-0.4933920386249895	0.4123844942487364
-0.4933310034687395	0.3972564988060747
-0.4932699683124895	0.3809803959314127
-0.4932089331562395	0.36360182946024455
-0.4931478979999895	0.34516987953447875
-0.4930868628437395	0.32573643396668756
-0.4930258276874895	0.3053561567678888
-0.4929647925312395	0.2840867294827447
-0.4929037573749895	0.2619882563717072
-0.4928427222187395	0.23912310443192858
-0.4927816870624895	0.21555626886915855
-0.4927206519062395	0.19135439023092496
-0.4926596167499895	0.16658587329692423
-0.4925985815937395	0.14132136839834372
-0.4925375464374895	0.11563250654512167
-0.4924765112812395	0.08959206074860557
-0.4924154761249895	0.0632742805659065
-0.4923544409687395	0.03675395621623974
-0.4922934058124895	0.010106480733791981
-0.4922323706562395	-0.01659204364593362
-0.4921713354999895	-0.04326571027867675
-0.4921103003437395	-0.0698386646758723
-0.4920492651874895	-0.09623484618784557
-0.4919882300312395	-0.12237879766124847
-0.4919271948749895	-0.1481961553076658
-0.4918661597187395	-0.17361343136609236
-0.4918051245624895	-0.19855740238786815
-0.4917440894062395	-0.2229567197603061
-0.4916830542499895	-0.2467422953794235
-0.4916220190937395	-0.26984550431706683
-0.4915609839374895	-0.292199934083527
-0.4914999487812395	-0.3137420511277969
-0.4914389136249895	-0.3344098403630792
-0.4913778784687395	-0.3541438864250862
-0.4913168433124895	-0.37288763143118175
-0.4912558081562395	-0.3905870523530341
-0.4911947729999895	-0.40719140231376755
-0.4911337378437395	-0.42265281243809816
-0.4910727026874895	-0.43692648305030646
-0.4910116675312395	-0.4499714582564249
-0.4909506323749895	-0.46174999909227343
-0.4908895972187395	-0.47222776549330164
-0.4908285620624895	-0.481374514972298
-0.4907675269062395	-0.4891636594803929
-0.4907064917499895	-0.4955722278720571
-0.4906454565937395	-0.500581485675557
-0.4905844214374895	-0.5041767137729359
-0.4905233862812395	-0.5063469165587452
-0.4904623511249895	-0.5070853635695171
-0.4904013159687395	-0.5063895094996032
-0.4903402808124895	-0.5042607233166677
-0.4902792456562395	-0.500704550468011
-0.4902182104999895	-0.4957305871205264
-0.4901571753437395	-0.4893525167833495
-0.4900961401874895	-0.4815881048960033
-0.4900351050312395	-0.4724588957863199
-0.4899740698749895	-0.46199049381170937
-0.4899130347187395	-0.4502124083929787
-0.4898519995624895	-0.4371577124538326
-0.4897909644062395	-0.42286321246001235
-0.4897299292499895	-0.4073693439022099
-0.4896688940937395	-0.39072004638983443
-0.4896078589374895	-0.3729622776124491
-0.4895468237812395	-0.35414642247703765
-0.4894857886249895	-0.334326123894191
-0.4894247534687395	-0.3135572739040085
-0.4893637183124895	-0.29189909943223485
-0.4893026831562395	-0.2694133534163346
-0.4892416479999895	-0.24616357351588045
-0.4891806128437395	-0.22221624045825267
-0.4891195776874895	-0.19763962593082457
-0.4890585425312395	-0.17250349182541233
-0.4889975073749895	-0.14687962059401646
-0.4889364722187395	-0.1208410301054615
-0.4888754370624895	-0.09446206801632426
-0.4888144019062395	-0.06781813273420233
-0.4887533667499895	-0.04098484532218746
-0.4886923315937395	-0.01403903230895826
-0.4886312964374895	0.012941890822404488
-0.4885702612812395	0.03988143940921632
-0.4885092261249895	0.06670259173038552
-0.4884481909687395	0.09332823995265904
-0.4883871558124895	0.11968259821056668
-0.4883261206562395	0.14569023849323795
-0.4882650854999895	0.1712765845204114
-0.4882040503437395	0.196368700772335
-0.4881430151874895	0.22089470981115683
-0.4880819800312395	0.2447840510416083
-0.4880209448749895	0.2679686611676342
-0.4879599097187395	0.2903823848437798
-0.4878988745624895	0.31196045569101566
-0.4878378394062395	0.33264125030533415
-0.4877768042499895	0.3523657898780009
-0.4877157690937395	0.3710773090955913
-0.4876547339374895	0.38872228319962143
-0.4875936987812395	0.40524995880420794
-0.4875326636249895	0.4206130690536483
-0.4874716284687395	0.4347678306900944
-0.4874105933124895	0.44767331793472775
-0.4873495581562395	0.4592925699550916
-0.4872885229999895	0.46959250169520395
-0.4872274878437395	0.478543479459869
-0.4871664526874895	0.48611978685016344
-0.4871054175312395	0.4922998229837967
-0.4870443823749895	0.4970659618597061
-0.4869833472187395	0.5004044676629561
-0.4869223120624895	0.5023058485388728
-0.4868612769062395	0.5027648385231271
-0.4868002417499895	0.5017801364720356
-0.4867392065937395	0.4993546456863375
-0.4866781714374895	0.4954955609073659
-0.4866171362812395	0.4902140358318961
-0.4865561011249895	0.4835253306032544
-0.4864950659687395	0.4754489814566788
-0.4864340308124895	0.46600828637148406
-0.4863729956562395	0.4552304277177099
-0.4863119604999895	0.4431468654981704
-0.4862509253437395	0.4297924850229875
-0.4861898901874895	0.41520554735840287
-0.4861288550312395	0.3994287383496681
-0.4860678198749895	0.38250771986090365
-0.4860067847187395	0.3644907199633899
-0.4859457495624895	0.34543053190762407
-0.4858847144062395	0.3253825112902317
-0.4858236792499895	0.30440376551052833
-0.4857626440937395	0.28255554522344656
-0.4857016089374895	0.2599014032402014
-0.4856405737812395	0.23650627871860458
-0.4855795386249895	0.21243812690108688
-0.4855185034687395	0.18776688189728052
-0.4854574683124895	0.16256364320295266
-0.4853964331562395	0.1369015773595688
-0.4853353979999895	0.11085515985341482
-0.4852743628437395	0.08449943351245884
-0.4852133276874895	0.05791121080464389
-0.4851522925312395	0.031167641737333992
-0.4850912573749895	0.004345636479580614
-0.4850302222187395	-0.022476519181071075
-0.4849691870624895	-0.049220865640473795
-0.4849081519062395	-0.07581027941496836
-0.4848471167499895	-0.10216733375740057
-0.4847860815937395	-0.12821553089174337
-0.4847250464374895	-0.15387935027692812
-0.4846640112812395	-0.1790839656141552
-0.4846029761249895	-0.20375642251012235
-0.4845419409687395	-0.22782509823900418
-0.4844809058124895	-0.25121961497911516
-0.4844198706562395	-0.2738721519803245
-0.4843588354999895	-0.29571707591574853
-0.4842978003437395	-0.31669037867705596
-0.4842367651874895	-0.3367310325598158
-0.4841757300312395	-0.35578101308689897
-0.4841146948749895	-0.37378447370998963
-0.4840536597187395	-0.39068890054028027
-0.4839926245624895	-0.40644521678028983
-0.4839315894062395	-0.4210072277491554
-0.4838705542499895	-0.4343322734395862
-0.4838095190937395	-0.4463816082786673
-0.4837484839374895	-0.45711990548954295
-0.4836874487812395	-0.46651547034302904
-0.4836264136249895	-0.47454089890478796
-0.4835653784687395	-0.481172558634208
-0.4835043433124895	-0.48639072977240505
-0.4834433081562395	-0.49018003437606655
-0.4833822729999895	-0.49252911950426903
-0.4833212378437395	-0.49343078890437253
-0.4832602026874895	-0.4928820955159782
-0.4831991675312395	-0.4908843441791021
-0.4831381323749895	-0.48744300405893853
-0.4830770972187395	-0.4825676559815474
-0.4830160620624895	-0.4762722602400982
-0.4829550269062395	-0.4685748329482466
-0.4828939917499895	-0.45949727084877673
-0.4828329565937395	-0.4490657566318534
-0.4827719214374895	-0.4373104805366655
-0.4827108862812395	-0.4242651558149008
-0.4826498511249895	-0.40996738451016496
-0.4825888159687395	-0.39445875315622003
-0.4825277808124895	-0.3777840975171024
-0.4824667456562395	-0.3599914284658546
-0.4824057104999895	-0.3411325015498925
-0.4823446753437395	-0.3212622067695066
-0.4822836401874895	-0.3004378273271226
-0.4822226050312395	-0.27871987810769355
-0.4821615698749895	-0.25617180664457423
-0.4821005347187395	-0.2328588374435972
-0.4820394995624895	-0.20884855248465886
-0.4819784644062395	-0.1842112701704181
-0.4819174292499895	-0.1590186719886967
-0.4818563940937395	-0.13334360419502847
-0.4817953589374895	-0.10726127163924012
-0.4817343237812395	-0.08084785784330337
-0.4816732886249895	-0.05417996201364415
-0.4816122534687395	-0.027335563049970663
-0.4815512183124895	-0.00039314489347926464
-0.4814901831562395	0.026568652370005708
-0.4814291479999895	0.05347123493840191
-0.4813681128437395	0.08023592979768288
-0.4813070776874895	0.10678409926544283
-0.4812460425312395	0.13303838415089703
-0.4811850073749895	0.15892204792445808
-0.4811239722187395	0.18435871811394877
-0.4810629370624895	0.20927421986578978
-0.4810019019062395	0.23359563684998175
-0.4809408667499895	0.2572508646936093
-0.4808798315937395	0.2801710019647828
-0.4808187964374895	0.3022887215594188
-0.4807577612812395	0.3235382129312961
-0.4806967261249895	0.34385756604936696
-0.4806356909687395	0.3631868320248414
-0.4805746558124895	0.38146831253005214
-0.4805136206562395	0.3986484333255721
-0.4804525854999895	0.4146765402153873
-0.4803915503437395	0.4295045845397251
-0.4803305151874895	0.44308847598709894
-0.4802694800312395	0.45538818232444095
-0.4802084448749895	0.46636677124410225
-0.4801474097187395	0.4759910147354205
-0.4800863745624895	0.4842321589093818
-0.4800253394062395	0.4910653018613094
-0.4799643042499895	0.4964693528949776
-0.4799032690937395	0.5004275745701156
-0.4798422339374895	0.5029275125113603
-0.4797811987812395	0.5039608105344974
-0.4797201636249895	0.5035234020507439
-0.4796591284687395	0.5016155689316782
-0.4795980933124895	0.4982418210300332
-0.4795370581562395	0.49341097148831375
-0.4794760229999895	0.48713605288946243
-0.4794149878437395	0.47943431452524093
-0.4793539526874895	0.4703272849627544
-0.4792929175312395	0.4598404131976561
-0.4792318823749895	0.44800320354396445
-0.4791708472187395	0.4348493654229002
-0.4791098120624895	0.4204162864442672
-0.4790487769062395	0.4047448286637477
-0.4789877417499895	0.3878798773796342
-0.4789267065937395	0.3698700291974903
-0.4788656714374895	0.3507665305998828
-0.4788046362812395	0.33062404212209123
-0.4787436011249895	0.30950103106400495
-0.4786825659687395	0.28745821676671107
-0.4786215308124895	0.2645584924149384
-0.4785604956562395	0.24086827812654651
-0.4784994604999895	0.21645647531441883
-0.4784384253437395	0.19139288485750333
-0.4783773901874895	0.16574986124926916
-0.4783163550312395	0.1396023656759557
-0.4782553198749895	0.11302569545229549
-0.4781942847187395	0.08609652926153048
-0.4781332495624895	0.05889338527815871
-0.4780722144062395	0.031495042972711225
-0.4780111792499895	0.0039809278903618385
-0.4779501440937395	-0.023568972888928525
-0.4778891089374895	-0.051074567371644716
-0.4778280737812395	-0.0784559655753107
-0.4777670386249895	-0.10563374904006738
-0.4777060034687395	-0.1325283364483478
-0.4776449683124895	-0.1590614869318473
-0.4775839331562395	-0.18515651330252966
-0.4775228979999895	-0.21073678715031077
-0.4774618628437395	-0.2357275897821185
-0.4774008276874895	-0.2600563979876865
-0.4773397925312395	-0.2836519975193615
-0.4772787573749895	-0.30644552650169166
-0.4772177222187395	-0.3283701927465268
-0.4771566870624895	-0.34936183454475894
-0.4770956519062395	-0.369359333709835
-0.4770346167499895	-0.3883037980154977
-0.4769735815937395	-0.4061396791442935
-0.4769125464374895	-0.42281478923437416
-0.4768515112812395	-0.4382800464277731
-0.4767904761249895	-0.4524900599108272
-0.4767294409687395	-0.4654027938850731
-0.4766684058124895	-0.47698026128322596
-0.4766073706562395	-0.4871884279371527
-0.4765463354999895	-0.4959967806796831
-0.4764853003437395	-0.5033791922193941
-0.4764242651874895	-0.5093137982119593
-0.4763632300312395	-0.5137826674308472
-0.4763021948749895	-0.5167722177773272
-0.4762411597187395	-0.51827326972735
-0.4761801245624895	-0.5182809073162646
-0.4761190894062395	-0.516794522525963
-0.4760580542499895	-0.5138179173994583
-0.4759970190937395	-0.5093593637668453
-0.4759359839374895	-0.5034311748916118
-0.4758749487812395	-0.49605005238469707
-0.4758139136249895	-0.4872373250996694
-0.4757528784687395	-0.4770179029622043
-0.4756918433124895	-0.4654209761870952
-0.4756308081562395	-0.45248032321673204
-0.4755697729999895	-0.438232876711266
-0.4755087378437395	-0.4227195574922192
-0.4754477026874895	-0.40598570041307236
-0.4753866675312395	-0.3880793835283975
-0.4753256323749895	-0.3690521051639147
-0.4752645972187395	-0.34895952469939917
-0.4752035620624895	-0.3278597628788
-0.4751425269062395	-0.3058136507635884
-0.4750814917499895	-0.2828854703505972
-0.4750204565937395	-0.2591418135356452
-0.4749594214374895	-0.23465153980951337
-0.4748983862812395	-0.20948588789254005
-0.4748373511249895	-0.18371796045892377
-0.4747763159687395	-0.15742283282835884
-0.4747152808124895	-0.13067693735531655
-0.4746542456562395	-0.10355808663679762
-0.4745932104999895	-0.07614549885563626
-0.4745321753437395	-0.048518661960306166
-0.4744711401874895	-0.020758262138412448
-0.4744101050312395	0.007054519599337206
-0.4743490698749895	0.034839236330748
-0.4742880347187395	0.06251436897647031
-0.4742269995624895	0.08999898525449299
-0.4741659644062395	0.1172137191319605
-0.4741049292499895	0.14407852580116629
-0.4740438940937395	0.17051473304961584
-0.4739828589374895	0.19644595437798987
-0.4739218237812395	0.2217960848494869
-0.4738607886249895	0.2464908005129164
-0.4737997534687395	0.2704583268129611
-0.4737387183124895	0.2936285557630117
-0.4736776831562395	0.3159338945598268
-0.4736166479999895	0.33730903174367294
-0.4735556128437395	0.357691245587823
-0.4734945776874895	0.3770214694161466
-0.4734335425312395	0.39524310524227424
-0.4733725073749895	0.4123024703362451
-0.4733114722187395	0.4281500619471951
-0.4732504370624895	0.4427396506326135
-0.4731894019062395	0.4560282970208911
-0.4731283667499895	0.4679772661887767
-0.4730673315937395	0.47855181875356356
-0.4730062964374895	0.4877209487970334
-0.4729452612812395	0.49545782810540595
-0.4728842261249895	0.5017399943914299
-0.4728231909687395	0.5065492035082266
-0.4727621558124895	0.5098714153174438
-0.4727011206562395	0.5116970092857183
-0.4726400854999895	0.5120208416376695
-0.4725790503437395	0.5108421168744598
-0.4725180151874895	0.5081644406169147
-0.4724569800312395	0.5039958427072002
-0.4723959448749895	0.4983487682918659
-0.4723349097187395	0.49123998593420837
-0.4722738745624895	0.48269056147052136
-0.4722128394062395	0.4727258046802525
-0.4721518042499895	0.46137524380977163
-0.4720907690937395	0.4486724279487181
-0.4720297339374895	0.4346548233842903
-0.4719686987812395	0.4193641408677063
-0.4719076636249895	0.40284535996239157
-0.4718466284687395	0.3851470744413911
-0.4717855933124895	0.36632225104793315
-0.4717245581562395	0.3464261193823317
-0.4716635229999895	0.3255170605653325
-0.4716024878437395	0.30365775489285196
-0.4715414526874895	0.2809125507102551
-0.4714804175312395	0.2573479839302008
-0.4714193823749895	0.23303451706194914
-0.4713583472187395	0.20804419335397845
-0.4712973120624895	0.18245009213878596
-0.4712362769062395	0.1563283830033188
-0.4711752417499895	0.1297566207723504
-0.4711142065937395	0.10281299468449472
-0.4710531714374895	0.075577468907461
-0.4709921362812395	0.04813046226153053
-0.4709311011249895	0.020553349362831208
-0.4708700659687395	-0.007071762023084758
-0.4708090308124895	-0.034663834453812645
-0.4707479956562395	-0.062140961905201735
-0.4706869604999895	-0.08942089827567112
-0.4706259253437395	-0.1164235766775948
-0.4705648901874895	-0.14306916636914935
-0.4705038550312395	-0.1692778027352017
-0.4704428198749895	-0.19497190105824097
-0.4703817847187395	-0.22007591873964819
-0.4703207495624895	-0.24451490730881698
-0.4702597144062395	-0.2682156962625804
-0.4701986792499895	-0.2911085963679263
-0.4701376440937395	-0.31312576682312615
-0.4700766089374895	-0.3342010076805719
-0.4700155737812395	-0.3542717754457246
-0.4699545386249895	-0.3732788720122663
-0.4698935034687395	-0.3911652862514425
-0.4698324683124895	-0.4078775053333699
-0.4697714331562395	-0.4233661831119213
-0.4697103979999895	-0.4375847829293988
-0.4696493628437395	-0.4504907662319809
