Time	Frequency
-0.5000338554062438	0.025683349441282966
-0.4999728202499938	0.00966419751457639
-0.4999117850937438	-0.00638154894080912
-0.4998507499374938	-0.022428304433670835
-0.4997897147812438	-0.03845011629269141
-0.4997286796249938	-0.05442102105573411
-0.4996676444687438	-0.070315153418604
-0.4996066093124938	-0.08610651297293483
-0.4995455741562438	-0.10177021937551427
-0.4994845389999938	-0.11728042276704755
-0.4994235038437438	-0.13261146961950654
-0.4993624686874938	-0.14773970248644386
-0.4993014335312438	-0.16263987253964696
-0.4992403983749938	-0.17728726381084814
-0.4991793632187438	-0.19165927612854072
-0.4991183280624938	-0.20573190726062657
-0.4990572929062438	-0.21948191693370547
-0.4989962577499938	-0.23288779421856767
-0.4989352225937438	-0.24592723745783623
-0.4988741874374938	-0.25857882546214916
-0.4988131522812438	-0.270822530866486
-0.4987521171249938	-0.28263807859247053
-0.4986910819687438	-0.29400591835438367
-0.4986300468124938	-0.30490811957285857
-0.4985690116562438	-0.31532665922272635
-0.4985079764999938	-0.32524407392647375
-0.4984469413437438	-0.3346448213923724
-0.4983859061874938	-0.34351329674701314
-0.4983248710312438	-0.3518346605936941
-0.4982638358749938	-0.35959575312097913
-0.4982028007187438	-0.36678363506409467
-0.4981417655624938	-0.37338639459075035
-0.4980807304062438	-0.3793934192249295
-0.4980196952499938	-0.3847946711839232
-0.4979586600937438	-0.3895811953359507
-0.4978976249374938	-0.393745246319742
-0.4978365897812438	-0.3972798093549597
-0.4977755546249938	-0.4001789534716199
-0.4977145194687438	-0.40243796756647304
-0.4976534843124938	-0.40405295340313835
-0.4975924491562438	-0.40502111551866854
-0.4975314139999938	-0.4053408237102488
-0.4974703788437438	-0.40501136725787396
-0.4974093436874938	-0.4040331271831283
-0.4973483085312438	-0.402407602409625
-0.4972872733749938	-0.40013726769863944
-0.4972262382187438	-0.3972256730272174
-0.4971652030624938	-0.3936774395534183
-0.4971041679062438	-0.38949819327673785
-0.4970431327499938	-0.3846946175999325
-0.4969820975937438	-0.3792743696418048
-0.4969210624374938	-0.3732461561113794
-0.4968600272812438	-0.3666197037619077
-0.4967989921249938	-0.3594056250777898
-0.4967379569687438	-0.3516155223152183
-0.4966769218124938	-0.34326204373919883
-0.4966158866562438	-0.33435869708195
-0.4965548514999938	-0.32491971006809267
-0.4964938163437438	-0.31496042393375956
-0.4964327811874938	-0.30449718621174154
-0.4963717460312438	-0.2935466425866885
-0.4963107108749938	-0.2821264523084106
-0.4962496757187438	-0.2702556860354604
-0.4961886405624938	-0.2579531291143616
-0.4961276054062438	-0.24523856830061533
-0.4960665702499938	-0.23213343672851922
-0.4960055350937438	-0.21865832625651846
-0.4959444999374938	-0.20483515198402585
-0.4958834647812438	-0.19068698613821003
-0.4958224296249938	-0.17623625797719306
-0.4957613944687438	-0.16150662053067993
-0.4957003593124938	-0.14652220233925814
-0.4956393241562438	-0.13130737046784868
-0.4955782889999938	-0.11588679814389882
-0.4955172538437438	-0.10028555942757106
-0.4954562186874938	-0.08452938585025288
-0.4953951835312438	-0.0686437620761914
-0.4953341483749938	-0.05265450048228901
-0.4952731132187438	-0.03658781902133689
-0.4952120780624938	-0.020470080226749787
-0.4951510429062438	-0.0043273703081086684
-0.4950900077499938	0.011813983720897729
-0.4950289725937438	0.027927368717649483
-0.4949679374374938	0.04398659835564852
-0.4949069022812438	0.05996542207599555
-0.4948458671249938	0.07583781727372803
-0.4947848319687438	0.0915775672579409
-0.4947237968124938	0.10715905130627261
-0.4946627616562438	0.12255708120645185
-0.4946017264999938	0.137745800181285
-0.4945406913437438	0.15270080171566236
-0.4944796561874938	0.16739787171511877
-0.4944186210312438	0.18181196785682996
-0.4943575858749938	0.19592031036826846
-0.4942965507187438	0.20969996526419712
-0.4942355155624938	0.22312711316146577
-0.4941744804062438	0.23618089755075414
-0.4941134452499938	0.24883994704066656
-0.4940524100937438	0.2610822588864319
-0.4939913749374938	0.27288889835344315
-0.4939303397812438	0.28424050880292084
-0.4938693046249938	0.2951174180769946
-0.4938082694687438	0.3055025238421392
-0.4937472343124938	0.3153790233452515
-0.4936861991562438	0.3247298666672106
-0.4936251639999938	0.33353997276848174
-0.4935641288437438	0.341795289705362
-0.4935030936874938	0.34948168836335525
-0.4934420585312438	0.35658650712310297
-0.4933810233749938	0.3630984169752403
-0.4933199882187438	0.36900641672314105
-0.4932589530624938	0.37430067311266696
-0.4931979179062438	0.3789726313897453
-0.4931368827499938	0.38301448093666535
-0.4930758475937438	0.38641950591331126
-0.4930148124374938	0.38918206332445177
-0.4929537772812438	0.3912975604218856
-0.4928927421249938	0.3927624987248878
-0.4928317069687438	0.39357435131279467
-0.4927706718124938	0.39373174467451133
-0.4927096366562438	0.3932344033769956
-0.4926486014999938	0.39208303762300245
-0.4925875663437438	0.3902794813432396
-0.4925265311874938	0.3878267070470722
-0.4924654960312438	0.38472864780661276
-0.4924044608749938	0.38099029253533023
-0.4923434257187438	0.37661788376583927
-0.4922823905624938	0.37161848164462
-0.4922213554062438	0.3660001533849939
-0.4921603202499938	0.35977236550404745
-0.4920992850937438	0.35294515228003465
-0.4920382499374938	0.3455296004213
-0.4919772147812438	0.3375382066104636
-0.4919161796249938	0.3289838769241653
-0.4918551444687438	0.319880575533219
-0.4917941093124938	0.3102435500298954
-0.4917330741562438	0.3000884938251314
-0.4916720389999938	0.28943204507182807
-0.4916110038437438	0.2782919087995494
-0.4915499686874938	0.26668635561933435
-0.4914889335312438	0.2546344941710563
-0.4914278983749938	0.24215624522939588
-0.4913668632187438	0.22927213935961507
-0.4913058280624938	0.21600341007455312
-0.4912447929062438	0.20237205568458408
-0.4911837577499938	0.18840048091295536
-0.4911227225937438	0.1741117530006018
-0.4910616874374938	0.15952964009753454
-0.4910006522812438	0.14467793325299008
-0.4909396171249938	0.12958146094601478
-0.4908785819687438	0.11426523435894825
-0.4908175468124938	0.09875414651117759
-0.4907565116562438	0.08307441398119514
-0.4906954764999938	0.0672517241334822
-0.4906344413437438	0.051312151092204696
-0.4905734061874938	0.035282535747490275
-0.4905123710312438	0.019188896683567644
-0.4904513358749938	0.0030583208194031757
-0.4903903007187438	-0.013082388891859349
-0.4903292655624938	-0.02920701765599406
-0.4902682304062438	-0.045288126401160075
-0.4902071952499938	-0.06129915294114125
-0.4901461600937438	-0.07721401733190532
-0.4900851249374938	-0.09300563331889863
-0.4900240897812438	-0.10864785330281071
-0.4899630546249938	-0.12411509993548095
-0.4899020194687438	-0.13938105843429066
-0.4898409843124938	-0.15442057358260153
-0.4897799491562438	-0.16920871761499673
-0.4897189139999938	-0.1837204219420036
-0.4896578788437438	-0.19793193783723295
-0.4895968436874938	-0.2118192342610115
-0.4895358085312438	-0.2253591506300355
-0.4894747733749938	-0.2385292738711998
-0.4894137382187438	-0.25130714513475455
-0.4893527030624938	-0.26367186400882475
-0.4892916679062438	-0.2756024242039234
-0.4892306327499938	-0.2870786333013239
-0.4891695975937438	-0.2980817786980748
-0.4891085624374938	-0.3085928519715384
-0.4890475272812438	-0.3185942764876634
-0.4889864921249938	-0.3280694866234338
-0.4889254569687438	-0.3370020745670131
-0.4888644218124938	-0.3453771833754958
-0.4888033866562438	-0.3531806662094504
-0.4887423514999938	-0.3603990823368339
-0.4886813163437438	-0.3670203134995547
-0.4886202811874938	-0.37303297411366265
-0.4885592460312438	-0.3784267888873509
-0.4884982108749938	-0.3831925492190072
-0.4884371757187438	-0.38732184373740375
-0.4883761405624938	-0.3908075960577054
-0.4883151054062438	-0.39364375250796
-0.4882540702499938	-0.3958250386967423
-0.4881930350937438	-0.39734761054409545
-0.4881319999374938	-0.3982086413379473
-0.4880709647812438	-0.39840616557203906
-0.4880099296249938	-0.3979396073247671
-0.4879488944687438	-0.3968093534507679
-0.4878878593124938	-0.39501685345902754
-0.4878268241562438	-0.39256477978535903
-0.4877657889999938	-0.38945674772719746
-0.4877047538437438	-0.38569758086170913
-0.4876437186874938	-0.38129318145493524
-0.4875826835312438	-0.37625037777283904
-0.4875216483749938	-0.370577219983208
-0.4874606132187438	-0.36428281259464734
-0.4873995780624938	-0.35737714091696504
-0.4873385429062438	-0.34987126627532217
-0.4872775077499938	-0.34177742711390724
-0.4872164725937438	-0.333108622427913
-0.4871554374374938	-0.32387875015275075
-0.4870944022812438	-0.31410303195163525
-0.4870333671249938	-0.3037972047005012
-0.4869723319687438	-0.29297794104081076
-0.4869112968124938	-0.2816631210153206
-0.4868502616562438	-0.26987098027008727
-0.4867892264999938	-0.25762077584143567
-0.4867281913437438	-0.24493281952949497
-0.4866671561874938	-0.23182751824755174
-0.4866061210312438	-0.21832626421454304
-0.4865450858749938	-0.2044518960138206
-0.4864840507187438	-0.19022643776445747
-0.4864230155624938	-0.17567302697121717
-0.4863619804062438	-0.16081680488634426
-0.4863009452499938	-0.14568111842437598
-0.4862399100937438	-0.1302906512914312
-0.4861788749374938	-0.11467198209196096
-0.4861178397812438	-0.09884986042915755
-0.4860568046249938	-0.08285015174467548
-0.4859957694687438	-0.06670025145494655
-0.4859347343124938	-0.050426146971515776
-0.4858736991562438	-0.034054243106237156
-0.4858126639999938	-0.017612708194000803
-0.4857516288437438	-0.0011280898340016185
-0.4856905936874938	0.015372996147722681
-0.4856295585312438	0.031861852246625515
-0.4855685233749938	0.04831206505457969
-0.4855074882187438	0.06469696563160965
-0.4854464530624938	0.08098791328036177
-0.4853854179062438	0.09715880902369899
-0.4853243827499938	0.11318347740134248
-0.4852633475937438	0.1290339667558652
-0.4852023124374938	0.14468453579752202
-0.4851412772812438	0.16010986630781165
-0.4850802421249938	0.17528342879457495
-0.4850192069687438	0.19018013163311226
-0.4849581718124938	0.20477572774131317
-0.4848971366562438	0.21904562180456033
-0.4848361014999938	0.23296570177789966
-0.4847750663437438	0.24651332901027184
-0.4847140311874938	0.25966589654106015
-0.4846529960312438	0.27240089577868676
-0.4845919608749938	0.28469764276498843
-0.4845309257187438	0.29653555701409234
-0.4844698905624938	0.3078944575315116
-0.4844088554062438	0.31875569813029464
-0.4843478202499938	0.3291010975178187
-0.4842867850937438	0.33891307192418246
-0.4842257499374938	0.34817533035284026
-0.4841647147812438	0.3568724361550612
-0.4841036796249938	0.3649894838517771
-0.4840426444687438	0.37251295920905686
-0.4839816093124938	0.3794302983778186
-0.4839205741562438	0.38572957988236184
-0.4838595389999938	0.39140025225544733
-0.4837985038437438	0.3964327387848505
-0.4837374686874938	0.40081837344501464
-0.4836764335312438	0.4045496894637027
-0.4836153983749938	0.40762031537578886
-0.4835543632187438	0.4100248618605227
-0.4834933280624938	0.4117591152737022
-0.4834322929062438	0.4128200416201956
-0.4833712577499938	0.4132055635674259
-0.4833102225937438	0.4129148461213307
-0.4832491874374938	0.4119481693732529
-0.4831881522812438	0.41030684775308957
-0.4831271171249938	0.40799345246235574
-0.4830660819687438	0.40501155967495683
-0.4830050468124938	0.4013658556928549
-0.4829440116562438	0.39706229796717124
-0.4828829764999938	0.3921077136918381
-0.4828219413437438	0.3865100619007884
-0.4827609061874938	0.3802786619970785
-0.4826998710312438	0.37342345002740485
-0.4826388358749938	0.365955531785329
-0.4825778007187438	0.3578874928982064
-0.4825167655624938	0.34923223625860333
-0.4824557304062438	0.3400038150526739
-0.4823946952499938	0.3302179050260207
-0.4823336600937438	0.31989019943638036
-0.4822726249374938	0.30903751755597425
-0.4822115897812438	0.29767838016945447
-0.4821505546249938	0.28583095926879487
-0.4820895194687438	0.27351473443153895
-0.4820284843124938	0.26075066503580474
-0.4819674491562438	0.2475592354088316
-0.4819064139999938	0.23396230188575315
-0.4818453788437438	0.21998276434012787
-0.4817843436874938	0.2056433497682504
-0.4817233085312438	0.19096788869783166
-0.4816622733749938	0.17598084897700397
-0.4816012382187438	0.16070684999912607
-0.4815402030624938	0.1451713517264623
-0.4814791679062438	0.12940011010547312
-0.4814181327499938	0.11341921445620952
-0.4813570975937438	0.0972552827348575
-0.4812960624374938	0.08093508736842263
-0.4812350272812438	0.06448581595268074
-0.4811739921249938	0.047934702911092836
-0.4811129569687438	0.03130933576207125
-0.4810519218124938	0.014637467835370076
-0.4809908866562438	-0.0020535256920420895
-0.4809298514999938	-0.01873550491525503
-0.4808688163437438	-0.035380601318735466
-0.4808077811874938	-0.05196171893669804
-0.4807467460312438	-0.06845071866772504
-0.4806857108749938	-0.08481988080652215
-0.4806246757187438	-0.101042711035424
-0.4805636405624938	-0.11709173808688665
-0.4805026054062438	-0.1329397616122306
-0.4804415702499938	-0.1485610584082137
-0.4803805350937438	-0.163929388303613
-0.4803194999374938	-0.1790186626952369
-0.4802584647812438	-0.19380406294140753
-0.4801974296249938	-0.20826097112803002
-0.4801363944687438	-0.22236492888199982
-0.4800753593124938	-0.23609245713053456
-0.4800143241562438	-0.24942076416503275
-0.4799532889999938	-0.2623273482047727
-0.4798922538437438	-0.27479071396205385
-0.4798312186874938	-0.28679001704153817
-0.4797701835312438	-0.2983050392051042
-0.4797091483749938	-0.3093166729511939
-0.4796481132187438	-0.3198063760111008
-0.4795870780624938	-0.3297564723752339
-0.4795260429062438	-0.33915041124918127
-0.4794650077499938	-0.3479724671577702
-0.4794039725937438	-0.3562076267380638
-0.4793429374374938	-0.36384218793494116
-0.4792819022812438	-0.3708634606142645
-0.4792208671249938	-0.37725930597516155
-0.4791598319687438	-0.3830192138793254
-0.4790987968124938	-0.3881335430908952
-0.4790377616562438	-0.3925933413837991
-0.4789767264999938	-0.3963913847142085
-0.4789156913437438	-0.3995212401994339
-0.4788546561874938	-0.4019773813432663
-0.4787936210312438	-0.40375582977181684
-0.4787325858749938	-0.40485353524467577
-0.4786715507187438	-0.4052684939056713
-0.4786105155624938	-0.4050000431678373
-0.4785494804062438	-0.4040485604935549
-0.4784884452499938	-0.402415534779794
-0.4784274100937438	-0.40010371858069854
-0.4783663749374938	-0.3971169054067186
-0.4783053397812438	-0.39346001712108886
-0.4782443046249938	-0.3891392009586246
-0.4781832694687438	-0.3841616459025005
-0.4781222343124938	-0.37853558154749495
-0.4780611991562438	-0.3722705056140164
-0.4780001639999938	-0.36537691993468213
-0.4779391288437438	-0.3578661153571142
-0.4778780936874938	-0.3497509911833183
-0.4778170585312438	-0.34104506297740134
-0.4777560233749938	-0.3317625417214815
-0.4776949882187438	-0.3219196558506096
-0.4776339530624938	-0.3115324793744214
-0.4775729179062438	-0.30061823923547926
-0.4775118827499938	-0.28919607257141694
-0.4774508475937438	-0.2772843226456548
-0.4773898124374938	-0.2649031854503868
-0.4773287772812438	-0.25207412674584107
-0.4772677421249938	-0.23881785319680712
-0.4772067069687438	-0.22515696567907323
-0.4771456718124938	-0.21111482861886952
-0.4770846366562438	-0.19671461112479915
-0.4770236014999938	-0.18198061899774104
-0.4769625663437438	-0.16693794716506302
-0.4769015311874938	-0.15161176157732242
-0.4768404960312438	-0.13602774876403217
-0.4767794608749938	-0.12021252604728118
-0.4767184257187438	-0.1041925558240536
-0.4766573905624938	-0.08799479761502382
-0.4765963554062438	-0.0716468481815779
-0.4765353202499938	-0.05517607334841486
-0.4764742850937438	-0.038610425812959544
-0.4764132499374938	-0.021977845255318682
-0.4763522147812438	-0.005306410759554866
-0.4762911796249938	0.01137551417777632
-0.4762301444687438	0.028039968088848035
-0.4761691093124938	0.04465859750749089
-0.4761080741562438	0.061203230638841595
-0.4760470389999938	0.07764594734650464
-0.4759860038437438	0.09395888579742935
-0.4759249686874938	0.11011439623159765
-0.4758639335312438	0.12608490798937103
-0.4758028983749938	0.1418436085894892
-0.4757418632187438	0.15736369141770606
-0.4756808280624938	0.17261852031751346
-0.4756197929062438	0.18758252411371343
-0.4755587577499938	0.20223023051875963
-0.4754977225937438	0.21653646232820328
-0.4754366874374938	0.23047709943194214
-0.4753756522812438	0.24402848329059407
-0.4753146171249938	0.2571672621421324
-0.4752535819687438	0.269871181257577
-0.4751925468124938	0.28211867829790765
-0.4751315116562438	0.2938885693416571
-0.4750704764999938	0.3051609894398363
-0.4750094413437438	0.3159165922446465
-0.4749484061874938	0.3261367282940046
-0.4748873710312438	0.33580427927621453
-0.4748263358749938	0.3449024651535221
-0.4747653007187438	0.3534154102983689
-0.4747042655624938	0.3613288197785623
-0.4746432304062438	0.3686289931418269
-0.4745821952499938	0.3753030628522664
-0.4745211600937438	0.38133964772579165
-0.4744601249374938	0.3867283466384895
-0.4743990897812438	0.39145955007395405
-0.4743380546249938	0.39552504815580625
-0.4742770194687438	0.39891777404892625
-0.4742159843124938	0.4016315290066139
-0.4741549491562438	0.4036614935534043
-0.4740939139999938	0.40500399413384264
-0.4740328788437438	0.40565635228710706
-0.4739718436874938	0.40561719678669694
-0.4739108085312438	0.40488633743679836
-0.4738497733749938	0.40346465324968867
-0.4737887382187438	0.4013542303197835
-0.4737277030624938	0.3985584090971796
-0.4736666679062438	0.39508156729738353
-0.4736056327499938	0.3909292663238651
-0.4735445975937438	0.38610830184390993
-0.4734835624374938	0.3806265090582561
-0.4734225272812438	0.37449284576516284
-0.4733614921249938	0.36771742260943824
-0.4733004569687438	0.36031149664981693
-0.4732394218124938	0.3522872210410672
-0.4731783866562438	0.3436579017794797
-0.4731173514999938	0.33443804818459344
-0.4730563163437438	0.3246428313983786
-0.4729952811874938	0.31428859121083946
-0.4729342460312438	0.30339274185667925
-0.4728732108749938	0.2919734045821787
-0.4728121757187438	0.2800497032009297
-0.4727511405624938	0.26764151432652894
-0.4726901054062438	0.25476980523627535
-0.4726290702499938	0.24145619166217547
-0.4725680350937438	0.2277226736596566
-0.4725069999374938	0.2135927153018876
-0.4724459647812438	0.19909007949901802
-0.4723849296249938	0.18423877860717092
-0.4723238944687438	0.1690641517956253
-0.4722628593124938	0.1535917764868555
-0.4722018241562438	0.1378475432398267
-0.4721407889999938	0.12185805138012629
-0.4720797538437438	0.10565040118992665
-0.4720187186874938	0.08925195855690833
-0.4719576835312438	0.07269014901325062
-0.4718966483749938	0.05599325774962871
-0.4718356132187438	0.0391896430386084
-0.4717745780624938	0.022307171338094005
-0.4717135429062438	0.005374880656059166
-0.4716525077499938	-0.011578397489749153
-0.4715914725937438	-0.028524609786588464
-0.4715304374374938	-0.04543439076419112
-0.4714694022812438	-0.062279195035208915
-0.4714083671249938	-0.07903094862014039
-0.4713473319687438	-0.09566033002614877
-0.4712862968124938	-0.1121397154083319
-0.4712252616562438	-0.12844129141037158
-0.4711642264999938	-0.14453643108879893
-0.4711031913437438	-0.16039865433601108
-0.4710421561874938	-0.17600081941102522
-0.4709811210312438	-0.19131563148815833
-0.4709200858749938	-0.20631788710976598
-0.4708590507187438	-0.22098186315879434
-0.4707980155624938	-0.23528181129658357
-0.4707369804062438	-0.24919404182276905
-0.4706759452499938	-0.26269493787758
-0.4706149100937438	-0.2757606077006148
-0.4705538749374938	-0.2883692431103016
-0.4704928397812438	-0.30049947501419777
-0.4704318046249938	-0.31212994240430886
-0.4703707694687438	-0.32324102663367
-0.4703097343124938	-0.33381365129073653
-0.4702486991562438	-0.3438296302120377
-0.4701876639999938	-0.3532716834607704
-0.4701266288437438	-0.3621233941413763
-0.4700655936874938	-0.37036992805444463
-0.4700045585312438	-0.37799663940007777
-0.4699435233749938	-0.38499030013489594
-0.4698824882187438	-0.3913391629832112
-0.4698214530624938	-0.39703174402148134
-0.4697604179062438	-0.40205833993183626
