Time	Frequency
-0.5000019075000068	-0.4497998805647577
-0.49994087234375684	-0.4494795871433602
-0.49987983718750684	-0.448191714500847
-0.49981880203125684	-0.44593930532534726
-0.49975776687500684	-0.44272746074246894
-0.49969673171875684	-0.4385633450925215
-0.49963569656250684	-0.43345626462182224
-0.49957466140625684	-0.42741743813195743
-0.49951362625000684	-0.4204601657616728
-0.49945259109375684	-0.41259991644293925
-0.49939155593750684	-0.40385373262938035
-0.49933052078125684	-0.39424085945760773
-0.49926948562500684	-0.3837825931657089
-0.49920845046875684	-0.37250145683411423
-0.49914741531250684	-0.36042237853736203
-0.49908638015625684	-0.3475719116018677
-0.49902534500000684	-0.333977782539634
-0.49896430984375684	-0.319670020504775
-0.49890327468750684	-0.3046798851768944
-0.49884223953125684	-0.28903999243075373
-0.49878120437500684	-0.272784628104899
-0.49872016921875684	-0.25594927166828885
-0.49865913406250684	-0.23857083942470575
-0.49859809890625684	-0.2206870989663841
-0.49853706375000684	-0.2023371927095272
-0.49847602859375684	-0.18356148434324793
-0.49841499343750684	-0.16440059061855933
-0.49835395828125684	-0.1448965515645329
-0.49829292312500684	-0.12509225491725023
-0.49823188796875684	-0.10503059695846598
-0.49817085281250684	-0.08475561356095948
-0.49810981765625684	-0.06431170059198785
-0.49804878250000684	-0.043743417024972246
-0.49798774734375684	-0.02309596471066443
-0.49792671218750684	-0.0024141947001624776
-0.49786567703125684	0.018256457029276585
-0.49780464187500684	0.03887052731731462
-0.49774360671875684	0.05938341352363632
-0.49768257156250684	0.07974990079881462
-0.49762153640625684	0.09992526959541592
-0.49756050125000684	0.11986559124269125
-0.49749946609375684	0.13952713290270918
-0.49743843093750684	0.1588667189773093
-0.49737739578125684	0.17784186671388547
-0.49731636062500684	0.19641130880540394
-0.49725532546875684	0.21453404680134366
-0.49719429031250684	0.23217015116741202
-0.49713325515625684	0.24928150474672156
-0.49707222000000684	0.2658300182177948
-0.49701118484375684	0.281779222910685
-0.49695014968750684	0.2970947894993523
-0.49688911453125684	0.3117423742082331
-0.49682807937500684	0.3256897300496459
-0.49676704421875684	0.3389068479348515
-0.49670600906250684	0.3513638818977675
-0.49664497390625684	0.3630335363139965
-0.49658393875000684	0.3738905048281086
-0.49652290359375684	0.38391024030435994
-0.49646186843750684	0.3930708467196573
-0.49640083328125684	0.4013521815273547
-0.49633979812500684	0.40873561237244077
-0.49627876296875684	0.41520489197472615
-0.49621772781250684	0.42074565365213085
-0.49615669265625684	0.42534541842348245
-0.49609565750000684	0.42899391619619825
-0.49603462234375684	0.4316829299603149
-0.49597358718750684	0.43340628306787354
-0.49591255203125684	0.43415997720124627
-0.49585151687500684	0.43394209811889
-0.49579048171875684	0.43275286649793593
-0.49572944656250684	0.4305946314687055
-0.49566841140625684	0.4274718963299114
-0.49560737625000684	0.42339125856882553
-0.49554634109375684	0.4183613426285928
-0.49548530593750684	0.41239301555055813
-0.49542427078125684	0.40549912161479235
-0.49536323562500684	0.39769443498697954
-0.49530220046875684	0.38899593321378345
-0.49524116531250684	0.379422491446772
-0.49518013015625684	0.3689947624890437
-0.49511909500000684	0.3577354433412437
-0.49505805984375684	0.3456692049481582
-0.49499702468750684	0.3328220737082538
-0.49493598953125684	0.31922202666726435
-0.49487495437500684	0.3048991045496473
-0.49481391921875684	0.28988421464196085
-0.49475288406250684	0.2742101094239116
-0.49469184890625684	0.2579113832936133
-0.49463081375000684	0.24102345292169922
-0.49456977859375684	0.22358327473268827
-0.49450874343750684	0.20562910235855078
-0.49444770828125684	0.18720023160351107
-0.49438667312500684	0.16833716112136216
-0.49432563796875684	0.14908112642646537
-0.49426460281250684	0.1294743809656055
-0.49420356765625684	0.1095601481238687
-0.49414253250000684	0.08938205164739735
-0.49408149734375684	0.06898440476817994
-0.49402046218750684	0.04841212454065784
-0.49395942703125684	0.027710503635821584
-0.49389839187500684	0.006925095465651205
-0.49383735671875684	-0.013898364502854107
-0.49377632156250684	-0.03471391385976688
-0.49371528640625684	-0.055475665367049794
-0.49365425125000684	-0.07613781818399787
-0.49359321609375684	-0.09665475163013806
-0.49353218093750684	-0.11698105584746095
-0.49347114578125684	-0.1370719248626141
-0.49341011062500684	-0.15688286397680018
-0.49334907546875684	-0.17636981132568663
-0.49328804031250684	-0.19548992116564382
-0.49322700515625684	-0.21420062435905665
-0.49316597000000684	-0.23246019057283032
-0.49310493484375684	-0.2502284354732935
-0.49304389968750684	-0.26746568154955264
-0.49298286453125684	-0.284133322315366
-0.49292182937500684	-0.3001945371232171
-0.49286079421875684	-0.31561340253981984
-0.49279975906250684	-0.33035529825860455
-0.49273872390625684	-0.3443874247606194
-0.49267768875000684	-0.35767816999993685
-0.49261665359375684	-0.370197730872132
-0.49255561843750684	-0.38191807551621615
-0.49249458328125684	-0.39281246885823196
-0.49243354812500684	-0.40285635910325224
-0.49237251296875684	-0.4120271703633634
-0.49231147781250684	-0.42030369772664966
-0.49225044265625684	-0.4276669753647759
-0.49218940750000684	-0.434100302958113
-0.49212837234375684	-0.4395885553801281
-0.49206733718750684	-0.4441187488244068
-0.49200630203125684	-0.4476802777791087
-0.49194526687500684	-0.45026444499430784
-0.49188423171875684	-0.4518645893038672
-0.49182319656250684	-0.4524763867980149
-0.49176216140625684	-0.45209767921201865
-0.49170112625000684	-0.4507283244481455
-0.49164009109375684	-0.4483704270107989
-0.49157905593750684	-0.44502835873842805
-0.49151802078125684	-0.4407085034542506
-0.49145698562500684	-0.4354193892301908
-0.49139595046875684	-0.42917184874881675
-0.49133491531250684	-0.42197867597609073
-0.49127388015625684	-0.4138546761138223
-0.49121284500000684	-0.4048168888915267
-0.49115180984375684	-0.39488430419236986
-0.49109077468750684	-0.3840777712987147
-0.49102973953125684	-0.37242018529750964
-0.49096870437500684	-0.35993633899695887
-0.49090766921875684	-0.3466527239883038
-0.49084663406250684	-0.33259765242776745
-0.49078559890625684	-0.31780131540990547
-0.49072456375000684	-0.302295319961698
-0.49066352859375684	-0.2861127426103407
-0.49060249343750684	-0.2692885912402852
-0.49054145828125684	-0.25185903999289233
-0.49048042312500684	-0.2338615075447132
-0.49041938796875684	-0.21533474341510483
-0.49035835281250684	-0.19631879112457326
-0.49029731765625684	-0.17685503615878645
-0.49023628250000684	-0.15698504134840394
-0.49017524734375684	-0.1367519588281031
-0.49011421218750684	-0.11620000490047826
-0.49005317703125684	-0.09537315683153548
-0.48999214187500684	-0.07431693615276405
-0.48993110671875684	-0.05307698213734636
-0.48987007156250684	-0.03169917784535015
-0.48980903640625684	-0.010230536198935925
-0.48974800125000684	0.011282826864713299
-0.48968696609375684	0.03279410077816287
-0.48962593093750684	0.05425574719099931
-0.48956489578125684	0.07562181049410346
-0.48950386062500684	0.09684565821214595
-0.48944282546875684	0.11788028510098016
-0.48938179031250684	0.13868064357725227
-0.48932075515625684	0.15920111270765308
-0.48925972000000684	0.17939638170658623
-0.48919868484375684	0.19922305250354494
-0.48913764968750684	0.21863738306681968
-0.48907661453125684	0.23759685403262074
-0.48901557937500684	0.2560602841195063
-0.48895454421875684	0.2739869518053138
-0.48889350906250684	0.29133782155644333
-0.48883247390625684	0.30807473208021136
-0.48877143875000684	0.3241609195287768
-0.48871040359375684	0.33956138914191203
-0.48864936843750684	0.35424205241607387
-0.48858833328125684	0.3681706336007406
-0.48852729812500684	0.3813168084227229
-0.48846626296875684	0.39365141848474344
-0.48840522781250684	0.40514730392129594
-0.48834419265625684	0.41577935163215796
-0.48828315750000684	0.42552386815792576
-0.48822212234375684	0.4343594169490236
-0.48816108718750684	0.4422666124768443
-0.48810005203125684	0.4492277250743096
-0.48803901687500684	0.45522742762043583
-0.48797798171875684	0.4602524216471815
-0.48791694656250684	0.46429134657741683
-0.48785591140625684	0.4673352888036609
-0.48779487625000684	0.46937733406568605
-0.48773384109375684	0.47041270798641005
-0.48767280593750684	0.4704390284226949
-0.48761177078125684	0.4694559993828298
-0.48755073562500684	0.4674655281318926
-0.48748970046875684	0.46447177739524015
-0.48742866531250684	0.46048110222345134
-0.48736763015625684	0.45550206112385394
-0.48730659500000684	0.4495453039425512
-0.48724555984375684	0.442623706600852
-0.48718452468750684	0.43475232087694815
-0.48712348953125684	0.4259480702672792
-0.48706245437500684	0.41623013527983815
-0.48700141921875684	0.40561974369691206
-0.48694038406250684	0.39413974898994114
-0.48687934890625684	0.3818153486832907
-0.48681831375000684	0.3686734314834102
-0.48675727859375684	0.3547423986200155
-0.48669624343750684	0.34005295490947873
-0.48663520828125684	0.3246370831329538
-0.48657417312500684	0.3085283139940074
-0.48651313796875684	0.2917620940469977
-0.48645210281250684	0.2743749704015773
-0.48639106765625684	0.2564048972660509
-0.48633003250000684	0.2378913763221276
-0.48626899734375684	0.21887486579204624
-0.48620796218750684	0.19939690436565724
-0.48614692703125684	0.17950035621268995
-0.48608589187500684	0.1592286429612305
-0.48602485671875684	0.13862628564066554
-0.48596382156250684	0.11773848250922585
-0.48590278640625684	0.09661086157195001
-0.48584175125000684	0.07529009362910795
-0.48578071609375684	0.053822514409239165
-0.48571968093750684	0.03225550190727589
-0.48565864578125684	0.010636648828687763
-0.48559761062500684	-0.01098734118008039
-0.48553657546875684	-0.03256839981156813
-0.48547554031250684	-0.05405906564695328
-0.48541450515625684	-0.07541268045579048
-0.48535347000000684	-0.09658195738543768
-0.48529243484375684	-0.11752037408859173
-0.48523139968750684	-0.13818219135625964
-0.48517036453125684	-0.15852183948309617
-0.48510932937500684	-0.17849455937746705
-0.48504829421875684	-0.19805676638576367
-0.48498725906250684	-0.21716523707729085
-0.48492622390625684	-0.2357778529277111
-0.48486518875000684	-0.2538541631757547
-0.48480415359375684	-0.2713542025766135
-0.48474311843750684	-0.28823927496775953
-0.48468208328125684	-0.3044727096368344
-0.48462104812500684	-0.3200187855090515
-0.48456001296875684	-0.3348430581112319
-0.48449897781250684	-0.34891322739699404
-0.48443794265625684	-0.36219850253462244
-0.48437690750000684	-0.37466950147795175
-0.48431587234375684	-0.3862988947059953
-0.48425483718750684	-0.39706141583849985
-0.48419380203125684	-0.40693335983748224
-0.48413276687500684	-0.41589297506191486
-0.48407173171875684	-0.4239209270255813
-0.48401069656250684	-0.4309996055557932
-0.48394966140625684	-0.43711350388020065
-0.48388862625000684	-0.4422494718583185
-0.48382759109375684	-0.44639632072656543
-0.48376655593750684	-0.44954515393993655
-0.48370552078125684	-0.4516892687326832
-0.48364448562500684	-0.4528241516798977
-0.48358345046875684	-0.45294762187744103
-0.48352241531250684	-0.45205964844689484
-0.48346138015625684	-0.45016247330731174
-0.48340034500000684	-0.447260645501143
-0.48333930984375684	-0.4433608383283953
-0.48327827468750684	-0.43847199607621345
-0.48321723953125684	-0.4326053516969557
-0.48315620437500684	-0.4257741274774001
-0.48309516921875684	-0.41799379119519325
-0.48303413406250684	-0.4092820460122419
-0.48297309890625684	-0.39965843808017876
-0.48291206375000684	-0.3891446306323346
-0.48285102859375684	-0.3777644225595945
-0.48278999343750684	-0.36554338543330356
-0.48272895828125684	-0.352508836693378
-0.48266792312500684	-0.3386902956121185
-0.48260688796875684	-0.32411883555030735
-0.48254585281250684	-0.3088268479929227
-0.48248481765625684	-0.29284902654163186
-0.48242378250000684	-0.27622128980871413
-0.48236274734375684	-0.2589806046613246
-0.48230171218750684	-0.24116589280929357
-0.48224067703125684	-0.2228173716444135
-0.48217964187500684	-0.20397596654067815
-0.48211860671875684	-0.1846837984949085
-0.48205757156250684	-0.164984684501107
-0.48199653640625684	-0.14492270952617334
-0.48193550125000684	-0.12454247318804595
-0.48187446609375684	-0.1038903595130967
-0.48181343093750684	-0.08301261423829893
-0.48175239578125684	-0.06195576633837696
-0.48169136062500684	-0.04076764241613376
-0.48163032546875684	-0.01949562666465999
-0.48156929031250684	0.0018124815353367178
-0.48150825515625684	0.02310858626002131
-0.48144722000000684	0.044345096128922436
-0.48138618484375684	0.06547387670629244
-0.48132514968750684	0.08644738026665606
-0.48126411453125684	0.10721879778553739
-0.48120307937500684	0.1277410078256434
-0.48114204421875684	0.1479675468965718
-0.48108100906250684	0.1678533212151825
-0.48101997390625684	0.18735334813991494
-0.48095893875000684	0.20642319487627547
-0.48089790359375684	0.225020321803077
-0.48083686843750684	0.24310270233612088
-0.48077583328125684	0.26062904720530694
-0.48071479812500684	0.27755995954981055
-0.48065376296875684	0.293857394825582
-0.48059272781250684	0.3094840957481025
-0.48053169265625684	0.3244044618207551
-0.48047065750000684	0.33858517235761376
-0.48040962234375684	0.35199377702460033
-0.48034858718750684	0.3645995200246469
-0.48028755203125684	0.3763740596758394
-0.48022651687500684	0.38729039402418264
-0.48016548171875684	0.3973235450470962
-0.48010444656250684	0.40645062946787064
-0.48004341140625684	0.4146505814353837
-0.47998237625000684	0.4219046242062668
-0.47992134109375684	0.42819594706434494
-0.47986030593750684	0.43350987840162125
-0.47979927078125684	0.43783406686381127
-0.47973823562500684	0.44115824284297
-0.47967720046875684	0.4434744331506082
-0.47961616531250684	0.4447769054499631
-0.47955513015625684	0.4450622033292543
-0.47949409500000684	0.4443291647248052
-0.47943305984375684	0.4425788913321977
-0.47937202468750684	0.43981475716355056
-0.47931098953125684	0.4360424258951116
-0.47924995437500684	0.43126986129101114
-0.47918891921875684	0.42550721324419954
-0.47912788406250684	0.4187668931619361
-0.47906684890625684	0.41106346959496404
-0.47900581375000684	0.40241377170824294
-0.47894477859375684	0.3928367200104932
-0.47888374343750684	0.3823531858101901
-0.47882270828125684	0.370986313969957
-0.47876167312500684	0.358761187630713
-0.47870063796875684	0.3457046235824343
-0.47863960281250684	0.3318455351253864
-0.47857856765625684	0.31721477761909156
-0.47851753250000684	0.30184451251917105
-0.47845649734375684	0.28576881532336146
-0.47839546218750684	0.2690237543263279
-0.47833442703125684	0.25164625907794846
-0.47827339187500684	0.23367486251547118
-0.47821235671875684	0.21514995491999325
-0.47815132156250684	0.19611267704146867
-0.47809028640625684	0.17660528544062384
-0.47802925125000684	0.15667160673844244
-0.47796821609375684	0.1363560943291971
-0.47790718093750684	0.11570397823918364
-0.47784614578125684	0.09476174140446188
-0.47778511062500684	0.07357604671531813
-0.47772407546875684	0.0521943144610419
-0.47766304031250684	0.030664796144076623
-0.47760200515625684	0.009035337196028696
-0.47754097000000684	-0.012645397711556094
-0.47747993484375684	-0.03432835632231598
-0.47741889968750684	-0.055965317971341244
-0.47735786453125684	-0.07750751545281599
-0.47729682937500684	-0.09890618393906439
-0.47723579421875684	-0.12011344658754942
-0.47717475906250684	-0.14108153005263524
-0.47711372390625684	-0.1617628996554979
-0.47705268875000684	-0.1821111040064049
-0.47699165359375684	-0.2020802665988624
-0.47693061843750684	-0.22162495137386118
-0.47686958328125684	-0.24070120788162364
-0.47680854812500684	-0.25926577327848765
-0.47674751296875684	-0.27727653380338374
-0.47668647781250684	-0.294692802373277
-0.47662544265625684	-0.3114746862241672
-0.47656440750000684	-0.327584319828692
-0.47650337234375684	-0.3429850967996902
-0.47644233718750684	-0.3576415012138734
-0.47638130203125684	-0.3715204192339248
-0.47632026687500684	-0.38459007914246546
-0.47625923171875684	-0.3968202658507506
-0.47619819656250684	-0.4081831689618151
-0.47613716140625684	-0.41865248002902056
-0.47607612625000684	-0.4282039524032998
-0.47601509109375684	-0.4368156235808803
-0.47595405593750684	-0.4444672478247721
-0.47589302078125684	-0.4511409333939891
-0.47583198562500684	-0.45682107191403754
-0.47577095046875684	-0.4614940011450951
-0.47570991531250684	-0.46514841488293823
-0.47564888015625684	-0.467775405339873
-0.47558784500000684	-0.4693682216158575
-0.47552680984375684	-0.4699224091391473
-0.47546577468750684	-0.4694359282116899
-0.47540473953125684	-0.4679090240196372
-0.47534370437500684	-0.4653442508148632
-0.47528266921875684	-0.4617465250452387
-0.47522163406250684	-0.45712304638676415
-0.47516059890625684	-0.45148334111513705
-0.47509956375000684	-0.4448392068730913
-0.47503852859375684	-0.4372046666931442
-0.47497749343750684	-0.4285960399448263
-0.47491645828125684	-0.41903177962752874
-0.47485542312500684	-0.4085324373562617
-0.47479438796875684	-0.39712083997716696
-0.47473335281250684	-0.38482175328509177
-0.47467231765625684	-0.3716617891140117
-0.47461128250000684	-0.35766987626048563
-0.47455024734375684	-0.342876606797197
-0.47448921218750684	-0.3273141336201136
-0.47442817703125684	-0.3110168748654703
-0.47436714187500684	-0.2940206555605223
-0.47430610671875684	-0.27636260087581316
-0.47424507156250684	-0.25808181562414223
-0.47418403640625684	-0.23921874715114858
-0.47412300125000684	-0.21981467119956646
-0.47406196609375684	-0.19991262444344896
-0.47400093093750684	-0.1795569545236819
-0.47393989578125684	-0.15879212303202386
-0.47387886062500684	-0.13766436611487007
-0.47381782546875684	-0.11622084493149594
-0.47375679031250684	-0.09450855737727003
-0.47369575515625684	-0.0725759833584761
-0.47363472000000684	-0.05047187282147877
-0.47357368484375684	-0.028245114110667
-0.47351264968750684	-0.005945365090021804
-0.47345161453125684	0.016377984482900832
-0.47339057937500684	0.03867529807330804
-0.47332954421875684	0.06089662265163359
-0.47326850906250684	0.08299274151470054
-0.47320747390625684	0.1049146078552566
-0.47314643875000684	0.12661284789514257
-0.47308540359375684	0.14803940083120753
-0.47302436843750684	0.16914665993692285
-0.47296333328125684	0.1898869787689649
-0.47290229812500684	0.2102145960444084
-0.47284126296875684	0.2300839664201577
-0.47278022781250684	0.24945036458265454
-0.47271919265625684	0.2682710489670399
-0.47265815750000684	0.2865036696054788
-0.47259712234375684	0.30410740502895955
-0.47253608718750684	0.32104303829583414
-0.47247505203125684	0.3372725788580417
-0.47241401687500684	0.3527597771475707
-0.47235298171875684	0.3674698894912123
-0.47229194656250684	0.38137004053404094
-0.47223091140625684	0.39442905433596387
-0.47216987625000684	0.40661764389189486
-0.47210884109375684	0.41790864009565887
-0.47204780593750684	0.42827653917804726
-0.47198677078125684	0.4376981444825637
-0.47192573562500684	0.4461524782041706
-0.47186470046875684	0.45362036558754265
-0.47180366531250684	0.4600851061789442
-0.47174263015625684	0.4655322998747985
-0.47168159500000684	0.4699495640387681
-0.47162055984375684	0.4733270229988838
-0.47155952468750684	0.4756571608676839
-0.47149848953125684	0.47693463286158627
-0.47143745437500684	0.47715660266267657
-0.47137641921875684	0.47632259310264013
-0.47131538406250684	0.4744344272637268
-0.47125434890625684	0.47149637720682586
-0.47119331375000684	0.46751502288240027
-0.47113227859375684	0.4624993023357155
-0.47107124343750684	0.4564605359705754
-0.47101020828125684	0.44941224719888995
-0.47094917312500684	0.4413703216312702
-0.47088813796875684	0.4323528877941846
-0.47082710281250684	0.4223801223304433
-0.47076606765625684	0.41147459673577347
-0.47070503250000684	0.39966088185240023
-0.47064399734375684	0.3869654089475422
-0.47058296218750684	0.3734169323679088
-0.47052192703125684	0.3590459713178353
-0.47046089187500684	0.3438848107421557
-0.47039985671875684	0.32796772846758837
-0.47033882156250684	0.3113305297226309
