Time	Frequency
-0.5000562668749922	0.3551287425151983
-0.49999523171874216	0.3403145542739599
-0.49993419656249216	0.32469727326216186
-0.49987316140624216	0.3083125615407965
-0.49981212624999216	0.2911979772048081
-0.49975109109374216	0.27339326555265214
-0.49969005593749216	0.25493928853498504
-0.49962902078124216	0.2358784136109874
-0.49956798562499216	0.21625494840984974
-0.49950695046874216	0.1961142519932244
-0.49944591531249216	0.17550265440453014
-0.49938488015624216	0.15446796347536912
-0.49932384499999216	0.13305912056439118
-0.49926280984374216	0.11132550312465622
-0.49920177468749216	0.08931752642918639
-0.49914073953124216	0.06708642674823213
-0.49907970437499216	0.04468358510349259
-0.49901866921874216	0.022161309207585224
-0.49895763406249216	-0.0004281427169805739
-0.49889659890624216	-0.02303252874309423
-0.49883556374999216	-0.045598786718527066
-0.49877452859374216	-0.06807462425983417
-0.49871349343749216	-0.09040790125604845
-0.49865245828124216	-0.11254620983181786
-0.49859142312499216	-0.13443824367420196
-0.49853038796874216	-0.15603291333423228
-0.49846935281249216	-0.17727964570298832
-0.49840831765624216	-0.19812927969870067
-0.49834728249999216	-0.21853292979884922
-0.49828624734374216	-0.23844269440753024
-0.49822521218749216	-0.25781256056247265
-0.49816417703124216	-0.2765972078692507
-0.49810314187499216	-0.2947523179691695
-0.49804210671874216	-0.3122357768359099
-0.49798107156249216	-0.3290068663399196
-0.49792003640624216	-0.345026019926867
-0.49785900124999216	-0.3602557868517347
-0.49779796609374216	-0.37466072998207745
-0.49773693093749216	-0.3882070824867914
-0.49767589578124216	-0.40086291706942134
-0.49761486062499216	-0.4125986831074646
-0.49755382546874216	-0.4233870279497576
-0.49749279031249216	-0.43320249290932283
-0.49743175515624216	-0.44202202949748465
-0.49737071999999216	-0.44982502164020577
-0.49730968484374216	-0.4565931890119009
-0.49724864968749216	-0.4623105659857702
-0.49718761453124216	-0.4669636536246505
-0.49712657937499216	-0.47054164144939103
-0.49706554421874216	-0.47303605730357984
-0.49700450906249216	-0.4744409270085052
-0.49694347390624216	-0.47475300732766795
-0.49688243874999216	-0.4739715263295308
-0.49682140359374216	-0.47209822835070275
-0.49676036843749216	-0.4691374836145915
-0.49669933328124216	-0.46509625726802517
-0.49663829812499216	-0.4599839451576991
-0.49657726296874216	-0.45381249055162126
-0.49651622781249216	-0.44659646141993975
-0.49645519265624216	-0.4383527000564374
-0.49639415749999216	-0.4291004809999824
-0.49633312234374216	-0.41886161768854063
-0.49627208718749216	-0.4076601627618277
-0.49621105203124216	-0.395522310511516
-0.49615001687499216	-0.38247658697640136
-0.49608898171874216	-0.3685537442745264
-0.49602794656249216	-0.3537863892049634
-0.49596691140624216	-0.33820930060018045
-0.49590587624999216	-0.3218591164008647
-0.49584484109374216	-0.304774159301735
-0.49578380593749216	-0.2869947842753883
-0.49572277078124216	-0.2685627427341047
-0.49566173562499216	-0.2495214488088673
-0.49560070046874216	-0.22991570375323925
-0.49553966531249216	-0.20979147148523744
-0.49547863015624216	-0.18919657325096106
-0.49541759499999216	-0.16817930551461097
-0.49535655984374216	-0.14678883000225984
-0.49529552468749216	-0.1250760653640703
-0.49523448953124216	-0.10309207830905914
-0.49517345437499216	-0.08088840956696204
-0.49511241921874216	-0.05851761688487755
-0.49505138406249216	-0.036032469078964714
-0.49499034890624216	-0.01348591510448792
-0.49492931374999216	0.009068883343140648
-0.49486827859374216	0.03157859088531341
-0.49480724343749216	0.05399016097565006
-0.49474620828124216	0.07625087189155406
-0.49468517312499216	0.09830786781619452
-0.49462413796874216	0.12010916446815043
-0.49456310281249216	0.1416035539977152
-0.49450206765624216	0.16273996117861886
-0.49444103249999216	0.18346846076101445
-0.49437999734374216	0.20374035429311219
-0.49431896218749216	0.22350757986789666
-0.49425792703124216	0.24272326556755
-0.49419689187499216	0.2613422537849141
-0.49413585671874216	0.27932051590539975
-0.49407482156249216	0.296615360156043
-0.49401378640624216	0.31318602979650195
-0.49395275124999216	0.3289933106796105
-0.49389171609374216	0.34399982608900864
-0.49383068093749216	0.35817013306838225
-0.49376964578124216	0.3714705546836037
-0.49370861062499216	0.38386976384563204
-0.49364757546874216	0.39533844575349997
-0.49358654031249216	0.40584931236382155
-0.49352550515624216	0.4153776441055366
-0.49346446999999216	0.423900856289868
-0.49340343484374216	0.4313987267597426
-0.49334239968749216	0.43785359576651983
-0.49328136453124216	0.4432501385565406
-0.49322032937499216	0.447575654541752
-0.49315929421874216	0.4508199247997986
-0.49309825906249216	0.4529752163520945
-0.49303722390624216	0.45403655063389575
-0.49297618874999216	0.45400146065012054
-0.49291515359374216	0.4528700121031385
-0.49285411843749216	0.45064499453313545
-0.49279308328124216	0.4473317596618478
-0.49273204812499216	0.4429382033528085
-0.49267101296874216	0.43747482914615804
-0.49260997781249216	0.4309546855113312
-0.49254894265624216	0.4233933690868173
-0.49248790749999216	0.41480888774082064
-0.49242687234374216	0.4052216681892936
-0.49236583718749216	0.39465469812719417
-0.49230480203124216	0.38313316457787383
-0.49224376687499216	0.37068443741157636
-0.49218273171874216	0.3573383462289761
-0.49212169656249216	0.34312676264649544
-0.49206066140624216	0.3280834813502852
-0.49199962624999216	0.3122444860672568
-0.49193859109374216	0.29564764817330186
-0.49187755593749216	0.2783325199598156
-0.49181652078124216	0.26034048571245694
-0.49175548562499216	0.2417145588198245
-0.49169445046874216	0.22249921804547537
-0.49163341531249216	0.20274045099936458
-0.49157238015624216	0.18248544900568783
-0.49151134499999216	0.16178259404291873
-0.49145030984374216	0.14068162240619603
-0.49138927468749216	0.11923291036530674
-0.49132823953124216	0.09748760695050385
-0.49126720437499216	0.0754981553488188
-0.49120616921874216	0.05331715509349672
-0.49114513406249216	0.03099735945710566
-0.49108409890624216	0.008592671929278366
-0.49102306374999216	-0.013842985426434617
-0.49096202859374216	-0.03625636657255088
-0.49090099343749216	-0.05859345252351683
-0.49083995828124216	-0.08080021191612229
-0.49077892312499216	-0.10282378974802679
-0.49071788796874216	-0.12461116994469423
-0.49065685281249216	-0.14610966000903108
-0.49059581765624216	-0.16726779596284302
-0.49053478249999216	-0.1880345818885077
-0.49047374734374216	-0.20835994868525073
-0.49041271218749216	-0.2281949754009342
-0.49035167703124216	-0.24749157045877593
-0.49029064187499216	-0.266203365607178
-0.49022960671874216	-0.284285236305087
-0.49016857156249216	-0.30169309481401285
-0.49010753640624216	-0.3183850135054456
-0.49004650124999216	-0.3343205571577872
-0.48998546609374216	-0.3494609040049808
-0.48992443093749216	-0.36376937772352047
-0.48986339578124216	-0.3772110392946555
-0.48980236062499216	-0.38975320302606586
-0.48974132546874216	-0.40136518224214174
-0.48968029031249216	-0.41201837396074376
-0.48961925515624216	-0.4216868889792843
-0.48955821999999216	-0.4303467646926257
-0.48949718484374216	-0.43797633545991865
-0.48943614968749216	-0.44455689842221346
-0.48937511453124216	-0.45007193696109987
-0.48931407937499216	-0.45450726939199965
-0.48925304421874216	-0.45785162306083954
-0.48919200906249216	-0.46009625664776393
-0.48913097390624216	-0.46123487927471346
-0.48906993874999216	-0.461263976094224
-0.48900890359374216	-0.46018269301452225
-0.48894786843749216	-0.45799273446496525
-0.48888683328124216	-0.45469849184560046
-0.48882579812499216	-0.4503070435149446
-0.48876476296874216	-0.44482803509549806
-0.48870372781249216	-0.43827368591083093
-0.48864269265624216	-0.430658880272991
-0.48858165749999216	-0.4220010016274123
-0.48852062234374216	-0.41231983198421185
-0.48845958718749216	-0.401637805109456
-0.48839855203124216	-0.38997966392139344
-0.48833751687499216	-0.3773722833286754
-0.48827648171874216	-0.3638452207443925
-0.48821544656249216	-0.34943009780458545
-0.48815441140624216	-0.3341603336696583
-0.48809337624999216	-0.31807186226093265
-0.48803234109374216	-0.3012025432870043
-0.48797130593749216	-0.2835917866742234
-0.48791027078124216	-0.265281043612392
-0.48784923562499216	-0.24631354003420075
-0.48778820046874216	-0.22673391701137427
-0.48772716531249216	-0.20658831420432927
-0.48766613015624216	-0.18592430725664344
-0.48760509499999216	-0.16479078484532267
-0.48754405984374216	-0.14323775083666937
-0.48748302468749216	-0.12131611654839133
-0.48742198953124216	-0.0990777931746274
-0.48736095437499216	-0.07657555467586123
-0.48729991921874216	-0.05386279258674416
-0.48723888406249216	-0.030993400438553944
-0.48717784890624216	-0.008021479817648742
-0.48711681374999216	0.014998235689433946
-0.48705577859374216	0.03801074916810073
-0.48699474343749216	0.060961860852142606
-0.48693370828124216	0.0837968070516793
-0.48687267312499216	0.10646067163222465
-0.48681163796874216	0.12890012694253647
-0.48675060281249216	0.1510616310543339
-0.48668956765624216	0.17289175820401767
-0.48662853249999216	0.19433891136925455
-0.48656749734374216	0.2153518859718827
-0.48650646218749216	0.23588011110956184
-0.48644542703124216	0.2558748630297289
-0.48638439187499216	0.2752882435570192
-0.48632335671874216	0.2940734572768363
-0.48626232156249216	0.3121859579344029
-0.48620128640624216	0.3295822845503575
-0.48614025124999216	0.3462201960617215
-0.48607921609374216	0.3620602374747252
-0.48601818093749216	0.37706448067218995
-0.48595714578124216	0.3911962604702292
-0.48589611062499216	0.40442187327235146
-0.48583507546874216	0.4167096722964844
-0.48577404031249216	0.4280295685623703
-0.48571300515624216	0.4383543518776047
-0.48565196999999216	0.4476592159718857
-0.48559093484374216	0.45592128702837526
-0.48552989968749216	0.4631205474511257
-0.48546886453124216	0.4692395817358124
-0.48540782937499216	0.4742631490125859
-0.48534679421874216	0.4781788933297131
-0.48528575906249216	0.4809772028024514
-0.48522472390624216	0.4826508135356795
-0.48516368874999216	0.483195288494684
-0.48510265359374216	0.48260900515647986
-0.48504161843749216	0.4808928749729926
-0.48498058328124216	0.4780505315099209
-0.48491954812499216	0.47408834584656995
-0.48485851296874216	0.46901537198007553
-0.48479747781249216	0.46284328372142924
-0.48473644265624216	0.4555863092437734
-0.48467540749999216	0.4472614777643471
-0.48461437234374216	0.4378882607301672
-0.48455333718749216	0.4274884128734077
-0.48449230203124216	0.41608661952446313
-0.48443126687499216	0.4037097475120135
-0.48437023171874216	0.390386614058687
-0.48430919656249216	0.3761489969475119
-0.48424816140624216	0.36103062976973943
-0.48418712624999216	0.34506686543637133
-0.48412609109374216	0.3282957085671584
-0.48406505593749216	0.31075715061642617
-0.48400402078124216	0.2924924414173317
-0.48394298562499216	0.2735447978242034
-0.48388195046874216	0.2539596840317004
-0.48382091531249216	0.23378339136705653
-0.48375988015624216	0.21306352927926678
-0.48369884499999216	0.1918499765547348
-0.48363780984374216	0.17019281938263403
-0.48357677468749216	0.1481434012203609
-0.48351573953124216	0.12575493708433866
-0.48345470437499216	0.10308004594421952
-0.48339366921874216	0.08017279166277946
-0.48333263406249216	0.05708840884402753
-0.48327159890624216	0.03388123579900204
-0.48321056374999216	0.01060679144926065
-0.48314952859374216	-0.012679066840517889
-0.48308849343749216	-0.03592116432092339
-0.48302745828124216	-0.05906395554156546
-0.48296642312499216	-0.08205202629832371
-0.48290538796874216	-0.10483056743961594
-0.48284435281249216	-0.12734529122718888
-0.48278331765624216	-0.14954224176890063
-0.48272228249999216	-0.1713683883814192
-0.48266124734374216	-0.1927718069385624
-0.48260021218749216	-0.21370098963015727
-0.48253917703124216	-0.23410597000616343
-0.48247814187499216	-0.2539383739797507
-0.48241710671874216	-0.27315023263262056
-0.48235607156249216	-0.2916956672195936
-0.48229503640624216	-0.309530752248807
-0.48223400124999216	-0.3266123830300792
-0.48217296609374216	-0.34289975153950125
-0.48211193093749216	-0.3583540916408107
-0.48205089578124216	-0.37293828488494873
-0.48198986062499216	-0.3866174087238142
-0.48192882546874216	-0.3993587469079273
-0.48186779031249216	-0.41113196759577636
-0.48180675515624216	-0.42190876935927113
-0.48174571999999216	-0.4316632998013778
-0.48168468484374216	-0.4403724644534069
-0.48162364968749216	-0.4480153291519677
-0.48156261453124216	-0.4545736281565001
-0.48150157937499216	-0.46003180839236407
-0.48144054421874216	-0.46437677423607965
-0.48137950906249216	-0.4675982741821582
-0.48131847390624216	-0.46968870137944485
-0.48125743874999216	-0.4706431118797534
-0.48119640359374216	-0.4704593854633047
-0.48113536843749216	-0.46913809211123564
-0.48107433328124216	-0.46668255845861834
-0.48101329812499216	-0.46309887560911406
-0.48095226296874216	-0.4583957709316779
-0.48089122781249216	-0.4525847314547011
-0.48083019265624216	-0.4456800197076973
-0.48076915749999216	-0.4376982735169194
-0.48070812234374216	-0.4286589401394559
-0.48064708718749216	-0.41858417738152714
-0.48058605203124216	-0.40749809329119124
-0.48052501687499216	-0.3954277603052447
-0.48046398171874216	-0.38240271763381534
-0.48040294656249216	-0.36845412334389527
-0.48034191140624216	-0.35361600913707336
-0.48028087624999216	-0.3379245727183255
-0.48021984109374216	-0.3214175681990862
-0.48015880593749216	-0.30413514856729157
-0.48009777078124216	-0.28611939136799813
-0.48003673562499216	-0.26741380760075095
-0.47997570046874216	-0.24806382160698778
-0.47991466531249216	-0.22811658974590102
-0.47985363015624216	-0.20762031667894282
-0.47979259499999216	-0.18662474610079727
-0.47973155984374216	-0.16518110882028933
-0.47967052468749216	-0.14334125739830395
-0.47960948953124216	-0.12115822456572048
-0.47954845437499216	-0.09868611857154515
-0.47948741921874216	-0.07597939280031384
-0.47942638406249216	-0.05309322799610152
-0.47936534890624216	-0.03008334225293069
-0.47930431374999216	-0.007005724681566732
-0.47924327859374216	0.01608358659899753
-0.47918224343749216	0.03912839904097492
-0.47912120828124216	0.06207242028245958
-0.47906017312499216	0.08486007463739516
-0.47899913796874216	0.10743568633976981
-0.47893810281249216	0.12974410461964675
-0.47887706765624216	0.1517313965451312
-0.47881603249999216	0.1733434626386875
-0.47875499734374216	0.19452767267584056
-0.47869396218749216	0.2152327623472671
-0.47863292703124216	0.23540751346907346
-0.47857189187499216	0.25500297431044117
-0.47851085671874216	0.2739714579497445
-0.47844982156249216	0.2922660113289661
-0.47838878640624216	0.30984228357918525
-0.47832775124999216	0.3266571881180799
-0.47826671609374216	0.3426692463711496
-0.47820568093749216	0.35783944209463675
-0.47814464578124216	0.37213037682806244
-0.47808361062499216	0.3855069218572462
-0.47802257546874216	0.3979362482372267
-0.47796154031249216	0.40938755033014895
-0.47790050515624216	0.4198326304776358
-0.47783946999999216	0.4292457366144787
-0.47777843484374216	0.4376033618575293
-0.47771739968749216	0.4448847261050848
-0.47765636453124216	0.45107176419219497
-0.47759532937499216	0.4561488565325756
-0.47753429421874216	0.46010310062957194
-0.47747325906249216	0.4629244538023563
-0.47741222390624216	0.46460554710725493
-0.47735118874999216	0.46514171188911285
-0.47729015359374216	0.4645311300837345
-0.47722911843749216	0.46277481328554404
-0.47716808328124216	0.45987648043238655
-0.47710704812499216	0.4558425978229805
-0.47704601296874216	0.45068253453304824
-0.47698497781249216	0.4444083125958618
-0.47692394265624216	0.43703459342005196
-0.47686290749999216	0.4285788823217648
-0.47680187234374216	0.41906121833815807
-0.47674083718749216	0.40850424471714314
-0.47667980203124216	0.39693319532520155
-0.47661876687499216	0.3843756413708391
-0.47655773171874216	0.3708617888255302
-0.47649669656249216	0.3564240412808432
-0.47643566140624216	0.3410969141026914
-0.47637462624999216	0.32491755503652575
-0.47631359109374216	0.30792481191425686
-0.47625255593749216	0.290159418702482
-0.47619152078124216	0.2716645525636809
-0.47613048562499216	0.25248483511396175
-0.47606945046874216	0.2326663739778092
-0.47600841531249216	0.21225720789717448
-0.47594738015624216	0.19130688933547632
-0.47588634499999216	0.16986595870757984
-0.47582530984374216	0.14798628744818493
-0.47576427468749216	0.1257211122520927
-0.47570323953124216	0.10312440381039446
-0.47564220437499216	0.08025090216163733
-0.47558116921874216	0.05715615557125921
-0.47552013406249216	0.0338963719790119
-0.47545909890624216	0.010528088401892875
-0.47539806374999216	-0.012891928249586303
-0.47533702859374216	-0.036306730812217386
-0.47527599343749216	-0.05965920195884347
-0.47521495828124216	-0.08289232248779627
-0.47515392312499216	-0.1059497733837839
-0.47509288796874216	-0.12877525976431559
-0.47503185281249216	-0.15131273090904887
-0.47497081765624216	-0.17350746636388437
-0.47490978249999216	-0.1953053880540442
-0.47484874734374216	-0.21665277320000567
-0.47478771218749216	-0.23749757148441675
-0.47472667703124216	-0.25778906434495436
-0.47466564187499216	-0.2774770273981883
-0.47460460671874216	-0.2965133764668011
-0.47454357156249216	-0.31485174224861373
-0.47448253640624216	-0.33244655961683744
-0.47442150124999216	-0.34925474374485854
-0.47436046609374216	-0.3652351813153296
-0.47429943093749216	-0.38034819804640174
-0.47423839578124216	-0.394556560137722
-0.47417736062499216	-0.40782525542661807
-0.47411632546874216	-0.4201214085875533
-0.47405529031249216	-0.4314145047444551
-0.47399425515624216	-0.4416764238525164
-0.47393321999999216	-0.45088169051847765
-0.47387218484374216	-0.4590073201163668
-0.47381114968749216	-0.46603275302960673
-0.47375011453124216	-0.47194031300147393
-0.47368907937499216	-0.4767150804564035
-0.47362804421874216	-0.4803446665390279
-0.47356700906249216	-0.4828195753416597
-0.47350597390624216	-0.4841331642656604
-0.47344493874999216	-0.48428151870706615
-0.47338390359374216	-0.4832636313062595
-0.47332286843749216	-0.4810812984322908
-0.47326183328124216	-0.4777390911106676
-0.47320079812499216	-0.47324455141631666
-0.47313976296874216	-0.46760796866986115
-0.47307872781249216	-0.46084221311170703
-0.47301769265624216	-0.45296325604835347
-0.47295665749999216	-0.44398971019881717
-0.47289562234374216	-0.43394243604735694
-0.47283458718749216	-0.42284549880761885
-0.47277355203124216	-0.41072540380287687
-0.47271251687499216	-0.397610693663265
-0.47265148171874216	-0.3835328960631075
-0.47259044656249216	-0.36852576644996426
-0.47252941140624216	-0.3526250997045506
-0.47246837624999216	-0.3358691478183111
-0.47240734109374216	-0.31829817361376855
-0.47234630593749216	-0.2999543484074866
-0.47228527078124216	-0.2808818429296549
-0.47222423562499216	-0.2611268380777982
-0.47216320046874216	-0.24073675123002175
-0.47210216531249216	-0.21976055539707273
-0.47204113015624216	-0.19824950019824975
-0.47198009499999216	-0.17625527331097185
-0.47191905984374216	-0.15383070517965305
-0.47185802468749216	-0.13103062149534617
-0.47179698953124216	-0.10791004005345
-0.47173595437499216	-0.08452470796282338
-0.47167491921874216	-0.06093143990337129
-0.47161388406249216	-0.03718764767073396
-0.47155284890624216	-0.013350722189189135
-0.47149181374999216	0.010521701172372265
-0.47143077859374216	0.034371256202106765
-0.47136974343749216	0.05814025695271842
-0.47130870828124216	0.0817710090379471
-0.47124767312499216	0.10520585788628245
-0.47118663796874216	0.12838812074986977
-0.47112560281249216	0.15126116834183104
-0.47106456765624216	0.17376940411419126
-0.47100353249999216	0.1958582760332012
-0.47094249734374216	0.21747357117834543
-0.47088146218749216	0.23856288250166438
-0.47082042703124216	0.2590751204391215
-0.47075939187499216	0.2789597645382416
-0.47069835671874216	0.29816840625702573
-0.47063732156249216	0.3166546408786678
-0.47057628640624216	0.33437305028381514
-0.47051525124999216	0.3512802050012628
-0.47045421609374216	0.3673351474678379
