Time	Frequency
-0.5000004767187534	-0.2969116864373313
-0.49993944156250336	-0.31287180245843205
-0.49987840640625336	-0.32809244000069826
-0.49981737125000336	-0.342539131635233
-0.49975633609375336	-0.35617845123617176
-0.49969530093750336	-0.3689792773922897
-0.49963426578125336	-0.3809128724502208
-0.49957323062500336	-0.39195159668479257
-0.49951219546875336	-0.4020702399691046
-0.49945116031250336	-0.411246179304865
-0.49939012515625336	-0.4194582748313133
-0.49932909000000336	-0.4266877004241607
-0.49926805484375336	-0.43291844283901976
-0.49920701968750336	-0.4381363207969249
-0.49914598453125336	-0.4423293094580463
-0.49908494937500336	-0.4454883107819189
-0.49902391421875336	-0.4476063021245408
-0.49896287906250336	-0.44867849775045376
-0.49890184390625336	-0.44870286183143837
-0.49884080875000336	-0.4476795912293727
-0.49877977359375336	-0.44561130346681427
-0.49871873843750336	-0.442503093470934
-0.49865770328125336	-0.43836236762477354
-0.49859666812500336	-0.4331990873598959
-0.49853563296875336	-0.4270253963654762
-0.49847459781250336	-0.41985576213473524
-0.49841356265625336	-0.41170725312429324
-0.49835252750000336	-0.4025988582318774
-0.49829149234375336	-0.3925518901770781
-0.49823045718750336	-0.3815900021988137
-0.49816942203125336	-0.3697386976791665
-0.49810838687500336	-0.3570258636124152
-0.49804735171875336	-0.34348108170956815
-0.49798631656250336	-0.3291358318197611
-0.49792528140625336	-0.3140241012732495
-0.49786424625000336	-0.2981807835676854
-0.49780321109375336	-0.28164269221021215
-0.49774217593750336	-0.26444911080636235
-0.49768114078125336	-0.2466395731663005
-0.49762010562500336	-0.22825561651721507
-0.49755907046875336	-0.20934082587573025
-0.49749803531250336	-0.18993863088867052
-0.49743700015625336	-0.17009446744111345
-0.49737596500000336	-0.14985514779126793
-0.49731492984375336	-0.12926734955074032
-0.49725389468750336	-0.1083794440214941
-0.49719285953125336	-0.08724027139624516
-0.49713182437500336	-0.06589890113354807
-0.49707078921875336	-0.04440571664084609
-0.49700975406250336	-0.0228105828109511
-0.49694871890625336	-0.0011638941234268856
-0.49688768375000336	0.020483126269713024
-0.49682664859375336	0.04208044494926945
-0.49676561343750336	0.06357742181018312
-0.49670457828125336	0.08492317782578354
-0.49664354312500336	0.10606834680302547
-0.49658250796875336	0.12696325533935438
-0.49652147281250336	0.14755844696860862
-0.49646043765625336	0.16780612805070275
-0.49639940250000336	0.18765868085011211
-0.49633836734375336	0.20706913449892558
-0.49627733218750336	0.2259922776684945
-0.49621629703125336	0.24438341799254068
-0.49615526187500336	0.2621991759428657
-0.49609422671875336	0.2793979023755488
-0.49603319156250336	0.2959386632838307
-0.49597215640625336	0.31178254358877533
-0.49591112125000336	0.3268923778704759
-0.49585008609375336	0.3412320600461893
-0.49578905093750336	0.35476763620983975
-0.49572801578125336	0.36746725087969634
-0.49566698062500336	0.37930060875207666
-0.49560594546875336	0.39023926039744633
-0.49554491031250336	0.4002573816874327
-0.49548387515625336	0.40933101356562296
-0.49542284000000336	0.4174380235069281
-0.49536180484375336	0.42455907084443534
-0.49530076968750336	0.4306768819031848
-0.49523973453125336	0.435776385522518
-0.49517869937500336	0.43984501035153123
-0.49511766421875336	0.4428725159490839
-0.49505662906250336	0.4448511877122562
-0.49499559390625336	0.44577558431359837
-0.49493455875000336	0.44564277473592995
-0.49487352359375336	0.4444523934023229
-0.49481248843750336	0.44220636265890656
-0.49475145328125336	0.43890915519554824
-0.49469041812500336	0.4345677294964651
-0.49462938296875336	0.42919135680992004
-0.49456834781250336	0.4227918322299753
-0.49450731265625336	0.4153833186333931
-0.49444627750000336	0.4069822284212615
-0.49438524234375336	0.3976074643982276
-0.49432420718750336	0.3872801282074419
-0.49426317203125336	0.3760234070162244
-0.49420213687500336	0.3638629222430353
-0.49414110171875336	0.3508263677363313
-0.49408006656250336	0.33694313850351776
-0.49401903140625336	0.32224508125936446
-0.49395799625000336	0.3067659433848871
-0.49389696109375336	0.290540697704088
-0.49383592593750336	0.27360682343603865
-0.49377489078125336	0.25600325142651337
-0.49371385562500336	0.23777002678813225
-0.49365282046875336	0.21894947179748167
-0.49359178531250336	0.19958470072790307
-0.49353075015625336	0.17972014886183363
-0.49346971500000336	0.1594020674815853
-0.49340867984375336	0.1386770182533574
-0.49334764468750336	0.1175927277383765
-0.49328660953125336	0.09619830260651545
-0.49322557437500336	0.07454306674907664
-0.49316453921875336	0.052676949554662116
-0.49310350406250336	0.03065089917316314
-0.49304246890625336	0.00851590300389531
-0.49298143375000336	-0.013676967570263796
-0.49292039859375336	-0.03587589199334539
-0.49285936343750336	-0.05802921764533449
-0.49279832828125336	-0.08008580253246582
-0.49273729312500336	-0.10199429131752516
-0.49267625796875336	-0.12370334146213899
-0.49261522281250336	-0.14516253646656357
-0.49255418765625336	-0.16632210778094603
-0.49249315250000336	-0.18713251997331581
-0.49243211734375336	-0.20754493387087758
-0.49237108218750336	-0.22751183348334386
-0.49231004703125336	-0.2469868549497791
-0.49224901187500336	-0.26592393154801147
-0.49218797671875336	-0.28427857506822096
-0.49212694156250336	-0.30200833968560037
-0.49206590640625336	-0.3190712798073233
-0.49200487125000336	-0.33542691086713905
-0.49194383609375336	-0.35103720162818175
-0.49188280093750336	-0.3658653995407907
-0.49182176578125336	-0.37987603392719604
-0.49176073062500336	-0.3930361934926995
-0.49169969546875336	-0.4053149621621294
-0.49163866031250336	-0.41668271884834546
-0.49157762515625336	-0.4271124950936697
-0.49151659000000336	-0.4365796694008711
-0.49145555484375336	-0.4450611805958151
-0.49139451968750336	-0.4525366765062272
-0.49133348453125336	-0.4589881965447157
-0.49127244937500336	-0.4643997821719545
-0.49121141421875336	-0.4687581637032667
-0.49115037906250336	-0.4720524585161236
-0.49108934390625336	-0.4742741036963951
-0.49102830875000336	-0.47541715627511366
-0.49096727359375336	-0.4754781506602843
-0.49090623843750336	-0.47445606946697705
-0.49084520328125336	-0.47235243964684726
-0.49078416812500336	-0.46917127796775504
-0.49072313296875336	-0.46491913110076777
-0.49066209781250336	-0.4596050465289335
-0.49060106265625336	-0.4532404280139772
-0.49054002750000336	-0.4458391947253095
-0.49047899234375336	-0.4374177900697185
-0.49041795718750336	-0.4279948444682619
-0.49035692203125336	-0.41759127025832726
-0.49029588687500336	-0.4062305635515449
-0.49023485171875336	-0.39393829538917574
-0.49017381656250336	-0.3807419555292314
-0.49011278140625336	-0.36667150066865123
-0.49005174625000336	-0.3517589295156676
-0.48999071109375336	-0.336037890063757
-0.48992967593750336	-0.31954407684016145
-0.48986864078125336	-0.30231523606864463
-0.48980760562500336	-0.28439054219149024
-0.48974657046875336	-0.26581063783465136
-0.48968553531250336	-0.2466182660756824
-0.48962450015625336	-0.22685734570109545
-0.48956346500000336	-0.20657264806574305
-0.48950242984375336	-0.18581085798692573
-0.48944139468750336	-0.16461983138248787
-0.48938035953125336	-0.14304768268155676
-0.48931932437500336	-0.12114389394497863
-0.48925828921875336	-0.09895928552296143
-0.48919725406250336	-0.07654427768567408
-0.48913621890625336	-0.05395030826653869
-0.48907518375000336	-0.031229905429676203
-0.48901414859375336	-0.008434713024847853
-0.48895311343750336	0.014382663340771052
-0.48889207828125336	0.037169373815879946
-0.48883104312500336	0.05987347659382838
-0.48877000796875336	0.08244242029822109
-0.48870897281250336	0.10482406692968108
-0.48864793765625336	0.1269671368445142
-0.48858690250000336	0.14882048116746197
-0.48852586734375336	0.17033356275322123
-0.48846483218750336	0.19145694177653932
-0.48840379703125336	0.21214199999103073
-0.48834276187500336	0.2323407353357572
-0.48828172671875336	0.2520065220776007
-0.48822069156250336	0.2710944293914498
-0.48815965640625336	0.289560101224225
-0.48809862125000336	0.3073606006819189
-0.48803758609375336	0.32445546765973166
-0.48797655093750336	0.34080497377270447
-0.48791551578125336	0.3563710967641074
-0.48785448062500336	0.3711184165529527
-0.48779344546875336	0.38501262707068556
-0.48773241031250336	0.39802161076299697
-0.48767137515625336	0.41011558855766417
-0.48761034000000336	0.4212665016608969
-0.48754930484375336	0.43144874693933477
-0.48748826968750336	0.4406388682060542
-0.48742723453125336	0.4488156487272928
-0.48736619937500336	0.45596043551475146
-0.48730516421875336	0.4620567712568806
-0.48724412906250336	0.46709065572179137
-0.48718309390625336	0.4710507093614308
-0.48712205875000336	0.473927918145797
-0.48706102359375336	0.47571580071834374
-0.48699998843750336	0.4764104592144435
-0.48693895328125336	0.4760105293003328
-0.48687791812500336	0.4745171946600587
-0.48681688296875336	0.471934146288718
-0.48675584781250336	0.46826770659485234
-0.48669481265625336	0.4635266569650576
-0.48663377750000336	0.45772227470153465
-0.48657274234375336	0.45086841838412267
-0.48651170718750336	0.44298124986187826
-0.48645067203125336	0.4340795085902723
-0.48638963687500336	0.4241842025130732
-0.48632860171875336	0.41331853927334933
-0.48626756656250336	0.40150841963682976
-0.48620653140625336	0.3887815419901187
-0.48614549625000336	0.37516767209009
-0.48608446109375336	0.36069921988821696
-0.48602342593750336	0.34541010752295387
-0.48596239078125336	0.3293361518791864
-0.48590135562500336	0.3125154772828347
-0.48584032046875336	0.2949873843724089
-0.48577928531250336	0.27679312552167246
-0.48571825015625336	0.25797587986765547
-0.48565721500000336	0.23857935222585622
-0.48559617984375336	0.2186493161952805
-0.48553514468750336	0.19823313216522576
-0.48547410953125336	0.1773781343647498
-0.48541307437500336	0.15613357977386025
-0.48535203921875336	0.13454986006036865
-0.48529100406250336	0.11267709556216313
-0.48522996890625336	0.09056709262232397
-0.48516893375000336	0.06827206130598945
-0.48510789859375336	0.04584375280190823
-0.48504686343750336	0.023335626720632358
-0.48498582828125336	0.0008006373782701959
-0.48492479312500336	-0.02170901278689141
-0.48486375796875336	-0.04413945661844669
-0.48480272281250336	-0.0664379906085289
-0.48474168765625336	-0.08855288243621412
-0.48468065250000336	-0.11043130378957473
-0.48461961734375336	-0.13202183810467844
-0.48455858218750336	-0.15327417776345598
-0.48449754703125336	-0.17413777238679856
-0.48443651187500336	-0.19456347406158347
-0.48437547671875336	-0.21450361495744422
-0.48431444156250336	-0.23391094773562135
-0.48425340640625336	-0.25273953255994536
-0.48419237125000336	-0.27094543909172614
-0.48413133609375336	-0.28848560538313345
-0.48407030093750336	-0.30531852687356686
-0.48400926578125336	-0.3214048418488867
-0.48394823062500336	-0.33670637246675833
-0.48388719546875336	-0.3511871377112996
-0.48382616031250336	-0.3648131637840815
-0.48376512515625336	-0.3775520097084344
-0.48370409000000336	-0.38937387926473094
-0.48364305484375336	-0.40025093242014853
-0.48358201968750336	-0.4101572552471973
-0.48352098453125336	-0.41906974462701946
-0.48345994937500336	-0.4269673594210583
-0.48339891421875336	-0.43383130133876635
-0.48333787906250336	-0.43964559286615595
-0.48327684390625336	-0.44439645893508706
-0.48321580875000336	-0.4480726382429291
-0.48315477359375336	-0.4506656269843783
-0.48309373843750336	-0.45216923646028734
-0.48303270328125336	-0.45257994015320396
-0.48297166812500336	-0.4518968951615116
-0.48291063296875336	-0.4501217046680142
-0.48284959781250336	-0.44725862862263227
-0.48278856265625336	-0.44331448396404743
-0.48272752750000336	-0.43829866250889044
-0.48266649234375336	-0.43222314642933835
-0.48260545718750336	-0.4251022514711734
-0.48254442203125336	-0.41695297973059303
-0.48248338687500336	-0.4077947882622342
-0.48242235171875336	-0.3976491992171455
-0.48236131656250336	-0.386540500612997
-0.48230028140625336	-0.37449514024102487
-0.48223924625000336	-0.361541455768983
-0.48217821109375336	-0.3477105946872609
-0.48211717593750336	-0.33303528008143457
-0.48205614078125336	-0.3175501260440348
-0.48199510562500336	-0.30129257964896133
-0.48193407046875336	-0.2843008971155105
-0.48187303531250336	-0.26661519572745385
-0.48181200015625336	-0.24827836493611413
-0.48175096500000336	-0.2293336206661625
-0.48168992984375336	-0.20982568140299274
-0.48162889468750336	-0.189801750404341
-0.48156785953125336	-0.16930921765479212
-0.48150682437500336	-0.14839658545375853
-0.48144578921875336	-0.12711431070718154
-0.48138475406250336	-0.10551283814062153
-0.48132371890625336	-0.08364347043465202
-0.48126268375000336	-0.06155889976581853
-0.48120164859375336	-0.039311619894386286
-0.48114061343750336	-0.016954580800258433
-0.48107957828125336	0.0054585325919216734
-0.48101854312500336	0.02787421254827026
-0.48095750796875336	0.05023879846964601
-0.48089647281250336	0.0724988889167188
-0.48083543765625336	0.09460129146738927
-0.48077440250000336	0.11649262545691019
-0.48071336734375336	0.13812069287495546
-0.48065233218750336	0.15943392777009147
-0.48059129703125336	0.1803806241456539
-0.48053026187500336	0.2009106142404243
-0.48046922671875336	0.22097491005159806
-0.48040819156250336	0.24052483611420108
-0.48034715640625336	0.2595134520908809
-0.48028612125000336	0.27789512672470473
-0.48022508609375336	0.2956252398102269
-0.48016405093750336	0.3126612418058879
-0.48010301578125336	0.3289618220706802
-0.48004198062500336	0.34448738896771575
-0.47998094546875336	0.35920052991696166
-0.47991991031250336	0.3730652809554117
-0.47985887515625336	0.3860479439632888
-0.47979784000000336	0.39811695563286675
-0.47973680484375336	0.4092426131353
-0.47967576968750336	0.41939769297198065
-0.47961473453125336	0.42855722306599825
-0.47955369937500336	0.4366984588622351
-0.47949266421875336	0.4438011578753821
-0.47943162906250336	0.44984752761502916
-0.47937059390625336	0.45482225893129963
-0.47930955875000336	0.45871256542431105
-0.47924852359375336	0.46150821780503226
-0.47918748843750336	0.46320163711985335
-0.47912645328125336	0.46378782161222976
-0.47906541812500336	0.4632643538374824
-0.47900438296875336	0.4616315170658851
-0.47894334781250336	0.45889222951194303
-0.47888231265625336	0.4550519539786632
-0.47882127750000336	0.45011883432042443
-0.47876024234375336	0.44410371404532273
-0.47869920718750336	0.43701976630452244
-0.47863817203125336	0.4288828218697815
-0.47857713687500336	0.41971151836428333
-0.47851610171875336	0.40952643950414036
-0.47845506656250336	0.3983507442798313
-0.47839403140625336	0.38621047200810654
-0.47833299625000336	0.3731332524055977
-0.47827196109375336	0.3591490976696253
-0.47821092593750336	0.34429082450327014
-0.47814989078125336	0.32859257542451803
-0.47808885562500336	0.3120906402572094
-0.47802782046875336	0.2948238515675213
-0.47796678531250336	0.27683213579242943
-0.47790575015625336	0.25815742006299824
-0.47784471500000336	0.2388436293258085
-0.47778367984375336	0.21893558222486362
-0.47772264468750336	0.1984801452163156
-0.47766160953125336	0.17752524265397876
-0.47760057437500336	0.15611967253763387
-0.47753953921875336	0.13431431244705827
-0.47747850406250336	0.1121599814555573
-0.47741746890625336	0.08970861299079028
-0.47735643375000336	0.06701368564123887
-0.47729539859375336	0.04412808654718025
-0.47723436343750336	0.021105836017951563
-0.47717332828125336	-0.0019984337922440963
-0.47711229312500336	-0.025130445611320416
-0.47705125796875336	-0.04823567900832574
-0.47699022281250336	-0.07125936456193976
-0.47692918765625336	-0.09414680740874694
-0.47686815250000336	-0.11684432441645176
-0.47680711734375336	-0.13929801686971272
-0.47674608218750336	-0.1614543782474192
-0.47668504703125336	-0.18326126594162115
-0.47662401187500336	-0.20466673262864804
-0.47656297671875336	-0.225619993234041
-0.47650194156250336	-0.24607136529870363
-0.47644090640625336	-0.26597199228568497
-0.47637987125000336	-0.2852747520080916
-0.47631883609375336	-0.3039336706435701
-0.47625780093750336	-0.3219040914770908
-0.47619676578125336	-0.33914328729003357
-0.47613573062500336	-0.35561018374574277
-0.47607469546875336	-0.3712652944068365
-0.47601366031250336	-0.3860711328241992
-0.47595262515625336	-0.39999243968677084
-0.47589159000000336	-0.4129956679270826
-0.47583055484375336	-0.42504952377129607
-0.47576951968750336	-0.4361252681258808
-0.47570848453125336	-0.4461959903594989
-0.47564744937500336	-0.4552373131957534
-0.47558641421875336	-0.46322752353567137
-0.47552537906250336	-0.47014708825065066
-0.47546434390625336	-0.4759790591819814
-0.47540330875000336	-0.4807091392230937
-0.47534227359375336	-0.4843256194719011
-0.47528123843750336	-0.4868193827275865
-0.47522020328125336	-0.4881839233808231
-0.47515916812500336	-0.4884155154890516
-0.47509813296875336	-0.4875130912074554
-0.47503709781250336	-0.48547816958299755
-0.47497606265625336	-0.48231505087732096
-0.47491502750000336	-0.47803072870592606
-0.47485399234375336	-0.4726347691106469
-0.47479295718750336	-0.4661393789863817
-0.47473192203125336	-0.45855950378620425
-0.47467088687500336	-0.4499125855528459
-0.47460985171875336	-0.44021847037248835
-0.47454881656250336	-0.42949969624365325
-0.47448778140625336	-0.4177812469661877
-0.47442674625000336	-0.4050903067910626
-0.47436571109375336	-0.3914564112396224
-0.47430467593750336	-0.3769115615261424
-0.47424364078125336	-0.3614897323291978
-0.47418260562500336	-0.3452268867681141
-0.47412157046875336	-0.32816135118518347
-0.47406053531250336	-0.3103331226740693
-0.47399950015625336	-0.2917838898218298
-0.47393846500000336	-0.2725573852471114
-0.47387742984375336	-0.2526989144600901
-0.47381639468750336	-0.23225505156200416
-0.47375535953125336	-0.21127382011228227
-0.47369432437500336	-0.18980491107421146
-0.47363328921875336	-0.1678989184369341
-0.47357225406250336	-0.14560710119857684
-0.47351121890625336	-0.12298240418810139
-0.47345018375000336	-0.10007840426324292
-0.47338914859375336	-0.07694851297490536
-0.47332811343750336	-0.053647732543988594
-0.47326707828125336	-0.030231567454244712
-0.47320604312500336	-0.006754505987608278
-0.47314500796875336	0.016727740423911678
-0.47308397281250336	0.040158961971431636
-0.47302293765625336	0.06348448757267831
-0.47296190250000336	0.08664917767711337
-0.47290086734375336	0.10959763604574643
-0.47283983218750336	0.1322758662851501
-0.47277879703125336	0.15463034795874225
-0.47271776187500336	0.17660799266296176
-0.47265672671875336	0.19815672645559326
-0.47259569156250336	0.21922550848319589
-0.47253465640625336	0.23976453478092324
-0.47247362125000336	0.25972520538727684
-0.47241258609375336	0.27906006369339403
-0.47235155093750336	0.2977233670128047
-0.47229051578125336	0.31567106377277326
-0.47222948062500336	0.3328603718041666
-0.47216844546875336	0.34925072346501024
-0.47210741031250336	0.3648034740010101
-0.47204637515625336	0.3794814051694756
-0.47198534000000336	0.39324997619985086
-0.47192430484375336	0.40607677149221494
-0.47186326968750336	0.41793112998089127
-0.47180223453125336	0.42878514781380034
-0.47174119937500336	0.4386133017423573
-0.47168016421875336	0.4473922021256535
-0.47161912906250336	0.45510118060223964
-0.47155809390625336	0.4617222301985923
-0.47149705875000336	0.46723966278629914
-0.47143602359375336	0.4716405170242317
-0.47137498843750336	0.47491469276911985
-0.47131395328125336	0.4770545488742716
-0.47125291812500336	0.4780551841623717
-0.47119188296875336	0.47791455983222825
-0.47113084781250336	0.4766332405865336
-0.47106981265625336	0.47421453010687403
-0.47100877750000336	0.4706645488855271
-0.47094774234375336	0.4659920173241832
-0.47088670718750336	0.4602083463468548
-0.47082567203125336	0.4533277502585806
-0.47076463687500336	0.4453669198794121
-0.47070360171875336	0.4363451728978434
-0.47064256656250336	0.42628439091961173
-0.47058153140625336	0.415208951406029
-0.47052049625000336	0.4031457861367369
-0.47045946109375336	0.39012387479515764
-0.47039842593750336	0.3761747372848276
