Time	Frequency
-0.5000430953437558	-0.28475012604507477
-0.4999820601875058	-0.2944658481188336
-0.4999210250312558	-0.3037113075517097
-0.4998599898750058	-0.31247237351636986
-0.4997989547187558	-0.3207348134923009
-0.4997379195625058	-0.32848517207054106
-0.4996768844062558	-0.3357115629768562
-0.4996158492500058	-0.34240220338491045
-0.4995548140937558	-0.34854618108889973
-0.4994937789375058	-0.3541339647831693
-0.4994327437812558	-0.3591563900244412
-0.4993717086250058	-0.3636052406945175
-0.4993106734687558	-0.3674735137203227
-0.4992496383125058	-0.3707547830810294
-0.4991886031562558	-0.3734436199128904
-0.4991275680000058	-0.37553567891809936
-0.4990665328437558	-0.3770273737434128
-0.4990054976875058	-0.37791611567348876
-0.4989444625312558	-0.37820031118067954
-0.4988834273750058	-0.3778792505544374
-0.4988223922187558	-0.3769532183420678
-0.4987613570625058	-0.3754234329006642
-0.4987003219062558	-0.37329204351168355
-0.4986392867500058	-0.37056221066446876
-0.4985782515937558	-0.36723797869835634
-0.4985172164375058	-0.363324298206578
-0.4984561812812558	-0.3588271797485926
-0.4983951461250058	-0.35375344083563887
-0.4983341109687558	-0.34811076814712777
-0.4982730758125058	-0.34190794814509945
-0.4982120406562558	-0.3351544432754604
-0.4981510055000058	-0.32786063003554555
-0.4980899703437558	-0.3200379134645324
-0.4980289351875058	-0.3116982713118166
-0.4979679000312558	-0.30285464261862766
-0.4979068648750058	-0.2935208685936172
-0.4978458297187558	-0.2837113367269808
-0.4977847945625058	-0.2734412867664867
-0.4977237594062558	-0.2627268510699924
-0.4976627242500058	-0.25158465755114723
-0.4976016890937558	-0.2400319607740851
-0.4975406539375058	-0.22808699628692522
-0.4974796187812558	-0.21576843111415864
-0.4974185836250058	-0.2030952782508383
-0.4973575484687558	-0.19008755793548007
-0.4972965133125058	-0.17676578223112416
-0.4972354781562558	-0.16315047945240907
-0.4971744430000058	-0.1492631346820363
-0.4971134078437558	-0.135125772362896
-0.4970523726875058	-0.12076019921932103
-0.4969913375312558	-0.10618912760196318
-0.4969303023750058	-0.09143565977589553
-0.4968692672187558	-0.07652266099752525
-0.4968082320625058	-0.06147371179430341
-0.4967471969062558	-0.046312663151157465
-0.4966861617500058	-0.031063174874849334
-0.4966251265937558	-0.01574929815899374
-0.4965640914375058	-0.00039533440505168675
-0.4965030562812558	0.014974656314036874
-0.4964420211250058	0.03033637153032857
-0.4963809859687558	0.04566550090997042
-0.4963199508125058	0.06093793935604783
-0.4962589156562558	0.07612940177034573
-0.4961978805000058	0.09121594231932309
-0.4961368453437558	0.10617370421266821
-0.4960758101875058	0.12097893420426883
-0.4960147750312558	0.1356082178903345
-0.4959537398750058	0.15003828856665702
-0.4958927047187558	0.16424634190175166
-0.4958316695625058	0.17820980020656155
-0.4957706344062558	0.1919063827333489
-0.4957095992500058	0.20531438727285423
-0.4956485640937558	0.21841249371071153
-0.4955875289375058	0.23117979926815896
-0.4955264937812558	0.2435959234275403
-0.4954654586250058	0.2556410909466076
-0.4954044234687558	0.26729609762364753
-0.4953433883125058	0.27854223762307684
-0.4952823531562558	0.2893615102616468
-0.4952213180000058	0.2997366293755309
-0.4951602828437558	0.3096509038111359
-0.4950992476875058	0.31908840609508093
-0.4950382125312558	0.3280339258326586
-0.4949771773750058	0.33647304128978217
-0.4949161422187558	0.3443921432642892
-0.4948551070625058	0.3517783419697884
-0.4947940719062558	0.3586197093067178
-0.4947330367500058	0.3649050423406184
-0.4946720015937558	0.370624033041008
-0.4946109664375058	0.37576744842131093
-0.4945499312812558	0.3803266235948713
-0.4944888961250058	0.38429397914934366
-0.4944278609687558	0.3876630598094231
-0.4943668258125058	0.3904279687461651
-0.4943057906562558	0.3925839476661125
-0.4942447555000058	0.3941273267362012
-0.4941837203437558	0.3950551372933847
-0.4941226851875058	0.3953655211017148
-0.4940616500312558	0.39505762366872943
-0.4940006148750058	0.3941314524426224
-0.4939395797187558	0.392588081899019
-0.4938785445625058	0.3904295116544975
-0.4938175094062558	0.38765870615272496
-0.4937564742500058	0.38427965192105934
-0.4936954390937558	0.3802972209907576
-0.4936344039375058	0.3757172674648446
-0.4935733687812558	0.3705466225380329
-0.4935123336250058	0.3647930116257392
-0.4934512984687558	0.3584650784815277
-0.4933902633125058	0.3515723814856027
-0.4933292281562558	0.3441254227130445
-0.4932681930000058	0.33613553739048013
-0.4932071578437558	0.32761484124920526
-0.4931461226875058	0.31857645743825036
-0.4930850875312558	0.3090342999276881
-0.4930240523750058	0.29900288695683414
-0.4929630172187558	0.2884977181636405
-0.4929019820625058	0.277535090160266
-0.4928409469062558	0.2661318158941005
-0.4927799117500058	0.2543054987081979
-0.4927188765937558	0.24207454223050234
-0.4926578414375058	0.22945785550185482
-0.4925968062812558	0.21647496010113057
-0.4925357711250058	0.20314606816332895
-0.4924747359687558	0.18949184197348798
-0.4924137008125058	0.1755335197291788
-0.4923526656562558	0.16129287597804443
-0.4922916305000058	0.1467920315385022
-0.4922305953437558	0.13205350785477202
-0.4921695601875058	0.11710042482777377
-0.4921085250312558	0.10195615835981359
-0.4920474898750058	0.08664404192298969
-0.4919864547187558	0.07118824508920585
-0.4919254195625058	0.05561308388735691
-0.4918643844062558	0.03994242591549711
-0.4918033492500058	0.02420110155373903
-0.4917423140937558	0.00841395017561983
-0.4916812789375058	-0.007394806756962814
-0.4916202437812558	-0.02320012568839562
-0.4915592086250058	-0.03897705866323703
-0.4914981734687558	-0.0547012219571773
-0.4914371383125058	-0.07034777314600008
-0.4913761031562558	-0.08589208593003497
-0.4913150680000058	-0.10130992373226853
-0.4912540328437558	-0.11657694169062405
-0.4911929976875058	-0.1316691471672048
-0.4911319625312558	-0.14656294865249905
-0.4910709273750058	-0.16123483079465872
-0.4910098922187558	-0.17566160345050894
-0.4909488570625058	-0.18982075804800497
-0.4908878219062558	-0.2036900022813435
-0.4908267867500058	-0.2172472598543227
-0.4907657515937558	-0.23047134938414196
-0.4907047164375058	-0.2433415279476001
-0.4906436812812558	-0.25583725605665736
-0.4905826461250058	-0.2679388840334505
-0.4905216109687558	-0.279627549054607
-0.4904605758125058	-0.29088452680189936
-0.4903995406562558	-0.3016920095789903
-0.4903385055000058	-0.3120332826123985
-0.4902774703437558	-0.3218916253586625
-0.4902164351875058	-0.3312514853479632
-0.4901554000312558	-0.34009838859281855
-0.4900943648750058	-0.3484179060478162
-0.4900333297187558	-0.3561970327372064
-0.4899722945625058	-0.36342363543904993
-0.4899112594062558	-0.3700858766982971
-0.4898502242500058	-0.37617340033581753
-0.4897891890937558	-0.38167667000533284
-0.4897281539375058	-0.38658661803127364
-0.4896671187812558	-0.39089557407049225
-0.4896060836250058	-0.39459683438379045
-0.4895450484687558	-0.3976842430213756
-0.4894840133125058	-0.40015289921465136
-0.4894229781562558	-0.401999003190881
-0.4893619430000058	-0.4032194233140146
-0.4893009078437558	-0.40381214885267436
-0.4892398726875058	-0.4037762867607031
-0.4891788375312558	-0.4031117734990468
-0.4891178023750058	-0.40181955544737336
-0.4890567672187558	-0.3999016590858496
-0.4889957320625058	-0.3973610728776281
-0.4889346969062558	-0.3942016912845536
-0.4888736617500058	-0.39042846580873125
-0.4888126265937558	-0.3860473667058748
-0.4887515914375058	-0.38106519161903185
-0.4886905562812558	-0.37548976939532835
-0.4886295211250058	-0.369329937400181
-0.4885684859687558	-0.36259534093193385
-0.4885074508125058	-0.3552965547523028
-0.4884464156562558	-0.347445134764466
-0.4883853805000058	-0.3390535148111494
-0.4883243453437558	-0.3301348219372366
-0.4882633101875058	-0.32070312874422646
-0.4882022750312558	-0.31077354656590145
-0.4881412398750058	-0.3003615718504611
-0.4880802047187558	-0.2894835711528405
-0.4880191695625058	-0.27815708604638734
-0.4879581344062558	-0.26639982094343057
-0.4878970992500058	-0.25423022060257205
-0.4878360640937558	-0.24166792473255472
-0.4877750289375058	-0.22873266072734605
-0.4877139937812558	-0.2154447031629301
-0.4876529586250058	-0.201825463616171
-0.4875919234687558	-0.1878964083195821
-0.4875308883125058	-0.17367941468362605
-0.4874698531562558	-0.15919733843573777
-0.4874088180000058	-0.14447301818733735
-0.4873477828437558	-0.12952970982948495
-0.4872867476875058	-0.11439134929916543
-0.4872257125312558	-0.09908181418284726
-0.4871646773750058	-0.08362541071665358
-0.4871036422187558	-0.06804684885646077
-0.4870426070625058	-0.05237068525792595
-0.4869815719062558	-0.03662183401113877
-0.4869205367500058	-0.020825628627868062
-0.4868595015937558	-0.005006819500515164
-0.4867984664375058	0.010809520732842557
-0.4867374312812558	0.026597552700390593
-0.4866763961250058	0.04233283448906474
-0.4866153609687558	0.05799051917985733
-0.4865543258125058	0.07354463937462521
-0.4864932906562558	0.08897128729448077
-0.4864322555000058	0.10424613340099637
-0.4863712203437558	0.1193438707204904
-0.4863101851875058	0.13424113587760006
-0.4862491500312558	0.1489143011125132
-0.4861881148750058	0.16333947231746965
-0.4861270797187558	0.1774940340567601
-0.4860660445625058	0.19135533942872368
-0.4860050094062558	0.20490117598418817
-0.4859439742500058	0.21811013006812108
-0.4858829390937558	0.23096098797534056
-0.4858219039375058	0.2434332248193608
-0.4857608687812558	0.25550711194860254
-0.4856998336250058	0.2671632404013898
-0.4856387984687558	0.2783829154904736
-0.4855777633125058	0.28914850133818076
-0.4855167281562558	0.2994426132414064
-0.4854556930000058	0.30924867168826436
-0.4853946578437558	0.31855136423847064
-0.4853336226875058	0.3273356240199427
-0.4852725875312558	0.3355872705246283
-0.4852115523750058	0.34329338494312334
-0.4851505172187558	0.3504415597792246
-0.4850894820625058	0.35702022954248386
-0.4850284469062558	0.36301899850102637
-0.4849674117500058	0.36842830286193645
-0.4849063765937558	0.3732393723921181
-0.4848453414375058	0.37744456329030485
-0.4847843062812558	0.3810371748859346
-0.4847232711250058	0.384011390967878
-0.4846622359687558	0.3863625105069463
-0.4846012008125058	0.38808673642995095
-0.4845401656562558	0.38918128129592566
-0.4844791305000058	0.38964446348885096
-0.4844180953437558	0.3894754971224693
-0.4843570601875058	0.38867463146235876
-0.4842960250312558	0.3872432079092718
-0.4842349898750058	0.3851834999685564
-0.4841739547187558	0.3824987957228321
-0.4841129195625058	0.37919343591575067
-0.4840518844062558	0.3752727145970008
-0.4839908492500058	0.3707429280958639
-0.4839298140937558	0.36561135139303325
-0.4838687789375058	0.3598862350587515
-0.4838077437812558	0.3535767901178641
-0.4837467086250058	0.34669311957911075
-0.4836856734687558	0.3392463316720603
-0.4836246383125058	0.3312484019966079
-0.4835636031562558	0.32271213383832015
-0.4835025680000058	0.3136513528646091
-0.4834415328437558	0.3040805820383744
-0.4833804976875058	0.29401518524741005
-0.4833194625312558	0.2834715042284997
-0.4832584273750058	0.2724663832838201
-0.4831973922187558	0.2610175751607452
-0.4831363570625058	0.2491436130631672
-0.4830753219062558	0.23686352046901785
-0.4830142867500058	0.22419715670785084
-0.4829532515937558	0.21116494538376973
-0.4828922164375058	0.1977878890780887
-0.4828311812812558	0.18408753764633892
-0.4827701461250058	0.17008607033432396
-0.4827091109687558	0.15580611294424992
-0.4826480758125058	0.14127055856602241
-0.4825870406562558	0.12650302249762757
-0.4825260055000058	0.11152741504824631
-0.4824649703437558	0.0963678257829948
-0.4824039351875058	0.0810487454228595
-0.4823429000312558	0.06559505529972733
-0.4822818648750058	0.05003176873931228
-0.4822208297187558	0.03438393993830233
-0.4821597945625058	0.01867698324659014
-0.4820987594062558	0.002936359924108397
-0.4820377242500058	-0.012812423113725414
-0.4819766890937558	-0.028543887674389996
-0.4819156539375058	-0.0442325547249547
-0.4818546187812558	-0.05985282506441793
-0.4817935836250058	-0.07537947498922463
-0.4817325484687558	-0.09078733236489868
-0.4816715133125058	-0.1060511689578302
-0.4816104781562558	-0.12114636671825127
-0.4815494430000058	-0.13604840203948465
-0.4814884078437558	-0.1507327410901333
-0.4814273726875058	-0.16517582245481818
-0.4813663375312558	-0.17935405795373452
-0.4813053023750058	-0.1932439845410764
-0.4812442672187558	-0.20682345181489517
-0.4811832320625058	-0.22007011038761212
-0.4811221969062558	-0.2329620041084081
-0.4810611617500058	-0.24547854295849925
-0.4810001265937558	-0.2575991121321685
-0.4809390914375058	-0.26930357551970835
-0.4808780562812558	-0.2805730503668713
-0.4808170211250058	-0.29138908583214546
-0.4807559859687558	-0.3017336210204523
-0.4806949508125058	-0.3115898338217166
-0.4806339156562558	-0.3209415862103353
-0.4805728805000058	-0.32977316237568016
-0.4805118453437558	-0.3380701764973024
-0.4804508101875058	-0.34581894160519017
-0.4803897750312558	-0.3530063430571871
-0.4803287398750058	-0.3596206062106108
-0.4802677047187558	-0.3656507480734302
-0.4802066695625058	-0.37108646109633114
-0.4801456344062558	-0.3759186816904181
-0.4800845992500058	-0.38013935978502167
-0.4800235640937558	-0.38374113906414775
-0.4799625289375058	-0.3867178013624102
-0.4799014937812558	-0.38906431099836336
-0.4798404586250058	-0.39077640114855655
-0.4797794234687558	-0.3918508556739595
-0.4797183883125058	-0.39228564520397524
-0.4796573531562558	-0.39207966240286696
-0.4795963180000058	-0.3912327945625172
-0.4795352828437558	-0.3897460457517634
-0.4794742476875058	-0.3876214575997689
-0.4794132125312558	-0.3848620376448826
-0.4793521773750058	-0.38147183067869683
-0.4792911422187558	-0.3774559948311527
-0.4792301070625058	-0.3728206125578779
-0.4791690719062558	-0.36757271570074923
-0.4791080367500058	-0.36172052886161493
-0.4790470015937558	-0.35527310170739984
-0.4789859664375058	-0.34824036344009984
-0.4789249312812558	-0.3406334937002704
-0.4788638961250058	-0.33246439772074443
-0.4788028609687558	-0.3237457490397799
-0.4787418258125058	-0.31449148800646853
-0.4786807906562558	-0.30471626827887266
-0.4786197555000058	-0.2944353321524479
-0.4785587203437558	-0.283665131115334
-0.4784976851875058	-0.2724228402396102
-0.4784366500312558	-0.26072614710120584
-0.4783756148750058	-0.2485937520455346
-0.4783145797187558	-0.23604502720119305
-0.4782535445625058	-0.2230999239456717
-0.4781925094062558	-0.20977911458787118
-0.4781314742500058	-0.19610389672156867
-0.4780704390937558	-0.182096183498087
-0.4780094039375058	-0.16777829381065396
-0.4779483687812558	-0.15317321440564596
-0.4778873336250058	-0.13830446922994577
-0.4778262984687558	-0.12319567520238532
-0.4777652633125058	-0.10787123070215694
-0.4777042281562558	-0.09235587808233983
-0.4776431930000058	-0.0766742244785768
-0.4775821578437558	-0.06085173284858351
-0.4775211226875058	-0.044913965993327976
-0.4774600875312558	-0.02888625470746859
-0.4773990523750058	-0.012794645370127417
-0.4773380172187558	0.003334845369444861
-0.4772769820625058	0.01947636633929545
-0.4772159469062558	0.03560382044126497
-0.4771549117500058	0.05169115521199434
-0.4770938765937558	0.06771223144805277
-0.4770328414375058	0.083641297209428
-0.4769718062812558	0.09945272195454147
-0.4769107711250058	0.11512051182387249
-0.4768497359687558	0.13061948982149554
-0.4767887008125058	0.14592478608878676
-0.4767276656562558	0.16101111786037767
-0.4766666305000058	0.17585421140066795
-0.4766055953437558	0.19043017936869333
-0.4765445601875058	0.2047148765625632
-0.4764835250312558	0.21868539101634407
-0.4764224898750058	0.23231909052632038
-0.4763614547187558	0.24559329396355686
-0.4763004195625058	0.2584867958653097
-0.4762393844062558	0.2709785973845314
-0.4761783492500058	0.2830478264237522
-0.4761173140937558	0.29467517619651856
-0.4760562789375058	0.30584169192398103
-0.4759952437812558	0.3165286465502321
-0.4759342086250058	0.32671883449180844
-0.4758731734687558	0.33639562390334654
-0.4758121383125058	0.3455427635010187
-0.4757511031562558	0.354145417372118
-0.4756900680000058	0.3621894238683948
-0.4756290328437558	0.36966132098106114
-0.4755679976875058	0.3765488749790104
-0.4755069625312558	0.3828405930159091
-0.4754459273750058	0.38852595171728677
-0.4753848922187558	0.39359552466931136
-0.4753238570625058	0.39804076001445104
-0.4752628219062558	0.4018540890531954
-0.4752017867500058	0.4050290755743646
-0.4751407515937558	0.40756028425154267
-0.4750797164375058	0.40944319627137865
-0.4750186812812558	0.4106744600162621
-0.4749576461250058	0.4112517961070351
-0.4748966109687558	0.4111738673458436
-0.4748355758125058	0.4104404671239946
-0.4747745406562558	0.4090524685436426
-0.4747135055000058	0.4070117356447767
-0.4746524703437558	0.4043212545581832
-0.4745914351875058	0.4009850338609267
-0.4745304000312558	0.39700809243546725
-0.4744693648750058	0.392396588565278
-0.4744083297187558	0.38715761601045967
-0.4743472945625058	0.38129927944560854
-0.4742862594062558	0.3748308024431822
-0.4742252242500058	0.3677623043969445
-0.4741641890937558	0.36010484307838014
-0.4741031539375058	0.3518705434758041
-0.4740421187812558	0.34307248078711233
-0.4739810836250058	0.3337244599300269
-0.4739200484687558	0.3238413255154557
-0.4738590133125058	0.31343896250643516
-0.4737979781562558	0.3025336967063491
-0.4737369430000058	0.2911428991944715
-0.4736759078437558	0.2792850094940933
-0.4736148726875058	0.26697866419240224
-0.4735538375312558	0.25424352582671184
-0.4734928023750058	0.24110026785786023
-0.4734317672187558	0.22756962710968956
-0.4733707320625058	0.2136732447710236
-0.4733096969062558	0.19943372594646913
-0.4732486617500058	0.18487364541528553
-0.4731876265937558	0.17001625461014472
-0.4731265914375058	0.15488580217162862
-0.4730655562812558	0.13950635869177902
-0.4730045211250058	0.12390248259998138
-0.4729434859687558	0.10809965898629555
-0.4728824508125058	0.09212308547688931
-0.4728214156562558	0.07599842053936667
-0.4727603805000058	0.059751829769728176
-0.4726993453437558	0.043409370069886107
-0.4726383101875058	0.026997460866102684
-0.4725772750312558	0.010542423865261594
-0.4725162398750058	-0.005929046662619872
-0.4724552047187558	-0.02239025180676363
-0.4723941695625058	-0.03881501063851787
-0.4723331344062558	-0.05517649569641808
-0.4722720992500058	-0.07144813301980796
-0.4722110640937558	-0.08760401633805073
-0.4721500289375058	-0.10361782055020809
-0.4720889937812558	-0.11946351333769771
-0.4720279586250058	-0.13511570531882128
-0.4719669234687558	-0.15054892763622635
-0.4719058883125058	-0.16573816167808678
-0.4718448531562558	-0.18065896042160748
-0.4717838180000058	-0.1952870325459824
-0.4717227828437558	-0.20959864014494142
-0.4716617476875058	-0.22357070640495932
-0.4716007125312558	-0.23718059334074526
-0.4715396773750058	-0.2504060440007455
-0.4714786422187558	-0.26322573292372975
-0.4714176070625058	-0.27561897313006245
-0.4713565719062558	-0.28756541220341963
-0.4712955367500058	-0.2990457758455799
-0.4712345015937558	-0.31004149573704476
-0.4711734664375058	-0.32053458598807805
-0.4711124312812558	-0.3305080213727981
-0.4710513961250058	-0.3399456797753193
-0.4709903609687558	-0.3488321633765864
-0.4709293258125058	-0.35715295002783515
-0.4708682906562558	-0.36489467284609584
-0.4708072555000058	-0.37204462626893736
-0.4707462203437558	-0.37859115057882975
-0.4706851851875058	-0.38452373687574787
-0.4706241500312558	-0.3898325616265664
-0.4705631148750058	-0.3945090634713173
-0.4705020797187558	-0.3985456900565012
-0.4704410445625058	-0.4019357243120266
-0.4703800094062558	-0.40467372810196817
-0.4703189742500058	-0.40675527130349176
-0.4702579390937558	-0.40817689347135444
-0.4701969039375058	-0.4089362992293332
-0.4701358687812558	-0.40903227024583705
-0.4700748336250058	-0.40846464568329843
-0.4700137984687558	-0.4072343331692376
-0.4699527633125058	-0.40534334717353354
-0.4698917281562558	-0.4027948204099466
-0.4698306930000058	-0.39959284997058836
-0.4697696578437558	-0.39574266412928877
-0.4697086226875058	-0.3912506678719222
