Time	Frequency
-0.5000519745624956	-0.3990016714031557
-0.4999909394062456	-0.4045028054870262
-0.4999299042499956	-0.40930604795649145
-0.4998688690937456	-0.4134027432114362
-0.4998078339374956	-0.4167855738608704
-0.4997467987812456	-0.41944822767235923
-0.4996857636249956	-0.42138582185566986
-0.4996247284687456	-0.4225948083121337
-0.4995636933124956	-0.4230727643253946
-0.4995026581562456	-0.42281864497310195
-0.4994416229999956	-0.4218327220876866
-0.4993805878437456	-0.42011651471751327
-0.4993195526874956	-0.4176728361891298
-0.4992585175312456	-0.4145058021729125
-0.4991974823749956	-0.4106208167472424
-0.4991364472187456	-0.40602454563101215
-0.4990754120624956	-0.4007248625307761
-0.4990143769062456	-0.3947309738613404
-0.4989533417499956	-0.38805335359846094
-0.4988923065937456	-0.3807034298523216
-0.4988312714374956	-0.3726941177006081
-0.4987702362812456	-0.36403952348405455
-0.4987092011249956	-0.35475449637889345
-0.4986481659687456	-0.3448553952242149
-0.4985871308124956	-0.3343597130596958
-0.4985260956562456	-0.3232856271162936
-0.4984650604999956	-0.3116525881260755
-0.4984040253437456	-0.29948116327198065
-0.4983429901874956	-0.28679258080071174
-0.4982819550312456	-0.2736092322542989
-0.4982209198749956	-0.2599542985176422
-0.4981598847187456	-0.245851650074031
-0.4980988495624956	-0.23132641457311443
-0.4980378144062456	-0.21640396131532905
-0.4979767792499956	-0.2011105008208779
-0.4979157440937456	-0.18547336803657652
-0.4978547089374956	-0.1695196962912263
-0.4977936737812456	-0.15327784959107038
-0.4977326386249956	-0.13677675065745523
-0.4976716034687456	-0.12004482591598206
-0.4976105683124956	-0.10311235806597129
-0.4975495331562456	-0.08600916810053033
-0.4974884979999956	-0.06876462466968372
-0.4974274628437456	-0.05141048965212381
-0.4973664276874956	-0.03397686448174808
-0.4973053925312456	-0.016493910934388793
-0.4972443573749956	0.001006104538454122
-0.4971833222187456	0.018493027348793538
-0.4971222870624956	0.03593612256257495
-0.4970612519062456	0.05330369169676683
-0.4970002167499956	0.07056557912999857
-0.4969391815937456	0.08769120031804621
-0.4968781464374956	0.10464972683444157
-0.4968171112812456	0.12141156698291677
-0.4967560761249956	0.13794702318176397
-0.4966950409687456	0.15422620408650003
-0.4966340058124956	0.17022087249638646
-0.4965729706562456	0.18590250012553505
-0.4965119354999956	0.2012427738364381
-0.4964509003437456	0.21621521432480972
-0.4963898651874956	0.23079276254337996
-0.4963288300312456	0.2449494145553355
-0.4962677948749956	0.258660646844854
-0.4962067597187456	0.2719014141482213
-0.4961457245624956	0.2846484719535386
-0.4960846894062456	0.2968794562968539
-0.4960236542499956	0.3085720332397945
-0.4959626190937456	0.31970585063923607
-0.4959015839374956	0.3302610738696285
-0.4958405487812456	0.340218707155305
-0.4957795136249956	0.3495613153083094
-0.4957184784687456	0.3582720390947151
-0.4956574433124956	0.36633548376494474
-0.4955964081562456	0.3737374780143687
-0.4955353729999956	0.38046450283753747
-0.4954743378437456	0.38650475706227905
-0.4954133026874956	0.39184765966311075
-0.4953522675312456	0.3964834411262012
-0.4952912323749956	0.40040392396809105
-0.4952301972187456	0.4036022341603278
-0.4951691620624956	0.4060726317377213
-0.4951081269062456	0.40781066039997227
-0.4950470917499956	0.4088132972747767
-0.4949860565937456	0.40907884071283074
-0.4949250214374956	0.4086067060669018
-0.4948639862812456	0.4073978242483736
-0.4948029511249956	0.40545441492276524
-0.4947419159687456	0.40277989017313326
-0.4946808808124956	0.39937910768120716
-0.4946198456562456	0.39525818542199925
-0.4945588104999956	0.3904244515729988
-0.4944977753437456	0.38488658760186706
-0.4944367401874956	0.378654632618808
-0.4943757050312456	0.37173962814735534
-0.4943146698749956	0.364153935854162
-0.4942536347187456	0.3559113944281147
-0.4941925995624956	0.34702660408061625
-0.4941315644062456	0.33751538960642596
-0.4940705292499956	0.32739512715852204
-0.4940094940937456	0.3166838204117285
-0.4939484589374956	0.305400513040207
-0.4938874237812456	0.2935657400298388
-0.4938263886249956	0.28120069020101296
-0.4937653534687456	0.2683273877384433
-0.4937043183124956	0.2549691280050491
-0.4936432831562456	0.24114992266563526
-0.4935822479999956	0.22689441780014807
-0.4935212128437456	0.21222845175576216
-0.4934601776874956	0.19717831065513902
-0.4933991425312456	0.18177089173613825
-0.4933381073749956	0.16603429887167956
-0.4932770722187456	0.1499964234110559
-0.4932160370624956	0.13368626087030755
-0.4931550019062456	0.11713354795378109
-0.4930939667499956	0.10036741090735392
-0.4930329315937456	0.08341848768195745
-0.4929718964374956	0.06631742164643367
-0.4929108612812456	0.04909466822853292
-0.4928498261249956	0.03178150916152753
-0.4927887909687456	0.014409049584199725
-0.4927277558124956	-0.002991104829808628
-0.4926667206562456	-0.020387841286847418
-0.4926056854999956	-0.037749858393454856
-0.4925446503437456	-0.05504516965446141
-0.4924836151874956	-0.07224314324426336
-0.4924225800312456	-0.08931268339674735
-0.4923615448749956	-0.10622237448307335
-0.4923005097187456	-0.12294206942807741
-0.4922394745624956	-0.13944150215882245
-0.4921784394062456	-0.15569062068259115
-0.4921174042499956	-0.17165995111844803
-0.4920563690937456	-0.18732072430371283
-0.4919953339374956	-0.2026444527072091
-0.4919342987812456	-0.21760311194084694
-0.4918732636249956	-0.23216992390204458
-0.4918122284687456	-0.24631812722013602
-0.4917511933124956	-0.26002193341979646
-0.4916901581562456	-0.27325658358007265
-0.4916291229999956	-0.28599790843046574
-0.4915680878437456	-0.2982226910805718
-0.4915070526874956	-0.30990828990612723
-0.4914460175312456	-0.3210338060378138
-0.4913849823749956	-0.3315787553011996
-0.4913239472187456	-0.3415234128761258
-0.4912629120624956	-0.35085006329396
-0.4912018769062456	-0.35954124540992544
-0.4911408417499956	-0.36758088658240695
-0.4910798065937456	-0.3749544195936189
-0.4910187714374956	-0.38164784690520237
-0.4909577362812456	-0.38764888277835485
-0.4908967011249956	-0.39294638707949336
-0.4908356659687456	-0.39753020524363203
-0.4907746308124956	-0.4013918599040859
-0.4907135956562456	-0.40452388830904024
-0.4906525604999956	-0.4069201668269972
-0.4905915253437456	-0.4085761091785725
-0.4905304901874956	-0.4094881643673657
-0.4904694550312456	-0.4096542655815699
-0.4904084198749956	-0.40907375996934614
-0.4903473847187456	-0.4077471752192071
-0.4902863495624956	-0.40567647079042907
-0.4902253144062456	-0.4028649801703398
-0.4901642792499956	-0.3993172726729239
-0.4901032440937456	-0.3950393238324934
-0.4900422089374956	-0.3900384262099853
-0.4899811737812456	-0.3843230988093041
-0.4899201386249956	-0.37790324493073674
-0.4898591034687456	-0.3707899949820606
-0.4897980683124956	-0.3629957499712396
-0.4897370331562456	-0.3545340825526141
-0.4896759979999956	-0.3454198702425643
-0.4896149628437456	-0.33566916286089965
-0.4895539276874956	-0.32529899331758705
-0.4894928925312456	-0.314327808925357
-0.4894318573749956	-0.30277490824505254
-0.4893708222187456	-0.290660705833557
-0.4893097870624956	-0.2780067739174485
-0.4892487519062456	-0.26483540064551175
-0.4891877167499956	-0.25117011546203455
-0.4891266815937456	-0.2370351368991459
-0.4890656464374956	-0.2224555924440255
-0.4890046112812456	-0.20745751771696375
-0.4889435761249956	-0.19206754151197605
-0.4888825409687456	-0.17631321728114235
-0.4888215058124956	-0.16022254051236154
-0.4887604706562456	-0.1438243675196415
-0.4886994354999956	-0.12714800935972523
-0.4886384003437456	-0.11022303157049138
-0.4885773651874956	-0.09308011677715539
-0.4885163300312456	-0.07574974249614172
-0.4884552948749956	-0.05826278252660928
-0.4883942597187456	-0.04065106672412358
-0.4883332245624956	-0.022945662765117055
-0.4882721894062456	-0.005178590806401662
-0.4882111542499956	0.01261803256672639
-0.4881501190937456	0.0304128730303786
-0.4880890839374956	0.04817325514683057
-0.4880280487812456	0.06586747111559677
-0.4879670136249956	0.08346417061069232
-0.4879059784687456	0.10093084914886773
-0.4878449433124956	0.11823643661656946
-0.4877839081562456	0.1353502028746267
-0.4877228729999956	0.15224052559651366
-0.4876618378437456	0.16887710481273452
-0.4876008026874956	0.18523050658057377
-0.4875397675312456	0.20127063865616646
-0.4874787323749956	0.21696835457919622
-0.4874176972187456	0.23229585412706583
-0.4873566620624956	0.24722519610825658
-0.4872956269062456	0.2617290167508304
-0.4872345917499956	0.2757813734126587
-0.4871735565937456	0.2893568714552955
-0.4871125214374956	0.302430653976343
-0.4870514862812456	0.31497897929469465
-0.4869904511249956	0.3269791871176476
-0.4869294159687456	0.3384095064059695
-0.4868683808124956	0.3492489061283448
-0.4868073456562456	0.359477675403527
-0.4867463104999956	0.3690773984357756
-0.4866852753437456	0.3780302787238563
-0.4866242401874956	0.386319913531619
-0.4865632050312456	0.3939313417778284
-0.4865021698749956	0.4008503855246319
-0.4864411347187456	0.4070643185044308
-0.4863800995624956	0.4125617739919788
-0.4863190644062456	0.41733244216769916
-0.4862580292499956	0.42136751019793367
-0.4861969940937456	0.42465940386284695
-0.4861359589374956	0.4272018292694036
-0.4860749237812456	0.4289900091067821
-0.4860138886249956	0.4300203630824661
-0.4859528534687456	0.4302907017557936
-0.4858918183124956	0.4298003154393457
-0.4858307831562456	0.42854971462983793
-0.4857697479999956	0.42654087403299035
-0.4857087128437456	0.4237771557871814
-0.4856476776874956	0.4202631521842551
-0.4855866425312456	0.4160049668712557
-0.4855256073749956	0.41101001654126956
-0.4854645722187456	0.40528688645578553
-0.4854035370624956	0.3988457167277679
-0.4853425019062456	0.3916978545627371
-0.4852814667499956	0.38385578205566245
-0.4852204315937456	0.37533348459992244
-0.4851593964374956	0.3661460403220856
-0.4850983612812456	0.35630969327404616
-0.4850373261249956	0.3458420076253765
-0.4849762909687456	0.33476158005753814
-0.4849152558124956	0.32308808254827126
-0.4848542206562456	0.3108425092854827
-0.4847931854999956	0.2980465911825528
-0.4847321503437456	0.2847230623074647
-0.4846711151874956	0.27089616445957393
-0.4846100800312456	0.25659027807794893
-0.4845490448749956	0.2418309050383408
-0.4844880097187456	0.22664506549743654
-0.4844269745624956	0.2110595116313114
-0.4843659394062456	0.19510210432832312
-0.4843049042499956	0.17880194540325176
-0.4842438690937456	0.16218807175683259
-0.4841828339374956	0.14529017268179734
-0.4841217987812456	0.12813874795481353
-0.4840607636249956	0.11076482831604996
-0.4839997284687456	0.09319946203403887
-0.4839386933124956	0.07547407345404634
-0.4838776581562456	0.057620988168079985
-0.4838166229999956	0.03967225666505365
-0.4837555878437456	0.02165982733257237
-0.4836945526874956	0.003616582195659712
-0.4836335175312456	-0.014424856457727661
-0.4835724823749956	-0.03243251143989469
-0.4835114472187456	-0.05037352817616509
-0.4834504120624956	-0.06821521350816642
-0.4833893769062456	-0.0859260576684955
-0.4833283417499956	-0.10347377805262138
-0.4832673065937456	-0.12082625652925551
-0.4832062714374956	-0.13795288033065747
-0.4831452362812456	-0.1548223002738711
-0.4830842011249956	-0.17140377159960626
-0.4830231659687456	-0.18766796664889712
-0.4829621308124956	-0.20358501902987527
-0.4829010956562456	-0.2191259549268468
-0.4828400604999956	-0.2342631487097262
-0.4827790253437456	-0.2489690852644143
-0.4827179901874956	-0.2632167135754216
-0.4826569550312456	-0.27698057682117677
-0.4825959198749956	-0.29023594565731875
-0.4825348847187456	-0.30295836434057294
-0.4824738495624956	-0.3151248691363959
-0.4824128144062456	-0.3267136554112344
-0.4823517792499956	-0.337703561750784
-0.4822907440937456	-0.3480744551856497
-0.4822297089374956	-0.35780785202736304
-0.4821686737812456	-0.36688595351765435
-0.4821076386249956	-0.3752920776838068
-0.4820466034687456	-0.3830113505569457
-0.4819855683124956	-0.3900294773074461
-0.4819245331562456	-0.3963336839570548
-0.4818634979999956	-0.40191272873736433
-0.4818024628437456	-0.4067562955297702
-0.4817414276874956	-0.41085561019971845
-0.4816803925312456	-0.4142032491865781
-0.4816193573749956	-0.4167930935856863
-0.4815583222187456	-0.41862043845559344
-0.4814972870624956	-0.41968194121885527
-0.4814362519062456	-0.41997566152172966
-0.4813752167499956	-0.41950107591182995
-0.4813141815937456	-0.41825903326188635
-0.4812531464374956	-0.4162517607573384
-0.4811921112812456	-0.413482921302556
-0.4811310761249956	-0.40995760038212753
-0.4810700409687456	-0.4056821203894298
-0.4810090058124956	-0.4006642635437077
-0.4809479706562456	-0.39491332214278074
-0.4808869354999956	-0.38843959115852655
-0.4808259003437456	-0.3812548592693634
-0.4807648651874956	-0.3733724233224156
-0.4807038300312456	-0.36480645144395873
-0.4806427948749956	-0.35557258440357
-0.4805817597187456	-0.3456878231995161
-0.4805207245624956	-0.335169981742212
-0.4804596894062456	-0.3240383922025076
-0.4803986542499956	-0.3123134178624412
-0.4803376190937456	-0.3000162389707134
-0.4802765839374956	-0.2871696104515439
-0.4802155487812456	-0.2737968157099842
-0.4801545136249956	-0.2599222195813303
-0.4800934784687456	-0.2455715053034386
-0.4800324433124956	-0.23077053548280999
-0.4799714081562456	-0.21554651877769204
-0.4799103729999956	-0.19992749837048313
-0.4798493378437456	-0.1839417386121371
-0.4797883026874956	-0.1676186023651413
-0.4797272675312456	-0.150988147254446
-0.4796662323749956	-0.1340806283902864
-0.4796051972187456	-0.11692697911398815
-0.4795441620624956	-0.09955890804926704
-0.4794831269062456	-0.08200795684176833
-0.4794220917499956	-0.06430635164084819
-0.4793610565937456	-0.04648680847248501
-0.4793000214374956	-0.02858175490166938
-0.4792389862812456	-0.010623993213041681
-0.4791779511249956	0.0073532632511862294
-0.4791169159687456	0.02531695736539347
-0.4790558808124956	0.043234522593352906
-0.4789948456562456	0.061072701786869944
-0.4789338104999956	0.07879854097478926
-0.4788727753437456	0.0963798473862184
-0.4788117401874956	0.11378411939481634
-0.4787507050312456	0.1309790899400947
-0.4786896698749956	0.14793337246134378
-0.4786286347187456	0.16461586439521786
-0.4785675995624956	0.1809952421965972
-0.4785065644062456	0.19704179449945228
-0.4784455292499956	0.21272608935174137
-0.4783844940937456	0.22801843189897658
-0.4783234589374956	0.24289112133628601
-0.4782624237812456	0.25731689534838326
-0.4782013886249956	0.27126840825217946
-0.4781403534687456	0.28472011242447387
-0.4780793183124956	0.29764754875390137
-0.4780182831562456	0.3100261258622663
-0.4779572479999956	0.3218329894621099
-0.4778962128437456	0.3330466430119917
-0.4778351776874956	0.3436457633902215
-0.4777741425312456	0.3536108072923345
-0.4777131073749956	0.3629232622686763
-0.4776520722187456	0.37156557886211244
-0.4775910370624956	0.3795218166818315
-0.4775300019062456	0.38677684824331604
-0.4774689667499956	0.3933171001279093
-0.4774079315937456	0.3991304274173723
-0.4773468964374956	0.40420557909428995
-0.4772858612812456	0.4085329896265956
-0.4772248261249956	0.4121045327112003
-0.4771637909687456	0.414913125491658
-0.4771027558124956	0.4169532992530918
-0.4770417206562456	0.41822107777478085
-0.4769806854999956	0.4187137047927712
-0.4769196503437456	0.41842990324142887
-0.4768586151874956	0.41736990732070134
-0.4767975800312456	0.4155353277442688
-0.4767365448749956	0.4129291120331825
-0.4766755097187456	0.40955574600413286
-0.4766144745624956	0.4054211351854911
-0.4765534394062456	0.4005324317285893
-0.4764924042499956	0.3948982975555602
-0.4764313690937456	0.3885288503682287
-0.4763703339374956	0.381435367095038
-0.4763092987812456	0.3736304708996496
-0.4762482636249956	0.3651283814787265
-0.4761872284687456	0.35594433333364234
-0.4761261933124956	0.3460947206297879
-0.4760651581562456	0.3355975445099034
-0.4760041229999956	0.32447179504711693
-0.4759430878437456	0.31273751537702166
-0.4758820526874956	0.30041597890508015
-0.4758210175312456	0.2875297006598258
-0.4757599823749956	0.27410211887816915
-0.4756989472187456	0.26015735688452296
-0.4756379120624956	0.24572114366552997
-0.4755768769062456	0.23081979835700223
-0.4755158417499956	0.21548010937018494
-0.4754548065937456	0.19973048400599017
-0.4753937714374956	0.18359957027942933
-0.4753327362812456	0.1671166941105486
-0.4752717011249956	0.15031213567620152
-0.4752106659687456	0.13321665084206635
-0.4751496308124956	0.11586151953766706
-0.4750885956562456	0.09827830621003805
-0.4750275604999956	0.08049971071556769
-0.4749665253437456	0.06255790965265037
-0.4749054901874956	0.044485747202987064
-0.4748444550312456	0.026317123771030047
-0.4747834198749956	0.008084386931536913
-0.4747223847187456	-0.010178433939584416
-0.4746613495624956	-0.028437292866486392
-0.4746003144062456	-0.046659794006683325
-0.4745392792499956	-0.06481149751324085
-0.4744782440937456	-0.08285884404362628
-0.4744172089374956	-0.10076959438505897
-0.4743561737812456	-0.1185099096830029
-0.4742951386249956	-0.1360469401236065
-0.4742341034687456	-0.1533491895560381
-0.4741730683124956	-0.17038417860631042
-0.4741120331562456	-0.1871201042491513
-0.4740509979999956	-0.2035267732124095
-0.4739899628437456	-0.21957361781964435
-0.4739289276874956	-0.2352305363855353
-0.4738678925312456	-0.2504689806851205
-0.4738068573749956	-0.2652607522303391
-0.4737458222187456	-0.27957812802737947
-0.4736847870624956	-0.2933947266669136
-0.4736237519062456	-0.3066849565483505
-0.4735627167499956	-0.3194239057481864
-0.4735016815937456	-0.3315881567644365
-0.4734406464374956	-0.34315490987320724
-0.4733796112812456	-0.3541024324308497
-0.4733185761249956	-0.36441074574561044
-0.4732575409687456	-0.37406024323158904
-0.4731965058124956	-0.3830327878049522
-0.4731354706562456	-0.39131195201282515
-0.4730744354999956	-0.3988818844556823
-0.4730134003437456	-0.4057283033540879
-0.4729523651874956	-0.41183849471342915
-0.4728913300312456	-0.41720075628753095
-0.4728302948749956	-0.4218048163452563
-0.4727692597187456	-0.42564198863138497
-0.4727082245624956	-0.42870483342420457
-0.4726471894062456	-0.43098728035812106
-0.4725861542499956	-0.43248488120429657
-0.4725251190937456	-0.4331945033747159
-0.4724640839374956	-0.43311444998550175
-0.4724030487812456	-0.43224456117167526
-0.4723420136249956	-0.43058608531601655
-0.4722809784687456	-0.428141728571282
-0.4722199433124956	-0.42491558816353814
-0.4721589081562456	-0.42091338083039104
-0.4720978729999956	-0.4161420757081038
-0.4720368378437456	-0.41060999837883866
-0.4719758026874956	-0.4043273020892401
-0.4719147675312456	-0.3973049845976234
-0.4718537323749956	-0.38955562562417445
-0.4717926972187456	-0.38109353035304444
-0.4717316620624956	-0.3719335758099066
-0.4716706269062456	-0.36209245918840555
-0.4716095917499956	-0.35158829777646916
-0.4715485565937456	-0.3404397260952357
-0.4714875214374956	-0.32866721530863513
-0.4714264862812456	-0.3162923644223414
-0.4713654511249956	-0.3033373364882966
-0.4713044159687456	-0.28982606079759327
-0.4712433808124956	-0.27578320562580694
-0.4711823456562456	-0.2612340548096797
-0.4711213104999956	-0.24620565372667738
-0.4710602753437456	-0.23072550322655883
-0.4709992401874956	-0.21482132953446573
-0.4709382050312456	-0.19852286052288148
-0.4708771698749956	-0.18186019752026863
-0.4708161347187456	-0.16486293976717276
-0.4707550995624956	-0.14756298682530067
-0.4706940644062456	-0.12999239601334378
-0.4706330292499956	-0.11218248142595554
-0.4705719940937456	-0.09416662736234098
-0.4705109589374956	-0.07597813464190556
-0.4704499237812456	-0.05764982427172028
-0.4703888886249956	-0.03921585338758947
-0.4703278534687456	-0.020710205022424034
-0.4702668183124956	-0.002166622913909721
-0.4702057831562456	0.016380379279161344
-0.4701447479999956	0.03489667921265666
-0.4700837128437456	0.05334846788108574
-0.4700226776874956	0.07170121336369022
-0.4699616425312456	0.08992121995593429
-0.4699006073749956	0.10797519731721066
-0.4698395722187456	0.12582921129654565
-0.4697785370624956	0.14345058349634582
-0.4697175019062456	0.16080696674699757
