Time	Frequency
-0.5000191705312602	-0.06813413528197183
-0.4999581353750102	-0.04898726719446409
-0.4998971002187602	-0.02972153861581164
-0.4998360650625102	-0.010375187299047656
-0.4997750299062602	0.009013307296437461
-0.4997139947500102	0.028405221186543598
-0.4996529595937602	0.04776197474321619
-0.4995919244375102	0.06704490674033207
-0.4995308892812602	0.08621561395822835
-0.4994698541250102	0.1052358812320588
-0.4994088189687602	0.12406745548525766
-0.4993477838125102	0.14267297745430746
-0.4992867486562602	0.16101521049565043
-0.4992257135000102	0.17905712978922192
-0.4991646783437602	0.1967631291295072
-0.4991036431875102	0.21409750473266892
-0.4990426080312602	0.23102505376475288
-0.4989815728750102	0.24751261121925922
-0.4989205377187602	0.2635268143871165
-0.4988595025625102	0.2790349805160626
-0.4987984674062602	0.294006543247767
-0.4987374322500102	0.3084112791707464
-0.4986763970937602	0.3222199298204525
-0.4986153619375102	0.3354048171078766
-0.4985543267812602	0.3479393835862056
-0.4984932916250102	0.35979819997156803
-0.4984322564687602	0.3709573214684851
-0.4983712213125102	0.3813942276898175
-0.4983101861562602	0.3910876303705699
-0.4982491510000102	0.4000178074184851
-0.4981881158437602	0.4081666982028494
-0.4981270806875102	0.4155176969036107
-0.4980660455312602	0.42205549914333024
-0.4980050103750102	0.42776686505437334
-0.4979439752187602	0.43264008222540545
-0.4978829400625102	0.4366647581240772
-0.4978219049062602	0.4398326546684105
-0.4977608697500102	0.442137031383446
-0.4976998345937602	0.4435727389848375
-0.4976387994375102	0.4441366125100133
-0.4975777642812602	0.4438271243490365
-0.4975167291250102	0.44264437467158463
-0.4974556939687602	0.44059034563596644
-0.4973946588125102	0.43766880026968735
-0.4973336236562602	0.4338850260167884
-0.4972725885000102	0.4292462077939369
-0.4972115533437602	0.42376128589170575
-0.4971505181875102	0.4174406767343396
-0.4970894830312602	0.4102965935735217
-0.4970284478750102	0.4023430418506017
-0.4969674127187602	0.3935954463123247
-0.4969063775625102	0.3840706868496706
-0.4968453424062602	0.3737877176243062
-0.4967843072500102	0.36276663713906243
-0.4967232720937602	0.35102878416334404
-0.4966622369375102	0.3385976107068086
-0.4966012017812602	0.32549747914803934
-0.4965401666250102	0.31175411033926964
-0.4964791314687602	0.2973947589464458
-0.4964180963125102	0.28244764532932176
-0.4963570611562602	0.2669425032146386
-0.4962960260000102	0.25090992249431143
-0.4962349908437602	0.2343814390826196
-0.4961739556875102	0.21739013264039267
-0.4961129205312602	0.1999695505752181
-0.4960518853750102	0.182154092320428
-0.4959908502187602	0.16397933110751295
-0.4959298150625102	0.14548117807182953
-0.4958687799062602	0.12669650988479694
-0.4958077447500102	0.10766262134298606
-0.4957467095937602	0.08841716010202355
-0.4956856744375102	0.06899869018496277
-0.4956246392812602	0.04944577192739902
-0.4955636041250102	0.029797072242954244
-0.4955025689687602	0.010091959517629867
-0.4954415338125102	-0.009630205512033745
-0.4953804986562602	-0.029330565990918506
-0.4953194635000102	-0.048969576949861475
-0.4952584283437602	-0.06850787920315667
-0.4951973931875102	-0.08790706588011818
-0.4951363580312602	-0.10712806872857068
-0.4950753228750102	-0.12613241282386442
-0.4950142877187602	-0.1448826620469801
-0.4949532525625102	-0.16334102313435553
-0.4948922174062602	-0.18147058642426256
-0.4948311822500102	-0.19923548222184553
-0.4947701470937602	-0.2166000435878787
-0.4947091119375102	-0.233529501689548
-0.4946480767812602	-0.24999013085783128
-0.4945870416250102	-0.2659491112742769
-0.4945260064687602	-0.28137445247747406
-0.4944649713125102	-0.2962352561979637
-0.4944039361562602	-0.3105019927895405
-0.4943429010000102	-0.32414602206031234
-0.4942818658437602	-0.33714004912873413
-0.4942208306875102	-0.34945818133952183
-0.4941597955312602	-0.36107572199072246
-0.4940987603750102	-0.3719694739421462
-0.4940377252187602	-0.38211754737471987
-0.4939766900625102	-0.39149985286053973
-0.4939156549062602	-0.40009756676500413
-0.4938546197500102	-0.4078932391523595
-0.4937935845937602	-0.4148717128397389
-0.4937325494375102	-0.4210188780491291
-0.4936715142812602	-0.42632226124969724
-0.4936104791250102	-0.43077162983459766
-0.4935494439687602	-0.4343579424667335
-0.4934884088125102	-0.437074017244504
-0.4934273736562602	-0.4389146335907561
-0.4933663385000102	-0.43987609049814047
-0.4933053033437602	-0.4399565179553959
-0.4932442681875102	-0.43915589016890455
-0.4931832330312602	-0.4374759100912341
-0.4931221978750102	-0.4349199956532268
-0.4930611627187602	-0.43149342470706475
-0.4930001275625102	-0.4272032145290525
-0.4929390924062602	-0.4220580005978486
-0.4928780572500102	-0.4160683418015216
-0.4928170220937602	-0.4092463758600765
-0.4927559869375102	-0.40160584834128404
-0.4926949517812602	-0.3931624251797691
-0.4926339166250102	-0.38393310322215235
-0.4925728814687602	-0.37393655588195096
-0.4925118463125102	-0.3631931793718014
-0.4924508111562602	-0.3517246516062922
-0.4923897760000102	-0.3395541722932954
-0.4923287408437602	-0.3267065032250957
-0.4922677056875102	-0.31320762877250935
-0.4922066705312602	-0.2990848063262898
-0.4921456353750102	-0.28436686726032384
-0.4920846002187602	-0.2690834471428722
-0.4920235650625102	-0.2532655331518693
-0.4919625299062602	-0.23694535083264182
-0.4919014947500102	-0.22015576784585805
-0.4918404595937602	-0.2029310197922465
-0.4917794244375102	-0.18530586255213014
-0.4917183892812602	-0.16731610696130214
-0.4916573541250102	-0.14899835383070117
-0.4915963189687602	-0.1303895492349804
-0.4915352838125102	-0.1115276827215063
-0.4914742486562602	-0.09245075585363484
-0.4914132135000102	-0.07319770284491947
-0.4913521783437602	-0.05380779074551478
-0.4912911431875102	-0.03431979754398713
-0.4912301080312602	-0.014773758689202892
-0.4911690728750102	0.004790423358713676
-0.4911080377187602	0.024333566258685647
-0.4910470025625102	0.043815691111525674
-0.4909859674062602	0.06319696642484791
-0.4909249322500102	0.08243822318973508
-0.4908638970937602	0.10150034434936489
-0.4908028619375102	0.12034447028164753
-0.4907418267812602	0.1389321688469317
-0.4906807916250102	0.15722571943324518
-0.4906197564687602	0.17518787536729596
-0.4905587213125102	0.19278185396605094
-0.4904976861562602	0.20997210713360936
-0.4904366510000102	0.22672343928420843
-0.4903756158437602	0.24300132162347407
-0.4903145806875102	0.2587732248992189
-0.4902535455312602	0.27400676813007196
-0.4901925103750102	0.2886701695395587
-0.4901314752187602	0.30273423996209264
-0.4900704400625102	0.316170264842526
-0.4900094049062602	0.32895005033196606
-0.4899483697500102	0.3410479278748169
-0.4898873345937602	0.35243929925477246
-0.4898262994375102	0.36310036163090065
-0.4897652642812602	0.37300936803621204
-0.4897042291250102	0.38214618033824427
-0.4896431939687602	0.39049188310612487
-0.4895821588125102	0.3980291605942973
-0.4895211236562602	0.4047425660542302
-0.4894600885000102	0.4106183286021245
-0.4893990533437602	0.41564417147264276
-0.4893380181875102	0.4198095554246825
-0.4892769830312602	0.42310591883893545
-0.4892159478750102	0.4255263133809729
-0.4891549127187602	0.42706547926437144
-0.4890938775625102	0.4277201346251091
-0.4890328424062602	0.4274887152818469
-0.4889718072500102	0.42637141326955097
-0.4889107720937602	0.42437027709640096
-0.4888497369375102	0.42148921803573897
-0.4887887017812602	0.41773380451749736
-0.4887276666250102	0.41311141178612787
-0.4886666314687602	0.40763139543074917
-0.4886055963125102	0.4013045602887742
-0.4885445611562602	0.3941435311722427
-0.4884835260000102	0.38616287383639664
-0.4884224908437602	0.3773785045041935
-0.4883614556875102	0.3678080660075268
-0.4883004205312602	0.35747103747448405
-0.4882393853750102	0.3463882117625074
-0.4881783502187602	0.33458186523864974
-0.4881173150625102	0.3220761231834157
-0.4880562799062602	0.308896270710802
-0.4879952447500102	0.2950687410335518
-0.4879342095937602	0.28062189421928047
-0.4878731744375102	0.26558517081367927
-0.4878121392812602	0.2499885634882232
-0.4877511041250102	0.2338641213457837
-0.4876900689687602	0.21724500147891007
-0.4876290338125102	0.20016423585841642
-0.4875679986562602	0.182656929370053
-0.4875069635000102	0.16475918086483313
-0.4874459283437602	0.14650680706933675
-0.4873848931875102	0.12793719339428625
-0.4873238580312602	0.10908853564332209
-0.4872628228750102	0.08999897283532474
-0.4872017877187602	0.0707075108777755
-0.4871407525625102	0.05125374818937906
-0.4870797174062602	0.031677232233542754
-0.4870186822500102	0.012018041627348033
-0.4869576470937602	-0.007683411065478133
-0.4868966119375102	-0.027387047041973887
-0.4868355767812602	-0.04705252069634863
-0.4867745416250102	-0.06663926907807095
-0.4867135064687602	-0.08610733309577827
-0.4866524713125102	-0.10541687331831652
-0.4865914361562602	-0.12452798927443934
-0.4865304010000102	-0.14340164455757487
-0.4864693658437602	-0.1619990045328037
-0.4864083306875102	-0.18028165931996384
-0.4863472955312602	-0.1982123443856477
-0.4862862603750102	-0.2157538291672449
-0.4862252252187602	-0.23286988874295156
-0.4861641900625102	-0.2495256064380912
-0.4861031549062602	-0.265686378655991
-0.4860421197500102	-0.2813186560937489
-0.4859810845937602	-0.2963902774472357
-0.4859200494375102	-0.31087015477403934
-0.4858590142812602	-0.3247280899815819
-0.4857979791250102	-0.33793527899933495
-0.4857369439687602	-0.35046440309147037
-0.4856759088125102	-0.36228936324896027
-0.4856148736562602	-0.3733854474381331
-0.4855538385000102	-0.383729442084415
-0.4854928033437602	-0.3932997508064103
-0.4854317681875102	-0.40207626151589837
-0.4853707330312602	-0.4100404049563088
-0.4853096978750102	-0.4171754118197596
-0.4852486627187602	-0.4234661386099128
-0.4851876275625102	-0.4288990315062693
-0.4851265924062602	-0.4334624605123095
-0.4850655572500102	-0.4371464989424852
-0.4850045220937602	-0.4399429330155903
-0.4849434869375102	-0.4418454721935911
-0.4848824517812602	-0.4428495648391084
-0.4848214166250102	-0.44295251846011985
-0.4847603814687602	-0.4421534997592472
-0.4846993463125102	-0.4404534643231024
-0.4846383111562602	-0.4378552401196236
-0.4845772760000102	-0.43436350527607825
-0.4845162408437602	-0.4299847225093827
-0.4844552056875102	-0.42472718015514155
-0.4843941705312602	-0.4186010079299853
-0.4843331353750102	-0.411618039650885
-0.4842721002187602	-0.40379191184461927
-0.4842110650625102	-0.3951380238265655
-0.4841500299062602	-0.3856733504895952
-0.4840889947500102	-0.37541663956139637
-0.4840279595937602	-0.36438833131483417
-0.4839669244375102	-0.3526101743391469
-0.4839058892812602	-0.3401057206462789
-0.4838448541250102	-0.32690012446906247
-0.4837838189687602	-0.3130194109667968
-0.4837227838125102	-0.2984916320264265
-0.4836617486562602	-0.28334613339180753
-0.4836007135000102	-0.2676127754233019
-0.4835396783437602	-0.2513235710930552
-0.4834786431875102	-0.2345114729574232
-0.4834176080312602	-0.21720986918002266
-0.4833565728750102	-0.1994539068143902
-0.4832955377187602	-0.18127951401022205
-0.4832345025625102	-0.16272326207602356
-0.4831734674062602	-0.1438226213814253
-0.4831124322500102	-0.12461579646290913
-0.4830513970937602	-0.10514199446794656
-0.4829903619375102	-0.08544020411945849
-0.4829293267812602	-0.0655503552680499
-0.4828682916250102	-0.04551345149851694
-0.4828072564687602	-0.025369321234801716
-0.4827462213125102	-0.005158971013367881
-0.4826851861562602	0.015075876019523952
-0.4826241510000102	0.03529476580184189
-0.4825631158437602	0.05545657858962476
-0.4825020806875102	0.07551998119641287
-0.4824410455312602	0.09544424604174125
-0.4823800103750102	0.11518892057269764
-0.4823189752187602	0.1347138440593739
-0.4822579400625102	0.15397897124802304
-0.4821969049062602	0.17294514285404386
-0.4821358697500102	0.19157389842494774
-0.4820748345937602	0.20982688753092066
-0.4820137994375102	0.22766693076484984
-0.4819527642812602	0.24505781102309396
-0.4818917291250102	0.26196375967334207
-0.4818306939687602	0.2783501930616872
-0.4817696588125102	0.29418374225500926
-0.4817086236562602	0.3094320162521824
-0.4816475885000102	0.32406361757101554
-0.4815865533437602	0.33804860649330704
-0.4815255181875102	0.35135850272270247
-0.4814644830312602	0.36396583244028957
-0.4814034478750102	0.375844660345652
-0.4813424127187602	0.3869707661590046
-0.4812813775625102	0.39732118719629067
-0.4812203424062602	0.40687454614081614
-0.4811593072500102	0.41561128561856553
-0.4810982720937602	0.42351335876892116
-0.4810372369375102	0.430564397014114
-0.4809762017812602	0.43674983511868876
-0.4809151666250102	0.4420568807784992
-0.4808541314687602	0.44647450890911794
-0.4807930963125102	0.44999342128532804
-0.4807320611562602	0.4526063088264428
-0.4806710260000102	0.454307666627036
-0.4806099908437602	0.4550937230618918
-0.4805489556875102	0.45496275050909923
-0.4804879205312602	0.45391484148997324
-0.4804268853750102	0.45195189044203105
-0.4803658502187602	0.44907775128835464
-0.4803048150625102	0.4452981406606734
-0.4802437799062602	0.44062057880245437
-0.4801827447500102	0.43505442715966325
-0.4801217095937602	0.42861096647523605
-0.4800606744375102	0.42130317419066254
-0.4799996392812602	0.4131457909154558
-0.4799386041250102	0.4041554174331448
-0.4798775689687602	0.3943502580566992
-0.4798165338125102	0.38375026001507867
-0.4797554986562602	0.37237693277649353
-0.4796944635000102	0.36025338009689795
-0.4796334283437602	0.3474044725605046
-0.4795723931875102	0.3338562428553334
-0.4795113580312602	0.3196361894536821
-0.4794503228750102	0.30477366727219435
-0.4793892877187602	0.289298804785964
-0.4793282525625102	0.2732430235332907
-0.4792672174062602	0.25663956310068126
-0.4792061822500102	0.2395220013066765
-0.4791451470937602	0.22192535783252307
-0.4790841119375102	0.20388599148171535
-0.4790230767812602	0.1854402348051289
-0.4789620416250102	0.16662623080593614
-0.4789010064687602	0.14748271841718705
-0.4788399713125102	0.12804812221691284
-0.4787789361562602	0.10836292927853183
-0.4787179010000102	0.0884676891593997
-0.4786568658437602	0.06840215088621006
-0.4785958306875102	0.048208306705600244
-0.4785347955312602	0.027927902107698806
-0.4784737603750102	0.007601262142249191
-0.4784127252187602	-0.012728951195474016
-0.4783516900625102	-0.03302071228150623
-0.4782906549062602	-0.05323341383884666
-0.4782296197500102	-0.07332485493279378
-0.4781685845937602	-0.09325371083085589
-0.4781075494375102	-0.11297932562358472
-0.4780465142812602	-0.13246104071411577
-0.4779854791250102	-0.15165888480782888
-0.4779244439687602	-0.17053321063725488
-0.4778634088125102	-0.1890453558388964
-0.4778023736562602	-0.2071571987206028
-0.4777413385000102	-0.2248315070212644
-0.4776803033437602	-0.24203188725215932
-0.4776192681875102	-0.25872280016074484
-0.4775582330312602	-0.2748702410071472
-0.4774971978750102	-0.2904406194097958
-0.4774361627187602	-0.30540188554293624
-0.4773751275625102	-0.3197235765788367
-0.4773140924062602	-0.33337575115743656
-0.4772530572500102	-0.3463305065753382
-0.4771920220937602	-0.3585611903756492
-0.4771309869375102	-0.37004236665168927
-0.4770699517812602	-0.380750642701299
-0.4770089166250102	-0.3906637804909278
-0.4769478814687602	-0.3997612750135369
-0.4768868463125102	-0.40802455165275797
-0.4768258111562602	-0.4154364857562604
-0.4767647760000102	-0.4219816941850043
-0.4767037408437602	-0.4276467869304907
-0.4766427056875102	-0.43242012024398807
-0.4765816705312602	-0.4362916905791403
-0.4765206353750102	-0.43925361598072776
-0.4764596002187602	-0.4412998666077935
-0.4763985650625102	-0.44242607398475264
-0.4763375299062602	-0.44263000356124893
-0.4762764947500102	-0.4419113134523969
-0.4762154595937602	-0.4402714215721658
-0.4761544244375102	-0.4377137811320819
-0.4760933892812602	-0.4342437263119987
-0.4760323541250102	-0.4298684302025427
-0.4759713189687602	-0.42459701065109795
-0.4759102838125102	-0.4184403722113175
-0.4758492486562602	-0.41141134856236394
-0.4757882135000102	-0.4035244869224247
-0.4757271783437602	-0.3947961120753772
-0.4756661431875102	-0.3852445357916805
-0.4756051080312602	-0.3748893368814722
-0.4755440728750102	-0.36375211298851856
-0.4754830377187602	-0.35185622997343463
-0.4754220025625102	-0.33922596788253784
-0.4753609674062602	-0.3258878251189664
-0.4752999322500102	-0.3118696534142742
-0.4752388970937602	-0.2972002273506857
-0.4751778619375102	-0.2819103169727729
-0.4751168267812602	-0.26603170565921813
-0.4750557916250102	-0.24959721062753837
-0.4749947564687602	-0.23264124524266233
-0.4749337213125102	-0.2151990731464852
-0.4748726861562602	-0.1973068110658131
-0.4748116510000102	-0.1790018683690357
-0.4747506158437602	-0.16032241251864843
-0.4746895806875102	-0.14130719083968882
-0.4746285455312602	-0.12199586943691049
-0.4745675103750102	-0.10242880704220766
-0.4745064752187602	-0.08264679159871266
-0.4744454400625102	-0.06269079963919623
-0.4743844049062602	-0.04260269717768835
-0.4743233697500102	-0.022424686832567875
-0.4742623345937602	-0.0021982442630509706
-0.4742012994375102	0.01803414146016616
-0.4741402642812602	0.03822973798441128
-0.4740792291250102	0.05834693716346353
-0.4740181939687602	0.07834367828901712
-0.4739571588125102	0.09817770191506298
-0.4738961236562602	0.11780767400008392
-0.4738350885000102	0.13719284910215548
-0.4737740533437602	0.15629232888141104
-0.4737130181875102	0.17506593658132574
-0.4736519830312602	0.19347470640735884
-0.4735909478750102	0.21147985122226037
-0.4735299127187602	0.22904350902102114
-0.4734688775625102	0.24612893323455753
-0.4734078424062602	0.26270017462519407
-0.4733468072500102	0.27872243249117074
-0.4732857720937602	0.2941618486721668
-0.4732247369375102	0.3089860538622088
-0.4731637017812602	0.3231639328264474
-0.4731026666250102	0.3366652253275967
-0.4730416314687602	0.3494615634644327
-0.4729805963125102	0.361526190220543
-0.4729195611562602	0.3728331020777302
-0.4728585260000102	0.3833584399373171
-0.4727974908437602	0.39308022608086474
-0.4727364556875102	0.40197729123233683
-0.4726754205312602	0.4100307219790229
-0.4726143853750102	0.4172235984876559
-0.4725533502187602	0.4235402217491361
-0.4724923150625102	0.42896693282799314
-0.4724312799062602	0.43349208316167825
-0.4723702447500102	0.437105721855788
-0.4723092095937602	0.4397998354036014
-0.4722481744375102	0.4415683160161197
-0.4721871392812602	0.44240700336197314
-0.4721261041250102	0.4423136986718396
-0.4720650689687602	0.44128806193569986
-0.4720040338125102	0.43933178414396984
-0.4719429986562602	0.4364484641229401
-0.4718819635000102	0.4326435949198049
-0.4718209283437602	0.4279246936948836
-0.4717598931875102	0.4223011061011366
-0.4716988580312602	0.41578404745080283
-0.4716378228750102	0.4083867109032756
-0.4715767877187602	0.40012406287587454
-0.4715157525625102	0.391012855277028
-0.4714547174062602	0.38107165731690174
-0.4713936822500102	0.37032079218870867
-0.4713326470937602	0.3587822977403736
-0.4712716119375102	0.34647978925808637
-0.4712105767812602	0.33343846865249044
-0.4711495416250102	0.3196852856353497
-0.4710885064687602	0.3052486466442963
-0.4710274713125102	0.29015794789439386
-0.4709664361562602	0.27444458408273087
-0.4709054010000102	0.258141239352684
-0.4708443658437602	0.24128113627542935
-0.4707833306875102	0.22389947357809611
-0.4707222955312602	0.20603219681548782
-0.4706612603750102	0.18771622270530772
-0.4706002252187602	0.1689898167480806
-0.4705391900625102	0.14989152412955836
-0.4704781549062602	0.13046102407659424
-0.4704171197500102	0.11073896948815595
-0.4703560845937602	0.09076623422649926
-0.4702950494375102	0.0705840878582303
-0.4702340142812602	0.0502349579617715
-0.4701729791250102	0.029761083198229277
-0.4701119439687602	0.009204883758063227
-0.4700509088125102	-0.011390336022403224
-0.4699898736562602	-0.03198196823126503
-0.4699288385000102	-0.05252692654576477
-0.4698678033437602	-0.07298220447344084
-0.4698067681875102	-0.09330520812467304
-0.4697457330312602	-0.11345330750765475
-0.4696846978750102	-0.13338453564910402
-0.4696236627187602	-0.15305692760731648
