Time	Frequency
-0.5000066753750048	0.3590557047465813
-0.49994564021875476	0.37152246466753974
-0.49988460506250476	0.38316534147672354
-0.49982356990625476	0.3939582144023819
-0.49976253475000476	0.4038761585952704
-0.49970149959375476	0.41289631532227394
-0.49964046443750476	0.4209981403319655
-0.49957942928125476	0.42816286851899765
-0.49951839412500476	0.4343738348118866
-0.49945735896875476	0.43961649400837516
-0.49939632381250476	0.4438785649406155
-0.49933528865625476	0.4471498976865803
-0.49927425350000476	0.4494224235462466
-0.49921321834375476	0.45069047968493064
-0.49915218318750476	0.4509505882498583
-0.49909114803125476	0.450201443255702
-0.49903011287500476	0.44844408331597213
-0.49896907771875476	0.4456817653570397
-0.49890804256250476	0.4419199949637968
-0.49884700740625476	0.4371665285633108
-0.49878597225000476	0.4314312688180011
-0.49872493709375476	0.4247264381030165
-0.49866390193750476	0.4170663824476212
-0.49860286678125476	0.40846743890553455
-0.49854183162500476	0.398948367793698
-0.49848079646875476	0.38852974177878047
-0.49841976131250476	0.37723407983870905
-0.49835872615625476	0.3650862910846206
-0.49829769100000476	0.35211276133062347
-0.49823665584375476	0.3383418310291915
-0.49817562068750476	0.32380389371935553
-0.49811458553125476	0.30853078692962754
-0.49805355037500476	0.2925561088435097
-0.49799251521875476	0.27591501734127194
-0.49793148006250476	0.25864424475708325
-0.49787044490625476	0.24078199776086387
-0.49780940975000476	0.2223675136600326
-0.49774837459375476	0.20344157900498167
-0.49768733943750476	0.1840463607540633
-0.49762630428125476	0.16422441306601926
-0.49756526912500476	0.14401965251260423
-0.49750423396875476	0.1234773509997507
-0.49744319881250476	0.1026426707970138
-0.49738216365625476	0.08156181389639705
-0.49732112850000476	0.06028200091410787
-0.49726009334375476	0.03885027862987815
-0.49719905818750476	0.017314238485775853
-0.49713802303125476	-0.004278105125798415
-0.49707698787500476	-0.025878485410819205
-0.49701595271875476	-0.047438960375416526
-0.49695491756250476	-0.068911835229689
-0.49689388240625476	-0.09024850319095018
-0.49683284725000476	-0.11140166521065908
-0.49677181209375476	-0.13232464253213447
-0.49671077693750476	-0.15296982631132047
-0.49664974178125476	-0.17329149484095419
-0.49658870662500476	-0.19324455507330549
-0.49652767146875476	-0.21278377705215182
-0.49646663631250476	-0.2318657431219421
-0.49640560115625476	-0.25044777507545724
-0.49634456600000476	-0.2684881567547075
-0.49628353084375476	-0.28594646112807953
-0.49622249568750476	-0.30278339805498145
-0.49616146053125476	-0.3189615544079422
-0.49610042537500476	-0.3344442720099506
-0.49603939021875476	-0.34919667128562454
-0.49597835506250476	-0.36318605443620583
-0.49591731990625476	-0.3763804504804583
-0.49585628475000476	-0.38875024605049985
-0.49579524959375476	-0.40026785493198763
-0.49573421443750476	-0.4109068564340018
-0.49567317928125476	-0.42064335581149614
-0.49561214412500476	-0.4294554897561575
-0.49555110896875476	-0.4373230089818086
-0.49549007381250476	-0.44422812787298405
-0.49542903865625476	-0.45015519920544045
-0.49536800350000476	-0.455090527167313
-0.49530696834375476	-0.45902284210958416
-0.49524593318750476	-0.4619430362173552
-0.49518489803125476	-0.46384423175763084
-0.49512386287500476	-0.46472189748372333
-0.49506282771875476	-0.4645737097872293
-0.49500179256250476	-0.46339971115855555
-0.49494075740625476	-0.4612022079900582
-0.49487972225000476	-0.45798577356030346
-0.49481868709375476	-0.45375731363504257
-0.49475765193750476	-0.4485259669683713
-0.49469661678125476	-0.442303135575451
-0.49463558162500476	-0.43510241166401853
-0.49457454646875476	-0.42693963888247927
-0.49451351131250476	-0.41783280920569127
-0.49445247615625476	-0.4078019223586409
-0.49439144100000476	-0.396869262483115
-0.49433040584375476	-0.3850590046936131
-0.49426937068750476	-0.37239717666856603
-0.49420833553125476	-0.3589120603327273
-0.49414730037500476	-0.34463358504454894
-0.49408626521875476	-0.3295932722840566
-0.49402523006250476	-0.31382468047270695
-0.49396419490625476	-0.2973631267657543
-0.49390315975000476	-0.28024497445946245
-0.49384212459375476	-0.2625082228434071
-0.49378108943750476	-0.24419291751453834
-0.49372005428125476	-0.2253395972480916
-0.49365901912500476	-0.20599012316583798
-0.49359798396875476	-0.18618812004549531
-0.49353694881250476	-0.1659774981816853
-0.49347591365625476	-0.14540344986761017
-0.49341487850000476	-0.1245121775459567
-0.49335384334375476	-0.10335000752941913
-0.49329280818750476	-0.081964470790656
-0.49323177303125476	-0.06040354796938556
-0.49317073787500476	-0.03871518522012702
-0.49310970271875476	-0.01694805151510005
-0.49304866756250476	0.00484907621966981
-0.49298763240625476	0.026627392815015003
-0.49292659725000476	0.04833811669962423
-0.49286556209375476	0.0699327753994527
-0.49280452693750476	0.09136276428977115
-0.49274349178125476	0.11257993460457118
-0.49268245662500476	0.13353708803104125
-0.49262142146875476	0.15418710881780265
-0.49256038631250476	0.1744833114615178
-0.49249935115625476	0.19438049265595
-0.49243831600000476	0.21383426204924222
-0.49237728084375476	0.2328003766269178
-0.49231624568750476	0.2512363829305383
-0.49225521053125476	0.26910142102725254
-0.49219417537500476	0.28635475690661016
-0.49213314021875476	0.3029578093029597
-0.49207210506250476	0.31887352353134085
-0.49201106990625476	0.3340657725532362
-0.49195003475000476	0.3485007762342939
-0.49188899959375476	0.36214586125641907
-0.49182796443750476	0.3749703182420078
-0.49176692928125476	0.3869456398200636
-0.49170589412500476	0.39804461408396097
-0.49164485896875476	0.4082423414777006
-0.49158382381250476	0.4175160322767562
-0.49152278865625476	0.4258447372950831
-0.49146175350000476	0.43320977325736715
-0.49140071834375476	0.43959460642914167
-0.49133968318750476	0.44498486486872274
-0.49127864803125476	0.449368506022027
-0.49121761287500476	0.4527356906663922
-0.49115657771875476	0.4550788388425239
-0.49109554256250476	0.4563927831592292
-0.49103450740625476	0.45667463002889064
-0.49097347225000476	0.4559237585336467
-0.49091243709375476	0.4541419660209661
-0.49085140193750476	0.4513333697784175
-0.49079036678125476	0.44750434186565374
-0.49072933162500476	0.4426636275399294
-0.49066829646875476	0.43682223660667396
-0.49060726131250476	0.4299934644262059
-0.49054622615625476	0.42219282049288037
-0.49048519100000476	0.4134379451072403
-0.49042415584375476	0.4037488463986761
-0.49036312068750476	0.3931475029908482
-0.49030208553125476	0.38165781955229705
-0.49024105037500476	0.36930604431831765
-0.49018001521875476	0.3561202524154838
-0.49011898006250476	0.34213021590438225
-0.49005794490625476	0.3273678133737031
-0.48999690975000476	0.31186651110040664
-0.48993587459375476	0.2956615654378167
-0.48987483943750476	0.2787898713045714
-0.48981380428125476	0.2612894172989833
-0.48975276912500476	0.24320029519164896
-0.48969173396875476	0.22456370240958756
-0.48963069881250476	0.20542151383093699
-0.48956966365625476	0.1858176115188067
-0.48950862850000476	0.1657966674732036
-0.48944759334375476	0.14540386489429816
-0.48938655818750476	0.12468579641979084
-0.48932552303125476	0.10368963219396526
-0.48926448787500476	0.08246307445823355
-0.48920345271875476	0.06105440755210813
-0.48914241756250476	0.039512448827153095
-0.48908138240625476	0.01788637441974191
-0.48902034725000476	-0.003774882138638947
-0.48895931209375476	-0.025421719540082523
-0.48889827693750476	-0.047004664871154386
-0.48883724178125476	-0.0684748833956467
-0.48877620662500476	-0.08978314763441372
-0.48871517146875476	-0.110880813829576
-0.48865413631250476	-0.13171993375013297
-0.48859310115625476	-0.15225271697148188
-0.48853206600000476	-0.17243236874659396
-0.48847103084375476	-0.19221287390209435
-0.48840999568750476	-0.21154874364069146
-0.48834896053125476	-0.2303959657274068
-0.48828792537500476	-0.24871153483829617
-0.48822689021875476	-0.26645317921042394
-0.48816585506250476	-0.2835804325125111
-0.48810481990625476	-0.30005424722192137
-0.48804378475000476	-0.31583652657671146
-0.48798274959375476	-0.33089113702964823
-0.48792171443750476	-0.34518365552416175
-0.48786067928125476	-0.3586810719490937
-0.48779964412500476	-0.3713524262406418
-0.48773860896875476	-0.3831684820910542
-0.48767757381250476	-0.3941019410113432
-0.48761653865625476	-0.40412770980567775
-0.48755550350000476	-0.4132225524219139
-0.48749446834375476	-0.4213652493816266
-0.48743343318750476	-0.42853699282543917
-0.48737239803125476	-0.4347211923522671
-0.48731136287500476	-0.43990318569461584
-0.48725032771875476	-0.4440708038566692
-0.48718929256250476	-0.44721430869733425
-0.48712825740625476	-0.44932603989371983
-0.48706722225000476	-0.45040077886603513
-0.48700618709375476	-0.45043574379711854
-0.48694515193750476	-0.44943044612965455
-0.48688411678125476	-0.44738675038831804
-0.48682308162500476	-0.44430895646066626
-0.48676204646875476	-0.4402037061957419
-0.48670101131250476	-0.43507992319434036
-0.48663997615625476	-0.4289489547169861
-0.48657894100000476	-0.4218243572898016
-0.48651790584375476	-0.4137220275000777
-0.48645687068750476	-0.4046601562096381
-0.48639583553125476	-0.3946588759298221
-0.48633480037500476	-0.3837407517480109
-0.48627376521875476	-0.3719304045460627
-0.48621273006250476	-0.3592543583817341
-0.48615169490625476	-0.3457412416609938
-0.48609065975000476	-0.33142142278788544
-0.48602962459375476	-0.3163276325777918
-0.48596858943750476	-0.3004938259205627
-0.48590755428125476	-0.28395550349809606
-0.48584651912500476	-0.2667508902701528
-0.48578548396875476	-0.24891862909142873
-0.48572444881250476	-0.23049881684542609
-0.48566341365625476	-0.21153400084347593
-0.48560237850000476	-0.192067027702335
-0.48554134334375476	-0.1721418067801183
-0.48548030818750476	-0.1518041265843553
-0.48541927303125476	-0.1311002642831097
-0.48535823787500476	-0.1100770507311501
-0.48529720271875476	-0.08878273726946817
-0.48523616756250476	-0.0672657923138242
-0.48517513240625476	-0.04557518095246056
-0.48511409725000476	-0.02376070148066135
-0.48505306209375476	-0.001871808016161382
-0.48499202693750476	0.020041166144322345
-0.48493099178125476	0.041928065636278
-0.48486995662500476	0.06373931171798146
-0.48480892146875476	0.08542439548403447
-0.48474788631250476	0.10693385892862187
-0.48468685115625476	0.12821863361806055
-0.48462581600000476	0.14922955099911908
-0.48456478084375476	0.16991864278455263
-0.48450374568750476	0.19023833763043257
-0.48444271053125476	0.21014196399892485
-0.48438167537500476	0.22958371783885573
-0.48432064021875476	0.24851884531050406
-0.48425960506250476	0.26690401770458566
-0.48419856990625476	0.28469650507207395
-0.48413753475000476	0.3018553151333079
-0.48407649959375476	0.3183412501268242
-0.48401546443750476	0.3341157210451743
-0.48395442928125476	0.3491422896985403
-0.48389339412500476	0.36338661263096556
-0.48383235896875476	0.3768151168192043
-0.48377132381250476	0.3893966841076274
-0.48371028865625476	0.4011024030538524
-0.48364925350000476	0.41190463297953805
-0.48358821834375476	0.4217781138274451
-0.48352718318750476	0.43069989298252
-0.48346614803125476	0.4386489449763163
-0.48340511287500476	0.4456063206362988
-0.48334407771875476	0.45155565290849037
-0.48328304256250476	0.45648278819677796
-0.48322200740625476	0.4603755744850303
-0.48316097225000476	0.46322462780410967
-0.48309993709375476	0.46502282856729155
-0.48303890193750476	0.46576523802203956
-0.48297786678125476	0.4654495835117416
-0.48291683162500476	0.46407591379998914
-0.48285579646875476	0.4616466582503535
-0.48279476131250476	0.45816670575577134
-0.48273372615625476	0.453643294442248
-0.48267269100000476	0.4480861585066893
-0.48261165584375476	0.4415072516655013
-0.48255062068750476	0.43392092083139194
-0.48248958553125476	0.4253439676213118
-0.48242855037500476	0.4157951850674667
-0.48236751521875476	0.4052957776200715
-0.48230648006250476	0.3938691772428831
-0.48224544490625476	0.38154079610311914
-0.48218440975000476	0.3683382338412615
-0.48212337459375476	0.3542909362996501
-0.48206233943750476	0.3394305245125409
-0.48200130428125476	0.32379051691267935
-0.48194026912500476	0.30740574410969923
-0.48187923396875476	0.29031327449034117
-0.48181819881250476	0.27255186871108
-0.48175716365625476	0.25416122921046663
-0.48169612850000476	0.2351830558655244
-0.48163509334375476	0.2156603643048642
-0.48157405818750476	0.19563714020468795
-0.48151302303125476	0.1751587994298798
-0.48145198787500476	0.1542716303982835
-0.48139095271875476	0.13302320142398852
-0.48132991756250476	0.11146164355383835
-0.48126888240625476	0.08963549141550511
-0.48120784725000476	0.06759489533469562
-0.48114681209375476	0.04538979981381634
-0.48108577693750476	0.023070183115015973
-0.48102474178125476	0.0006874130751698785
-0.48096370662500476	-0.021707738199579992
-0.48090267146875476	-0.0440645780191086
-0.48084163631250476	-0.06633190860912694
-0.48078060115625476	-0.08845900835582969
-0.48071956600000476	-0.11039549236226928
-0.48065853084375476	-0.1320914607713786
-0.48059749568750476	-0.15349726582776665
-0.48053646053125476	-0.17456397201243173
-0.48047542537500476	-0.19524370754415643
-0.48041439021875476	-0.21548914161041938
-0.48035335506250476	-0.23525394808816869
-0.48029231990625476	-0.2544929536832051
-0.48023128475000476	-0.2731622124145233
-0.48017024959375476	-0.2912191079039078
-0.48010921443750476	-0.3086220178666869
-0.48004817928125476	-0.32533121876495713
-0.47998714412500476	-0.34130873686397356
-0.47992610896875476	-0.35651746167088144
-0.47986507381250476	-0.37092260139550276
-0.47980403865625476	-0.3844915269296629
-0.47974300350000476	-0.39719263294489027
-0.47968196834375476	-0.40899674146043896
-0.47962093318750476	-0.41987703276091565
-0.47955989803125476	-0.42980825368579145
-0.47949886287500476	-0.43876748577508135
-0.47943782771875476	-0.4467342030993141
-0.47937679256250476	-0.4536899568114712
-0.47931575740625476	-0.45961862763939043
-0.47925472225000476	-0.46450656182047784
-0.47919368709375476	-0.4683423287586821
-0.47913265193750476	-0.4711169665474442
-0.47907161678125476	-0.47282402878023744
-0.47901058162500476	-0.47345935977598863
-0.47894954646875476	-0.47302134022471826
-0.47888851131250476	-0.4715108282749129
-0.47882747615625476	-0.46893110671401816
-0.47876644100000476	-0.4652878935211096
-0.47870540584375476	-0.4605893585103524
-0.47864437068750476	-0.45484617002123623
-0.47858333553125476	-0.44807126387724827
-0.47852230037500476	-0.4402800186876074
-0.47846126521875476	-0.4314901597764081
-0.47840023006250476	-0.42172166612594847
-0.47833919490625476	-0.4109968614982921
-0.47827815975000476	-0.39934007902431445
-0.47821712459375476	-0.38677797362248384
-0.47815608943750476	-0.37333931389824065
-0.47809505428125476	-0.35905467432003635
-0.47803401912500476	-0.34395676292192034
-0.47797298396875476	-0.3280801492118318
-0.47791194881250476	-0.3114611172410564
-0.47785091365625476	-0.2941377165312432
-0.47778987850000476	-0.276149657222728
-0.47772884334375476	-0.25753811605087823
-0.47766780818750476	-0.2383457578647522
-0.47760677303125476	-0.2186166113410658
-0.47754573787500476	-0.19839587605401565
-0.47748470271875476	-0.17772997190303125
-0.47742366756250476	-0.15666635544111923
-0.47736263240625476	-0.13525341169570493
-0.47730159725000476	-0.11354005325422463
-0.47724056209375476	-0.09157638985007535
-0.47717952693750476	-0.06941320068195643
-0.47711849178125476	-0.04710062981265702
-0.47705745662500476	-0.024690381864172876
-0.47699642146875476	-0.0022344382260894207
-0.47693538631250476	0.020216354897833976
-0.47687435115625476	0.04260989389731331
-0.47681331600000476	0.06489464243809115
-0.47675228084375476	0.08701966187377495
-0.47669124568750476	0.1089334093889984
-0.47663021053125476	0.13058586993470803
-0.47656917537500476	0.1519273901735394
-0.47650814021875476	0.1729081229985869
-0.47644710506250476	0.1934800528477064
-0.47638606990625476	0.21359612084172008
-0.47632503475000476	0.23320943873537459
-0.47626399959375476	0.25227477186806396
-0.47620296443750476	0.27074861062452465
-0.47614192928125476	0.2885880441891353
-0.47608089412500476	0.3057516614868919
-0.47601985896875476	0.3222002373876167
-0.47595882381250476	0.33789575873312444
-0.47589778865625476	0.3528017144801445
-0.47583675350000476	0.36688379609108224
-0.47577571834375476	0.38010958967427527
-0.47571468318750476	0.39244841784562423
-0.47565364803125476	0.4038716801028197
-0.47559261287500476	0.4143530346679512
-0.47553157771875476	0.42386830109132123
-0.47547054256250476	0.4323953484397799
-0.47540950740625476	0.4399144114496672
-0.47534847225000476	0.44640819721336744
-0.47528743709375476	0.4518615659451658
-0.47522640193750476	0.4562618507373389
-0.47516536678125476	0.45959891307794587
-0.47510433162500476	0.4618649426255869
-0.47504329646875476	0.46305464813728553
-0.47498226131250476	0.46316527044118716
-0.47492122615625476	0.46219651080484986
-0.47486019100000476	0.46015054816159506
-0.47479915584375476	0.45703209662909294
-0.47473812068750476	0.4528483605263576
-0.47467708553125476	0.4476089698467637
-0.47461605037500476	0.44132601120429726
-0.47455501521875476	0.43401404543219096
-0.47449398006250476	0.425690015863363
-0.47443294490625476	0.41637307303340304
-0.47437190975000476	0.40608485022632607
-0.47431087459375476	0.39484930000144497
-0.47424983943750476	0.38269222253099494
-0.47418880428125476	0.3696419028908362
-0.47412776912500476	0.3557287551237783
-0.47406673396875476	0.3409847551957839
-0.47400569881250476	0.32544424933930466
-0.47394466365625476	0.3091435033581601
-0.47388362850000476	0.2921199940812984
-0.47382259334375476	0.2744133709199894
-0.47376155818750476	0.2560650625376663
-0.47370052303125476	0.2371172859227257
-0.47363948787500476	0.21761420966987316
-0.47357845271875476	0.1976013863750333
-0.47351741756250476	0.17712507930611593
-0.47345638240625476	0.15623305564083353
-0.47339534725000476	0.13497390595253234
-0.47333431209375476	0.11339713959592143
-0.47327327693750476	0.09155303914838142
-0.47321224178125476	0.06949229208149359
-0.47315120662500476	0.047266513821554966
-0.47309017146875476	0.024927485203969577
-0.47302913631250476	0.0025271169300509016
-0.47296810115625476	-0.019882083968723162
-0.47290706600000476	-0.04224807140118725
-0.47284603084375476	-0.06451862084424247
-0.47278499568750476	-0.08664131163294266
-0.47272396053125476	-0.10856506855205887
-0.47266292537500476	-0.13023848355513368
-0.47260189021875476	-0.1516103968208613
-0.47254085506250476	-0.17263144079059248
-0.47247981990625476	-0.1932522261033407
-0.47241878475000476	-0.2134242169324149
-0.47235774959375476	-0.2331004668694634
-0.47229671443750476	-0.2522347580829486
-0.47223567928125476	-0.2707821058612339
-0.47217464412500476	-0.2886990051261757
-0.47211360896875476	-0.3059435501406531
-0.47205257381250476	-0.3224750729983659
-0.47199153865625476	-0.3382544824920524
-0.47193050350000476	-0.3532449004190481
-0.47186946834375476	-0.3674110100370386
-0.47180843318750476	-0.3807191648632115
-0.47174739803125476	-0.39313795028973514
-0.47168636287500476	-0.40463809310509374
-0.47162532771875476	-0.4151923021452683
-0.47156429256250476	-0.42477542095800774
-0.47150325740625476	-0.4333646382549076
-0.47144222225000476	-0.44093950690098294
-0.47138118709375476	-0.4474818454571675
-0.47132015193750476	-0.4529757978468446
-0.47125911678125476	-0.4574081083052049
-0.47119808162500476	-0.4607679507321622
-0.47113704646875476	-0.4630468572111987
-0.47107601131250476	-0.4642390167933441
-0.47101497615625476	-0.4643411373888024
-0.47095394100000476	-0.46335239338306755
-0.47089290584375476	-0.46127456083701845
-0.47083187068750476	-0.4581119131763402
-0.47077083553125476	-0.45387130865957376
-0.47070980037500476	-0.4485621123088184
-0.47064876521875476	-0.4421960746683551
-0.47058773006250476	-0.43478759047174986
-0.47052669490625476	-0.4263534292751842
-0.47046565975000476	-0.4169126260746144
-0.47040462459375476	-0.40648677565131763
