Time	Frequency
-0.5000554648125046	0.37490910895747037
-0.4999944296562546	0.3792314726044226
-0.4999333945000046	0.38295702421767686
-0.4998723593437546	0.38607987967681134
-0.4998113241875046	0.3885951067303786
-0.4997502890312546	0.3904989150640733
-0.4996892538750046	0.39178830387213615
-0.4996282187187546	0.39246120476338964
-0.4995671835625046	0.3925167325927557
-0.4995061484062546	0.3919548285126086
-0.4994451132500046	0.3907763563029713
-0.4993840780937546	0.38898332013417386
-0.4993230429375046	0.38657858247549165
-0.4992620077812546	0.3835659731507378
-0.4992009726250046	0.37995037013229266
-0.4991399374687546	0.3757374742973569
-0.4990789023125046	0.37093404079098363
-0.4990178671562546	0.3655477918350946
-0.4989568320000046	0.3595871656389178
-0.4988957968437546	0.35306173289893683
-0.4988347616875046	0.34598196434636536
-0.4987737265312546	0.33835895455162895
-0.4987126913750046	0.3302049208529493
-0.4986516562187546	0.321532904341834
-0.4985906210625046	0.312356580348334
-0.4985295859062546	0.3026906048038164
-0.4984685507500046	0.2925503648005134
-0.4984075155937546	0.2819519914871796
-0.4983464804375046	0.2709123555493428
-0.4982854452812546	0.2594489508307963
-0.4982244101250046	0.24758012331494247
-0.4981633749687546	0.23532475799027905
-0.4981023398125046	0.22270227608151585
-0.4980413046562546	0.20973281981639483
-0.4979802695000046	0.1964370870340943
-0.4979192343437546	0.18283620802826936
-0.4978581991875046	0.1689518039772678
-0.4977971640312546	0.15480614621485242
-0.4977361288750046	0.14042156491832355
-0.4976750937187546	0.12582104937364355
-0.4976140585625046	0.11102816825000528
-0.4975530234062546	0.09606600486699499
-0.4974919882500046	0.08095864070047008
-0.4974309530937546	0.06573048864664374
-0.4973699179375046	0.050405292996007864
-0.4973088827812546	0.03500780857387578
-0.4972478476250046	0.019562761553427573
-0.4971868124687546	0.004094372692069549
-0.4971257773125046	-0.011372263415701026
-0.4970647421562546	-0.026812447159797123
-0.4970037070000046	-0.04220195442969181
-0.4969426718437546	-0.0575156529637192
-0.4968816366875046	-0.07272912169230691
-0.4968206015312546	-0.0878185892975587
-0.4967595663750046	-0.10275924292284148
-0.4966985312187546	-0.1175272629993039
-0.4966374960625046	-0.1320996324181932
-0.4965764609062546	-0.14645227324990723
-0.4965154257500046	-0.16056229430476526
-0.4964543905937546	-0.17440772201897964
-0.4963933554375046	-0.18796564142840383
-0.4963323202812546	-0.20121434633174481
-0.4962712851250046	-0.21413322830143514
-0.4962102499687546	-0.22670088295999413
-0.4961492148125046	-0.23889711936208669
-0.4960881796562546	-0.25070301075699764
-0.4960271445000046	-0.2620988509696658
-0.4959661093437546	-0.27306636769014064
-0.4959050741875046	-0.2835885688272727
-0.4958440390312546	-0.29364771122532773
-0.4957830038750046	-0.3032277642010879
-0.4957219687187546	-0.31231377171080615
-0.4956609335625046	-0.32089035116499687
-0.4955998984062546	-0.3289439444184997
-0.4955388632500046	-0.3364617490449926
-0.4954778280937546	-0.34343104984146766
-0.4954167929375046	-0.3498408938818671
-0.4953557577812546	-0.3556808927235397
-0.4952947226250046	-0.3609411867693667
-0.4952336874687546	-0.36561345704516884
-0.4951726523125046	-0.36969001538038004
-0.4951116171562546	-0.3731639969810636
-0.4950505820000046	-0.37602976864681653
-0.4949895468437546	-0.378282516126626
-0.4949285116875046	-0.37991840853160497
-0.4948674765312546	-0.3809346518390101
-0.4948064413750046	-0.3813293904526571
-0.4947454062187546	-0.38110178158817243
-0.4946843710625046	-0.380251997555531
-0.4946233359062546	-0.37878118594410815
-0.4945623007500046	-0.3766914522687519
-0.4945012655937546	-0.37398596820518415
-0.4944402304375046	-0.3706688678834604
-0.4943791952812546	-0.36674517074249874
-0.4943181601250046	-0.3622210380765302
-0.4942571249687546	-0.3571034875058954
-0.4941960898125046	-0.3514004143529712
-0.4941350546562546	-0.34512089471130275
-0.4940740195000046	-0.33827468907371483
-0.4940129843437546	-0.3308725519482996
-0.4939519491875046	-0.32292621852267966
-0.4938909140312546	-0.31444811796157435
-0.4938298788750046	-0.3054518118201729
-0.4937688437187546	-0.2959513503141721
-0.4937078085625046	-0.28596176930611655
-0.4936467734062546	-0.2754992176838998
-0.4935857382500046	-0.2645799017077401
-0.4935247030937546	-0.25322119937312587
-0.4934636679375046	-0.24144154837848822
-0.4934026327812546	-0.22925932183403652
-0.4933415976250046	-0.2166938053402537
-0.4932805624687546	-0.20376538073064018
-0.4932195273125046	-0.19049450113446617
-0.4931584921562546	-0.17690217127956445
-0.4930974570000046	-0.16301018844320475
-0.4930364218437546	-0.14884076814984645
-0.4929753866875046	-0.13441659269285428
-0.4929143515312546	-0.11976048289074485
-0.4928533163750046	-0.10489605099472783
-0.4927922812187546	-0.08984710151480266
-0.4927312460625046	-0.0746375373016904
-0.4926702109062546	-0.05929206940918435
-0.4926091757500046	-0.04383477065388807
-0.4925481405937546	-0.02829074753218818
-0.4924871054375046	-0.012685307998564497
-0.4924260702812546	0.0029575395486372245
-0.4923650351250046	0.018611821074420817
-0.4923039999687546	0.034252241253777634
-0.4922429648125046	0.04985466426021339
-0.4921819296562546	0.065393087948479
-0.4921208945000046	0.08084260041331566
-0.4920598593437546	0.09617889014715797
-0.4919988241875046	0.11137668600943858
-0.4919377890312546	0.12641161920647018
-0.4918767538750046	0.14125964805353708
-0.4918157187187546	0.15589658842499424
-0.4917546835625046	0.1702988045991872
-0.4916936484062546	0.1844431666282795
-0.4916326132500046	0.19830669728213798
-0.4915715780937546	0.2118668489456716
-0.4915105429375046	0.22510188288716612
-0.4914495077812546	0.2379902063401418
-0.4913884726250046	0.25051082351087867
-0.4913274374687546	0.26264353858868045
-0.4912664023125046	0.27436856846358215
-0.4912053671562546	0.28566685179417955
-0.4911443320000046	0.29651980244175113
-0.4910832968437546	0.3069098989059582
-0.4910222616875046	0.31682027570883503
-0.4909612265312546	0.3262342602825031
-0.4909001913750046	0.3351367059385225
-0.4908391562187546	0.3435132304196192
-0.4907781210625046	0.3513495308880258
-0.4907170859062546	0.3586328301421649
-0.4906560507500046	0.3653514201767217
-0.4905950155937546	0.3714937112192671
-0.4905339804375046	0.37704951893405886
-0.4904729452812546	0.38200980472006424
-0.4904119101250046	0.38636592150621935
-0.4903508749687546	0.39011055692341895
-0.4902898398125046	0.3932373651140314
-0.4902288046562546	0.3957407704266358
-0.4901677695000046	0.39761641575894535
-0.4901067343437546	0.398860858165402
-0.4900456991875046	0.39947162239106104
-0.4899846640312546	0.39944729462734546
-0.4899236288750046	0.3987875033883027
-0.4898625937187546	0.3974928567504273
-0.4898015585625046	0.39556492140073324
-0.4897405234062546	0.39300641740830206
-0.4896794882500046	0.38982100883507304
-0.4896184530937546	0.3860132486705161
-0.4895574179375046	0.3815889044719803
-0.4894963827812546	0.37655463889784735
-0.4894353476250046	0.37091796475498345
-0.4893743124687546	0.3646875783520653
-0.4893132773125046	0.3578730576503551
-0.4892522421562546	0.3504848110345785
-0.4891912070000046	0.3425342779559041
-0.4891301718437546	0.33403388575695664
-0.4890691366875046	0.3249967397831185
-0.4890081015312546	0.31543687876466553
-0.4889470663750046	0.30536944217512574
-0.4888860312187546	0.29480997769249356
-0.4888249960625046	0.2837749836828486
-0.4887639609062546	0.27228206072415645
-0.4887029257500046	0.2603490029858215
-0.4886418905937546	0.2479945371849345
-0.4885808554375046	0.23523845874426402
-0.4885198202812546	0.22210054410419025
-0.4884587851250046	0.20860149474992776
-0.4883977499687546	0.19476303242194445
-0.4883367148125046	0.18060665122009834
-0.4882756796562546	0.16615467395326425
-0.4882146445000046	0.15143041536473326
-0.4881536093437546	0.13645693108788842
-0.4880925741875046	0.1212577244472731
-0.4880315390312546	0.10585732875586171
-0.4879705038750046	0.09028013074502292
-0.4879094687187546	0.07455047970749555
-0.4878484335625046	0.0586936688160448
-0.4877873984062546	0.042735121794096144
-0.4877263632500046	0.02669977906183059
-0.4876653280937546	0.010613247781408312
-0.4876042929375046	-0.005498522620323451
-0.4875432577812546	-0.021610170255134765
-0.4874822226250046	-0.03769599642834848
-0.4874211874687546	-0.05373030584709512
-0.4873601523125046	-0.06968748510563687
-0.4872991171562546	-0.08554199108910356
-0.4872380820000046	-0.10126885162809743
-0.4871770468437546	-0.11684263039657905
-0.4871160116875046	-0.1322383365220536
-0.4870549765312546	-0.14743185060971148
-0.4869939413750046	-0.1623985342217299
-0.4869329062187546	-0.17711426013275486
-0.4868718710625046	-0.1915559753014457
-0.4868108359062546	-0.20570029861784003
-0.4867498007500046	-0.21952434424281822
-0.4866887655937546	-0.2330064349346102
-0.4866277304375046	-0.24612470973737488
-0.4865666952812546	-0.25885798363324597
-0.4865056601250046	-0.2711861830539761
-0.4864446249687546	-0.2830893049074753
-0.4863835898125046	-0.29454822307939094
-0.4863225546562546	-0.3055446481616775
-0.4862615195000046	-0.3160608265178644
-0.4862004843437546	-0.32607998306488434
-0.4861394491875046	-0.3355858178756174
-0.4860784140312546	-0.3445630709109226
-0.4860173788750046	-0.3529975738766254
-0.4859563437187546	-0.36087538251319173
-0.4858953085625046	-0.368183851866322
-0.4858342734062546	-0.3749114858063386
-0.4857732382500046	-0.3810471489571345
-0.4857122030937546	-0.38658096174517453
-0.4856511679375046	-0.3915041041467291
-0.4855901327812546	-0.39580851502407477
-0.4855290976250046	-0.3994872543373218
-0.4854680624687546	-0.40253432855865856
-0.4854070273125046	-0.404944775510643
-0.4853459921562546	-0.40671470530328147
-0.4852849570000046	-0.40784117203483533
-0.4852239218437546	-0.4083222886493262
-0.4851628866875046	-0.4081572487883539
-0.4851018515312546	-0.40734626353428843
-0.4850408163750046	-0.40589053654410034
-0.4849797812187546	-0.40379235928505813
-0.4849187460625046	-0.4010550912856599
-0.4848577109062546	-0.39768301132209916
-0.4847966757500046	-0.3936815024441569
-0.4847356405937546	-0.38905701138979154
-0.4846746054375046	-0.3838168363348357
-0.4846135702812546	-0.37796937817449416
-0.4845525351250046	-0.3715240680691052
-0.4844914999687546	-0.36449116706826323
-0.4844304648125046	-0.35688192616496883
-0.4843694296562546	-0.34870861922504265
-0.4843083945000046	-0.33998440579751005
-0.4842473593437546	-0.3307231589257123
-0.4841863241875046	-0.32093979989501153
-0.4841252890312546	-0.3106502408021349
-0.4840642538750046	-0.2998708309449625
-0.4840032187187546	-0.28861884984502384
-0.4839421835625046	-0.2769126647033376
-0.4838811484062546	-0.2647710362073072
-0.4838201132500046	-0.2522132991896486
-0.4837590780937546	-0.23925994536064002
-0.4836980429375046	-0.22593186906707977
-0.4836370077812546	-0.21225027966231982
-0.4835759726250046	-0.19823751184244795
-0.4835149374687546	-0.18391611741698005
-0.4834539023125046	-0.16930902817131482
-0.4833928671562546	-0.15444007099248666
-0.4833318320000046	-0.13933313043395715
-0.4832707968437546	-0.12401248891699158
-0.4832097616875046	-0.10850311523354415
-0.4831487265312546	-0.09283001185339808
-0.4830876913750046	-0.07701825847635116
-0.4830266562187546	-0.06109372767158174
-0.4829656210625046	-0.04508218505575912
-0.4829045859062546	-0.029009128206443677
-0.4828435507500046	-0.012900944266397214
-0.4827825155937546	0.003216335247414749
-0.4827214804375046	0.019316876137367826
-0.4826604452812546	0.035374364395182954
-0.4825994101250046	0.05136297073224912
-0.4825383749687546	0.06725664832847655
-0.4824773398125046	0.08302967056617369
-0.4824163046562546	0.09865678869785224
-0.4823552695000046	0.11411219408545129
-0.4822942343437546	0.12937101614991628
-0.4822331991875046	0.14440885212774168
-0.4821721640312546	0.159200784256228
-0.4821111288750046	0.17372301976775142
-0.4820500937187546	0.18795227790506366
-0.4819890585625046	0.2018650399835281
-0.4819280234062546	0.21543884289460832
-0.4818669882500046	0.2286518651918654
-0.4818059530937546	0.24148244411785968
-0.4817449179375046	0.25390970104530725
-0.4816838827812546	0.26591352362898096
-0.4816228476250046	0.27747451189848416
-0.4815618124687546	0.2885736847128936
-0.4815007773125046	0.2991929601707101
-0.4814397421562546	0.3093153157854602
-0.4813787070000046	0.31892410065244514
-0.4813176718437546	0.32800363172845587
-0.4812566366875046	0.33653922411950377
-0.4811956015312546	0.3445169971300404
-0.4811345663750046	0.3519239083702705
-0.4810735312187546	0.35874777978367456
-0.4810124960625046	0.36497766835134604
-0.4809514609062546	0.37060338959393513
-0.4808904257500046	0.37561558222873026
-0.4808293905937546	0.38000621627942355
-0.4807683554375046	0.38376816819018267
-0.4807073202812546	0.3868951205204424
-0.4806462851250046	0.3893820204911791
-0.4805852499687546	0.39122487884070045
-0.4805242148125046	0.3924205529465923
-0.4804631796562546	0.39296708396874935
-0.4804021445000046	0.3928636201871526
-0.4803411093437546	0.39211023737256523
-0.4802800741875046	0.39070815756670596
-0.4802190390312546	0.3886596738519113
-0.4801580038750046	0.3859680295570255
-0.4800969687187546	0.3826376558797289
-0.4800359335625046	0.3786739685251102
-0.4799748984062546	0.37408332964126495
-0.4799138632500046	0.3688732942553369
-0.4798528280937546	0.36305232952879124
-0.4797917929375046	0.35662987716525085
-0.4797307577812546	0.34961645307860933
-0.4796697226250046	0.34202347764672847
-0.4796086874687546	0.33386333213290786
-0.4795476523125046	0.3251493333894131
-0.4794866171562546	0.3158957569890605
-0.4794255820000046	0.3061176665017418
-0.4793645468437546	0.29583096599741776
-0.4793035116875046	0.2850527022417193
-0.4792424765312546	0.27380033555605054
-0.4791814413750046	0.26209206448962097
-0.4791204062187546	0.24994753855970744
-0.4790593710625046	0.23738638246492696
-0.4789983359062546	0.22442879982451458
-0.4789373007500046	0.21109665891751458
-0.4788762655937546	0.1974116020606456
-0.4788152304375046	0.18339554017689394
-0.4787541952812546	0.16907213467708182
-0.4786931601250046	0.15446479012274741
-0.4786321249687546	0.13959682143541213
-0.4785710898125046	0.12449337908680973
-0.4785100546562546	0.10917910963048365
-0.4784490195000046	0.093678577980598
-0.4783879843437546	0.07801808896613732
-0.4783269491875046	0.062222946584724464
-0.4782659140312546	0.04631874567863205
-0.4782048788750046	0.0303325647662718
-0.4781438437187546	0.014290060144546061
-0.4780828085625046	-0.001782660697032583
-0.4780217734062546	-0.01785817336217198
-0.4779607382500046	-0.033910602385822906
-0.4778997030937546	-0.04991388533425089
-0.4778386679375046	-0.06584072064124548
-0.4777776327812546	-0.08166525429705647
-0.4777165976250046	-0.09736185557584108
-0.4776555624687546	-0.11290383066663774
-0.4775945273125046	-0.12826575664885348
-0.4775334921562546	-0.14342265286289818
-0.4774724570000046	-0.15834889654275036
-0.4774114218437546	-0.1730199941393409
-0.4773503866875046	-0.18741186071940094
-0.4772893515312546	-0.20150028887882618
-0.4772283163750046	-0.2152621428737497
-0.4771672812187546	-0.22867463567629978
-0.4771062460625046	-0.24171527208919655
-0.4770452109062546	-0.2543625423107543
-0.4769841757500046	-0.2665954249411658
-0.4769231405937546	-0.2783934697257688
-0.4768621054375046	-0.2897370013468759
-0.4768010702812546	-0.3006071628726067
-0.4767400351250046	-0.3109857772295034
-0.4766789999687546	-0.3208554221564102
-0.4766179648125046	-0.3301996266814089
-0.4765569296562546	-0.3390026312303252
-0.4764958945000046	-0.3472497442663371
-0.4764348593437546	-0.35492697673088475
-0.4763738241875046	-0.3620212875557515
-0.4763127890312546	-0.36852090631293555
-0.4762517538750046	-0.3744145323958353
-0.4761907187187546	-0.3796921302306603
-0.4761296835625046	-0.38434483261690566
-0.4760686484062546	-0.3883643905559384
-0.4760076132500046	-0.39174388440782976
-0.4759465780937546	-0.39447739909749346
-0.4758855429375046	-0.39655995278711037
-0.4758245077812546	-0.39798778638099375
-0.4757634726250046	-0.39875810147012464
-0.4757024374687546	-0.3988692044425517
-0.4756414023125046	-0.39832055766819735
-0.4755803671562546	-0.3971125747475372
-0.4755193320000046	-0.39524681427275254
-0.4754582968437546	-0.39272602589407735
-0.4753972616875046	-0.3895538253353111
-0.4753362265312546	-0.3857349795467745
-0.4752751913750046	-0.3812755008391656
-0.4752141562187546	-0.37618219115808954
-0.4751531210625046	-0.3704629373863346
-0.4750920859062546	-0.36412687959234413
-0.4750310507500046	-0.35718401588443166
-0.4749700155937546	-0.3496451798778183
-0.4749089804375046	-0.34152248219076276
-0.4748479452812546	-0.3328290415821553
-0.4747869101250046	-0.3235784399096373
-0.4747258749687546	-0.31378560325120214
-0.4746648398125046	-0.3034665641559905
-0.4746038046562546	-0.2926374752755369
-0.4745427695000046	-0.28131588863757234
-0.4744817343437546	-0.26952041619735484
-0.4744206991875046	-0.25726963504959693
-0.4743596640312546	-0.24458353127129406
-0.4742986288750046	-0.23148286279099145
-0.4742375937187546	-0.21798845039560427
-0.4741765585625046	-0.20412242650862542
-0.4741155234062546	-0.18990739032462464
-0.4740544882500046	-0.1753661560434878
-0.4739934530937546	-0.1605225019956325
-0.4739324179375046	-0.14540065656350584
-0.4738713827812546	-0.13002518582498257
-0.4738103476250046	-0.11442106260206324
-0.4737493124687546	-0.09861375569507896
-0.4736882773125046	-0.08262918933765667
-0.4736272421562546	-0.06649334268967509
-0.4735662070000046	-0.0502325000232579
-0.4735051718437546	-0.03387338465871841
-0.4734441366875046	-0.01744277158380138
-0.4733831015312546	-0.0009673300021672362
-0.4733220663750046	0.015525825936626955
-0.4732610312187546	0.03200944006176715
-0.4731999960625046	0.048456996159248845
-0.4731389609062546	0.06484131224589897
-0.4730779257500046	0.08113501724634012
-0.4730168905937546	0.09731216515328371
-0.4729558554375046	0.11334591136253297
-0.4728948202812546	0.1292093022475379
-0.4728337851250046	0.14487709292900966
-0.4727727499687546	0.16032325429699798
-0.4727117148125046	0.17552190710152046
-0.4726506796562546	0.19044857793325554
-0.4725896445000046	0.20507844140856155
-0.4725286093437546	0.21938725206516177
-0.4724675741875046	0.2333516560549624
-0.4724065390312546	0.24694830148338148
-0.4723455038750046	0.2601548774702169
-0.4722844687187546	0.27294966343448585
-0.4722234335625046	0.28531115944095453
-0.4721623984062546	0.2972190962907611
-0.4721013632500046	0.30865380113906427
-0.4720403280937546	0.31959609586097626
-0.4719792929375046	0.33002793090764543
-0.4719182577812546	0.3399319456214672
-0.4718572226250046	0.3492916033237917
-0.4717961874687546	0.35809139089007175
-0.4717351523125046	0.3663164925901734
-0.4716741171562546	0.3739532307037791
-0.4716130820000046	0.38098888305140843
-0.4715520468437546	0.3874114386609885
-0.4714910116875046	0.3932102243446298
-0.4714299765312546	0.39837552195945347
-0.4713689413750046	0.40289838381140575
-0.4713079062187546	0.40677117360272197
-0.4712468710625046	0.4099873836269033
-0.4711858359062546	0.4125413156970362
-0.4711248007500046	0.41442844487060954
-0.4710637655937546	0.41564555469966685
-0.4710027304375046	0.4161902853092653
-0.4709416952812546	0.4160613736330651
-0.4708806601250046	0.41525888004030975
-0.4708196249687546	0.41378380204342885
-0.4707585898125046	0.41163820948068547
-0.4706975546562546	0.4088254496507376
-0.4706365195000046	0.40534984682316766
-0.4705754843437546	0.4012167559800814
-0.4705144491875046	0.396432801298839
-0.4704534140312546	0.3910055655363191
-0.4703923788750046	0.38494363695027306
-0.4703313437187546	0.37825677740816077
-0.4702703085625046	0.37095572361935936
-0.4702092734062546	0.3630522384571221
-0.4701482382500046	0.35455901481556035
-0.4700872030937546	0.345489834148241
-0.4700261679375046	0.3358594033066758
-0.4699651327812546	0.3256832070700732
-0.4699040976250046	0.31497793623220327
-0.4698430624687546	0.30376088451071376
-0.4697820273125046	0.2920501798168914
-0.4697209921562546	0.27986519697121315
