Time	Frequency
-0.5000583798125007	2.1138130916616918e-24
-0.4999973446562507	2.2241197798340042e-24
-0.4999363095000007	2.330619388472866e-24
-0.4998752743437507	2.4331267135923336e-24
-0.4998142391875007	2.531461864303068e-24
-0.4997532040312507	2.6254525558056115e-24
-0.4996921688750007	2.714936111039334e-24
-0.4996311337187507	2.799754284417778e-24
-0.4995700985625007	2.8797584439489315e-24
-0.4995090634062507	2.9548105667678697e-24
-0.4994480282500007	3.0247778477881076e-24
-0.4993869930937507	3.0895367569052095e-24
-0.4993259579375007	3.1489760551662577e-24
-0.4992649227812507	3.202990953283163e-24
-0.4992038876250007	3.2514851362353465e-24
-0.4991428524687507	3.2943756188991168e-24
-0.4990818173125007	3.331586810922696e-24
-0.4990207821562507	3.363052276090171e-24
-0.4989597470000007	3.3887182416523775e-24
-0.4988987118437507	3.408539025299174e-24
-0.4988376766875007	3.422479487176151e-24
-0.4987766415312507	3.430516041058728e-24
-0.4987156063750007	3.432634000206317e-24
-0.4986545712187507	3.428829436005576e-24
-0.4985935360625007	3.4191095801143696e-24
-0.4985325009062507	3.4034913110002545e-24
-0.4984714657500007	3.3820016566451686e-24
-0.4984104305937507	3.354678859562219e-24
-0.4983493954375007	3.32157102442803e-24
-0.4982883602812507	3.282735575304538e-24
-0.4982273251250007	3.2382414422507528e-24
-0.4981662899687507	3.188167148173115e-24
-0.4981052548125007	3.132599730722008e-24
-0.4980442196562507	3.0716376401719745e-24
-0.4979831845000007	3.0053882358822812e-24
-0.4979221493437507	2.9339677443369186e-24
-0.4978611141875007	2.8575021383247986e-24
-0.4978000790312507	2.776125328062795e-24
-0.4977390438750007	2.6899816837921283e-24
-0.4976780087187507	2.599222996584413e-24
-0.4976169735625007	2.504006854946177e-24
-0.4975559384062507	2.4045034700939095e-24
-0.4974949032500007	2.3008889491571277e-24
-0.4974338680937507	2.1933415055412608e-24
-0.4973728329375007	2.0820547084179576e-24
-0.4973117977812507	1.9672254100436733e-24
-0.4972507626250007	1.849051225775555e-24
-0.4971897274687507	1.7277449561126702e-24
-0.4971286923125007	1.6035202816982127e-24
-0.4970676571562507	1.476593830376732e-24
-0.4970066220000007	1.3471912975201787e-24
-0.4969455868437507	1.2155412431688774e-24
-0.4968845516875007	1.0818761540398045e-24
-0.4968235165312507	9.464304622325738e-25
-0.4967624813750007	8.094442213793267e-25
-0.4967014462187507	6.71161351746742e-25
-0.4966404110625007	5.3182294334390355e-25
-0.4965793759062507	3.9167527366805105e-25
-0.4965183407500007	2.509703509534118e-25
-0.4964573055937507	1.099524193444757e-25
-0.4963962704375007	-3.1130223158514285e-26
-0.4963352352812507	-1.720224684444985e-25
-0.4962742001250007	-3.124793881170123e-25
-0.4962131649687507	-4.522535704238923e-25
-0.4961521298125007	-5.910940999703993e-25
-0.4960910946562507	-7.2875768381616155e-25
-0.4960300595000007	-8.650008532652672e-25
-0.4959690243437507	-9.995809748002048e-25
-0.4959079891875007	-1.1322615717572284e-24
-0.4958469540312507	-1.262807008756965e-24
-0.4957859188750007	-1.390985177909564e-24
-0.4957248837187507	-1.516571483675798e-24
-0.4956638485625007	-1.6393411868483223e-24
-0.4956028134062507	-1.7590769982412403e-24
-0.4955417782500007	-1.8755696351173977e-24
-0.4954807430937507	-1.9886090119287377e-24
-0.4954197079375007	-2.0979957018778797e-24
-0.4953586727812507	-2.2035386071245855e-24
-0.4952976376250007	-2.3050471271052397e-24
-0.4952366024687507	-2.4023421203556883e-24
-0.4951755673125007	-2.4952535211874443e-24
-0.4951145321562507	-2.5836133121520776e-24
-0.4950534970000007	-2.6672659058698232e-24
-0.4949924618437507	-2.7460646538251227e-24
-0.4949314266875007	-2.8198671040526037e-24
-0.4948703915312507	-2.8885437356050783e-24
-0.4948093563750007	-2.9519733056522395e-24
-0.4947483212187507	-3.010041528153829e-24
-0.4946872860625007	-3.0626467700238624e-24
-0.4946262509062507	-3.109695725098032e-24
-0.4945652157500007	-3.1511038154921523e-24
-0.4945041805937507	-3.186798695119937e-24
-0.4944431454375007	-3.2167167782697996e-24
-0.4943821102812507	-3.240804565219078e-24
-0.4943210751250007	-3.25902024196191e-24
-0.4942600399687507	-3.271331029497201e-24
-0.4941990048125007	-3.277715054132512e-24
-0.4941379696562507	-3.2781619357758836e-24
-0.4940769345000007	-3.272670626817079e-24
-0.4940158993437507	-3.2612507970213095e-24
-0.4939548641875007	-3.2439237769918992e-24
-0.4938938290312507	-3.220720457929537e-24
-0.4938327938750007	-3.1916818915437794e-24
-0.4937717587187507	-3.156860715595271e-24
-0.4937107235625007	-3.1163194940787797e-24
-0.4936496884062507	-3.0701299179985076e-24
-0.4935886532500007	-3.018374921163437e-24
-0.4935276180937507	-2.9611483407874494e-24
-0.4934665829375007	-2.898550921687141e-24
-0.4934055477812507	-2.8306946728013883e-24
-0.4933445126250007	-2.7577033073907765e-24
-0.4932834774687507	-2.6797051241824186e-24
-0.4932224423125007	-2.596839663514439e-24
-0.4931614071562507	-2.5092577142745392e-24
-0.4931003720000007	-2.4171138497189108e-24
-0.4930393368437507	-2.3205733850566436e-24
-0.4929783016875007	-2.2198107042120376e-24
-0.4929172665312507	-2.115004318178693e-24
-0.4928562313750007	-2.0063436276834677e-24
-0.4927951962187507	-1.8940233993332004e-24
-0.4927341610625007	-1.778243277070648e-24
-0.4926731259062507	-1.6592130532872496e-24
-0.4926120907500007	-1.5371451658599414e-24
-0.4925510555937507	-1.4122587428308244e-24
-0.4924900204375007	-1.2847783729334218e-24
-0.4924289852812507	-1.1549316318683273e-24
-0.4923679501250007	-1.0229540110187635e-24
-0.4923069149687507	-8.890806169797927e-25
-0.4922458798125007	-7.5355223530763625e-25
-0.4921848446562507	-6.166143727843466e-25
-0.4921238095000007	-4.785103323589794e-25
-0.4920627743437507	-3.394908469224119e-25
-0.4920017391875007	-1.998060848694862e-25
-0.4919407040312507	-5.970541498533157e-26
-0.4918796688750007	8.055696732345676e-26
-0.4918186337187507	2.2072801846072382e-25
-0.4917575985625007	3.6055628259648987e-25
-0.4916965634062507	4.997906300429725e-25
-0.4916355282500007	6.38176363155189e-25
-0.4915744930937507	7.754653892985345e-25
-0.4915134579375007	9.114134885337138e-25
-0.4914524227812507	1.0457688070654985e-24
-0.4913913876250007	1.1782898036325236e-24
-0.4913303524687507	1.308742154514073e-24
-0.4912693173125007	1.4368843979592431e-24
-0.4912082821562507	1.562482651933432e-24
-0.4911472470000007	1.6853157315434814e-24
-0.4910862118437507	1.805157956636982e-24
-0.4910251766875007	1.9217872878663324e-24
-0.4909641415312507	2.034998255665448e-24
-0.4909031063750007	2.1445835607315356e-24
-0.4908420712187507	2.2503395275363322e-24
-0.4907810360625007	2.352077376643887e-24
-0.4907200009062507	2.449611649422149e-24
-0.4906589657500007	2.5427616109640487e-24
-0.4905979305937507	2.6313574076466032e-24
-0.4905368954375007	2.7152385894808507e-24
-0.4904758602812507	2.794249527898465e-24
-0.4904148251250007	2.868244076987744e-24
-0.4903537899687507	2.937087611119788e-24
-0.4902927548125007	3.000651811298711e-24
-0.4902317196562507	3.058818606450742e-24
-0.4901706845000007	3.111480112729012e-24
-0.4901096493437507	3.158537472136379e-24
-0.4900486141875007	3.199902302897518e-24
-0.4899875790312507	3.2354961996854962e-24
-0.4899265438750007	3.2652512146640118e-24
-0.4898655087187507	3.2891092366667387e-24
-0.4898044735625007	3.3070234174462722e-24
-0.4897434384062507	3.318957590560994e-24
-0.4896824032500007	3.324885324976297e-24
-0.4896213680937507	3.32479171558194e-24
-0.4895603329375007	3.318672724842395e-24
-0.4894992977812507	3.306534778858153e-24
-0.4894382626250007	3.2883949324123826e-24
-0.4893772274687507	3.2642812815769615e-24
-0.4893161923125007	3.234233056482538e-24
-0.4892551571562507	3.1982991951722853e-24
-0.4891941220000007	3.156539474376794e-24
-0.4891330868437507	3.109025248620693e-24
-0.4890720516875007	3.055836915917796e-24
-0.4890110165312507	2.9970647007221323e-24
-0.4889499813750007	2.9328109563565864e-24
-0.4888889462187507	2.863186475132558e-24
-0.4888279110625007	2.7883108117129274e-24
-0.4887668759062507	2.708315269381043e-24
-0.4887058407500007	2.6233390266142018e-24
-0.4886448055937507	2.5335301406781953e-24
-0.4885837704375007	2.4390457142658124e-24
-0.4885227352812507	2.3400518096977858e-24
-0.4884617001250007	2.2367225937768044e-24
-0.4884006649687507	2.129237673387346e-24
-0.4883396298125007	2.0177888095309927e-24
-0.4882785946562507	1.902571959171654e-24
-0.4882175595000007	1.783787905690618e-24
-0.4881565243437507	1.6616499855738847e-24
-0.4880954891875007	1.5363722645931036e-24
-0.4880344540312507	1.4081761618384786e-24
-0.4879734188750007	1.2772899726061579e-24
-0.4879123837187507	1.1439444549135667e-24
-0.4878513485625007	1.008377568998331e-24
-0.4877903134062507	8.708283649083787e-25
-0.4877292782500007	7.31542338186262e-25
-0.4876682430937507	5.907676693033438e-25
-0.4876072079375007	4.487531105990987e-25
-0.4875461727812507	3.057524367293818e-25
-0.4874851376250007	1.6202063887636114e-25
-0.4874241024687507	1.781446204536523e-26
-0.4873630673125007	-1.266109788186342e-25
-0.4873020321562507	-2.7099623244268153e-25
-0.4872409970000007	-4.150826503666554e-25
-0.4871799618437507	-5.5861588797035415e-25
-0.4871189266875007	-7.013356381251611e-25
-0.4870578915312507	-8.42988165459679e-25
-0.4869968563750007	-9.833221411261936e-25
-0.4869358212187507	-1.1220818511921781e-24
-0.4868747860625007	-1.2590204309645413e-24
-0.4868137509062507	-1.3938948344241911e-24
-0.4867527157500007	-1.5264598477960568e-24
-0.4866916805937507	-1.6564766850072155e-24
-0.4866306454375007	-1.7837157858875646e-24
-0.4865696102812507	-1.9079456299057618e-24
-0.4865085751250007	-2.0289409193832e-24
-0.4864475399687507	-2.1464885903467063e-24
-0.4863865048125007	-2.2603732173733096e-24
-0.4863254696562507	-2.370388813260756e-24
-0.4862644345000007	-2.476340456189795e-24
-0.4862033993437507	-2.578033519845353e-24
-0.4861423641875007	-2.675284615225019e-24
-0.4860813290312507	-2.7679193214450026e-24
-0.4860202938750007	-2.8557673916883838e-24
-0.4859592587187507	-2.938671057794875e-24
-0.4858982235625007	-3.0164798945058415e-24
-0.4858371884062507	-3.0890499478913872e-24
-0.4857761532500007	-3.1562513905751773e-24
-0.4857151180937507	-3.2179609247980804e-24
-0.4856540829375007	-3.27406394509799e-24
-0.4855930477812507	-3.324459212143753e-24
-0.4855320126250007	-3.369053072544982e-24
-0.4854709774687507	-3.407762651387883e-24
-0.4854099423125007	-3.440516559290236e-24
-0.4853489071562507	-3.467252921034494e-24
-0.4852878720000007	-3.487920940187648e-24
-0.4852268368437507	-3.5024809273441115e-24
-0.4851658016875007	-3.510903944584731e-24
-0.4851047665312507	-3.513171892817749e-24
-0.4850437313750007	-3.509277786835078e-24
-0.4849826962187507	-3.4992255578333336e-24
-0.4849216610625007	-3.483030548770907e-24
-0.4848606259062507	-3.460718732471949e-24
-0.4847995907500007	-3.432326695215149e-24
-0.4847385555937507	-3.397903144094078e-24
-0.4846775204375007	-3.357506473133181e-24
-0.4846164852812507	-3.311205577549972e-24
-0.4845554501250007	-3.2590816588209642e-24
-0.4844944149687507	-3.2012247066864627e-24
-0.4844333798125007	-3.1377349833923334e-24
-0.4843723446562507	-3.0687245231545044e-24
-0.4843113095000007	-2.994314036147551e-24
-0.4842502743437507	-2.9146331844817873e-24
-0.4841892391875007	-2.82982300280219e-24
-0.4841282040312507	-2.7400336694514053e-24
-0.4840671688750007	-2.6454214460720083e-24
-0.4840061337187507	-2.546154502674714e-24
-0.4839450985625007	-2.4424099292293925e-24
-0.4838840634062507	-2.3343682486139213e-24
-0.4838230282500007	-2.22222220786122e-24
-0.4837619930937507	-2.106172427602646e-24
-0.4837009579375007	-1.986421909339825e-24
-0.4836399227812507	-1.8631834619700336e-24
-0.4835788876250007	-1.7366786584327384e-24
-0.4835178524687507	-1.6071305787245955e-24
-0.4834568173125007	-1.47476769092705e-24
-0.4833957821562507	-1.339828963924796e-24
-0.4833347470000007	-1.202553477226183e-24
-0.4832737118437507	-1.0631838187720843e-24
-0.4832126766875007	-9.21971073295797e-25
-0.4831516415312507	-7.7916542837780095e-25
-0.4830906063750007	-6.350209563900024e-25
-0.4830295712187507	-4.897968385708243e-25
-0.4829685360625007	-3.4375114131723217e-25
-0.4829075009062507	-1.971431746605518e-25
-0.4828464657500007	-5.023662911277492e-26
-0.4827854305937507	9.670508907116747e-26
-0.4827243954375007	2.4342272529347393e-25
-0.4826633602812507	3.8965251315570738e-25
-0.4826023251250007	5.3513051527845795e-25
-0.4825412899687507	6.796004531105251e-25
-0.4824802548125007	8.228028253328147e-25
-0.4824192196562507	9.644788184194022e-25
-0.4823581845000007	1.104377671029043e-24
-0.4822971493437507	1.242249366857446e-24
-0.4822361141875007	1.3778444255283229e-24
-0.4821750790312507	1.510920977054341e-24
-0.4821140438750007	1.6412430469390146e-24
-0.4820530087187507	1.7685741016229793e-24
-0.4819919735625007	1.8926863895892476e-24
-0.4819309384062507	2.0133603163722313e-24
-0.4818699032500007	2.1303764217147276e-24
-0.4818088680937507	2.2435255252525664e-24
-0.4817478329375007	2.3526071442726953e-24
-0.4816867977812507	2.4574236521915047e-24
-0.4816257626250007	2.5577864268314986e-24
-0.4815647274687507	2.6535177678429715e-24
-0.4815036923125007	2.74444597506005e-24
-0.4814426571562507	2.8304054767964775e-24
-0.4813816220000007	2.9112443526256066e-24
-0.4813205868437507	2.9868187543218857e-24
-0.4812595516875007	3.056990273910232e-24
-0.4811985165312507	3.121635185055843e-24
-0.4811374813750007	3.1806384463393523e-24
-0.4810764462187507	3.233892422994537e-24
-0.4810154110625007	3.281303391128151e-24
-0.4809543759062507	3.322786652034142e-24
-0.4808933407500007	3.3582672862194635e-24
-0.4808323055937507	3.387683125776627e-24
-0.4807712704375007	3.410981700779022e-24
-0.4807102352812507	3.42812132940563e-24
-0.4806492001250007	3.439072575698423e-24
-0.4805881649687507	3.443816574877105e-24
-0.4805271298125007	3.4423452588305034e-24
-0.4804660946562507	3.4346625171470145e-24
-0.4804050595000007	3.4207833445780226e-24
-0.4803440243437507	3.400733456343344e-24
-0.4802829891875007	3.374550249687138e-24
-0.4802219540312507	3.3422822414396724e-24
-0.4801609188750007	3.3039884440430465e-24
-0.4800998837187507	3.2597394257990424e-24
-0.4800388485625007	3.2096162406362936e-24
-0.4799778134062507	3.1537104069336e-24
-0.4799167782500007	3.092124769328196e-24
-0.4798557430937507	3.024970929972639e-24
-0.4797947079375007	2.9523724256257858e-24
-0.4797336727812507	2.8744621355275923e-24
-0.4796726376250007	2.7913800163765338e-24
-0.4796116024687507	2.7032811004403956e-24
-0.4795505673125007	2.61032465592934e-24
-0.4794895321562507	2.5126773362604273e-24
-0.4794284970000007	2.410523290118078e-24
-0.4793674618437507	2.304045329012315e-24
-0.4793064266875007	2.193435189311876e-24
-0.4792453915312507	2.0789010548228418e-24
-0.4791843563750007	1.96064764061811e-24
-0.4791233212187507	1.8388894997569998e-24
-0.4790622860625007	1.71385402227397e-24
-0.4790012509062507	1.585765035839297e-24
-0.4789402157500007	1.4548560406823716e-24
-0.4788791805937507	1.3213708391059852e-24
-0.4788181454375007	1.185548574426434e-24
-0.4787571102812507	1.0476368055661099e-24
-0.4786960751250007	9.07892835228375e-25
-0.4786350399687507	7.665670956811414e-25
-0.4785740048125007	6.239168835244828e-25
-0.4785129696562507	4.802091406351997e-25
-0.4784519345000007	3.357007597271906e-25
-0.4783908993437507	1.906560737775804e-25
-0.4783298641875007	4.534600110551039e-26
-0.4782688290312507	-9.997059230633255e-26
-0.4782077938750007	-2.4502495419934844e-25
-0.4781467587187507	-3.8954833047762523e-25
-0.4780857235625007	-5.33282443950092e-25
-0.4780246884062507	-6.759607843852055e-25
-0.4779636532500007	-8.173199369913922e-25
-0.4779026180937507	-9.571042551774282e-25
-0.4778415829375007	-1.095057780867665e-24
-0.4777805477812507	-1.2309248393253966e-24
-0.4777195126250007	-1.3644566043687298e-24
-0.4776584774687507	-1.4954115059668004e-24
-0.4775974423125007	-1.6235455388949174e-24
-0.4775364071562507	-1.748623241496172e-24
-0.4774753720000007	-1.870419147873843e-24
-0.4774143368437507	-1.9887047578207257e-24
-0.4773533016875007	-2.103262784434944e-24
-0.4772922665312507	-2.213887076351422e-24
-0.4772312313750007	-2.320369623799143e-24
-0.4771701962187507	-2.4225138686104768e-24
-0.4771091610625007	-2.5201352752387402e-24
-0.4770481259062507	-2.6130513389313396e-24
-0.4769870907500007	-2.701089841355849e-24
-0.4769260555937507	-2.7840899806662174e-24
-0.4768650204375007	-2.861897368099511e-24
-0.4768039852812507	-2.934367512131826e-24
-0.4767429501250007	-3.0013667931594187e-24
-0.4766819149687507	-3.0627707836987737e-24
-0.4766208798125007	-3.1184645532209453e-24
-0.4765598446562507	-3.1683446622112584e-24
-0.4764988095000007	-3.2123186032539936e-24
-0.4764377743437507	-3.2503030291624902e-24
-0.4763767391875007	-3.282226473978788e-24
-0.4763157040312507	-3.308029184976562e-24
-0.4762546688750007	-3.327661423227093e-24
-0.4761936337187507	-3.34108516918297e-24
-0.4761325985625007	-3.348274048458591e-24
-0.4760715634062507	-3.3492127222566124e-24
-0.4760105282500007	-3.343897400076199e-24
-0.4759494930937507	-3.332335773430858e-24
-0.4758884579375007	-3.314546982747523e-24
-0.4758274227812507	-3.2905615340374413e-24
-0.4757663876250007	-3.2604214145924954e-24
-0.4757053524687507	-3.2241797077266645e-24
-0.4756443173125007	-3.1819005651305048e-24
-0.4755832821562507	-3.1336603111830766e-24
-0.4755222470000007	-3.0795445376288085e-24
-0.4754612118437507	-3.0196502336388883e-24
-0.4754001766875007	-2.9540870366112003e-24
-0.4753391415312507	-2.8829711294709314e-24
-0.4752781063750007	-2.8064316884117387e-24
-0.4752170712187507	-2.724609057721517e-24
-0.4751560360625007	-2.6376486871949052e-24
-0.4750950009062507	-2.5457095825536527e-24
-0.4750339657500007	-2.448960363848646e-24
-0.4749729305937507	-2.3475745310831375e-24
-0.4749118954375007	-2.241736632312637e-24
-0.4748508602812507	-2.1316417885768237e-24
-0.4747898251250007	-2.0174890345846154e-24
-0.4747287899687507	-1.8994848511439132e-24
-0.4746677548125007	-1.7778481767756274e-24
-0.4746067196562507	-1.6527993949375598e-24
-0.4745456845000007	-1.5245646654301262e-24
-0.4744846493437507	-1.3933834066525835e-24
-0.4744236141875007	-1.2594919290812064e-24
-0.4743625790312507	-1.123134288823697e-24
-0.4743015438750007	-9.845654672663068e-25
-0.4742405087187507	-8.440341548839126e-25
-0.4741794735625007	-7.017989088059638e-25
-0.4741184384062507	-5.5812395729029975e-25
-0.4740574032500007	-4.1326954785019215e-25
-0.4739963680937507	-2.6750166252755667e-25
-0.4739353329375007	-1.2109088313125928e-25
-0.4738742977812507	2.5695277869519558e-26
-0.4738132626250007	1.7258964916941637e-25
-0.4737522274687507	3.1931571753756555e-25
-0.4736911923125007	4.656071455239081e-25
-0.4736301571562507	6.1119814141432085e-25
-0.4735691220000007	7.558114631236282e-25
-0.4735080868437507	8.99185571478543e-25
-0.4734470516875007	1.0410594424532961e-24
-0.4733860165312507	1.1811638173486124e-24
-0.4733249813750007	1.3192417844977618e-24
-0.4732639462187507	1.4550427735490043e-24
-0.4732029110625007	1.5883108684279448e-24
-0.4731418759062507	1.7187979543365596e-24
-0.4730808407500007	1.8462672265301624e-24
-0.4730198055937507	1.970479510410601e-24
-0.4729587704375007	2.0912025417195958e-24
-0.4728977352812507	2.2082147729289624e-24
-0.4728367001250007	2.321298113541995e-24
-0.4727756649687507	2.4302403462020316e-24
-0.4727146298125007	2.5348391223778072e-24
-0.4726535946562507	2.6349008764225438e-24
-0.4725925595000007	2.7302361737705547e-24
-0.4725315243437507	2.8206666047283185e-24
-0.4724704891875007	2.9060251554561272e-24
-0.4724094540312507	2.9861493765330652e-24
-0.4723484188750007	3.060887446431032e-24
-0.4722873837187507	3.1301005874295036e-24
-0.4722263485625007	3.1936573332841937e-24
-0.4721653134062507	3.251435141791168e-24
-0.4721042782500007	3.303325472929227e-24
-0.4720432430937507	3.349229051606672e-24
-0.4719822079375007	3.3890558364784656e-24
-0.4719211727812507	3.422729718965674e-24
-0.4718601376250007	3.4501842675618154e-24
-0.4717991024687507	3.4713638523530566e-24
-0.4717380673125007	3.486226056768402e-24
