Time	Frequency
-0.500009059968761	0.3064195982076836
-0.499948024812511	0.3276470758693184
-0.499886989656261	0.3478509718205279
-0.499825954500011	0.36696908244442666
-0.499764919343761	0.3849410203339599
-0.499703884187511	0.40171074348046915
-0.499642849031261	0.4172266026004191
-0.499581813875011	0.4314399149214448
-0.499520778718761	0.44430596879692513
-0.499459743562511	0.4557845783319401
-0.499398708406261	0.46583987368824786
-0.499337673250011	0.4744402113531625
-0.499276638093761	0.4815582055096411
-0.499215602937511	0.487171394536155
-0.499154567781261	0.4912619806529489
-0.499093532625011	0.4938165144750548
-0.499032497468761	0.4948265128595861
-0.498971462312511	0.49428837892572247
-0.498910427156261	0.4922031072400511
-0.498849392000011	0.48857646159067347
-0.498788356843761	0.4834191176235522
-0.498727321687511	0.47674646727311737
-0.498666286531261	0.46857847208571546
-0.498605251375011	0.45893984134182225
-0.498544216218761	0.44785980584085383
-0.498483181062511	0.43537204267784724
-0.498422145906261	0.4215147574375474
-0.498361110750011	0.4063301282063634
-0.498300075593761	0.3898645883852075
-0.498239040437511	0.372168844054874
-0.498178005281261	0.353296922162902
-0.498116970125011	0.3333067640582492
-0.498055934968761	0.31226002793078456
-0.497994899812511	0.290221220111213
-0.497933864656261	0.2672582418559782
-0.497872829500011	0.2434419620419055
-0.497811794343761	0.2188455356211208
-0.497750759187511	0.19354496921883274
-0.497689724031261	0.1676185925731041
-0.497628688875011	0.14114598140378826
-0.497567653718761	0.114209058222648
-0.497506618562511	0.08689163566254565
-0.497445583406261	0.05927762915209718
-0.497384548250011	0.03145238489202345
-0.497323513093761	0.003502799273905486
-0.497262477937511	-0.024484968559738536
-0.497201442781261	-0.052424436221614835
-0.497140407625011	-0.08022825242338445
-0.497079372468761	-0.10781056142085756
-0.497018337312511	-0.13508577650950657
-0.496957302156261	-0.16196858025377112
-0.496896267000011	-0.18837583076684022
-0.496835231843761	-0.21422537334991726
-0.496774196687511	-0.23943642307995552
-0.496713161531261	-0.26393041362913483
-0.496652126375011	-0.2876309808418145
-0.496591091218761	-0.3104643658804237
-0.496530056062511	-0.3323589014487602
-0.496469020906261	-0.35324590489451346
-0.496407985750011	-0.37306043384849
-0.496346950593761	-0.39174012970405325
-0.496285915437511	-0.4092260309051126
-0.496224880281261	-0.42546337874847373
-0.496163845125011	-0.440401017056509
-0.496102809968761	-0.45399161986090064
-0.496041774812511	-0.466191996316416
-0.495980739656261	-0.47696351023555283
-0.495919704500011	-0.48627178330476506
-0.495858669343761	-0.4940867100632143
-0.495797634187511	-0.5003831410579683
-0.495736599031261	-0.5051404251923954
-0.495675563875011	-0.5083425961472474
-0.495614528718761	-0.5099786848862345
-0.495553493562511	-0.510042394427132
-0.495492458406261	-0.5085322962000233
-0.495431423250011	-0.5054519145032454
-0.495370388093761	-0.5008096003941858
-0.495309352937511	-0.49461850076081104
-0.495248317781261	-0.486896521251372
-0.495187282625011	-0.47766643478472065
-0.495126247468761	-0.4669556866868391
-0.495065212312511	-0.4547961228137199
-0.495004177156261	-0.4412242728057129
-0.494943142000011	-0.4262810475244296
-0.494882106843761	-0.4100114748812674
-0.494821071687511	-0.3924649831302219
-0.494760036531261	-0.3736946566588557
-0.494699001375011	-0.3537574616684623
-0.494637966218761	-0.3327143773351319
-0.494576931062511	-0.31062930877632006
-0.494515895906261	-0.28756965961431336
-0.494454860750011	-0.26360606079705035
-0.494393825593761	-0.2388115858038741
-0.494332790437511	-0.21326220479183008
-0.494271755281261	-0.18703632997451464
-0.494210720125011	-0.16021414728776287
-0.494149684968761	-0.13287797854003391
-0.494088649812511	-0.10511200674909307
-0.494027614656261	-0.07700129036896702
-0.493966579500011	-0.048632152296676626
-0.493905544343761	-0.020092145340505844
-0.493844509187511	0.008530978481469794
-0.493783474031261	0.037149248689418345
-0.493722438875011	0.06567437530507715
-0.493661403718761	0.09401839508917068
-0.493600368562511	0.1220938903733795
-0.493539333406261	0.14981434873729815
-0.493478298250011	0.17709425717044328
-0.493417263093761	0.20384890460069022
-0.493356227937511	0.22999601665717181
-0.493295192781261	0.2554550860094345
-0.493234157625011	0.28014654093058305
-0.493173122468761	0.3039942941578623
-0.493112087312511	0.32692507289358663
-0.493051052156261	0.34886711152146305
-0.492990017000011	0.36975242598419045
-0.492928981843761	0.3895168844366554
-0.492867946687511	0.40809864506161353
-0.492806911531261	0.4254398087892177
-0.492745876375011	0.44148699372915573
-0.492684841218761	0.4561901043077795
-0.492623806062511	0.4695031467664158
-0.492562770906261	0.48138482157494944
-0.492501735750011	0.4917980766771787
-0.492440700593761	0.5007101883534175
-0.492379665437511	0.5080932932209614
-0.492318630281261	0.5139242960582374
-0.492257595125011	0.5181846400717138
-0.492196559968761	0.5208607601286511
-0.492135524812511	0.5219440862650615
-0.492074489656261	0.5214308482654656
-0.492013454500011	0.5193222183474865
-0.491952419343761	0.5156243545857174
-0.491891384187511	0.5103483330942615
-0.491830349031261	0.5035101117252037
-0.491769313875011	0.495130486418331
-0.491708278718761	0.4852350054556805
-0.491647243562511	0.47385399976791975
-0.491586208406261	0.46102237659288525
-0.491525173250011	0.4467794214888236
-0.491464138093761	0.43116903394196104
-0.491403102937511	0.41423928946486954
-0.491342067781261	0.39604213179795517
-0.491281032625011	0.3766337586501335
-0.491219997468761	0.3560741378078023
-0.491158962312511	0.33442650488893194
-0.491097927156261	0.3117577270021679
-0.491036892000011	0.28813789747761365
-0.490975856843761	0.2636399713098797
-0.490914821687511	0.2383396814088764
-0.490853786531261	0.21231507158380852
-0.490792751375011	0.1856469497251789
-0.490731716218761	0.15841768324411928
-0.490670681062511	0.1307112055570712
-0.490609645906261	0.1026140206539695
-0.490548610750011	0.0742127130635672
-0.490487575593761	0.04559476176872329
-0.490426540437511	0.01684968101145377
-0.490365505281261	-0.011933616741920743
-0.490304470125011	-0.04066652073302846
-0.490243434968761	-0.06925950416726616
-0.490182399812511	-0.09762377981216977
-0.490121364656261	-0.12567176846332243
-0.490060329500011	-0.15331625812520033
-0.489999294343761	-0.18047152131496216
-0.489938259187511	-0.2070534214116999
-0.489877224031261	-0.23297930068159303
-0.489816188875011	-0.2581688384025682
-0.489755153718761	-0.2825439419569766
-0.489694118562511	-0.3060287993893556
-0.489633083406261	-0.32855040868732166
-0.489572048250011	-0.35003922936712667
-0.489511013093761	-0.37042850790337445
-0.489449977937511	-0.3896545232489187
-0.489388942781261	-0.40765801862816214
-0.489327907625011	-0.4243831907359302
-0.489266872468761	-0.4397777643758425
-0.489205837312511	-0.45379426633534536
-0.489144802156261	-0.46638931817652285
-0.489083767000011	-0.47752357152992614
-0.489022731843761	-0.4871626802910384
-0.488961696687511	-0.4952770181382026
-0.488900661531261	-0.5018412705317707
-0.488839626375011	-0.5068351942034629
-0.488778591218761	-0.510243628164961
-0.488717556062511	-0.5120560585668813
-0.488656520906261	-0.5122670583665841
-0.488595485750011	-0.5108763237726581
-0.488534450593761	-0.5078883705578161
-0.488473415437511	-0.5033127462842247
-0.488412380281261	-0.4971641464084056
-0.488351345125011	-0.4894619678878657
-0.488290309968761	-0.4802303981096666
-0.488229274812511	-0.4694987849210948
-0.488168239656261	-0.4573009136713049
-0.488107204500011	-0.4436749298857158
-0.488046169343761	-0.4286639878831439
-0.487985134187511	-0.41231532390628645
-0.487924099031261	-0.39468003773079363
-0.487863063875011	-0.3758138932203616
-0.487802028718761	-0.355776200245479
-0.487740993562511	-0.3346296018390018
-0.487679958406261	-0.3124409804760288
-0.487618923250011	-0.28928003186811396
-0.487557888093761	-0.2652191700713708
-0.487496852937511	-0.2403345316746408
-0.487435817781261	-0.2147042112261491
-0.487374782625011	-0.18840856475756798
-0.487313747468761	-0.1615306176092238
-0.487252712312511	-0.13415465161724563
-0.487191677156261	-0.10636693045344532
-0.487130642000011	-0.07825499477083023
-0.487069606843761	-0.04990691560120125
-0.487008571687511	-0.02141206779148935
-0.486947536531261	0.007139460313428079
-0.486886501375011	0.03565809880279539
-0.486825466218761	0.06405439710861234
-0.486764431062511	0.09223831559852956
-0.486703395906261	0.12012108577758565
-0.486642360750011	0.1476152243499196
-0.486581325593761	0.17463384389100667
-0.486520290437511	0.2010917489796163
-0.486459255281261	0.2269053437082677
-0.486398220125011	0.251993280965901
-0.486337184968761	0.27627655360865316
-0.486276149812511	0.2996781612896383
-0.486215114656261	0.32212428710435775
-0.486154079500011	0.34354399630666527
-0.486093044343761	0.36386942618340745
-0.486032009187511	0.38303656866703384
-0.485970974031261	0.40098441261547924
-0.485909938875011	0.4176559408104032
-0.485848903718761	0.43299872596600014
-0.485787868562511	0.446963916691158
-0.485726833406261	0.4595068584639934
-0.485665798250011	0.47058767849427635
-0.485604763093761	0.48017127609457594
-0.485543727937511	0.4882270179825058
-0.485482692781261	0.49472869485526716
-0.485421657625011	0.49965551097907634
-0.485360622468761	0.5029917488300701
-0.485299587312511	0.504726113351906
-0.485238552156261	0.5048526270757904
-0.485177517000011	0.5033705572782189
-0.485116481843761	0.500284006961638
-0.485055446687511	0.49560222894235995
-0.484994411531261	0.4893394408542379
-0.484933376375011	0.48151486568723995
-0.484872341218761	0.4721528461178306
-0.484811306062511	0.46128229806971094
-0.484750270906261	0.44893690589422736
-0.484689235750011	0.43515537571396534
-0.484628200593761	0.4199806148577545
-0.484567165437511	0.40346000468139726
-0.484506130281261	0.38564528626276334
-0.484445095125011	0.36659212316611656
-0.484384059968761	0.34636047389122626
-0.484323024812511	0.32501368775849215
-0.484261989656261	0.3026185626780166
-0.484200954500011	0.2792457296402833
-0.484139919343761	0.2549686767410321
-0.484078884187511	0.2298634971446515
-0.484017849031261	0.2040092225067394
-0.483956813875011	0.1774875267680178
-0.483895778718761	0.1503818539189497
-0.483834743562511	0.12277737679739269
-0.483773708406261	0.09476121160856218
-0.483712673250011	0.06642212005359233
-0.483651638093761	0.037849422700473034
-0.483590602937511	0.009132749086542212
-0.483529567781261	-0.019636508175697096
-0.483468532625011	-0.04836717731816929
-0.483407497468761	-0.07696925606222198
-0.483346462312511	-0.10535172002381514
-0.483285427156261	-0.13342436778713476
-0.483224392000011	-0.1610988480943708
-0.483163356843761	-0.18828725619204362
-0.483102321687511	-0.2149030384776509
-0.483041286531261	-0.24086195885216974
-0.482980251375011	-0.2660815807879406
-0.482919216218761	-0.2904815425910244
-0.482858181062511	-0.3139843523541324
-0.482797145906261	-0.3365149860078318
-0.482736110750011	-0.3580016850589935
-0.482675075593761	-0.3783760806655046
-0.482614040437511	-0.3975726427626662
-0.482553005281261	-0.4155301103476141
-0.482491970125011	-0.4321911174446697
-0.482430934968761	-0.4475019116222506
-0.482369899812511	-0.46141325063460714
-0.482308864656261	-0.47388026868946675
-0.482247829500011	-0.48486263932759227
-0.482186794343761	-0.49432461125542765
-0.482125759187511	-0.5022351898285986
-0.482064724031261	-0.5085684250183563
-0.482003688875011	-0.5133031740276263
-0.481942653718761	-0.5164233301177703
-0.481881618562511	-0.5179179399531032
-0.481820583406261	-0.5177811294345495
-0.481759548250011	-0.516012175140064
-0.481698513093761	-0.512615467114779
-0.481637477937511	-0.5076006114124121
-0.481576442781261	-0.5009822530767407
-0.481515407625011	-0.4927800601487392
-0.481454372468761	-0.48301885556427093
-0.481393337312511	-0.47172830702701163
-0.481332302156261	-0.45894282767473893
-0.481271267000011	-0.4447017092339501
-0.481210231843761	-0.42904887767412464
-0.481149196687511	-0.41203258843209617
-0.481088161531261	-0.3937054347818907
-0.481027126375011	-0.37412434032573494
-0.480966091218761	-0.3533502225356155
-0.480905056062511	-0.33144742091515844
-0.480844020906261	-0.30848421045831576
-0.480782985750011	-0.28453247657383657
-0.480721950593761	-0.25966654004855344
-0.480660915437511	-0.23396420418011013
-0.480599880281261	-0.20750614434422635
-0.480538845125011	-0.18037466753955636
-0.480477809968761	-0.1526548279173461
-0.480416774812511	-0.12443378901515947
-0.480355739656261	-0.09579984714293764
-0.480294704500011	-0.0668425283427894
-0.480233669343761	-0.03765307069499627
-0.480172634187511	-0.008323495930997554
-0.480111599031261	0.021054859279470022
-0.480050563875011	0.0503893247181258
-0.479989528718761	0.0795869243249221
-0.479928493562511	0.108556484877653
-0.479867458406261	0.13720691642699687
-0.479806423250011	0.1654473560551838
-0.479745388093761	0.1931888037076801
-0.479684352937511	0.2203443304496031
-0.479623317781261	0.24682786951118232
-0.479562282625011	0.27255540904991343
-0.479501247468761	0.2974463910718694
-0.479440212312511	0.32142188089695495
-0.479379177156261	0.3444056254924945
-0.479318142000011	0.36632536582875025
-0.479257106843761	0.3871116115109806
-0.479196071687511	0.4066982134950036
-0.479135036531261	0.42502319842542396
-0.479074001375011	0.4420286033578579
-0.479012966218761	0.4576600631028018
-0.478951931062511	0.47186769829647157
-0.478890895906261	0.48460681565916425
-0.478829860750011	0.49583649618683706
-0.478768825593761	0.5055204030483043
-0.478707790437511	0.5136280561551634
-0.478646755281261	0.5201333358758099
-0.478585720125011	0.5250148023555576
-0.478524684968761	0.5282568173816934
-0.478463649812511	0.5298486664268992
-0.478402614656261	0.5297846164972277
-0.478341579500011	0.5280644782422421
-0.478280544343761	0.5246931160792503
-0.478219509187511	0.5196805795441015
-0.478158474031261	0.5130423117687783
-0.478097438875011	0.5047986704833742
-0.478036403718761	0.49497513121904824
-0.477975368562511	0.4836023067837583
-0.477914333406261	0.4707156174962183
-0.477853298250011	0.45635527626840866
-0.477792263093761	0.4405661117532584
-0.477731227937511	0.4233975662126245
-0.477670192781261	0.40490357676478317
-0.477609157625011	0.38514209765947865
-0.477548122468761	0.3641749317424492
-0.477487087312511	0.3420682214129395
-0.477426052156261	0.3188915340602594
-0.477365017000011	0.2947173305287853
-0.477303981843761	0.2696221451099343
-0.477242946687511	0.24368493386688583
-0.477181911531261	0.21698689927125153
-0.477120876375011	0.18961285429229147
-0.477059841218761	0.1616488967774444
-0.476998806062511	0.1331827333425219
-0.476937770906261	0.10430484869590423
-0.476876735750011	0.07510617879200404
-0.476815700593761	0.04567845241731867
-0.476754665437511	0.016115235668271
-0.476693630281261	-0.013490339971005155
-0.476632595125011	-0.04304500859896759
-0.476571559968761	-0.072454790321363
-0.476510524812511	-0.10162720731202615
-0.476449489656261	-0.13046996150498613
-0.476388454500011	-0.15889140153448236
-0.476327419343761	-0.18680208380301275
-0.476266384187511	-0.2141135739206915
-0.476205349031261	-0.2407392589695895
-0.476144313875011	-0.26659501089089727
-0.476083278718761	-0.2915990160273364
-0.476022243562511	-0.3156719622724603
-0.475961208406261	-0.3387375353770877
-0.475900173250011	-0.36072291519329824
-0.475839138093761	-0.3815583360477819
-0.475778102937511	-0.40117767880830824
-0.475717067781261	-0.4195188425897276
-0.475656032625011	-0.43652366208001053
-0.475594997468761	-0.4521383963716426
-0.475533962312511	-0.4663133701062007
-0.475472927156261	-0.47900355521945437
-0.475411892000011	-0.49016906693303935
-0.475350856843761	-0.4997743271404698
-0.475289821687511	-0.5077887248640472
-0.475228786531261	-0.514187154658851
-0.475167751375011	-0.5189493097338279
-0.475106716218761	-0.5220600002951127
-0.475045681062511	-0.5235095378191341
-0.474984645906261	-0.5232933948558744
-0.474923610750011	-0.5214123250659917
-0.474862575593761	-0.5178724184278193
-0.474801540437511	-0.5126850319301876
-0.474740505281261	-0.5058668151598891
-0.474679470125011	-0.4974395259992038
-0.474618434968761	-0.4874300920839519
-0.474557399812511	-0.4758705468460488
-0.474496364656261	-0.4627978127170036
-0.474435329500011	-0.4482536433125461
-0.474374294343761	-0.4322844287043205
-0.474313259187511	-0.4149412017563393
-0.474252224031261	-0.3962795433831909
-0.474191188875011	-0.37635887442424026
-0.474130153718761	-0.3552427568729868
-0.474069118562511	-0.3329989773417868
-0.474008083406261	-0.3096984317622471
-0.473947048250011	-0.2854154826154183
-0.473886013093761	-0.2602280861019821
-0.473824977937511	-0.2342165495231827
-0.473763942781261	-0.20746387985542739
-0.473702907625011	-0.18005612566855292
-0.473641872468761	-0.15208073674207745
-0.473580837312511	-0.12362692390748538
-0.473519802156261	-0.09478621156649725
-0.473458767000011	-0.06565086442811506
-0.473397731843761	-0.03631387259148712
-0.473336696687511	-0.006869397421333837
-0.473275661531261	0.022588113413410816
-0.473214626375011	0.05196454632764782
-0.473153591218761	0.08116557163749598
-0.473092556062511	0.1100975025902427
-0.473031520906261	0.1386678302854172
-0.472970485750011	0.16678459614698657
-0.472909450593761	0.19435767814443788
-0.472848415437511	0.22129881495734652
-0.472787380281261	0.24752108596261782
-0.472726345125011	0.27294037081871525
-0.472665309968761	0.297475315918922
-0.472604274812511	0.32104669276216025
-0.472543239656261	0.34357865419601935
-0.472482204500011	0.3649989658489405
-0.472421169343761	0.3852384882026029
-0.472360134187511	0.4042320140389544
-0.472299099031261	0.421918367850426
-0.472238063875011	0.4382404475007026
-0.472177028718761	0.4531456213455223
-0.472115993562511	0.46658553153767746
-0.472054958406261	0.47851684611848033
-0.471993923250011	0.48890096175401787
-0.471932888093761	0.4977038706507528
-0.471871852937511	0.5048971120995254
-0.471810817781261	0.5104571982910788
-0.471749782625011	0.5143657230328628
-0.471688747468761	0.5166097849371853
-0.471627712312511	0.5171817110929693
-0.471566677156261	0.5160792076000325
-0.471505642000011	0.5133053898864268
-0.471444606843761	0.508868687126622
-0.471383571687511	0.5027828785517975
-0.471322536531261	0.4950671146132781
-0.471261501375011	0.485745719058351
-0.471200466218761	0.4748481375022376
-0.471139431062511	0.4624089974190065
-0.471078395906261	0.448467866115814
-0.471017360750011	0.4330690992271191
-0.470956325593761	0.4162617618423594
-0.470895290437511	0.39809946762807324
-0.470834255281261	0.3786403270919665
-0.470773220125011	0.35794649577684506
-0.470712184968761	0.3360840685718672
-0.470651149812511	0.31312313680462567
-0.470590114656261	0.2891372156953168
-0.470529079500011	0.26420318926162817
-0.470468044343761	0.23840097820464548
-0.470407009187511	0.21181329671566115
-0.470345974031261	0.18452567388602434
-0.470284938875011	0.15662561718195586
-0.470223903718761	0.1282025789062168
-0.470162868562511	0.09934836967455424
-0.470101833406261	0.07015561453119742
-0.470040798250011	0.040717735273394055
-0.469979763093761	0.01113021012666364
-0.469918727937511	-0.018511720615448073
-0.469857692781261	-0.048113202994451605
-0.469796657625011	-0.07757822336512551
-0.469735622468761	-0.10681171337962835
-0.469674587312511	-0.13571983963822357
-0.469613552156261	-0.1642087298186582
-0.469552517000011	-0.19218640911117255
-0.469491481843761	-0.21956297885777146
-0.469430446687511	-0.24624914885778598
-0.469369411531261	-0.2721587199620199
-0.469308376375011	-0.2972083971538407
-0.469247341218761	-0.32131614425532573
-0.469186306062511	-0.34440388139903066
-0.469125270906261	-0.3663971899097444
-0.469064235750011	-0.38722401948598467
-0.469003200593761	-0.4068166988096491
-0.468942165437511	-0.42511161046156687
-0.468881130281261	-0.4420487047059622
-0.468820095125011	-0.4575727808195559
-0.468759059968761	-0.47163309973384643
