Time	Frequency
-0.5000314711874978	3.2772538039727576e-24
-0.4999704360312478	3.336060022845589e-24
-0.4999094008749978	3.38945137219887e-24
-0.4998483657187478	3.4373411277243686e-24
-0.4997873305624978	3.479647760009911e-24
-0.4997262954062478	3.5162997059772386e-24
-0.4996652602499978	3.547236571702479e-24
-0.4996042250937478	3.572405453344376e-24
-0.4995431899374978	3.591763770020226e-24
-0.4994821547812478	3.605278572117866e-24
-0.4994211196249978	3.612926400383858e-24
-0.4993600844687478	3.614693547973613e-24
-0.4992990493124978	3.61057580421518e-24
-0.4992380141562478	3.600579434606755e-24
-0.4991769789999978	3.584719647038592e-24
-0.4991159438437478	3.56302127422837e-24
-0.4990549086874978	3.5355200624421626e-24
-0.4989938735312478	3.50225995311559e-24
-0.4989328383749978	3.463294775432512e-24
-0.4988718032187478	3.418689061777472e-24
-0.4988107680624978	3.368514479247159e-24
-0.4987497329062478	3.312854058224206e-24
-0.4986886977499978	3.2517992899304113e-24
-0.4986276625937478	3.185448674334001e-24
-0.4985666274374978	3.1139138955946965e-24
-0.4985055922812478	3.0373111662907973e-24
-0.4984445571249978	2.9557651721103138e-24
-0.4983835219687478	2.8694141068334604e-24
-0.4983224868124978	2.7783971529512154e-24
-0.4982614516562478	2.682864178565414e-24
-0.4982004164999978	2.5829763509139388e-24
-0.4981393813437478	2.478895348726312e-24
-0.4980783461874978	2.3707935496524173e-24
-0.4980173110312478	2.2588514725786574e-24
-0.4979562758749978	2.143252829047253e-24
-0.4978952407187478	2.0241888592122887e-24
-0.4978342055624978	1.9018569452202984e-24
-0.4977731704062478	1.7764599588572456e-24
-0.4977121352499978	1.648205225783195e-24
-0.4976511000937478	1.5173049246178486e-24
-0.4975900649374978	1.3839766589068984e-24
-0.4975290297812478	1.2484414493864286e-24
-0.4974679946249978	1.1109230028396025e-24
-0.4974069594687478	9.716512545056202e-25
-0.4973459243124978	8.308563598985182e-25
-0.4972848891562478	6.8877032461474935e-25
-0.4972238539999978	5.4563344284457285e-25
-0.4971628188437478	4.016790772443865e-25
-0.4971017836874978	2.571475208801226e-25
-0.4970407485312478	1.1228241433551045e-25
-0.4969797133749978	-3.268210116205059e-26
-0.4969186782187478	-1.7749905751936995e-25
-0.4968576430624978	-3.219281249133198e-25
-0.4967966079062478	-4.65734973509178e-25
-0.4967355727499978	-6.0867315786619355e-25
-0.4966745375937478	-7.505066056672603e-25
-0.4966135024374978	-8.910029539366818e-25
-0.4965524672812478	-1.0299239290279303e-24
-0.4964914321249978	-1.167040046717019e-24
-0.4964303969687478	-1.3021225548066453e-24
-0.4963693618124978	-1.4349448252644127e-24
-0.4963083266562478	-1.5652897359830715e-24
-0.4962472914999978	-1.6929359619267922e-24
-0.4961862563437478	-1.8176690773904737e-24
-0.4961252211874978	-1.9392874894809413e-24
-0.4960641860312478	-2.057584085525274e-24
-0.4960031508749978	-2.1723582477472914e-24
-0.4959421157187478	-2.2834251359745213e-24
-0.4958810805624978	-2.390596676174663e-24
-0.4958200454062478	-2.493689607250065e-24
-0.4957590102499978	-2.5925376805839245e-24
-0.4956979750937478	-2.686974096812624e-24
-0.4956369399374978	-2.7768374667189486e-24
-0.4955759047812478	-2.8619815594167366e-24
-0.4955148696249978	-2.9422632752775744e-24
-0.4954538344687478	-3.0175457962260448e-24
-0.4953927993124978	-3.0877052614172974e-24
-0.4953317641562478	-3.1526248593913995e-24
-0.4952707289999978	-3.2121929293367566e-24
-0.4952096938437478	-3.266311630335869e-24
-0.4951486586874978	-3.314891021105716e-24
-0.4950876235312478	-3.357846933903503e-24
-0.4950265883749978	-3.395109350753969e-24
-0.4949655532187478	-3.4266150366486605e-24
-0.4949045180624978	-3.452310513387996e-24
-0.4948434829062478	-3.472153494821664e-24
-0.4947824477499978	-3.4861090976112616e-24
-0.4947214125937478	-3.494154826929728e-24
-0.4946603774374978	-3.496276659347619e-24
-0.4945993422812478	-3.4924700313546626e-24
-0.4945383071249978	-3.482741956402291e-24
-0.4944772719687478	-3.467107944064658e-24
-0.4944162368124978	-3.445593823963358e-24
-0.4943552016562478	-3.418235687445543e-24
-0.4942941664999978	-3.385078904206866e-24
-0.4942331313437478	-3.3461787320757044e-24
-0.4941720961874978	-3.301600251432519e-24
-0.4941110610312478	-3.2514179566348375e-24
-0.4940500258749978	-3.1957158443784433e-24
-0.4939889907187478	-3.1345868174207224e-24
-0.4939279555624978	-3.0681333034093483e-24
-0.4938669204062478	-2.9964674618896443e-24
-0.4938058852499978	-2.91970793935593e-24
-0.4937448500937478	-2.8379841230507813e-24
-0.4936838149374978	-2.7514339414277786e-24
-0.4936227797812478	-2.6602009687989496e-24
-0.4935617446249978	-2.564439471768381e-24
-0.4935007094687478	-2.464309684233158e-24
-0.4934396743124978	-2.3599806315903174e-24
-0.4933786391562478	-2.251626625044753e-24
-0.4933176039999978	-2.1394291575106202e-24
-0.4932565688437478	-2.023579805132519e-24
-0.4931955336874978	-1.9042705477635726e-24
-0.4931344985312478	-1.7817018851252075e-24
-0.4930734633749978	-1.656082552213026e-24
-0.4930124282187478	-1.5276233099350625e-24
-0.4929513930624978	-1.3965382666189362e-24
-0.4928903579062478	-1.2630498996518198e-24
-0.4928293227499978	-1.1273850027015866e-24
-0.4927682875937478	-9.897689352035038e-25
-0.4927072524374978	-8.50435079063529e-25
-0.4926462172812478	-7.096194606309923e-25
-0.4925851821249978	-5.675581927118832e-25
-0.4925241469687478	-4.244928272297989e-25
-0.4924631118124978	-2.806634014689745e-25
-0.4924020766562478	-1.363120703597816e-25
-0.4923410414999978	8.313436717144388e-27
-0.4922800063437478	1.5297096895888448e-25
-0.4922189711874978	2.9741875486822824e-25
-0.4921579360312478	4.414069006345676e-25
-0.4920969008749978	5.846931993024148e-25
-0.4920358657187478	7.270392885533822e-25
-0.4919748305624978	8.681981019141375e-25
-0.4919137954062478	1.0079323440436777e-24
-0.4918527602499978	1.1460081403369074e-24
-0.4917917250937478	1.2821857208950459e-24
-0.4917306899374978	1.4162376921100877e-24
-0.4916696547812478	1.5479359110736243e-24
-0.4916086196249978	1.677054039585892e-24
-0.4915475844687478	1.8033760583477664e-24
-0.4914865493124978	1.9266832955581318e-24
-0.4914255141562478	2.046768193766253e-24
-0.4913644789999978	2.1634264117064364e-24
-0.4913034438437478	2.276454641016862e-24
-0.4912424086874978	2.3856654872994102e-24
-0.4911813735312478	2.4908699615151015e-24
-0.4911203383749978	2.591884869896612e-24
-0.4910593032187478	2.6885427174013657e-24
-0.4909982680624978	2.7806747817840218e-24
-0.4909372329062478	2.868121235035956e-24
-0.4908761977499978	2.950735137319581e-24
-0.4908151625937478	3.0283722630823063e-24
-0.4907541274374978	3.100898034041934e-24
-0.4906930922812478	3.1681879354855887e-24
-0.4906320571249978	3.2301253927166936e-24
-0.4905710219687478	3.2866020585932607e-24
-0.4905099868124978	3.337518833815872e-24
-0.4904489516562478	3.382787691787094e-24
-0.4903879164999978	3.422328359365973e-24
-0.4903268813437478	3.456069827706627e-24
-0.4902658461874978	3.483952366017266e-24
-0.4902048110312478	3.505925717146504e-24
-0.4901437758749978	3.521948359127018e-24
-0.4900827407187478	3.531989749401289e-24
-0.4900217055624978	3.5360299517597336e-24
-0.4899606704062478	3.5340578365970886e-24
-0.4898996352499978	3.5260731131552396e-24
-0.4898386000937478	3.5120858003496135e-24
-0.4897775649374978	3.492115530804271e-24
-0.4897165297812478	3.466192472178413e-24
-0.4896554946249978	3.4343567045783055e-24
-0.4895944594687478	3.3966578143851764e-24
-0.4895334243124978	3.35315640391322e-24
-0.4894723891562478	3.3039220898685048e-24
-0.4894113539999978	3.24903332482433e-24
-0.4893503188437478	3.188581001509797e-24
-0.4892892836874978	3.1226623630790465e-24
-0.4892282485312478	3.0513841350570587e-24
-0.4891672133749978	2.9748662709445047e-24
-0.4891061782187478	2.8932318128199043e-24
-0.4890451430624978	2.8066147590380845e-24
-0.4889841079062478	2.7151610351400523e-24
-0.4889230727499978	2.6190195748418385e-24
-0.4888620375937478	2.518348647824546e-24
-0.4888010024374978	2.4133174220678847e-24
-0.4887399672812478	2.304099241691274e-24
-0.4886789321249978	2.1908743984793588e-24
-0.4886178969687478	2.073833044868026e-24
-0.4885568618124978	1.953168500931063e-24
-0.4884958266562478	1.8290826363822676e-24
-0.4884347914999978	1.701782564479736e-24
-0.4883737563437478	1.5714794470127318e-24
-0.4883127211874978	1.438392400023758e-24
-0.4882516860312478	1.302742925573069e-24
-0.4881906508749978	1.1647585997422643e-24
-0.4881296157187478	1.0246696703152896e-24
-0.4880685805624978	8.827107112417265e-25
-0.4880075454062478	7.391201398892641e-25
-0.4879465102499978	5.9413920035798285e-25
-0.4878854750937478	4.480102819565084e-25
-0.4878244399374978	3.0097608542425937e-25
-0.4877634047812478	1.5329042126816755e-25
-0.4877023696249978	5.196956662632436e-27
-0.4876413344687478	-1.4306029796034885e-25
-0.4875802993124978	-2.9122020447438515e-25
-0.4875192641562478	-4.390404354503924e-25
-0.4874582289999978	-5.862771518340434e-25
-0.4873971938437478	-7.3267026470256935e-25
-0.4873361586874978	-8.779796206253654e-25
-0.4872751235312478	-1.0219650735165033e-24
-0.4872140883749978	-1.1643729775613704e-24
-0.4871530532187478	-1.3049689418956235e-24
-0.4870920180624978	-1.4435187737434197e-24
-0.4870309829062478	-1.5797790860273051e-24
-0.4869699477499978	-1.713527129541302e-24
-0.4869089125937478	-1.8445363111780925e-24
-0.4868478774374978	-1.972578047323789e-24
-0.4867868422812478	-2.0974431644933855e-24
-0.4867258071249978	-2.218917234540626e-24
-0.4866647719687478	-2.3367918594208034e-24
-0.4866037368124978	-2.4508709898289955e-24
-0.4865427016562478	-2.5609575357718113e-24
-0.4864816664999978	-2.6668666063631232e-24
-0.4864206313437478	-2.7684179191540782e-24
-0.4863595961874978	-2.8654357625658392e-24
-0.4862985610312478	-2.957758937790939e-24
-0.4862375258749978	-3.0452281957278003e-24
-0.4861764907187478	-3.127692175556201e-24
-0.4861154555624978	-3.205013218035357e-24
-0.4860544204062478	-3.2770577713410903e-24
-0.4859933852499978	-3.3437009874284204e-24
-0.4859323500937478	-3.404830010535355e-24
-0.4858713149374978	-3.460339552472829e-24
-0.4858102797812478	-3.510133045811152e-24
-0.4857492446249978	-3.554124587753285e-24
-0.4856882094687478	-3.592238577938298e-24
-0.4856271743124978	-3.62440756302574e-24
-0.4855661391562478	-3.650575219564624e-24
-0.4855051039999978	-3.670695998427242e-24
-0.4854440688437478	-3.68473263361591e-24
-0.4853830336874978	-3.692659730980537e-24
-0.4853219985312478	-3.694461857856727e-24
-0.4852609633749978	-3.690133452176293e-24
-0.4851999282187478	-3.679679557662273e-24
-0.4851388930624978	-3.66311576296924e-24
-0.4850778579062478	-3.640468266027213e-24
-0.4850168227499978	-3.611771888965395e-24
-0.4849557875937478	-3.577074195409838e-24
-0.4848947524374978	-3.53643176734558e-24
-0.4848337172812478	-3.489909055455169e-24
-0.4847726821249978	-3.437585389358633e-24
-0.4847116469687478	-3.379545810270029e-24
-0.4846506118124978	-3.3158847907867165e-24
-0.4845895766562478	-3.2467115029862468e-24
-0.4845285414999978	-3.1721378883911456e-24
-0.4844675063437478	-3.0922878961128043e-24
-0.4844064711874978	-3.0072982981523647e-24
-0.4843454360312478	-2.917306784934273e-24
-0.4842844008749978	-2.8224641897992902e-24
-0.4842233657187478	-2.722933005832346e-24
-0.4841623305624978	-2.6188759460218926e-24
-0.4841012954062478	-2.51046690153983e-24
-0.4840402602499978	-2.397891392567721e-24
-0.4839792250937478	-2.2813359695027797e-24
-0.4839181899374978	-2.1609950413042254e-24
-0.4838571547812478	-2.0370734336347835e-24
-0.4837961196249978	-1.909778209048312e-24
-0.4837350844687478	-1.7793228921381702e-24
-0.4836740493124978	-1.645928557739372e-24
-0.4836130141562478	-1.5098178150062807e-24
-0.4835519789999978	-1.3712210234231812e-24
-0.4834909438437478	-1.2303734217406482e-24
-0.4834299086874978	-1.087508030633216e-24
-0.4833688735312478	-9.428691892913156e-25
-0.4833078383749978	-7.967024792490208e-25
-0.4832468032187478	-6.492485890396224e-25
-0.4831857680624978	-5.007618502607376e-25
-0.4831247329062478	-3.5149317397969025e-25
-0.4830636977499978	-2.0168895544358485e-25
-0.4830026625937478	-5.160875212299594e-26
-0.4829416274374978	9.849479771773683e-26
-0.4828805922812478	2.4837286258444467e-25
-0.4828195571249978	3.977659899543525e-25
-0.4827585219687478	5.464227213758434e-25
-0.4826974868124978	6.94094688550472e-25
-0.4826364516562478	8.405281024993965e-25
-0.4825754164999978	9.85476468894204e-25
-0.4825143813437478	1.128694647004687e-24
-0.4824533461874978	1.2699381472268227e-24
-0.4823923110312478	1.40897089300863e-24
-0.4823312758749978	1.5455542954416988e-24
-0.4822702407187478	1.6794550707740262e-24
-0.4822092055624978	1.8104525990231457e-24
-0.4821481704062478	1.9383194282122136e-24
-0.4820871352499978	2.0628362414662545e-24
-0.4820261000937478	2.1837993118316954e-24
-0.4819650649374978	2.300998526148519e-24
-0.4819040297812478	2.4142322408973267e-24
-0.4818429946249978	2.5233138443144982e-24
-0.4817819594687478	2.6280557659249796e-24
-0.4817209243124978	2.7282770889541384e-24
-0.4816598891562478	2.8238114057756646e-24
-0.4815988539999978	2.9144953973573805e-24
-0.4815378188437478	3.000172497088723e-24
-0.4814767836874978	3.0806994693487617e-24
-0.4814157485312478	3.1559388191816056e-24
-0.4813547133749978	3.225761596533838e-24
-0.4812936782187478	3.2900493470846837e-24
-0.4812326430624978	3.348693056343378e-24
-0.4811716079062478	3.401592622185972e-24
-0.4811105727499978	3.44865744511961e-24
-0.4810495375937478	3.489807875377669e-24
-0.4809885024374978	3.524973773940038e-24
-0.4809274672812478	3.5540949960260715e-24
-0.4808664321249978	3.57712182532141e-24
-0.4808053969687478	3.5940152901234466e-24
-0.4807443618124978	3.604746551845059e-24
-0.4806833266562478	3.6092968368002405e-24
-0.4806222914999978	3.607658982025444e-24
-0.4805612563437478	3.599835778219018e-24
-0.4805002211874978	3.585839877269379e-24
-0.4804391860312478	3.565695978873657e-24
-0.4803781508749978	3.539438439260818e-24
-0.4803171157187478	3.5071115045687605e-24
-0.4802560805624978	3.468770889439579e-24
-0.4801950454062478	3.424482462669439e-24
-0.4801340102499978	3.374321455054812e-24
-0.4800729750937478	3.3183732148409065e-24
-0.4800119399374978	3.256734941011024e-24
-0.4799509047812478	3.189510823917961e-24
-0.4798898696249978	3.1168156984002035e-24
-0.4798288344687478	3.0387758776536415e-24
-0.4797677993124978	2.955522486019354e-24
-0.4797067641562478	2.8671996881082615e-24
-0.4796457289999978	2.7739593312943927e-24
-0.4795846938437478	2.675958456071269e-24
-0.4795236586874978	2.5733682871288298e-24
-0.4794626235312478	2.466363722062547e-24
-0.4794015883749978	2.3551252531169726e-24
-0.4793405532187478	2.2398484322874475e-24
-0.4792795180624978	2.1207291211392735e-24
-0.4792184829062478	1.997968672199489e-24
-0.4791574477499978	1.871783081128626e-24
-0.4790964125937478	1.7423857676124295e-24
-0.4790353774374978	1.609998041763777e-24
-0.4789743422812478	1.4748513551227063e-24
-0.4789133071249978	1.3371736420048479e-24
-0.4788522719687478	1.1972030185459517e-24
-0.4787912368124978	1.0551824954550012e-24
-0.4787302016562478	9.113518096237619e-25
-0.4786691664999978	7.659614685659377e-25
-0.4786081313437478	6.192630177649523e-25
-0.4785470961874978	4.7150316627170055e-25
-0.4784860610312478	3.229420268237123e-25
-0.4784250258749978	1.7383553202438905e-25
-0.4783639907187478	2.443424309650681e-26
-0.4783029555624978	-1.2499802707722066e-25
-0.4782419204062478	-2.7420398533159335e-25
-0.4781808852499978	-4.229306625056197e-25
-0.4781198500937478	-5.70918776115372e-25
-0.4780588149374978	-7.179105859506244e-25
-0.4779977797812478	-8.6365644041345e-25
-0.4779367446249978	-1.0079041052242804e-24
-0.4778757094687478	-1.1503995697125062e-24
-0.4778146743124978	-1.2909026542480024e-24
-0.4777536391562478	-1.429167832042305e-24
-0.4776926039999978	-1.5649531242401358e-24
-0.4776315688437478	-1.698029062652248e-24
-0.4775705336874978	-1.828160132594723e-24
-0.4775094985312478	-1.955122531427286e-24
-0.4774484633749978	-2.078698735301854e-24
-0.4773874282187478	-2.1986689800409674e-24
-0.4773263930624978	-2.314828254730016e-24
-0.4772653579062478	-2.4269769965154223e-24
-0.4772043227499978	-2.534914742289416e-24
-0.4771432875937478	-2.6384556430712574e-24
-0.4770822524374978	-2.7374237930557236e-24
-0.4770212172812478	-2.831639884167326e-24
-0.4769601821249978	-2.920941735365262e-24
-0.4768991469687478	-3.0051775253337024e-24
-0.4768381118124978	-3.0841931274849478e-24
-0.4767770766562478	-3.157853671981846e-24
-0.4767160414999978	-3.2260310138294246e-24
-0.4766550063437478	-3.2886016023242854e-24
-0.4765939711874978	-3.345458054550217e-24
-0.4765329360312478	-3.396498558824555e-24
-0.4764719008749978	-3.441632323897742e-24
-0.4764108657187478	-3.480780116516099e-24
-0.4763498305624978	-3.513870233434387e-24
-0.4762887954062478	-3.540843642781418e-24
-0.4762277602499978	-3.561651626294716e-24
-0.4761667250937478	-3.5762543906768505e-24
-0.4761056899374978	-3.584624356948769e-24
-0.4760446547812478	-3.586744930754227e-24
-0.4759836196249978	-3.582608660621183e-24
-0.4759225844687478	-3.572220104802076e-24
-0.4758615493124978	-3.555594632121439e-24
-0.4758005141562478	-3.532757617614532e-24
-0.4757394789999978	-3.503745861755446e-24
-0.4756784438437478	-3.468606342350336e-24
-0.4756174086874978	-3.427396740875892e-24
-0.4755563735312478	-3.380185781554486e-24
-0.4754953383749978	-3.327051607327489e-24
-0.4754343032187478	-3.268082826444484e-24
-0.4753732680624978	-3.203379511117101e-24
-0.4753122329062478	-3.1330494908148626e-24
-0.4752511977499978	-3.0572114665140637e-24
-0.4751901625937478	-2.975994622460895e-24
-0.4751291274374978	-2.889535497770742e-24
-0.4750680922812478	-2.797981029345734e-24
-0.4750070571249978	-2.7014866880128278e-24
-0.4749460219687478	-2.6002173652629507e-24
-0.4748849868124978	-2.494344255225385e-24
-0.4748239516562478	-2.3840474608957576e-24
-0.4747629164999978	-2.2695181453984015e-24
-0.4747018813437478	-2.1509485153145786e-24
-0.4746408461874978	-2.0285412459303573e-24
-0.4745798110312478	-1.9025093026877453e-24
-0.4745187758749978	-1.773064583968383e-24
-0.4744577407187478	-1.6404296925574543e-24
-0.4743967055624978	-1.5048337078395944e-24
-0.4743356704062478	-1.3665065259304745e-24
-0.4742746352499978	-1.2256876493612015e-24
-0.4742136000937478	-1.0826185603049746e-24
-0.4741525649374978	-9.37542801256009e-25
-0.4740915297812478	-7.9071235338041185e-25
-0.4740304946249978	-6.423802437119317e-25
-0.4739694594687478	-4.927986643612392e-25
-0.4739084243124978	-3.4222618828171703e-25
-0.4738473891562478	-1.9092492917082128e-25
-0.4737863539999978	-3.915360976002581e-26
-0.4737253188437478	1.1282870428270078e-25
-0.4736642836874978	2.6475602077366407e-25
-0.4736032485312478	4.163641649223354e-25
-0.4735422133749978	5.673985043875912e-25
-0.4734811782187478	7.175940076273247e-25
-0.4734201430624978	8.666861986176389e-25
-0.4733591079062478	1.0144265323611903e-24
-0.4732980727499978	1.1605539435623478e-24
-0.4732370375937478	1.3048130157054632e-24
-0.4731760024374978	1.4469614021144315e-24
-0.4731149672812478	1.586744872236113e-24
-0.4730539321249978	1.7239239923085486e-24
-0.4729928969687478	1.8582646015919178e-24
-0.4729318618124978	1.9895249471103583e-24
-0.4728708266562478	2.117483929540004e-24
-0.4728097914999978	2.241917840473385e-24
-0.4727487563437478	2.362604878370688e-24
-0.4726877211874978	2.4793428794825965e-24
-0.4726266860312478	2.5919227080842835e-24
-0.4725656508749978	2.7001475441277837e-24
-0.4725046157187478	2.8038338723071762e-24
-0.4724435805624978	2.9027938429960473e-24
-0.4723825454062478	2.9968576940540212e-24
-0.4723215102499978	3.0858620306382284e-24
-0.4722604750937478	3.1696455138998458e-24
-0.4721994399374978	3.248065870057872e-24
-0.4721384047812478	3.320984024897224e-24
-0.4720773696249978	3.388267870960283e-24
-0.4720163344687478	3.4498027223723275e-24
-0.4719552993124978	3.505478329208289e-24
-0.4718942641562478	3.5551933390601864e-24
-0.4718332289999978	3.5988616252142725e-24
-0.4717721938437478	3.636404255642213e-24
-0.4717111586874978	3.667752138555335e-24
