Time	Frequency
-0.5000209890000065	-0.3248430207640097
-0.49995995384375647	-0.3041709691744362
-0.49989891868750647	-0.2826037300500955
-0.49983788353125647	-0.2602031516331446
-0.49977684837500647	-0.23703335123884686
-0.49971581321875647	-0.2131604751493864
-0.49965477806250647	-0.18865309312218145
-0.49959374290625647	-0.16358156623972592
-0.49953270775000647	-0.13801778775284584
-0.49947167259375647	-0.11203508642801469
-0.49941063743750647	-0.08570829932541314
-0.49934960228125647	-0.05911320090789792
-0.49928856712500647	-0.032326104571101716
-0.49922753196875647	-0.005424201372241685
-0.49916649681250647	0.02151492368581987
-0.49910546165625647	0.048413522642408835
-0.49904442650000647	0.07519434283156508
-0.49898339134375647	0.10178006187482593
-0.49892235618750647	0.1280935271759999
-0.49886132103125647	0.15405916699791475
-0.49880028587500647	0.1796020115420143
-0.49873925071875647	0.20464786073487712
-0.49867821556250647	0.22912443750683315
-0.49861718040625647	0.2529611993327213
-0.49855614525000647	0.27608874607177275
-0.49849511009375647	0.29844001922214325
-0.49843407493750647	0.31995083199048857
-0.49837303978125647	0.34055842064659153
-0.49831200462500647	0.3602027283131884
-0.49825096946875647	0.37882718824761047
-0.49818993431250647	0.39637763031377726
-0.49812889915625647	0.4128027790550759
-0.49806786400000647	0.42805499249211
-0.49800682884375647	0.4420900026552575
-0.49794579368750647	0.45486664572331387
-0.49788475853125647	0.4663476570484075
-0.49782372337500647	0.476499719578268
-0.49776268821875647	0.4852929208466865
-0.49770165306250647	0.4927013874177885
-0.49764061790625647	0.49870344665370925
-0.49757958275000647	0.5032813444138654
-0.49751854759375647	0.5064214149643649
-0.49745751243750647	0.5081141369818574
-0.49739647728125647	0.5083542491558803
-0.49733544212500647	0.5071407482815653
-0.49727440696875647	0.5044766650948376
-0.49721337181250647	0.5003692445568729
-0.49715233665625647	0.4948301805026712
-0.49709130150000647	0.4878750685003799
-0.49703026634375647	0.4795234400539677
-0.49696923118750647	0.46979939707537277
-0.49690819603125647	0.4587307170083623
-0.49684716087500647	0.44634876956483194
-0.49678612571875647	0.43268938066631674
-0.49672509056250647	0.4177918266183824
-0.49666405540625647	0.4016985348795905
-0.49660302025000647	0.3844560382507746
-0.49654198509375647	0.3661142616293867
-0.49648094993750647	0.34672555605375877
-0.49641991478125647	0.3263458745885392
-0.49635887962500647	0.3050343935098474
-0.49629784446875647	0.2828522802250997
-0.49623680931250647	0.2598635688385109
-0.49617577415625647	0.23613477840763492
-0.49611473900000647	0.21173436592651682
-0.49605370384375647	0.18673281811048553
-0.49599266868750647	0.16120265124176025
-0.49593163353125647	0.1352175948024497
-0.49587059837500647	0.10885233274608266
-0.49580956321875647	0.08218374225216701
-0.49574852806250647	0.055289255069997684
-0.49568749290625647	0.028245873449686598
-0.49562645775000647	0.0011321328863773447
-0.49556542259375647	-0.025972789218816957
-0.49550438743750647	-0.05299094263428233
-0.49544335228125647	-0.07984411987612396
-0.49538231712500647	-0.1064542302264619
-0.49532128196875647	-0.13274436891574537
-0.49526024681250647	-0.15863800732005476
-0.49519921165625647	-0.18406036225175337
-0.49513817650000647	-0.20893794575655633
-0.49507714134375647	-0.2331980363302393
-0.49501610618750647	-0.2567706006103316
-0.49495507103125647	-0.27958749078386824
-0.49489403587500647	-0.3015821754938247
-0.49483300071875647	-0.3226910083839284
-0.49477196556250647	-0.34285279176041245
-0.49471093040625647	-0.3620090668667173
-0.49464989525000647	-0.3801043158618615
-0.49458886009375647	-0.3970858417811886
-0.49452782493750647	-0.41290465289938794
-0.49446678978125647	-0.427515006171868
-0.49440575462500647	-0.4408742323328275
-0.49434471946875647	-0.4529437457313751
-0.49428368431250647	-0.4636888236507139
-0.49422264915625647	-0.47307824962998773
-0.49416161400000647	-0.48108480528333114
-0.49410057884375647	-0.4876854593129138
-0.49403954368750647	-0.4928613202553934
-0.49397850853125647	-0.496597490603892
-0.49391747337500647	-0.49888321858232204
-0.49385643821875647	-0.49971222358133066
-0.49379540306250647	-0.4990823812592802
-0.49373436790625647	-0.49699571321406394
-0.49367333275000647	-0.49345861185006695
-0.49361229759375647	-0.48848171203953067
-0.49355126243750647	-0.48207986074965375
-0.49349022728125647	-0.47427197596789655
-0.49342919212500647	-0.46508111493589654
-0.49336815696875647	-0.45453465963656936
-0.49330712181250647	-0.4426635262257175
-0.49324608665625647	-0.42950256380042884
-0.49318505150000647	-0.4150910324427939
-0.49312401634375647	-0.39947104574674996
-0.49306298118750647	-0.38268836594737365
-0.49300194603125647	-0.3647929841894193
-0.49294091087500647	-0.3458372436042193
-0.49287987571875647	-0.32587665951007
-0.49281884056250647	-0.30497053009095765
-0.49275780540625647	-0.28318004374947453
-0.49269677025000647	-0.2605691727215274
-0.49263573509375647	-0.2372048912502239
-0.49257469993750647	-0.21315556801840893
-0.49251366478125647	-0.1884921224633062
-0.49245262962500647	-0.1632872483165981
-0.49239159446875647	-0.13761481914643164
-0.49233055931250647	-0.11155075815204776
-0.49226952415625647	-0.08517176193346832
-0.49220848900000647	-0.058555261699994726
-0.49214745384375647	-0.03177979076253698
-0.49208641868750647	-0.004924311945715595
-0.49202538353125647	0.0219320903709299
-0.49196434837500647	0.04871036202263708
-0.49190331321875647	0.07533149040729027
-0.49184227806250647	0.10171695215372742
-0.49178124290625647	0.12778921527725243
-0.49172020775000647	0.15347090394518118
-0.49165917259375647	0.17868627059586983
-0.49159813743750647	0.20336168554836045
-0.49153710228125647	0.22742340098354594
-0.49147606712500647	0.2508002687067435
-0.49141503196875647	0.27342412452272086
-0.49135399681250647	0.2952274131575937
-0.49129296165625647	0.3161455814252314
-0.49123192650000647	0.33611713705123886
-0.49117089134375647	0.35508267734719606
-0.49110985618750647	0.3729861730066391
-0.49104882103125647	0.3897744747653687
-0.49098778587500647	0.4053976568644901
-0.49092675071875647	0.4198096828628555
-0.49086571556250647	0.4329674466024167
-0.49080468040625647	0.44483166070839053
-0.49074364525000647	0.45536741623353405
-0.49068261009375647	0.4645430251174389
-0.49062157493750647	0.4723307914156324
-0.49056053978125647	0.47870770192304724
-0.49049950462500647	0.48365452608082293
-0.49043846946875647	0.4871560049459057
-0.49037743431250647	0.48920149306362243
-0.49031639915625647	0.4897846151012255
-0.49025536400000647	0.488903120568453
-0.49019432884375647	0.48655917645107416
-0.49013329368750647	0.4827592661919424
-0.49007225853125647	0.47751417020440345
-0.49001122337500647	0.4708389284456242
-0.48995018821875647	0.4627527814605143
-0.48988915306250647	0.4532791983178623
-0.48982811790625647	0.4424456611900346
-0.48976708275000647	0.43028381794555004
-0.48970604759375647	0.4168291248357922
-0.48964501243750647	0.4021208023366319
-0.48958397728125647	0.38620213264756464
-0.48952294212500647	0.36911955798919327
-0.48946190696875647	0.3509231523107812
-0.48940087181250647	0.3316666155154462
-0.48933983665625647	0.31140611235102766
-0.48927880150000647	0.2902013339204799
-0.48921776634375647	0.2681149846407162
-0.48915673118750647	0.24521158664143786
-0.48909569603125647	0.22155866183035194
-0.48903466087500647	0.19722626103353944
-0.48897362571875647	0.1722859429770298
-0.48891259056250647	0.14681100913822384
-0.48885155540625647	0.12087687797173513
-0.48879052025000647	0.09456044455934487
-0.48872948509375647	0.06793891212418103
-0.48866844993750647	0.041091106750787657
-0.48860741478125647	0.01409697650826926
-0.48854637962500647	-0.012964296522105345
-0.48848534446875647	-0.040012453957807524
-0.48842430931250647	-0.06696665284283715
-0.48836327415625647	-0.09374779507226452
-0.48830223900000647	-0.12027649230754925
-0.48824120384375647	-0.14647309283347448
-0.48818016868750647	-0.17226043801145405
-0.48811913353125647	-0.19756213493906447
-0.48805809837500647	-0.22230232239769396
-0.48799706321875647	-0.24640758021538275
-0.48793602806250647	-0.26980609629166763
-0.48787499290625647	-0.2924281148176599
-0.48781395775000647	-0.31420623307814016
-0.48775292259375647	-0.33507507360543615
-0.48769188743750647	-0.35497220953790015
-0.48763085228125647	-0.373838394585594
-0.48756981712500647	-0.3916168814333638
-0.48750878196875647	-0.408253895342796
-0.48744774681250647	-0.423699679339185
-0.48738671165625647	-0.43790771227242814
-0.48732567650000647	-0.45083477308042796
-0.48726464134375647	-0.462441678539437
-0.48720360618750647	-0.47269310181866886
-0.48714257103125647	-0.4815577373848463
-0.48708153587500647	-0.4890082197386149
-0.48702050071875647	-0.4950212650067194
-0.48695946556250647	-0.4995780831295168
-0.48689843040625647	-0.5026641113394922
-0.48683739525000647	-0.5042688709864318
-0.48677636009375647	-0.5043864138476217
-0.48671532493750647	-0.5030152957695767
-0.48665428978125647	-0.5001582915410302
-0.48659325462500647	-0.49582256876365854
-0.48653221946875647	-0.49001973058432824
-0.48647118431250647	-0.48276572625007874
-0.48641014915625647	-0.47408074937124683
-0.48634911400000647	-0.46398913150340565
-0.48628807884375647	-0.4525196127996138
-0.48622704368750647	-0.4397049435189669
-0.48616600853125647	-0.42558147607694524
-0.48610497337500647	-0.4101900180179855
-0.48604393821875647	-0.3935750730098603
-0.48598290306250647	-0.3757841401515606
-0.48592186790625647	-0.35686884338505975
-0.48586083275000647	-0.33688430275013714
-0.48579979759375647	-0.31588823463975735
-0.48573876243750647	-0.2939414503290202
-0.48567772728125647	-0.27110813357199554
-0.48561669212500647	-0.2474548881194605
-0.48555565696875647	-0.22305028247370784
-0.48549462181250647	-0.19796563787844035
-0.48543358665625647	-0.17227459251679877
-0.48537255150000647	-0.14605195209370628
-0.48531151634375647	-0.11937410543208328
-0.48525048118750647	-0.09231985619509257
-0.48518944603125647	-0.06496832492857868
-0.48512841087500647	-0.037398916752684294
-0.48506737571875647	-0.009693301759415327
-0.48500634056250647	0.018066994015055852
-0.48494530540625647	0.04580130789437928
-0.48488427025000647	0.07342784722392155
-0.48482323509375647	0.10086469880885646
-0.48476219993750647	0.12803185756898647
-0.48470116478125647	0.15484956923182733
-0.48464012962500647	0.1812379632546928
-0.48457909446875647	0.20711989981925882
-0.48451805931250647	0.23241920848496345
-0.48445702415625647	0.2570606281526052
-0.48439598900000647	0.2809719814085365
-0.48433495384375647	0.30408262436558875
-0.48427391868750647	0.326323853148138
-0.48421288353125647	0.34763014236405204
-0.48415184837500647	0.367938691448454
-0.48409081321875647	0.387189098923055
-0.48402977806250647	0.4053241538332942
-0.48396874290625647	0.4222904498304461
-0.48390770775000647	0.43803758107707236
-0.48384667259375647	0.4525184356424065
-0.48378563743750647	0.4656901430084431
-0.48372460228125647	0.47751365491501857
-0.48366356712500647	0.4879534508515991
-0.48360253196875647	0.4969782372832106
-0.48354149681250647	0.5045611593140569
-0.48348046165625647	0.5106794697496061
-0.48341942650000647	0.515314464552124
-0.48335839134375647	0.5184519959908448
-0.48329735618750647	0.5200825450965121
-0.48323632103125647	0.5202007499420221
-0.48317528587500647	0.5188056939650867
-0.48311425071875647	0.5159011142368521
-0.48305321556250647	0.511495144486295
-0.48299218040625647	0.50560025308238
-0.48293114525000647	0.49823340121351284
-0.48287011009375647	0.48941588959402427
-0.48280907493750647	0.47917330032306393
-0.48274803978125647	0.4675354290262372
-0.48268700462500647	0.454536158593021
-0.48262596946875647	0.4402135445594025
-0.48256493431250647	0.4246093671213371
-0.48250389915625647	0.4077693321681143
-0.48244286400000647	0.38974289000123913
-0.48238182884375647	0.37058275365695265
-0.48232079368750647	0.3503451896193823
-0.48225975853125647	0.32908967763479136
-0.48219872337500647	0.30687875938698556
-0.48213768821875647	0.28377762481514895
-0.48207665306250647	0.2598539986701508
-0.48201561790625647	0.23517873301438044
-0.48195458275000647	0.20982444635352485
-0.48189354759375647	0.18386518133728746
-0.48183251243750647	0.15737805343225592
-0.48177147728125647	0.13044122326822635
-0.48171044212500647	0.10313329273514449
-0.48164940696875647	0.07553552608156487
-0.48158837181250647	0.04772932343822743
-0.48152733665625647	0.019796057390975022
-0.48146630150000647	-0.008181127037436401
-0.48140526634375647	-0.036119848031395486
-0.48134423118750647	-0.06393808445589826
-0.48128319603125647	-0.09155304217061254
-0.48122216087500647	-0.118883291113541
-0.48116112571875647	-0.14584869430967543
-0.48110009056250647	-0.1723689943989778
-0.48103905540625647	-0.19836567065800312
-0.48097802025000647	-0.22376271950859336
-0.48091698509375647	-0.2484845858273372
-0.48085594993750647	-0.27245782667825136
-0.48079491478125647	-0.2956123899519102
-0.48073387962500647	-0.3178795557783257
-0.48067284446875647	-0.3391930838223095
-0.48061180931250647	-0.3594905877587858
-0.48055077415625647	-0.378711961890637
-0.48048973900000647	-0.3968000539134031
-0.48042870384375647	-0.41370183709685426
-0.48036766868750647	-0.4293673547610844
-0.48030663353125647	-0.4437501377146258
-0.48024559837500647	-0.4568079851373347
-0.48018456321875647	-0.46850232240863715
-0.48012352806250647	-0.47879862579554017
-0.48006249290625647	-0.4876667754941403
-0.48000145775000647	-0.4950805805451355
-0.47994042259375647	-0.5010183195067855
-0.47987938743750647	-0.5054628028550436
-0.47981835228125647	-0.5084010380049119
-0.47975731712500647	-0.5098246022815267
-0.47969628196875647	-0.5097296866683457
-0.47963524681250647	-0.5081169327197802
-0.47957421165625647	-0.5049914343108299
-0.47951317650000647	-0.5003628551967565
-0.47945214134375647	-0.4942454800919937
-0.47939110618750647	-0.48665781849169437
-0.47933007103125647	-0.4776227302133888
-0.47926903587500647	-0.46716778783422014
-0.47920800071875647	-0.4553244363708704
-0.47914696556250647	-0.44212813500181225
-0.47908593040625647	-0.4276190227829758
-0.47902489525000647	-0.41184062302236774
-0.47896386009375647	-0.394840075831632
-0.47890282493750647	-0.37666902222887433
-0.47884178978125647	-0.35738195911709114
-0.47878075462500647	-0.3370363919769323
-0.47871971946875647	-0.315694012862474
-0.47865868431250647	-0.29341900648023533
-0.47859764915625647	-0.27027768590954615
-0.47853661400000647	-0.24634007745761352
-0.47847557884375647	-0.2216782510209016
-0.47841454368750647	-0.19636574355176986
-0.47835350853125647	-0.17047910554988574
-0.47829247337500647	-0.14409604736922724
-0.47823143821875647	-0.11729555987394472
-0.47817040306250647	-0.09015868945261349
-0.47810936790625647	-0.06276674930917749
-0.47804833275000647	-0.035201954839061696
-0.47798729759375647	-0.00754750477954341
-0.47792626243750647	0.020113441064088692
-0.47786522728125647	0.047697913140679706
-0.47780419212500647	0.07512279482079526
-0.47774315696875647	0.10230519447212473
-0.47768212181250647	0.12916394776547488
-0.47762108665625647	0.15561780294573527
-0.47756005150000647	0.18158652346043294
-0.47749901634375647	0.20699303169952532
-0.47743798118750647	0.23176015704910108
-0.47737694603125647	0.2558126245715301
-0.47731591087500647	0.2790788209181219
-0.47725487571875647	0.3014883650196659
-0.47719384056250647	0.3229731844193778
-0.47713280540625647	0.3434684876089882
-0.47707177025000647	0.3629126940431078
-0.47701073509375647	0.38124688936624956
-0.47694969993750647	0.3984152329624081
-0.47688866478125647	0.4143660898645456
-0.47682762962500647	0.42905116473418836
-0.47676659446875647	0.44242566997404487
-0.47670555931250647	0.4544490993148169
-0.47664452415625647	0.4650849145971209
-0.47658348900000647	0.47430063383791965
-0.47652245384375647	0.48206816059877244
-0.47646141868750647	0.488363711214187
-0.47640038353125647	0.4931678315533195
-0.47633934837500647	0.49646567032503686
-0.47627831321875647	0.4982468936747589
-0.47621727806250647	0.4985056461164241
-0.47615624290625647	0.49724070669871817
-0.47609520775000647	0.49445545579974537
-0.47603417259375647	0.4901578286671049
-0.47597313743750647	0.4843603176246372
-0.47591210228125647	0.4770799490891813
-0.47585106712500647	0.468338226540646
-0.47579003196875647	0.45816102609739057
-0.47572899681250647	0.44657859735410516
-0.47566796165625647	0.4336255093432127
-0.47560692650000647	0.4193402403817197
-0.47554589134375647	0.40376549289107977
-0.47548485618750647	0.38694809637471844
-0.47542382103125647	0.36893796979258775
-0.47536278587500647	0.3497891751460706
-0.47530175071875647	0.3295595590260579
-0.47524071556250647	0.3083092058506491
-0.47517968040625647	0.2861021311786209
-0.47511864525000647	0.2630053749751966
-0.47505761009375647	0.23908786896232706
-0.47499657493750647	0.2144218250559202
-0.47493553978125647	0.18908157878599174
-0.47487450462500647	0.16314321240514382
-0.47481346946875647	0.1366849113543768
-0.47475243431250647	0.10978657391759208
-0.47469139915625647	0.08252930856537924
-0.47463036400000647	0.05499524463551161
-0.47456932884375647	0.027267706908584297
-0.47450829368750647	-0.000569784487629632
-0.47444725853125647	-0.028432945907825084
-0.47438622337500647	-0.056237103223762824
-0.47432518821875647	-0.08389880903272508
-0.47426415306250647	-0.11133422069241954
-0.47420311790625647	-0.1384594085327834
-0.47414208275000647	-0.165192725476544
-0.47408104759375647	-0.19145346065967833
-0.47402001243750647	-0.2171611538782857
-0.47395897728125647	-0.24223762791660283
-0.47389794212500647	-0.26660716599369316
-0.47383690696875647	-0.2901954884537267
-0.47377587181250647	-0.31293030148486756
-0.47371483665625647	-0.3347424601206815
-0.47365380150000647	-0.3555655090827056
-0.47359276634375647	-0.37533563956639876
-0.47353173118750647	-0.3939922949622854
-0.47347069603125647	-0.4114781726556797
-0.47340966087500647	-0.4277396901673713
-0.47334862571875647	-0.44272672357093384
-0.47328759056250647	-0.45639288626899066
-0.47322655540625647	-0.46869598428018433
-0.47316552025000647	-0.47959765994842724
-0.47310448509375647	-0.4890639500623306
-0.47304344993750647	-0.4970651120566445
-0.47298241478125647	-0.503575632421652
-0.47292137962500647	-0.5085748138977768
-0.47286034446875647	-0.512046272620193
-0.47279930931250647	-0.513978140789334
-0.47273827415625647	-0.5143634162547616
-0.47267723900000647	-0.51319959673221
-0.47261620384375647	-0.5104888409404109
-0.47255516868750647	-0.5062380345886889
-0.47249413353125647	-0.5004586578177445
-0.47243309837500647	-0.49316681623617636
-0.47237206321875647	-0.484383155787321
-0.47231102806250647	-0.4741329146409406
-0.47224999290625647	-0.4624456590424056
-0.47218895775000647	-0.44935522901822855
-0.47212792259375647	-0.4349000523728675
-0.47206688743750647	-0.4191223727315838
-0.47200585228125647	-0.40206826391782596
-0.47194481712500647	-0.38378834628491376
-0.47188378196875647	-0.36433648576604427
-0.47182274681250647	-0.34376973226739066
-0.47176171165625647	-0.3221494640583965
-0.47170067650000647	-0.29953983856289157
-0.47163964134375647	-0.2760073751623998
-0.47157860618750647	-0.25162246732103954
-0.47151757103125647	-0.22645789074569977
-0.47145653587500647	-0.20058792906410888
-0.47139550071875647	-0.17408994855866944
-0.47133446556250647	-0.1470433433566571
-0.47127343040625647	-0.11952856643017555
-0.47121239525000647	-0.09162759938647874
-0.47115136009375647	-0.06342402073127469
-0.47109032493750647	-0.03500262711464088
-0.47102928978125647	-0.006448008918975982
-0.47096825462500647	0.02215455519705064
-0.47090721946875647	0.05071860658286227
-0.47084618431250647	0.07915879278736625
-0.47078514915625647	0.10739018964253294
-0.47072411400000647	0.1353274361861329
-0.47066307884375647	0.16288685146054138
-0.47060204368750647	0.1899859015507584
-0.47054100853125647	0.2165425317337129
-0.47047997337500647	0.2424771035591361
-0.47041893821875647	0.267711875923649
-0.47035790306250647	0.29217034910902634
