Time	Frequency
-0.5000258319062425	-0.21867754734230516
-0.4999647967499925	-0.19802723122763694
-0.4999037615937425	-0.17685750044347703
-0.4998427264374925	-0.1552203591344897
-0.4997816912812425	-0.13316905569169202
-0.4997206561249925	-0.11075797304032435
-0.4996596209687425	-0.08804201031104061
-0.4995985858124925	-0.06507744403532213
-0.4995375506562425	-0.04192095374417806
-0.4994765154999925	-0.018629410683082385
-0.4994154803437425	0.00473929484143626
-0.4993544451874925	0.02812769924810741
-0.4992934100312425	0.05147784766574516
-0.4992323748749925	0.07473172397955447
-0.4991713397187425	0.09783220133166175
-0.4991103045624925	0.1207216709071269
-0.4990492694062425	0.14334336040387288
-0.4989882342499925	0.1656414622471751
-0.4989271990937425	0.18756026008038015
-0.4988661639374925	0.2090453287167758
-0.4988051287812425	0.23004351052559072
-0.4987440936249925	0.2505022431839806
-0.4986830584687425	0.2703705759823599
-0.4986220233124925	0.28959926621434573
-0.4985609881562425	0.3081400308035332
-0.4984999529999925	0.32594657619886713
-0.4984389178437425	0.34297457819832067
-0.4983778826874925	0.3591812501611306
-0.4983168475312425	0.3745259877993398
-0.4982558123749925	0.3889702862198581
-0.4981947772187425	0.4024777935247039
-0.4981337420624925	0.41501457173701356
-0.4980727069062425	0.4265489322909183
-0.4980116717499925	0.43705158040645875
-0.4979506365937425	0.44649602013599893
-0.4978896014374925	0.45485820336303023
-0.4978285662812425	0.4621165454756343
-0.4977675311249925	0.4682525338453506
-0.4977064959687425	0.4732502859410573
-0.4976454608124925	0.47709652644663614
-0.4975844256562425	0.4797810939935655
-0.4975233904999925	0.4812966061190399
-0.4974623553437425	0.48163846371601976
-0.4974013201874925	0.4808050740636683
-0.4973402850312425	0.47879771724941
-0.4972792498749925	0.47562059987380273
-0.4972182147187425	0.4712807756309522
-0.4971571795624925	0.46578813624718074
-0.4970961444062425	0.4591556071589562
-0.4970351092499925	0.45139877553995783
-0.4969740740937425	0.4425359463999041
-0.4969130389374925	0.4325884498329319
-0.4968520037812425	0.421580070722181
-0.4967909686249925	0.40953721272254984
-0.4967299334687425	0.3964890691661447
-0.4966688983124925	0.38246709603570883
-0.4966078631562425	0.3675052709448399
-0.4965468279999925	0.35164003631041474
-0.4964857928437425	0.3349097761754088
-0.4964247576874925	0.3173552224892337
-0.4963637225312425	0.29901943463422553
-0.4963026873749925	0.2799468447590624
-0.4962416522187425	0.2601839016639351
-0.4961806170624925	0.23977938951628935
-0.4961195819062425	0.21878294445266291
-0.4960585467499925	0.19724565843683986
-0.4959975115937425	0.17522073658171664
-0.4959364764374925	0.15276214681328848
-0.4958754412812425	0.12992455581113388
-0.4958144061249925	0.10676415840508345
-0.4957533709687425	0.08333815259083883
-0.4956923358124925	0.05970372265552152
-0.4956313006562425	0.03591876935040297
-0.4955702654999925	0.012042124061122277
-0.4955092303437425	-0.011867544862755774
-0.4954481951874925	-0.03575163257593507
-0.4953871600312425	-0.05955142770581128
-0.4953261248749925	-0.08320804176980692
-0.4952650897187425	-0.10666323847418875
-0.4952040545624925	-0.1298597729157993
-0.4951430194062425	-0.1527400683519307
-0.4950819842499925	-0.17524751472311004
-0.4950209490937425	-0.1973272353647337
-0.4949599139374925	-0.21892461240721225
-0.4948988787812425	-0.2399860760158961
-0.4948378436249925	-0.26045997398342674
-0.4947768084687425	-0.2802958889728384
-0.4947157733124925	-0.299444726510035
-0.4946547381562425	-0.3178592634089964
-0.4945937029999925	-0.33549405733081106
-0.4945326678437425	-0.35230573762961886
-0.4944716326874925	-0.3682528376306102
-0.4944105975312425	-0.38329567207888
-0.4943495623749925	-0.3973974429553865
-0.4942885272187425	-0.41052351681778315
-0.4942274920624925	-0.42264110884352646
-0.4941664569062425	-0.43372049018181313
-0.4941054217499925	-0.4437345411559258
-0.4940443865937425	-0.452658461677819
-0.4939833514374925	-0.46047021410927697
-0.4939223162812425	-0.46715065891366453
-0.4938612811249925	-0.4726834408967916
-0.4938002459687425	-0.4770549543068301
-0.4937392108124925	-0.48025452730052637
-0.4936781756562425	-0.4822743917287551
-0.4936171404999925	-0.48310973245499805
-0.4935561053437425	-0.4827586830927662
-0.4934950701874925	-0.4812222575112647
-0.4934340350312425	-0.4785044737110976
-0.4933729998749925	-0.4746123267721706
-0.4933119647187425	-0.46955564259708493
-0.4932509295624925	-0.4633471671043037
-0.4931898944062425	-0.45600261248919016
-0.4931288592499925	-0.44754039475200386
-0.4930678240937425	-0.43798174214743263
-0.4930067889374925	-0.427350733929163
-0.4929457537812425	-0.41567391279876553
-0.4928847186249925	-0.40298058716650875
-0.4928236834687425	-0.3893026636444531
-0.4927626483124925	-0.3746742382144837
-0.4927016131562425	-0.35913201607847156
-0.4926405779999925	-0.34271495889779013
-0.4925795428437425	-0.3254641107432401
-0.4925185076874925	-0.3074227118963172
-0.4924574725312425	-0.2886358253289713
-0.4923964373749925	-0.26915056824841427
-0.4923354022187425	-0.24901576946034173
-0.4922743670624925	-0.2282816755228438
-0.4922133319062425	-0.20700029008623377
-0.4921522967499925	-0.18522487805633095
-0.4920912615937425	-0.16300999369167965
-0.4920302264374925	-0.14041121556403727
-0.4919691912812425	-0.1174849720375638
-0.4919081561249925	-0.09428905737018223
-0.4918471209687425	-0.07088128891921626
-0.4917860858124925	-0.04732005839595398
-0.4917250506562425	-0.023665022419064704
-0.4916640154999925	2.5058981661060623e-05
-0.4916029803437425	0.02369096127062489
-0.4915419451874925	0.04727276586972605
-0.4914809100312425	0.07071195971830614
-0.4914198748749925	0.09394975739272318
-0.4913588397187425	0.11692749364423369
-0.4912978045624925	0.13958799441457226
-0.4912367694062425	0.16187447583954842
-0.4911757342499925	0.1837307475434378
-0.4911146990937425	0.20510214407468977
-0.4910536639374925	0.22593533873076577
-0.4909926287812425	0.24617780250543858
-0.4909315936249925	0.26577868623974715
-0.4908705584687425	0.2846891588324205
-0.4908095233124925	0.3028616743066668
-0.4907484881562425	0.32025043376101414
-0.4906874529999925	0.33681199762500125
-0.4906264178437425	0.3525049133764569
-0.4905653826874925	0.36728960278179534
-0.4905043475312425	0.3811290494992156
-0.4904433123749925	0.3939885893209934
-0.4903822772187425	0.40583582481574754
-0.4903212420624925	0.4166411785893069
-0.4902602069062425	0.4263775104227299
-0.4901991717499925	0.4350202603702982
-0.4901381365937425	0.442547901764365
-0.4900771014374925	0.4489415679402243
-0.4900160662812425	0.45418514045160824
-0.4899550311249925	0.45826554774719824
-0.4898939959687425	0.4611726085207928
-0.4898329608124925	0.4628990388742196
-0.4897719256562425	0.463440587008574
-0.4897108904999925	0.4627959716667684
-0.4896498553437425	0.46096687710332573
-0.4895888201874925	0.45795799915161006
-0.4895277850312425	0.4537770095478956
-0.4894667498749925	0.4484345304472918
-0.4894057147187425	0.4419440831207754
-0.4893446795624925	0.4343221710307615
-0.4892836444062425	0.4255881084570604
-0.4892226092499925	0.4157639076043429
-0.4891615740937425	0.4048745937637428
-0.4891005389374925	0.39294774174941743
-0.4890395037812425	0.3800133459605611
-0.4889784686249925	0.3661043965343449
-0.4889174334687425	0.351256129056197
-0.4888563983124925	0.33550585633333796
-0.4887953631562425	0.31889376697445043
-0.4887343279999925	0.3014619934132057
-0.4886732928437425	0.2832543906764713
-0.4886122576874925	0.2643173145028548
-0.4885512225312425	0.2446988853600378
-0.4884901873749925	0.22444862055554193
-0.4884291522187425	0.20361791944874486
-0.4883681170624925	0.18225983386128566
-0.4883070819062425	0.16042834191081273
-0.4882460467499925	0.13817885347117095
-0.4881850115937425	0.11556810551829468
-0.4881239764374925	0.09265328059021564
-0.4880629412812425	0.06949268870691484
-0.4880019061249925	0.04614526381001932
-0.4879408709687425	0.022670239987627603
-0.4878798358124925	-0.0008725427677091649
-0.4878188006562425	-0.02442326010055104
-0.4877577654999925	-0.047921853198414334
-0.4876967303437425	-0.07130856661400761
-0.4876356951874925	-0.09452391560263404
-0.4875746600312425	-0.11750831278677201
-0.4875136248749925	-0.140203388340966
-0.4874525897187425	-0.1625514996033479
-0.4873915545624925	-0.18449503953393165
-0.4873305194062425	-0.20597796588071
-0.4872694842499925	-0.22694584506036233
-0.4872084490937425	-0.24734464440371545
-0.4871474139374925	-0.2671218438861801
-0.4870863787812425	-0.28622721740702284
-0.4870253436249925	-0.3046116606850558
-0.4869643084687425	-0.3222275659701941
-0.4869032733124925	-0.33902984823479
-0.4868422381562425	-0.3549754340195295
-0.4867812029999925	-0.3700228764830851
-0.4867201678437425	-0.38413323230299506
-0.4866591326874925	-0.39727024815400275
-0.4865980975312425	-0.4093997654332597
-0.4865370623749925	-0.4204899806148373
-0.4864760272187425	-0.4305120601900981
-0.4864149920624925	-0.43943996922631995
-0.4863539569062425	-0.44724991536623987
-0.4862929217499925	-0.45392113536196704
-0.4862318865937425	-0.4594361159678024
-0.4861708514374925	-0.4637797549428038
-0.4861098162812425	-0.46694000071225056
-0.4860487811249925	-0.46890808502826486
-0.4859877459687425	-0.46967795183603395
-0.4859267108124925	-0.46924662192386146
-0.4858656756562425	-0.46761429872075294
-0.4858046404999925	-0.4647840671804447
-0.4857436053437425	-0.4607621065664941
-0.4856825701874925	-0.4555576824694303
-0.4856215350312425	-0.4491828985356437
-0.4855604998749925	-0.44165294541336814
-0.4854994647187425	-0.43298600569839585
-0.4854384295624925	-0.42320296370659954
-0.4853773944062425	-0.4123276415910712
-0.4853163592499925	-0.40038673859501694
-0.4852553240937425	-0.38740952599327666
-0.4851942889374925	-0.3734278464136779
-0.4851332537812425	-0.3584763953869294
-0.4850722186249925	-0.34259215292823764
-0.4850111834687425	-0.3258142404620751
-0.4849501483124925	-0.3081847043609366
-0.4848891131562425	-0.28974721572485596
-0.4848280779999925	-0.2705473907910162
-0.4847670428437425	-0.2506337550632917
-0.4847060076874925	-0.23005566197827607
-0.4846449725312425	-0.20886413742703977
-0.4845839373749925	-0.18711292748077876
-0.4845229022187425	-0.16485639034790128
-0.4844618670624925	-0.14214966750281408
-0.4844008319062425	-0.11905013154240068
-0.4843397967499925	-0.09561623590656616
-0.4842787615937425	-0.07190618540632918
-0.4842177264374925	-0.04797945565340651
-0.4841566912812425	-0.023896997311080984
-0.4840956561249925	0.000280846790766025
-0.4840346209687425	0.024493639058152713
-0.4839735858124925	0.048679878452724215
-0.4839125506562425	0.07277844982735907
-0.4838515154999925	0.09672873818809959
-0.4837904803437425	0.12047026347466686
-0.4837294451874925	0.1439429820331444
-0.4836684100312425	0.16708733640604895
-0.4836073748749925	0.18984480806574316
-0.4835463397187425	0.2121579314377581
-0.4834853045624925	0.23396998452802314
-0.4834242694062425	0.2552254937933514
-0.4833632342499925	0.27587071494070975
-0.4833021990937425	0.29585313769590166
-0.4832411639374925	0.31512172765057295
-0.4831801287812425	0.333627665112884
-0.4831190936249925	0.35132375195517146
-0.4830580584687425	0.36816464030655016
-0.4829970233124925	0.38410747735965783
-0.4829359881562425	0.3991115044694648
-0.4828749529999925	0.41313814974091684
-0.4828139178437425	0.42615147285640964
-0.4827528826874925	0.4381180619992132
-0.4826918475312425	0.44900700561989615
-0.4826308123749925	0.45879017668576577
-0.4825697772187425	0.4674422297958351
-0.4825087420624925	0.4749406206497441
-0.4824477069062425	0.4812657333871476
-0.4823866717499925	0.48640084736828415
-0.4823256365937425	0.4903323057102762
-0.4822646014374925	0.4930494778036576
-0.4822035662812425	0.4945446861730312
-0.4821425311249925	0.4948134512573712
-0.4820814959687425	0.4938543626460807
-0.4820204608124925	0.49166904607313766
-0.4819594256562425	0.4882623010873827
-0.4818983904999925	0.48364192128117023
-0.4818373553437425	0.4778188492977556
-0.4817763201874925	0.4708071093728096
-0.4817152850312425	0.46262352680553026
-0.4816542498749925	0.4532880563781439
-0.4815932147187425	0.44282366677915536
-0.4815321795624925	0.4312559536908357
-0.4814711444062425	0.4186133515257178
-0.4814101092499925	0.4049272317782906
-0.4813490740937425	0.3902314164880523
-0.4812880389374925	0.37456223899195124
-0.4812270037812425	0.3579588097100863
-0.4811659686249925	0.34046229722811777
-0.4811049334687425	0.3221161103138001
-0.4810438983124925	0.3029662714140685
-0.4809828631562425	0.2830605174900769
-0.4809218279999925	0.26244824191990557
-0.4808607928437425	0.24118108662038248
-0.4807997576874925	0.21931258134143256
-0.4807387225312425	0.19689711521937406
-0.4806776873749925	0.17399051286090303
-0.4806166522187425	0.15065076615537035
-0.4805556170624925	0.12693624155201302
-0.4804945819062425	0.10290596982035442
-0.4804335467499925	0.078620653230455
-0.4803725115937425	0.05414114258689992
-0.4803114764374925	0.029528839112212893
-0.4802504412812425	0.004845766184184844
-0.4801894061249925	-0.01984647055511699
-0.4801283709687425	-0.04448558740056703
-0.4800673358124925	-0.06900923022069466
-0.4800063006562425	-0.09335637416456907
-0.4799452654999925	-0.11746574986795082
-0.4798842303437425	-0.14127608383173385
-0.4798231951874925	-0.16472786554345922
-0.4797621600312425	-0.18776227046541555
-0.4797011248749925	-0.21032099048624242
-0.4796400897187425	-0.23234722089561635
-0.4795790545624925	-0.25378560111963844
-0.4795180194062425	-0.2745822626489076
-0.4794569842499925	-0.2946846444333624
-0.4793959490937425	-0.3140420164441479
-0.4793349139374925	-0.3326059516235073
-0.4792738787812425	-0.3503295434730584
-0.4792128436249925	-0.3671679099197739
-0.4791518084687425	-0.38307900148481916
-0.4790907733124925	-0.39802272880962536
-0.4790297381562425	-0.41196118989552916
-0.4789687029999925	-0.4248595312393331
-0.4789076678437425	-0.43668536073240416
-0.4788466326874925	-0.44740879544805107
-0.4787855975312425	-0.4570029887238196
-0.4787245623749925	-0.4654438727466198
-0.4786635272187425	-0.47271025755492097
-0.4786024920624925	-0.47878401878511956
-0.4785414569062425	-0.48364998327045056
-0.4784804217499925	-0.48729608814670217
-0.4784193865937425	-0.48971336693252693
-0.4783583514374925	-0.49089593272555637
-0.4782973162812425	-0.490841088854917
-0.4782362811249925	-0.48954925159913687
-0.4781752459687425	-0.48702400423104325
-0.4781142108124925	-0.483272063106082
-0.4780531756562425	-0.47830321194716136
-0.4779921404999925	-0.4721304496294585
-0.4779311053437425	-0.46476975684207206
-0.4778700701874925	-0.4562400740271629
-0.4778090350312425	-0.44656354381396113
-0.4777479998749925	-0.4357650205070954
-0.4776869647187425	-0.42387219519630437
-0.4776259295624925	-0.4109158435511158
-0.4775648944062425	-0.3969291707783637
-0.4775038592499925	-0.3819479905169407
-0.4774428240937425	-0.36601093783051203
-0.4773817889374925	-0.34915886660945805
-0.4773207537812425	-0.3314349636940801
-0.4772597186249925	-0.3128847704140804
-0.4771986834687425	-0.2935558223295025
-0.4771376483124925	-0.2734977993720016
-0.4770766131562425	-0.2527620936877794
-0.4770155779999925	-0.23140173874761033
-0.4769545428437425	-0.2094718021324913
-0.4768935076874925	-0.18702853490582932
-0.4768324725312425	-0.16412908505891372
-0.4767714373749925	-0.14083254604390372
-0.4767104022187425	-0.11719892858175447
-0.4766493670624925	-0.09328823922925904
-0.4765883319062425	-0.06916212207704979
-0.4765272967499925	-0.04488277842277502
-0.4764662615937425	-0.020512035713127794
-0.4764052264374925	0.003887326689427708
-0.4763441912812425	0.02825260217222078
-0.4762831561249925	0.05252146393747295
-0.4762221209687425	0.07663144810700777
-0.4761610858124925	0.1005206140800908
-0.4761000506562425	0.12412769354009356
-0.4760390154999925	0.14739212637293736
-0.4759779803437425	0.17025400047363362
-0.4759169451874925	0.19265446008381795
-0.4758559100312425	0.21453626367116518
-0.4757948748749925	0.23584314197146328
-0.4757338397187425	0.2565198537792561
-0.4756728045624925	0.27651359285692956
-0.4756117694062425	0.29577324813892547
-0.4755507342499925	0.31424863856285956
-0.4754896990937425	0.33189241448150075
-0.4754286639374925	0.3486595224921906
-0.4753676287812425	0.36450643864792187
-0.4753065936249925	0.3793924115853461
-0.4752455584687425	0.393279175679806
-0.4751845233124925	0.40613093785383414
-0.4751234881562425	0.4179145587578294
-0.4750624529999925	0.42859956977192887
-0.4750014178437425	0.4381585588909554
-0.4749403826874925	0.4465668224205843
-0.4748793475312425	0.4538025138751767
-0.4748183123749925	0.4598470373793176
-0.4747572772187425	0.46468480217505953
-0.4746962420624925	0.46830320869849534
-0.4746352069062425	0.47069284451228227
-0.4745741717499925	0.4718475127283501
-0.4745131365937425	0.4717641884067456
-0.4744521014374925	0.4704429939735944
-0.4743910662812425	0.4678872264374221
-0.4743300311249925	0.464103443004548
-0.4742689959687425	0.45910135266111063
-0.4742079608124925	0.452893725005105
-0.4741469256562425	0.44549654387821885
-0.4740858904999925	0.4369288199781191
-0.4740248553437425	0.42721260331260014
-0.4739638201874925	0.41637295227957094
-0.4739027850312425	0.40443766467757924
-0.4738417498749925	0.3914376041671453
-0.4737807147187425	0.3774063824863408
-0.4737196795624925	0.362380002167922
-0.4736586444062425	0.3463972702210159
-0.4735976092499925	0.3294996336742163
-0.4735365740937425	0.3117306443960548
-0.4734755389374925	0.29313603920584774
-0.4734145037812425	0.27376409321245143
-0.4733534686249925	0.25366494437858916
-0.4732924334687425	0.2328903161169968
-0.4732313983124925	0.21149416808942992
-0.4731703631562425	0.1895319581402343
-0.4731093279999925	0.16706027229359274
-0.4730482928437425	0.1441375580954742
-0.4729872576874925	0.12082328848876081
-0.4729262225312425	0.09717766207630253
-0.4728651873749925	0.07326215153726716
-0.4728041522187425	0.04913882267330235
-0.4727431170624925	0.02487035770240977
-0.4726820819062425	0.0005197121085899878
-0.4726210467499925	-0.02384998969485949
-0.4725600115937425	-0.04817501660655672
-0.4724989764374925	-0.07239232829775796
-0.4724379412812425	-0.09643902615236392
-0.4723769061249925	-0.12025211349613542
-0.4723158709687425	-0.14376984724882944
-0.4722548358124925	-0.16693086540234608
-0.4721938006562425	-0.18967453082860836
-0.4721327654999925	-0.21194170483451755
-0.4720717303437425	-0.23367408633699027
-0.4720106951874925	-0.25481476858284396
-0.4719496600312425	-0.27530858150505516
-0.4718886248749925	-0.2951017108829997
-0.4718275897187425	-0.31414217042040166
-0.4717665545624925	-0.3323801295949776
-0.4717055194062425	-0.34976755478065624
-0.4716444842499925	-0.3662585868893787
-0.4715834490937425	-0.3818098215471721
-0.4715224139374925	-0.3963801331400774
-0.4714613787812425	-0.4099309583651606
-0.4714003436249925	-0.4224262978646541
-0.4713393084687425	-0.433832878198297
-0.4712782733124925	-0.4441203067437552
-0.4712172381562425	-0.4532609357527099
-0.4711562029999925	-0.46123009717057917
-0.4710951678437425	-0.46800619936676474
-0.4710341326874925	-0.47357067735253405
-0.4709730975312425	-0.4779080803225016
-0.4709120623749925	-0.48100614115106677
-0.4708510272187425	-0.48285575323907015
-0.4707899920624925	-0.48345105843683533
-0.4707289569062425	-0.4827894805188773
-0.4706679217499925	-0.48087159733485024
-0.4706068865937425	-0.47770127487809116
-0.4705458514374925	-0.47328566908090547
-0.4704848162812425	-0.46763508872084336
-0.4704237811249925	-0.46076305021161773
-0.4703627459687425	-0.45268629944713057
-0.4703017108124925	-0.4434246411131546
-0.4702406756562425	-0.43300092568391535
-0.4701796404999925	-0.42144117642688306
-0.4701186053437425	-0.40877419251891745
-0.4700575701874925	-0.3950316790892578
-0.4699965350312425	-0.3802483413944408
-0.4699354998749925	-0.3644613171861457
-0.4698744647187425	-0.34771048585833186
-0.4698134295624925	-0.33003834692432904
-0.4697523944062425	-0.31148960982891205
-0.4696913592499925	-0.2921114568379414
