Time	Frequency
-0.5000121247187508	-2.4416178927607923e-24
-0.4999510895625008	-2.3496912030829975e-24
-0.4998900544062508	-2.253424990307262e-24
-0.4998290192500008	-2.152994929680533e-24
-0.4997679840937508	-2.0485849753008177e-24
-0.4997069489375008	-1.940388387082312e-24
-0.4996459137812508	-1.8286029023772084e-24
-0.4995848786250008	-1.7134343075068073e-24
-0.4995238434687508	-1.595096206013486e-24
-0.4994628083125008	-1.4738053672693947e-24
-0.4994017731562508	-1.3497851361885698e-24
-0.4993407380000008	-1.223265982204695e-24
-0.4992797028437508	-1.0944815739428212e-24
-0.4992186676875008	-9.636676008916629e-25
-0.4991576325312508	-8.310675416741192e-25
-0.4990965973750008	-6.969285073366753e-25
-0.4990355622187508	-5.614949092718952e-25
-0.4989745270625008	-4.250192120341738e-25
-0.4989134919062508	-2.877563592199104e-25
-0.4988524567500008	-1.4995672227736974e-25
-0.4987914215937508	-1.1877993082499921e-26
-0.4987303864375008	1.262227474871568e-25
-0.4986693512812508	2.64092685552401e-25
-0.4986083161250008	4.0147324524376944e-25
-0.4985472809687508	5.381093139896153e-25
-0.4984862458125008	6.737499631700869e-25
-0.4984252106562508	8.081408916755111e-25
-0.4983641755000008	9.410323033383486e-25
-0.4983031403437508	1.072179389450331e-24
-0.4982421051875008	1.2013368073212866e-24
-0.4981810700312508	1.3282645459709273e-24
-0.4981200348750008	1.4527274043597708e-24
-0.4980589997187508	1.57449310439835e-24
-0.4979979645625008	1.693336312325334e-24
-0.4979369294062508	1.8090350535616285e-24
-0.4978758942500008	1.921373547411983e-24
-0.4978148590937508	2.03014449708666e-24
-0.4977538239375008	2.1351444910558565e-24
-0.4976927887812508	2.236177818618043e-24
-0.4976317536250008	2.3330573982790077e-24
-0.4975707184687508	2.425601941418147e-24
-0.4975096833125008	2.5136394879923016e-24
-0.4974486481562508	2.597007724255064e-24
-0.4973876130000008	2.6755492392525526e-24
-0.4973265778437508	2.749118014127357e-24
-0.4972655426875008	2.8175800928399343e-24
-0.4972045075312508	2.8808051254563335e-24
-0.4971434723750008	2.93867579598762e-24
-0.4970824372187508	2.991086824644612e-24
-0.4970214020625008	3.037938596632991e-24
-0.4969603669062508	3.079145007604404e-24
-0.4968993317500008	3.1146302062686518e-24
-0.4968382965937508	3.1443275117818987e-24
-0.4967772614375008	3.1681829006108522e-24
-0.4967162262812508	3.1861523724978056e-24
-0.4966551911250008	3.198202796500104e-24
-0.4965941559687508	3.2043126863423326e-24
-0.4965331208125008	3.2044714180983666e-24
-0.4964720856562508	3.198679598642465e-24
-0.4964110505000008	3.1869489089991808e-24
-0.4963500153437508	3.1693022056496338e-24
-0.4962889801875008	3.1457737804843164e-24
-0.4962279450312508	3.116408385961978e-24
-0.4961669098750008	3.081262110307028e-24
-0.4961058747187508	3.0404023964221e-24
-0.4960448395625008	2.9939060582295363e-24
-0.4959838044062508	2.9418617984890372e-24
-0.4959227692500008	2.8843691475452294e-24
-0.4958617340937508	2.82153541176549e-24
-0.4958006989375008	2.753480639618119e-24
-0.4957396637812508	2.6803349552912722e-24
-0.4956786286250008	2.6022340829427682e-24
-0.4956175934687508	2.5193273530224298e-24
-0.4955565583125008	2.431773781379376e-24
-0.4954955231562508	2.339735196988475e-24
-0.4954344880000008	2.2433869368502383e-24
-0.4953734528437508	2.142914696490714e-24
-0.4953124176875008	2.038504526492529e-24
-0.4952513825312508	1.9303540159537245e-24
-0.4951903473750008	1.8186715850809553e-24
-0.4951293122187508	1.7036658398184557e-24
-0.4950682770625008	1.58555347179624e-24
-0.4950072419062508	1.464560463645529e-24
-0.4949462067500008	1.3409154882977413e-24
-0.4948851715937508	1.2148509987570956e-24
-0.4948241364375008	1.0866063624474004e-24
-0.4947631012812508	9.564258858649095e-25
-0.4947020661250008	8.245547195947414e-25
-0.4946410309687508	6.91241838908299e-25
-0.4945799958125008	5.567414112842864e-25
-0.4945189606562508	4.213086153885739e-25
-0.4944579255000008	2.8519770431611124e-25
-0.4943968903437508	1.4866818091876322e-25
-0.4943358551875008	1.198003867538225e-26
-0.4942748200312508	-1.2461009796057689e-25
-0.4942137848750008	-2.6084212522769693e-25
-0.4941527497187508	-3.964569214376111e-25
-0.4940917145625008	-5.31197428702145e-25
-0.4940306794062508	-6.648097790133837e-25
-0.4939696442500008	-7.9703917487221085e-25
-0.4939086090937508	-9.276320366837138e-25
-0.4938475739375008	-1.0563452592044344e-24
-0.4937865387812508	-1.1829328413332165e-24
-0.4937255036250008	-1.3071506139106525e-24
-0.4936644684687508	-1.4287670655726896e-24
-0.4936034333125008	-1.547550510859478e-24
-0.4935423981562508	-1.6632727397107224e-24
-0.4934813630000008	-1.7757153180614125e-24
-0.4934203278437508	-1.884664506011645e-24
-0.4933592926875008	-1.989912647456362e-24
-0.4932982575312508	-2.091259238463509e-24
-0.4932372223750008	-2.188511526659146e-24
-0.4931761872187508	-2.281484278825689e-24
-0.4931151520625008	-2.3700002560931356e-24
-0.4930541169062508	-2.453890831100745e-24
-0.4929930817500008	-2.532995799272179e-24
-0.4929320465937508	-2.607164432591484e-24
-0.4928710114375008	-2.676254891223843e-24
-0.4928099762812508	-2.7401353825976845e-24
-0.4927489411250008	-2.7986837402878886e-24
-0.4926879059687508	-2.8517874483560287e-24
-0.4926268708125008	-2.8993456149124073e-24
-0.4925658356562508	-2.941266714157242e-24
-0.4925048005000008	-2.9774695066650943e-24
-0.4924437653437508	-3.0078854086487085e-24
-0.4923827301875008	-3.0324554277705983e-24
-0.4923216950312508	-3.051131337557536e-24
-0.4922606598750008	-3.0638776067787377e-24
-0.4921996247187508	-3.0706688072824636e-24
-0.4921385895625008	-3.0714909486997894e-24
-0.4920775544062508	-3.06634198016511e-24
-0.4920165192500008	-3.055230612850056e-24
-0.4919554840937508	-3.0381771814204777e-24
-0.4918944489375008	-3.015213374529282e-24
-0.4918334137812508	-2.986382048426802e-24
-0.4917723786250008	-2.9517371433035998e-24
-0.4917113434687508	-2.911344056295465e-24
-0.4916503083125008	-2.8652789274670203e-24
-0.4915892731562508	-2.813628304749004e-24
-0.4915282380000008	-2.756490374227637e-24
-0.4914672028437508	-2.6939732088660663e-24
-0.4914061676875008	-2.6261947922396108e-24
-0.4913451325312508	-2.5532840167798768e-24
-0.4912840973750008	-2.4753792882178513e-24
-0.4912230622187508	-2.392628534252868e-24
-0.4911620270625008	-2.305188336584817e-24
-0.4911009919062508	-2.213225661110533e-24
-0.4910399567500008	-2.1169155980451034e-24
-0.4909789215937508	-2.0164402196290834e-24
-0.4909178864375008	-1.9119923178228408e-24
-0.4908568512812508	-1.8037698761597793e-24
-0.4907958161250008	-1.691979202143142e-24
-0.4907347809687508	-1.576834254554602e-24
-0.4906737458125008	-1.458553345311277e-24
-0.4906127106562508	-1.3373638729457448e-24
-0.4905516755000008	-1.213495748205578e-24
-0.4904906403437508	-1.0871852895737067e-24
-0.4904296051875008	-9.586766257716298e-25
-0.4903685700312508	-8.282126868325136e-25
-0.4903075348750008	-6.960422663195472e-25
-0.4902464997187508	-5.62422039789978e-25
-0.4901854645625008	-4.276054505348783e-25
-0.4901244294062508	-2.9184873629122154e-25
-0.4900633942500008	-1.5541644813711435e-25
-0.4900023590937508	-1.8567572898633955e-26
-0.4899413239375008	1.1843690293032033e-25
-0.4898802887812508	2.55330140897313e-25
-0.4898192536250008	3.918520620779053e-25
-0.4897582184687508	5.277403460537995e-25
-0.4896971833125008	6.6273265570270785e-25
-0.4896361481562508	7.965700259317857e-25
-0.4895751130000008	9.289940756370696e-25
-0.4895140778437508	1.059751565852122e-24
-0.4894530426875008	1.1885887619332863e-24
-0.4893920075312508	1.3152571142599074e-24
-0.4893309723750008	1.439514341908838e-24
-0.4892699372187508	1.561118432373392e-24
-0.4892089020625008	1.6798338413609755e-24
-0.4891478669062508	1.7954328827980592e-24
-0.4890868317500008	1.9076915794620193e-24
-0.4890257965937508	2.016389985615604e-24
-0.4889647614375008	2.121318456919892e-24
-0.4889037262812508	2.222274853817059e-24
-0.4888426911250008	2.3190605380113326e-24
-0.4887816559687508	2.411486612189828e-24
-0.4887206208125008	2.499374789118834e-24
-0.4886595856562508	2.5825522758668294e-24
-0.4885985505000008	2.6608550539972915e-24
-0.4885375153437508	2.7341311939411023e-24
-0.4884764801875008	2.8022355656374355e-24
-0.4884154450312508	2.865033342909201e-24
-0.4883544098750008	2.922401380689094e-24
-0.4882933747187508	2.974224215022929e-24
-0.4882323395625008	3.0203988446175195e-24
-0.4881713044062508	3.060833064700506e-24
-0.4881102692500008	3.095443539518118e-24
-0.4880492340937508	3.124160000503112e-24
-0.4879881989375008	3.1469233270621953e-24
-0.4879271637812508	3.1636841588590182e-24
-0.4878661286250008	3.1744056937301284e-24
-0.4878050934687508	3.1790630803268763e-24
-0.4877440583125008	3.177641755326536e-24
-0.4876830231562508	3.1701394360360427e-24
-0.4876219880000008	3.156565809471118e-24
-0.4875609528437508	3.136941223653192e-24
-0.4874999176875008	3.1112982682788366e-24
-0.4874388825312508	3.079681032689897e-24
-0.4873778473750008	3.0421444713114263e-24
-0.4873168122187508	2.9987554866857183e-24
-0.4872557770625008	2.949591855122334e-24
-0.4871947419062508	2.894742408197486e-24
-0.4871337067500008	2.8343072654246266e-24
-0.4870726715937508	2.7683963602504598e-24
-0.4870116364375008	2.6971311710006056e-24
-0.4869506012812508	2.620643266522866e-24
-0.4868895661250008	2.5390731798985716e-24
-0.4868285309687508	2.4525727108970123e-24
-0.4867674958125008	2.361302283684822e-24
-0.4867064606562508	2.2654318824023128e-24
-0.4866454255000008	2.1651401104027183e-24
-0.4865843903437508	2.0606134359305746e-24
-0.4865233551875008	1.9520488360312525e-24
-0.4864623200312508	1.8396489064810526e-24
-0.4864012848750008	1.723623210932679e-24
-0.4863402497187508	1.6041907887021647e-24
-0.4862792145625008	1.4815762477786246e-24
-0.4862181794062508	1.3560087496605149e-24
-0.4861571442500008	1.2277254135087691e-24
-0.4860961090937508	1.0969685921360967e-24
-0.4860350739375008	9.63982749932098e-25
-0.4859740387812508	8.290211088736248e-25
-0.4859130036250008	6.92337599578921e-25
-0.4858519684687508	5.541884428083214e-25
-0.4857909333125008	4.148390511049412e-25
-0.4857298981562508	2.745497431012504e-25
-0.4856688630000008	1.3358533463429356e-25
-0.4856078278437508	-7.782449067012251e-27
-0.4855467926875008	-1.4929040605159523e-25
-0.4854857575312508	-2.906698708591843e-25
-0.4854247223750008	-4.316480789213492e-25
-0.4853636872187508	-5.719622146537e-25
-0.4853026520625008	-7.113452835005482e-25
-0.4852416169062508	-8.495287472222673e-25
-0.4851805817500008	-9.862531864687767e-25
-0.4851195465937508	-1.1212581499384275e-24
-0.4850585114375008	-1.2542852286991348e-24
-0.4849974762812508	-1.3850819214787095e-24
-0.4849364411250008	-1.5133990898558844e-24
-0.4848754059687508	-1.6389918087508777e-24
-0.4848143708125008	-1.7616199492465577e-24
-0.4847533356562508	-1.8810509290725856e-24
-0.4846923005000008	-1.9970555815180144e-24
-0.4846312653437508	-2.1094112167897468e-24
-0.4845702301875008	-2.2179051855977076e-24
-0.4845091950312508	-2.322329118423815e-24
-0.4844481598750008	-2.422481711322667e-24
-0.4843871247187508	-2.5181724551121964e-24
-0.4843260895625008	-2.6092181043487673e-24
-0.4842650544062508	-2.6954428245117153e-24
-0.4842040192500008	-2.7766815426068395e-24
-0.4841429840937508	-2.852777962299971e-24
-0.4840819489375008	-2.923585954993661e-24
-0.4840209137812508	-2.988968973525949e-24
-0.4839598786250008	-3.0487998333358456e-24
-0.4838988434687508	-3.1029643830046092e-24
-0.4838378083125008	-3.151357308725336e-24
-0.4837767731562508	-3.1938837700845456e-24
-0.4837157380000008	-3.2304619582666677e-24
-0.4836547028437508	-3.261020286417518e-24
-0.4835936676875008	-3.285498327940409e-24
-0.4835326325312508	-3.3038477857493716e-24
-0.4834715973750008	-3.316032109885646e-24
-0.4834105622187508	-3.322025965308208e-24
-0.4833495270625008	-3.3218162300410974e-24
-0.4832884919062508	-3.315401594598442e-24
-0.4832274567500008	-3.302792255613569e-24
-0.4831664215937508	-3.2840107420546035e-24
-0.4831053864375008	-3.2590908718037812e-24
-0.4830443512812508	-3.228078544514843e-24
-0.4829833161250008	-3.1910313398941127e-24
-0.4829222809687508	-3.1480176495787647e-24
-0.4828612458125008	-3.0991185087511435e-24
-0.4828002106562508	-3.0444255123675317e-24
-0.4827391755000008	-2.9840407068404127e-24
-0.4826781403437508	-2.918078544688788e-24
-0.4826171051875008	-2.846662995962936e-24
-0.4825560700312508	-2.769928921121787e-24
-0.4824950348750008	-2.688021519745287e-24
-0.4824339997187508	-2.601094873048351e-24
-0.4823729645625008	-2.5093151772612113e-24
-0.4823119294062508	-2.41285506516713e-24
-0.4822508942500008	-2.311896826364705e-24
-0.4821898590937508	-2.206634697356352e-24
-0.4821288239375008	-2.0972657856091142e-24
-0.4820677887812508	-1.9839983549663086e-24
-0.4820067536250008	-1.867049774276909e-24
-0.4819457184687508	-1.746639545546501e-24
-0.4818846833125008	-1.622997979689651e-24
-0.4818236481562508	-1.496362006811623e-24
-0.4817626130000008	-1.3669698584639091e-24
-0.4817015778437508	-1.2350686840511679e-24
-0.4816405426875008	-1.100912431005355e-24
-0.4815795075312508	-9.647537841794967e-25
-0.4815184723750008	-8.2685251952186625e-25
-0.4814574372187508	-6.874738722171679e-25
-0.4813964020625008	-5.468814661394727e-25
-0.4813353669062508	-4.053448006642104e-25
-0.4812743317500008	-2.631339805389754e-25
-0.4812132965937508	-1.2051890612656932e-25
-0.4811522614375008	2.222532821128424e-26
-0.4810912262812508	1.6482748582743925e-25
-0.4810301911250008	3.0701676103221674e-25
-0.4809691559687508	4.4851857804968485e-25
-0.4809081208125008	5.890631670013762e-25
-0.4808470856562508	7.283839174466597e-25
-0.4807860505000008	8.662129113088102e-25
-0.4807250153437508	1.0022848172894237e-24
-0.4806639801875008	1.1363429215874364e-24
-0.4806029450312508	1.2681301165436147e-24
-0.4805419098750008	1.3973898513372206e-24
-0.4804808747187508	1.5238808057220373e-24
-0.4804198395625008	1.6473597647653566e-24
-0.4803588044062508	1.7675849266363693e-24
-0.4802977692500008	1.8843330618954795e-24
-0.4802367340937508	1.99737922364131e-24
-0.4801756989375008	2.106502876225936e-24
-0.4801146637812508	2.2114995770739725e-24
-0.4800536286250008	2.3121679000562316e-24
-0.4799925934687508	2.4083131237236778e-24
-0.4799315583125008	2.4997522155870128e-24
-0.4798705231562508	2.5863112759625725e-24
-0.4798094880000008	2.667823870869921e-24
-0.4797484528437508	2.7441333752477473e-24
-0.4796874176875008	2.8150950910688872e-24
-0.4796263825312508	2.8805731561141013e-24
-0.4795653473750008	2.940442045467832e-24
-0.4795043122187508	2.9945877796419575e-24
-0.4794432770625008	3.0429071615372397e-24
-0.4793822419062508	3.0853080121180054e-24
-0.4793212067500008	3.121709705914208e-24
-0.4792601715937508	3.1520434390986516e-24
-0.4791991364375008	3.1762513649022874e-24
-0.4791381012812508	3.1942881596283182e-24
-0.4790770661250008	3.2061204463993525e-24
-0.4790160309687508	3.21172604517048e-24
-0.4789549958125008	3.2110956082384748e-24
-0.4788939606562508	3.2042315011842792e-24
-0.4788329255000008	3.191148045868083e-24
-0.4787718903437508	3.171871886326632e-24
-0.4787108551875008	3.1464412798093116e-24
-0.4786498200312508	3.1149067085266016e-24
-0.4785887848750008	3.0773302050675886e-24
-0.4785277497187508	3.033785845041276e-24
-0.4784667145625008	2.9843588165031377e-24
-0.4784056794062508	2.9291458947150523e-24
-0.4783446442500008	2.868255853831616e-24
-0.4782836090937508	2.8018063655597202e-24
-0.4782225739375008	2.7299283591808188e-24
-0.4781615387812508	2.65276269465745e-24
-0.4781005036250008	2.570457931094142e-24
-0.4780394684687508	2.4831767216895925e-24
-0.4779784333125008	2.391089330917081e-24
-0.4779173981562508	2.29437372335355e-24
-0.4778563630000008	2.1932199057253056e-24
-0.4777953278437508	2.0878257740362384e-24
-0.4777342926875008	1.9783955504675695e-24
-0.4776732575312508	1.8651427276521848e-24
-0.4776122223750008	1.7482898536767345e-24
-0.4775511872187508	1.6280637607483702e-24
-0.4774901520625008	1.5046980970817017e-24
-0.4774291169062508	1.378435509244938e-24
-0.4773680817500008	1.2495219808227998e-24
-0.4773070465937508	1.1182072544349473e-24
-0.4772460114375008	9.84750120855553e-25
-0.4771849762812508	8.494105208821648e-25
-0.4771239411250008	7.124507530180019e-25
-0.4770629059687508	5.741417030841404e-25
-0.4770018708125008	4.347513306699163e-25
-0.4769408356562508	2.9455147700088973e-25
-0.4768798005000008	1.5381872565797803e-25
-0.4768187653437508	1.2826067151204985e-26
-0.4767577301875008	-1.281502446518264e-25
-0.4766966950312508	-2.688342155281127e-25
-0.4766356598750008	-4.0895017332032915e-25
-0.4765746247187508	-5.482246194997019e-25
-0.4765135895625008	-6.863849196192716e-25
-0.4764525544062508	-8.231589792813729e-25
-0.4763915192500008	-9.582807808349316e-25
-0.4763304840937508	-1.0914841227054046e-24
-0.4762694489375008	-1.2225077631671551e-24
-0.4762084137812508	-1.3510956798995917e-24
-0.4761473786250008	-1.476994176352642e-24
-0.4760863434687508	-1.5999565797927033e-24
-0.4760253083125008	-1.719741615668606e-24
-0.4759642731562508	-1.8361129500163923e-24
-0.4759032380000008	-1.9488418351234665e-24
-0.4758422028437508	-2.057707471469751e-24
-0.4757811676875008	-2.1624932908271887e-24
-0.4757201325312508	-2.2629938759748493e-24
-0.4756590973750008	-2.3590121443688996e-24
-0.4755980622187508	-2.450355100103284e-24
-0.4755370270625008	-2.5368448617871646e-24
-0.4754759919062508	-2.6183103751759106e-24
-0.4754149567500008	-2.6945871377731037e-24
-0.4753539215937508	-2.7655268286409414e-24
-0.4752928864375008	-2.8309876294806237e-24
-0.4752318512812508	-2.89083690286967e-24
-0.4751708161250008	-2.944957971540708e-24
-0.4751097809687508	-2.9932414216350976e-24
-0.4750487458125008	-3.035588393072094e-24
-0.4749877106562508	-3.071915547859551e-24
-0.4749266755000008	-3.1021486863753603e-24
-0.4748656403437508	-3.1262243916837663e-24
-0.4748046051875008	-3.1440935987700426e-24
-0.4747435700312508	-3.1557189492391277e-24
-0.4746825348750008	-3.1610736628388023e-24
-0.4746214997187508	-3.160144298970599e-24
-0.4745604645625008	-3.1529303695851805e-24
-0.4744994294062508	-3.1394421933437856e-24
-0.4744383942500008	-3.1197029655906175e-24
-0.4743773590937508	-3.093748819874679e-24
-0.4743163239375008	-3.0616267663876874e-24
-0.4742552887812508	-3.0233964024985314e-24
-0.4741942536250008	-2.9791302006252725e-24
-0.4741332184687508	-2.9289108396679916e-24
-0.4740721833125008	-2.872833525349353e-24
-0.4740111481562508	-2.8110054136074726e-24
-0.4739501130000008	-2.743543940655865e-24
-0.4738890778437508	-2.6705784102419316e-24
-0.4738280426875008	-2.5922481149101843e-24
-0.4737670075312508	-2.5087039720316058e-24
-0.4737059723750008	-2.4201067058712966e-24
-0.4736449372187508	-2.326625973102414e-24
-0.4735839020625008	-2.2284430063283653e-24
-0.4735228669062508	-2.1257467849903645e-24
-0.4734618317500008	-2.0187356344600423e-24
-0.4734007965937508	-1.9076172102129098e-24
-0.4733397614375008	-1.7926057418778837e-24
-0.4732787262812508	-1.6739238985622303e-24
-0.4732176911250008	-1.551803204589026e-24
-0.4731566559687508	-1.4264800444124692e-24
-0.4730956208125008	-1.298195598422741e-24
-0.4730345856562508	-1.167202198936773e-24
-0.4729735505000008	-1.0337548264184438e-24
-0.4729125153437508	-8.981091114588308e-25
-0.4728514801875008	-7.605321611453312e-25
-0.4727904450312508	-6.212937025879736e-25
-0.4727294098750008	-4.806613963208256e-25
-0.4726683747187508	-3.389104586685583e-25
-0.4726073395625008	-1.9632009722102945e-25
-0.4725463044062508	-5.316678913845208e-26
-0.4724852692500008	9.027079485074252e-26
-0.4724242340937508	2.337100758426422e-25
-0.4723631989375008	3.7687051880605213e-25
-0.4723021637812508	5.194732665136774e-25
-0.4722411286250008	6.612386609428992e-25
-0.4721800934687508	8.018879520131478e-25
-0.4721190583125008	9.411450189488227e-25
-0.4720580231562508	1.0787381811054234e-24
-0.4719969880000008	1.2143963698970386e-24
-0.4719359528437508	1.3478519173938852e-24
-0.4718749176875008	1.4788439283943066e-24
-0.4718138825312508	1.6071139725807698e-24
-0.4717528473750008	1.7324086796699416e-24
