Time	Frequency
-0.5000591265624976	-0.4599660799983244
-0.4999980914062476	-0.46451499762321935
-0.4999370562499976	-0.46893836319855575
-0.4998760210937476	-0.47312181150876953
-0.4998149859374976	-0.4770753534007347
-0.4997539507812476	-0.48091542113982244
-0.4996929156249976	-0.48470034859474614
-0.4996318804687476	-0.4883490150795244
-0.4995708453124976	-0.491753562516466
-0.4995098101562476	-0.4949273373018763
-0.4994487749999976	-0.4979830530609538
-0.4993877398437476	-0.5009738264716335
-0.4993267046874976	-0.503819031392376
-0.4992656695312476	-0.5064165249624015
-0.4992046343749976	-0.5087832416917417
-0.4991435992187476	-0.5110289600145962
-0.4990825640624976	-0.513201724737802
-0.4990215289062476	-0.5152207795618037
-0.4989604937499976	-0.5169891276412216
-0.4988994585937476	-0.5185276048461305
-0.4988384234374976	-0.5199439220206021
-0.4987773882812476	-0.521281216113786
-0.4987163531249976	-0.5224578987415958
-0.4986553179687476	-0.5233817752842682
-0.4985942828124976	-0.5240780240220766
-0.4985332476562476	-0.5246526285762472
-0.4984722124999976	-0.5251435928221064
-0.4984111773437476	-0.525468141504636
-0.4983501421874976	-0.5255387713250438
-0.4982891070312476	-0.5253852277271482
-0.4982280718749976	-0.525112192559913
-0.4981670367187476	-0.5247526405716821
-0.4981060015624976	-0.5242222236285863
-0.4980449664062476	-0.5234378551101718
-0.4979839312499976	-0.5224340129990833
-0.4979228960937476	-0.5213143632932802
-0.4978618609374976	-0.5201069365872432
-0.4978008257812476	-0.5187255211238682
-0.4977397906249976	-0.517091027471462
-0.4976787554687476	-0.5152428047513198
-0.4976177203124976	-0.5132841586977797
-0.4975566851562476	-0.5112384338554511
-0.4974956499999976	-0.5090170558997914
-0.4974346148437476	-0.5065443376309811
-0.4973735796874976	-0.5038645825587955
-0.4973125445312476	-0.5010813720949776
-0.4972515093749976	-0.49821356087447255
-0.4971904742187476	-0.49516963244181494
-0.4971294390624976	-0.49187694764290407
-0.4970684039062476	-0.48838526219804046
-0.4970073687499976	-0.4847989689736659
-0.4969463335937476	-0.48113215974005324
-0.4968852984374976	-0.47728967268076344
-0.4968242632812476	-0.4732017218000518
-0.4967632281249976	-0.46892404838997437
-0.4967021929687476	-0.4645624350361694
-0.4966411578124976	-0.4601261546259653
-0.4965801226562476	-0.45551581059011514
-0.4965190874999976	-0.4506640818118857
-0.4964580523437476	-0.44563294833513545
-0.4963970171874976	-0.4405299711142519
-0.4963359820312476	-0.4353595169927434
-0.4962749468749976	-0.4300177205103975
-0.4962139117187476	-0.42443978155339274
-0.4961528765624976	-0.4186940625061449
-0.4960918414062476	-0.4128900407236084
-0.4960308062499976	-0.4070271687231555
-0.4959697710937476	-0.40099651087559074
-0.4959087359374976	-0.3947352907607747
-0.4958477007812476	-0.3883190084912436
-0.4957866656249976	-0.3818599552223228
-0.4957256304687476	-0.3753521690164016
-0.4956645953124976	-0.3686808941461198
-0.4956035601562476	-0.36178553732907737
-0.4955425249999976	-0.354748856106166
-0.4954814898437476	-0.3476857986847914
-0.4954204546874976	-0.3405851526384815
-0.4953594195312476	-0.3333263226855654
-0.4952983843749976	-0.3258506834572279
-0.4952373492187476	-0.3182485912172532
-0.4951763140624976	-0.3106381355936376
-0.4951152789062476	-0.30300266630509254
-0.4950542437499976	-0.2952149354135371
-0.4949932085937476	-0.28721764652546655
-0.4949321734374976	-0.2791091353880292
-0.4948711382812476	-0.27101145458488074
-0.4948101031249976	-0.26290265695443193
-0.4947490679687476	-0.254648657856661
-0.4946880328124976	-0.24619339397119622
-0.4946269976562476	-0.2376428626794145
-0.4945659624999976	-0.22912285561890583
-0.4945049273437476	-0.2206061875722044
-0.4944438921874976	-0.21195186999531612
-0.4943828570312476	-0.20310504721275724
-0.4943218218749976	-0.19417979985014003
-0.4942607867187476	-0.1853062232626335
-0.4941997515624976	-0.1764517478206106
-0.4941387164062476	-0.1674673808243535
-0.4940776812499976	-0.1582986969186296
-0.4940166460937476	-0.1490684258844842
-0.4939556109374976	-0.1399119776966922
-0.4938945757812476	-0.13079173799624005
-0.4938335406249976	-0.12155033886704851
-0.4937725054687476	-0.11213321805888682
-0.4937114703124976	-0.10267152614911755
-0.4936504351562476	-0.09330597048008521
-0.4935893999999976	-0.08399388778317952
-0.4935283648437476	-0.07456992161036911
-0.4934673296874976	-0.06497956751129276
-0.4934062945312476	-0.05536168774048227
-0.4933452593749976	-0.045862085743436636
-0.4932842242187476	-0.036434003567349216
-0.4932231890624976	-0.02690422144131129
-0.4931621539062476	-0.01721727986111994
-0.4931011187499976	-0.007519626149576596
-0.4930400835937476	0.0020370762910326577
-0.4929790484374976	0.011503550937421685
-0.4929180132812476	0.021061398234725255
-0.4928569781249976	0.030767527066917873
-0.4927959429687476	0.04046806790365105
-0.4927349078124976	0.050005032308612314
-0.4926738726562476	0.0594324631861619
-0.4926128374999976	0.0689403974984947
-0.4925518023437476	0.07858776877669432
-0.4924907671874976	0.08821362205614153
-0.4924297320312476	0.09765345992640183
-0.4923686968749976	0.1069641593669803
-0.4923076617187476	0.11634410232083087
-0.4922466265624976	0.1258549793130276
-0.4921855914062476	0.1353294564179815
-0.4921245562499976	0.14459613346395947
-0.4920635210937476	0.15371371562096123
-0.4920024859374976	0.1628886672959813
-0.4919414507812476	0.17218623043452935
-0.4918804156249976	0.1814335195534646
-0.4918193804687476	0.1904520043195642
-0.4917583453124976	0.19930113552042417
-0.4916973101562476	0.20819496277612984
-0.4916362749999976	0.2172031665861587
-0.4915752398437476	0.22614864117683509
-0.4915142046874976	0.2348461368154613
-0.4914531695312476	0.24335496595928333
-0.4913921343749976	0.2518954164068484
-0.4913310992187476	0.26054122551535186
-0.4912700640624976	0.26911215453452686
-0.4912090289062476	0.27741725835765174
-0.4911479937499976	0.2855150815908359
-0.4910869585937476	0.2936310600837864
-0.4910259234374976	0.3018435182934452
-0.4909648882812476	0.3099704932511869
-0.4909038531249976	0.3178157067547207
-0.4908428179687476	0.3254361067458041
-0.4907817828124976	0.33306096368431387
-0.4907207476562476	0.340772749581438
-0.4906597124999976	0.34838955252247455
-0.4905986773437476	0.35571146484507987
-0.4905376421874976	0.36279215304094836
-0.4904766070312476	0.3698619692409344
-0.4904155718749976	0.3770080594791626
-0.4903545367187476	0.3840512930938447
-0.4902935015624976	0.39078944960923906
-0.4902324664062476	0.39727213897590874
-0.4901714312499976	0.4037291873959899
-0.4901103960937476	0.4102514141695842
-0.4900493609374976	0.416663276379689
-0.4899883257812476	0.4227619211745232
-0.4899272906249976	0.4285928630483361
-0.4898662554687476	0.4343834727795181
-0.4898052203124976	0.4402272973686723
-0.4897441851562476	0.44595388671083497
-0.4896831499999976	0.45136166551905765
-0.4896221148437476	0.45649200246383453
-0.4895610796874976	0.4615681301451192
-0.4895000445312476	0.46668525670010946
-0.4894390093749976	0.47167899786027334
-0.4893779742187476	0.4763508102714517
-0.4893169390624976	0.48073788047460797
-0.4892559039062476	0.48505728215398486
-0.4891948687499976	0.48940464211627654
-0.4891338335937476	0.49362286935697663
-0.4890727984374976	0.4975184283109749
-0.4890117632812476	0.501124635968785
-0.4889507281249976	0.5046510664653258
-0.4888896929687476	0.5081926377200049
-0.4888286578124976	0.5115998913020704
-0.4887676226562476	0.514685519920756
-0.4887065874999976	0.5174794976789477
-0.4886455523437476	0.5201830377926909
-0.4885845171874976	0.5228891512239139
-0.4885234820312476	0.5254560764499013
-0.4884624468749976	0.5277041170375703
-0.4884014117187476	0.5296607513164082
-0.4883403765624976	0.5315180181093094
-0.4882793414062476	0.5333659158015999
-0.4882183062499976	0.5350704347357293
-0.4881572710937476	0.536460244167211
-0.4880962359374976	0.5375608534334589
-0.4880352007812476	0.5385550016567094
-0.4879741656249976	0.5395289150755571
-0.4879131304687476	0.5403559015657932
-0.4878520953124976	0.5408736523877091
-0.4877910601562476	0.5411065151305506
-0.4877300249999976	0.541227729826133
-0.4876689898437476	0.5413189498932014
-0.4876079546874976	0.5412604469895242
-0.4875469195312476	0.5408993099186875
-0.4874858843749976	0.5402593791566034
-0.4874248492187476	0.5395046830059781
-0.4873638140624976	0.5387118531334981
-0.4873027789062476	0.5377673977478652
-0.4872417437499976	0.5365277354019364
-0.4871807085937476	0.5350168998455068
-0.4871196734374976	0.5333902817515146
-0.4870586382812476	0.5317192390267891
-0.4869976031249976	0.5298956846545444
-0.4869365679687476	0.5277849647864786
-0.4868755328124976	0.5254119672140258
-0.4868144976562476	0.5229243154158074
-0.4867534624999976	0.520387966913063
-0.4866924273437476	0.5176993896119811
-0.4866313921874976	0.5147324473413214
-0.4865703570312476	0.511513330557507
-0.4865093218749976	0.5081825392116589
-0.4864482867187476	0.5048006011624946
-0.4863872515624976	0.5012679109460153
-0.4863262164062476	0.4974665210382479
-0.4862651812499976	0.4934242890623974
-0.4862041460937476	0.4892751361848856
-0.4861431109374976	0.4850742125781824
-0.4860820757812476	0.48072524444521003
-0.4860210406249976	0.4761179636990848
-0.4859600054687476	0.4712823354149961
-0.4858989703124976	0.466346487832463
-0.4858379351562476	0.46136001206689775
-0.4857768999999976	0.45622915533457503
-0.4857158648437476	0.4508511012387297
-0.4856548296874976	0.4452583005762128
-0.4855937945312476	0.4395736206554261
-0.4855327593749976	0.43384137353178
-0.4854717242187476	0.4279697048942138
-0.4854106890624976	0.4218623817175174
-0.4853496539062476	0.4155547166288073
-0.4852886187499976	0.4091653840774658
-0.4852275835937476	0.4027334870184428
-0.4851665484374976	0.39616811746871106
-0.4851055132812476	0.3893789598985312
-0.4850444781249976	0.38240462733375563
-0.4849834429687476	0.37536048796172444
-0.4849224078124976	0.36828051947331797
-0.4848613726562476	0.3610740919031208
-0.4848003374999976	0.35365644160943016
-0.4847393023437476	0.34606978817482503
-0.4846782671874976	0.3384265824368855
-0.4846172320312476	0.3307554393586194
-0.4845561968749976	0.3229653882850261
-0.4844951617187476	0.3149772014305971
-0.4844341265624976	0.3068373355121213
-0.4843730914062476	0.29865577081393774
-0.4843120562499976	0.2904555911027729
-0.4842510210937476	0.28214487324680826
-0.4841899859374976	0.2736495253077711
-0.4841289507812476	0.2650203985111417
-0.4840679156249976	0.25636522263709344
-0.4840068804687476	0.24770167059345766
-0.4839458453124976	0.2389370059675609
-0.4838848101562476	0.23000203578753622
-0.4838237749999976	0.22095182244248196
-0.4837627398437476	0.2118923743888682
-0.4837017046874976	0.20283610286394607
-0.4836406695312476	0.19368859419132073
-0.4835796343749976	0.18438497377291793
-0.4835185992187476	0.17498484744771173
-0.4834575640624976	0.16559317615235578
-0.4833965289062476	0.15621745925294203
-0.4833354937499976	0.14676107115187503
-0.4832744585937476	0.13716288843115512
-0.4832134234374976	0.1274877114488676
-0.4831523882812476	0.11784010225953853
-0.4830913531249976	0.10822188664560335
-0.4830303179687476	0.09853323473122537
-0.4829692828124976	0.08871674598806682
-0.4829082476562476	0.07884296943113699
-0.4828472124999976	0.06901664559396209
-0.4827861773437476	0.05923414291207341
-0.4827251421874976	0.049392082879017196
-0.4826641070312476	0.03943629967104456
-0.4826030718749976	0.02944309947542279
-0.4825420367187476	0.019517791343036786
-0.4824810015624976	0.009651159981911567
-0.4824199664062476	-0.00026443656639629196
-0.4823589312499976	-0.010280069309290246
-0.4822978960937476	-0.020312975865554937
-0.4822368609374976	-0.03025681782961671
-0.4821758257812476	-0.04012669344314702
-0.4821147906249976	-0.050035072523476755
-0.4820537554687476	-0.06003005018624282
-0.4819927203124976	-0.0700219284679878
-0.4819316851562476	-0.07990309784383451
-0.4818706499999976	-0.08969512252698092
-0.4818096148437476	-0.09951582748135776
-0.4817485796874976	-0.10941002371994787
-0.4816875445312476	-0.11928063712486317
-0.4816265093749976	-0.12901877981310103
-0.4815654742187476	-0.13865245415608654
-0.4815044390624976	-0.1483049133783738
-0.4814434039062476	-0.15801814770802844
-0.4813823687499976	-0.16768761233024534
-0.4813213335937476	-0.17720259833730587
-0.4812602984374976	-0.18659818182072524
-0.4811992632812476	-0.19600412497234965
-0.4811382281249976	-0.20545920556992842
-0.4810771929687476	-0.2148503493692086
-0.4810161578124976	-0.2240645000863693
-0.4809551226562476	-0.23314359072152988
-0.4808940874999976	-0.24222438352326792
-0.4808330523437476	-0.25134361499690144
-0.4807720171874976	-0.2603802084173707
-0.4807109820312476	-0.2692184303906309
-0.4806499468749976	-0.27790674210019023
-0.4805889117187476	-0.286588762026943
-0.4805278765624976	-0.29529892347665376
-0.4804668414062476	-0.3039076582232161
-0.4804058062499976	-0.31229627637652907
-0.4803447710937476	-0.32052034918457795
-0.4802837359374976	-0.3287314911323176
-0.4802227007812476	-0.33696230875041977
-0.4801616656249976	-0.3450740955155318
-0.4801006304687476	-0.35294437409224433
-0.4800395953124976	-0.3606356438976202
-0.4799785601562476	-0.36830778366058453
-0.4799175249999976	-0.3759919789254274
-0.4798564898437476	-0.38354067836409705
-0.4797954546874976	-0.3908274052741582
-0.4797344195312476	-0.397921353603081
-0.4796733843749976	-0.40499103993616564
-0.4796123492187476	-0.4120664579152049
-0.4795513140624976	-0.4189908476811059
-0.4794902789062476	-0.42563351921403586
-0.4794292437499976	-0.43207027378821433
-0.4793682085937476	-0.4384781288089369
-0.4793071734374976	-0.4448864838471308
-0.4792461382812476	-0.45113020794759534
-0.4791851031249976	-0.45707398901234564
-0.4791240679687476	-0.4627992733939321
-0.4790630328124976	-0.4684917014410123
-0.4790019976562476	-0.4741807991613586
-0.4789409624999976	-0.4796930481218519
-0.4788799273437476	-0.4848879189673115
-0.4788188921874976	-0.4898523599116698
-0.4787578570312476	-0.4947812256754909
-0.4786968218749976	-0.4997047698622195
-0.4786357867187476	-0.5044409889681727
-0.4785747515624976	-0.5088434703316806
-0.4785137164062476	-0.5130041183784471
-0.4784526812499976	-0.5171271852953421
-0.4783916460937476	-0.5212445127182489
-0.4783306109374976	-0.5251661711982998
-0.4782695757812476	-0.5287393400304584
-0.4782085406249976	-0.5320599598333324
-0.4781475054687476	-0.5353416042553443
-0.4780864703124976	-0.5386185885779007
-0.4780254351562476	-0.541693814551482
-0.4779643999999976	-0.54440762828803
-0.4779033648437476	-0.5468588074645152
-0.4778423296874976	-0.5492699271227492
-0.4777812945312476	-0.5516788896178589
-0.4777202593749976	-0.553882499607183
-0.4776592242187476	-0.5557140029562605
-0.4775981890624976	-0.5572738625010382
-0.4775371539062476	-0.5587928951457144
-0.4774761187499976	-0.5603130678416236
-0.4774150835937476	-0.5616264014453726
-0.4773540484374976	-0.5625595594292031
-0.4772930132812476	-0.5632135675189647
-0.4772319781249976	-0.5638262548613273
-0.4771709429687476	-0.564444173935961
-0.4771099078124976	-0.5648561522196854
-0.4770488726562476	-0.5648826497935304
-0.4769878374999976	-0.5646238286226475
-0.4769268023437476	-0.564323135695484
-0.4768657671874976	-0.5640321577138914
-0.4768047320312476	-0.5635384295638524
-0.4767436968749976	-0.5626572654520738
-0.4766826617187476	-0.5614866043632574
-0.4766216265624976	-0.56027336517182
-0.4765605914062476	-0.5590742742563202
-0.4764995562499976	-0.5576778696524404
-0.4764385210937476	-0.555895584548238
-0.4763774859374976	-0.5538216629290312
-0.4763164507812476	-0.5517042907027995
-0.4762554156249976	-0.549605242685138
-0.4761943804687476	-0.5473161525830664
-0.4761333453124976	-0.5446461817923852
-0.4760723101562476	-0.5416850375802317
-0.4760112749999976	-0.538679976060088
-0.4759502398437476	-0.5356970064894006
-0.4758892046874976	-0.5325325130930244
-0.4758281695312476	-0.5289953590986518
-0.4757671343749976	-0.5251701930607933
-0.4757060992187476	-0.5213010019337571
-0.4756450640624976	-0.5174572684787896
-0.4755840289062476	-0.5134419678004963
-0.4755229937499976	-0.5090654553792361
-0.4754619585937476	-0.5044067156856713
-0.4754009234374976	-0.4997043508907484
-0.4753398882812476	-0.495030372208853
-0.4752788531249976	-0.49019568977035716
-0.4752178179687476	-0.4850140442921246
-0.4751567828124976	-0.4795588198421103
-0.4750957476562476	-0.4740614174026413
-0.4750347124999976	-0.46859498905097413
-0.4749736773437476	-0.4629791947890149
-0.4749126421874976	-0.45703308697989514
-0.4748516070312476	-0.4508248326614129
-0.4747905718749976	-0.4445769674455522
-0.4747295367187476	-0.43836254948921677
-0.4746685015624976	-0.4320107771344221
-0.4746074664062476	-0.42534739971718694
-0.4745464312499976	-0.4184356618233512
-0.4744853960937476	-0.41148833452401395
-0.4744243609374976	-0.4045771818113267
-0.4743633257812476	-0.3975407991104387
-0.4743022906249976	-0.39021273841589366
-0.4742412554687476	-0.3826521158174724
-0.4741802203124976	-0.3750615463394672
-0.4741191851562476	-0.3675106271245706
-0.4740581499999976	-0.3598470982334919
-0.4739971148437476	-0.3519131885843987
-0.4739360796874976	-0.3437646749254883
-0.4738750445312476	-0.3355932165563586
-0.4738140093749976	-0.3274648568584842
-0.4737529742187476	-0.31923637730522914
-0.4736919390624976	-0.31075965741744105
-0.4736309039062476	-0.30208795056812077
-0.4735698687499976	-0.29340216139136643
-0.4735088335937476	-0.2847643267808463
-0.4734477984374976	-0.2760393680296687
-0.4733867632812476	-0.26708834511979107
-0.4733257281249976	-0.2579624867200341
-0.4732646929687476	-0.24883262745345985
-0.4732036578124976	-0.23975674654341392
-0.4731426226562476	-0.23060724268412094
-0.4730815874999976	-0.2212541049323091
-0.4730205523437476	-0.21174743354874795
-0.4729595171874976	-0.20224876489502344
-0.4728984820312476	-0.19281104506545657
-0.4728374468749976	-0.18331278631753695
-0.4727764117187476	-0.17363307674575731
-0.4727153765624976	-0.16382169668497945
-0.4726543414062476	-0.154031272342509
-0.4725933062499976	-0.14430991601396914
-0.4725322710937476	-0.13454180261862053
-0.4724712359374976	-0.12461427554272801
-0.4724102007812476	-0.11457724022372917
-0.4723491656249976	-0.10457550540304306
-0.4722881304687476	-0.09465189304718798
-0.4722270953124976	-0.08469513084724307
-0.4721660601562476	-0.07460094971410876
-0.4721050249999976	-0.06441990654485999
-0.4720439898437476	-0.05428895666940372
-0.4719829546874976	-0.04424543912628292
-0.4719219195312476	-0.03418217030615954
-0.4718608843749976	-0.02400293322863155
-0.4717998492187476	-0.013759756473181993
-0.4717388140624976	-0.0035828872422217196
-0.4716777789062476	0.006495768229583636
-0.4716167437499976	0.0165803290028705
-0.4715557085937476	0.02676032410305043
-0.4714946734374976	0.03698260968405475
-0.4714336382812476	0.04712244816034918
-0.4713726031249976	0.05715267301155411
-0.4713115679687476	0.0671751864325294
-0.4712505328124976	0.07727304491145597
-0.4711894976562476	0.08739095435247306
-0.4711284624999976	0.0974093619290971
-0.4710674273437476	0.10730658802154783
-0.4710063921874976	0.11718311007472215
-0.4709453570312476	0.1271159658150005
-0.4708843218749976	0.13704733188330342
-0.4708232867187476	0.14686172774559425
-0.4707622515624976	0.1565427364184449
-0.4707012164062476	0.16619058186778693
-0.4706401812499976	0.17587697526091534
-0.4705791460937476	0.185540743970049
-0.4705181109374976	0.19506974777148733
-0.4704570757812476	0.2044532894738424
-0.4703960406249976	0.21379187017463824
-0.4703350054687476	0.2231517979806791
-0.4702739703124976	0.23246845377376557
-0.4702129351562476	0.24163310846797587
-0.4701518999999976	0.2506408313792832
-0.4700908648437476	0.25959227737860613
-0.4700298296874976	0.26854804243134917
-0.4699687945312476	0.2774400890000899
-0.4699077593749976	0.2861635832325823
-0.4698467242187476	0.2947196959878832
-0.4697856890624976	0.3032094437591587
-0.4697246539062476	0.31168794253101856
-0.4696636187499976	0.3200832251727306
-0.4696025835937476	0.3282930266709826
