Time	Frequency
-0.5000267020624989	-0.6139215523278618
-0.4999656669062489	-0.6098641227927016
-0.4999046317499989	-0.6055188376860221
-0.4998435965937489	-0.6008877008175778
-0.4997825614374989	-0.5959728503332548
-0.4997215262812489	-0.5907765446299552
-0.4996604911249989	-0.5853012614070132
-0.4995994559687489	-0.5795496585643781
-0.4995384208124989	-0.5735243899182046
-0.4994773856562489	-0.5672282790131372
-0.4994163504999989	-0.5606643205979329
-0.4993553153437489	-0.5538355421424467
-0.4992942801874989	-0.5467452019273263
-0.4992332450312489	-0.5393967282115448
-0.4991722098749989	-0.5317935363337074
-0.4991111747187489	-0.5239393612844834
-0.4990501395624989	-0.5158381740089345
-0.4989891044062489	-0.5074936171509584
-0.4989280692499989	-0.49890941934096206
-0.4988670340937489	-0.4900897939505074
-0.4988059989374989	-0.48103907466856627
-0.4987449637812489	-0.4717616048553343
-0.4986839286249989	-0.46226178483636954
-0.4986228934687489	-0.4525442354523263
-0.4985618583124989	-0.44261366697764176
-0.4985008231562489	-0.4324747027387736
-0.4984397879999989	-0.42213209953947173
-0.4983787528437489	-0.41159067654031267
-0.4983177176874989	-0.40085552228703925
-0.4982566825312489	-0.3899321231432675
-0.4981956473749989	-0.3788258787943599
-0.4981346122187489	-0.3675420668047777
-0.4980735770624989	-0.35608598424857496
-0.4980125419062489	-0.34446295649264785
-0.4979515067499989	-0.3326784779445154
-0.4978904715937489	-0.32073829057208963
-0.4978294364374989	-0.3086483591978495
-0.4977684012812489	-0.2964146386792804
-0.4977073661249989	-0.28404288053827986
-0.4976463309687489	-0.27153881341296754
-0.4975852958124989	-0.2589085081164257
-0.4975242606562489	-0.2461581665560727
-0.4974632254999989	-0.23329384456203656
-0.4974021903437489	-0.22032204040817477
-0.4973411551874989	-0.20724932252523454
-0.4972801200312489	-0.19408154198637445
-0.4972190848749989	-0.18082470305902879
-0.4971580497187489	-0.16748536390913593
-0.4970970145624989	-0.15407011270772972
-0.4970359794062489	-0.14058565817098884
-0.4969749442499989	-0.12703866621562016
-0.4969139090937489	-0.11343541295448589
-0.4968528739374989	-0.0997822224999649
-0.4967918387812489	-0.08608580566929092
-0.4967308036249989	-0.07235291476386417
-0.4966697684687489	-0.05859015275102682
-0.4966087333124989	-0.0448041940932321
-0.4965476981562489	-0.031001966643102778
-0.4964866629999989	-0.01719031092346526
-0.4964256278437489	-0.0033755910042323877
-0.4963645926874989	0.010435726385315043
-0.4963035575312489	0.024236694298699228
-0.4962425223749989	0.03802055052473416
-0.4961814872187489	0.05178091866305871
-0.4961204520624989	0.0655111981966003
-0.4960594169062489	0.07920437488848037
-0.4959983817499989	0.09285356760916923
-0.4959373465937489	0.10645233611614681
-0.4958763114374989	0.11999421575949781
-0.4958152762812489	0.13347228740976597
-0.4957542411249989	0.14687990743447565
-0.4956932059687489	0.16021132593519732
-0.4956321708124989	0.17346043885649237
-0.4955711356562489	0.18662001557596358
-0.4955101004999989	0.19968299733233777
-0.4954490653437489	0.21264344210721764
-0.4953880301874989	0.22549575222925058
-0.4953269950312489	0.2382334356130449
-0.4952659598749989	0.2508497374075857
-0.4952049247187489	0.26333872865651586
-0.4951438895624989	0.2756944675672506
-0.4950828544062489	0.28791088611650856
-0.4950218192499989	0.29998215246257875
-0.4949607840937489	0.3119022695017328
-0.4948997489374989	0.3236654452682375
-0.4948387137812489	0.3352661213293905
-0.4947776786249989	0.3466985809949265
-0.4947166434687489	0.3579570876255747
-0.4946556083124989	0.3690360160530306
-0.4945945731562489	0.37992995989588063
-0.4945335379999989	0.390633729811185
-0.4944725028437489	0.40114216688920656
-0.4944114676874989	0.4114502282696757
-0.4943504325312489	0.4215529298871085
-0.4942893973749989	0.4314451592503893
-0.4942283622187489	0.4411220705182999
-0.4941673270624989	0.45057911698140646
-0.4941062919062489	0.45981157389801636
-0.4940452567499989	0.46881472707088934
-0.4939842215937489	0.47758430463785306
-0.4939231864374989	0.48611609728289723
-0.4938621512812489	0.4944057377146944
-0.4938011161249989	0.5024493024253669
-0.4937400809687489	0.5102431254087727
-0.4936790458124989	0.517783224128772
-0.4936180106562489	0.5250657672306466
-0.4935569754999989	0.5320873322239575
-0.4934959403437489	0.5388444486395086
-0.4934349051874989	0.5453337289808926
-0.4933738700312489	0.551552054158204
-0.4933128348749989	0.5574963166146739
-0.4932517997187489	0.5631635949477463
-0.4931907645624989	0.5685512214476927
-0.4931297294062489	0.5736565205164404
-0.4930686942499989	0.5784770314905431
-0.4930076590937489	0.5830105333456108
-0.4929466239374989	0.5872546531168111
-0.4928855887812489	0.5912071402137319
-0.4928245536249989	0.5948661896068319
-0.4927635184687489	0.5982301246338724
-0.4927024833124989	0.6012972562522754
-0.4926414481562489	0.60406600072897
-0.4925804129999989	0.6065349639200708
-0.4925193778437489	0.608703019598305
-0.4924583426874989	0.6105691866755956
-0.4923973075312489	0.6121324872678174
-0.4923362723749989	0.6133920872075446
-0.4922752372187489	0.6143474180671432
-0.4922142020624989	0.6149980655873495
-0.4921531669062489	0.6153437174476326
-0.4920921317499989	0.6153841659665121
-0.4920310965937489	0.6151193471070758
-0.4919700614374989	0.6145494596481004
-0.4919090262812489	0.6136748291185318
-0.4918479911249989	0.6124958530210179
-0.4917869559687489	0.611013129473656
-0.4917259208124989	0.6092274004006374
-0.4916648856562489	0.6071395317225176
-0.4916038504999989	0.6047505039857278
-0.4915428153437489	0.6020615101619974
-0.4914817801874989	0.5990739980574559
-0.4914207450312489	0.5957894300330246
-0.4913597098749989	0.5922093425594431
-0.4912986747187489	0.5883355408949159
-0.4912376395624989	0.5841699678165531
-0.4911766044062489	0.5797146478029783
-0.4911155692499989	0.574971842059255
-0.4910545340937489	0.56994399449656
-0.4909934989374989	0.5646335648078066
-0.4909324637812489	0.5590429654437037
-0.4908714286249989	0.5531748402032429
-0.4908103934687489	0.5470323367215731
-0.4907493583124989	0.5406186560614192
-0.4906883231562489	0.5339368857265865
-0.4906272879999989	0.5269902847073107
-0.4905662528437489	0.519782299598765
-0.4905052176874989	0.5123165485233364
-0.4904441825312489	0.5045966627772837
-0.4903831473749989	0.4966264065845322
-0.4903221122187489	0.4884098572450341
-0.4902610770624989	0.47995108926985497
-0.4902000419062489	0.4712541722320088
-0.4901390067499989	0.4623233758903838
-0.4900779715937489	0.4531632519133212
-0.4900169364374989	0.4437784669931937
-0.4899559012812489	0.4341735568410222
-0.4898948661249989	0.42435337162199027
-0.4898338309687489	0.41432293128084385
-0.4897727958124989	0.40408685694257823
-0.4897117606562489	0.3936501232244999
-0.4896507254999989	0.38301832354704196
-0.4895896903437489	0.37219667254949407
-0.4895286551874989	0.361190188472635
-0.4894676200312489	0.3500045488037642
-0.4894065848749989	0.3386456476410453
-0.4893455497187489	0.32711895290177856
-0.4892845145624989	0.3154300306531797
-0.4892234794062489	0.303584990714247
-0.4891624442499989	0.29158963399288296
-0.4891014090937489	0.27944940040093597
-0.4890403739374989	0.2671704831674603
-0.4889793387812489	0.25475951956227794
-0.4889183036249989	0.24222260143547097
-0.4888572684687489	0.22956564788678052
-0.4887962333124989	0.21679516203475319
-0.4887351981562489	0.2039177971532738
-0.4886741629999989	0.1909396442407542
-0.4886131278437489	0.17786683547875856
-0.4885520926874989	0.1647062399230815
-0.4884910575312489	0.15146461787767382
-0.4884300223749989	0.1381483531701256
-0.4883689872187489	0.12476403069773512
-0.4883079520624989	0.11131832278427416
-0.4882469169062489	0.09781803751654476
-0.4881858817499989	0.0842701392135299
-0.4881248465937489	0.07068152624190632
-0.4880638114374989	0.05705866035698851
-0.4880027762812489	0.04340784861977847
-0.4879417411249989	0.029736180912078268
-0.4878807059687489	0.016051058730503925
-0.4878196708124989	0.0023592493249444133
-0.4877586356562489	-0.011332722991325326
-0.4876976004999989	-0.025017992943506054
-0.4876365653437489	-0.03868968215225067
-0.4875755301874989	-0.052340953899718594
-0.4875144950312489	-0.06596487397182853
-0.4874534598749989	-0.079554612536644
-0.4873924247187489	-0.09310319663963657
-0.4873313895624989	-0.10660378644875919
-0.4872703544062489	-0.1200499268645618
-0.4872093192499989	-0.13343491015049802
-0.4871482840937489	-0.14675180448198558
-0.4870872489374989	-0.15999399718152535
-0.4870262137812489	-0.17315512228786148
-0.4869651786249989	-0.18622847086356759
-0.4869041434687489	-0.19920701703017074
-0.4868431083124989	-0.21208412000414262
-0.4867820731562489	-0.22485359288371531
-0.4867210379999989	-0.2375090810688768
-0.4866600028437489	-0.25004402613621235
-0.4865989676874989	-0.26245225566506514
-0.4865379325312489	-0.27472781373063454
-0.4864768973749989	-0.2868644356950237
-0.4864158622187489	-0.29885566643429184
-0.4863548270624989	-0.3106953406041444
-0.4862937919062489	-0.3223776770124951
-0.4862327567499989	-0.33389677717713684
-0.4861717215937489	-0.34524676691259687
-0.4861106864374989	-0.3564220671218318
-0.4860496512812489	-0.3674168862076315
-0.4859886161249989	-0.3782254481824557
-0.4859275809687489	-0.3888424550947336
-0.4858665458124989	-0.3992627259464263
-0.4858055106562489	-0.4094809272035464
-0.4857444754999989	-0.4194915558769864
-0.4856834403437489	-0.4292893791403648
-0.4856224051874989	-0.43886974869188194
-0.4855613700312489	-0.44822798796796387
-0.4855003348749989	-0.4573592645276986
-0.4854392997187489	-0.4662587988811689
-0.4853782645624989	-0.47492179678527824
-0.4853172294062489	-0.48334384898310506
-0.4852561942499989	-0.4915208624576668
-0.4851951590937489	-0.4994486505120729
-0.4851341239374989	-0.5071230637710276
-0.4850730887812489	-0.5145400820120004
-0.4850120536249989	-0.5216959560223232
-0.4849510184687489	-0.5285870962890128
-0.4848899833124989	-0.5352099095139589
-0.4848289481562489	-0.5415610394320941
-0.4847679129999989	-0.5476371501733308
-0.4847068778437489	-0.5534349121126185
-0.4846458426874989	-0.5589513712496027
-0.4845848075312489	-0.564183756196388
-0.4845237723749989	-0.5691292852159875
-0.4844627372187489	-0.573785289716239
-0.4844017020624989	-0.5781493613910612
-0.4843406669062489	-0.5822192898537103
-0.4842796317499989	-0.5859928678143763
-0.4842185965937489	-0.5894680093644382
-0.4841575614374989	-0.5926428792420517
-0.4840965262812489	-0.5955158050652712
-0.4840354911249989	-0.5980852301041015
-0.4839744559687489	-0.6003497070266501
-0.4839134208124989	-0.6023079512197792
-0.4838523856562489	-0.6039588636934102
-0.4837913504999989	-0.6053014913905727
-0.4837303153437489	-0.6063350238746185
-0.4836692801874989	-0.6070588093119212
-0.4836082450312489	-0.6074723664518524
-0.4835472098749989	-0.6075753510285202
-0.4834861747187489	-0.6073675837811302
-0.4834251395624989	-0.6068490642651577
-0.4833641044062489	-0.6060198804798616
-0.4833030692499989	-0.6048802902082735
-0.4832420340937489	-0.6034307716581865
-0.4831809989374989	-0.6016718694494433
-0.4831199637812489	-0.599604274587637
-0.4830589286249989	-0.5972289770597446
-0.4829978934687489	-0.5945471001677359
-0.4829368583124989	-0.5915598069313935
-0.4828758231562489	-0.5882684143243913
-0.4828147879999989	-0.584674441991528
-0.4827537528437489	-0.580779575228804
-0.4826927176874989	-0.5765855758371574
-0.4826316825312489	-0.5720944181326797
-0.4825706473749989	-0.5673083003077495
-0.4825096122187489	-0.5622293908800904
-0.4824485770624989	-0.5568600780180167
-0.4823875419062489	-0.5512030856773918
-0.4823265067499989	-0.5452611197212034
-0.4822654715937489	-0.5390369033907152
-0.4822044364374989	-0.5325333881311777
-0.4821434012812489	-0.5257537018929801
-0.4820823661249989	-0.5187011539189282
-0.4820213309687489	-0.5113793324769362
-0.4819602958124989	-0.5037917773995957
-0.4818992606562489	-0.4959418661355181
-0.4818382254999989	-0.4878333563974105
-0.4817771903437489	-0.47947045454472603
-0.4817161551874989	-0.4708574475979546
-0.4816551200312489	-0.4619983849132571
-0.4815940848749989	-0.4528972391609248
-0.4815330497187489	-0.44355859802567205
-0.4814720145624989	-0.43398728446562
-0.4814109794062489	-0.42418778178066635
-0.4813499442499989	-0.41416477235713095
-0.4812889090937489	-0.40392331679679105
-0.4812278739374989	-0.39346851276593137
-0.4811668387812489	-0.38280547447411867
-0.4811058036249989	-0.37193957356262286
-0.4810447684687489	-0.3608762274273676
-0.4809837333124989	-0.3496205496663553
-0.4809226981562489	-0.33817796962540625
-0.4808616629999989	-0.32655452866957757
-0.4808006278437489	-0.3147559201210382
-0.4807395926874989	-0.30278754060371393
-0.4806785575312489	-0.29065544612276173
-0.4806175223749989	-0.27836605126020525
-0.4805564872187489	-0.26592541750516463
-0.4804954520624989	-0.25333923497806676
-0.4804344169062489	-0.24061362280616702
-0.4803733817499989	-0.22775553938431536
-0.4803123465937489	-0.21477173303238623
-0.4802513114374989	-0.20166816748035338
-0.4801902762812489	-0.18845076807957728
-0.4801292411249989	-0.17512606222205848
-0.4800682059687489	-0.1617009972270109
-0.4800071708124989	-0.1481826036963123
-0.4799461356562489	-0.13457762810637777
-0.4798851004999989	-0.12089241683151258
-0.4798240653437489	-0.1071338218456058
-0.4797630301874989	-0.0933092368082324
-0.4797019950312489	-0.0794255499393094
-0.4796409598749989	-0.06548924692748902
-0.4795799247187489	-0.05150707211918392
-0.4795188895624989	-0.03748604860447577
-0.4794578544062489	-0.023433295111063006
-0.4793968192499989	-0.009356021550856613
-0.4793357840937489	0.004738734825328295
-0.4792747489374989	0.018844000304636455
-0.4792137137812489	0.03295236209958539
-0.4791526786249989	0.04705662084971997
-0.4790916434687489	0.061150305058536254
-0.4790306083124989	0.0752266464293765
-0.4789695731562489	0.08927813869464796
-0.4789085379999989	0.10329760303010706
-0.4788475028437489	0.11727836609700873
-0.4787864676874989	0.13121335364237952
-0.4787254325312489	0.14509507034376098
-0.4786643973749989	0.15891627916979423
-0.4786033622187489	0.17267053737927063
-0.4785423270624989	0.18635143828466955
-0.4784812919062489	0.19995166663488914
-0.4784202567499989	0.21346403904609257
-0.4783592215937489	0.2268820779041462
-0.4782981864374989	0.24019920415119658
-0.4782371512812489	0.2534085498976882
-0.4781761161249989	0.26650310955559176
-0.4781150809687489	0.27947617464911323
-0.4780540458124989	0.292321522467595
-0.4779930106562489	0.30503270694881607
-0.4779319754999989	0.31760316708980924
-0.4778709403437489	0.3300266405542662
-0.4778099051874989	0.34229669677107555
-0.4777488700312489	0.3544070644948466
-0.4776878348749989	0.3663519347868387
-0.4776267997187489	0.378125136040739
-0.4775657645624989	0.38972032937963635
-0.4775047294062489	0.4011317583931346
-0.4774436942499989	0.4123538081736547
-0.4773826590937489	0.42338064678352816
-0.4773216239374989	0.4342065610219244
-0.4772605887812489	0.44482602465614235
-0.4771995536249989	0.45523366266842974
-0.4771385184687489	0.4654243043291852
-0.4770774833124989	0.4753927803429463
-0.4770164481562489	0.4851337006937922
-0.4769554129999989	0.4946419473002509
-0.4768943778437489	0.5039129704623435
-0.4768333426874989	0.5129420809764618
-0.4767723075312489	0.5217244066174496
-0.4767112723749989	0.5302553881462163
-0.4766502372187489	0.5385307770696088
-0.4765892020624989	0.5465463610160064
-0.4765281669062489	0.5542977860651485
-0.4764671317499989	0.5617809480925476
-0.4764060965937489	0.5689921282346895
-0.4763450614374989	0.5759276581281468
-0.4762840262812489	0.5825838906063725
-0.4762229911249989	0.5889572477904061
-0.4761619559687489	0.5950443439009762
-0.4761009208124989	0.6008420793678304
-0.4760398856562489	0.6063474836203876
-0.4759788504999989	0.6115576187823063
-0.4759178153437489	0.6164696673652243
-0.4758567801874989	0.6210810198790484
-0.4757957450312489	0.625389193876235
-0.4757347098749989	0.6293918587066705
-0.4756736747187489	0.6330869074359967
-0.4756126395624989	0.6364723059697279
-0.4755516044062489	0.639546138349312
-0.4754905692499989	0.6423068168226472
-0.4754295340937489	0.6447528591217833
-0.4753684989374989	0.6468827373851878
-0.4753074637812489	0.6486952094251818
-0.4752464286249989	0.6501893111363024
-0.4751853934687489	0.6513641165624499
-0.4751243583124989	0.6522188331371973
-0.4750633231562489	0.6527528968416609
-0.4750022879999989	0.6529658599722088
-0.4749412528437489	0.6528573982300246
-0.4748802176874989	0.6524274340193422
-0.4748191825312489	0.6516760667292082
-0.4747581473749989	0.6506034931167463
-0.4746971122187489	0.6492100545152679
-0.4746360770624989	0.6474963146830316
-0.4745750419062489	0.6454630164385285
-0.4745140067499989	0.6431109765193667
-0.4744529715937489	0.6404411647455384
-0.4743919364374989	0.6374547752219387
-0.4743309012812489	0.6341531877182307
-0.4742698661249989	0.6305379096705369
-0.4742088309687489	0.6266105333349944
-0.4741477958124989	0.6223727948618618
-0.4740867606562489	0.6178266623525815
-0.4740257254999989	0.6129743377092968
-0.4739646903437489	0.6078181801823174
-0.4739036551874989	0.6023605570631784
-0.4738426200312489	0.5966039751692309
-0.4737815848749989	0.5905513396672093
-0.4737205497187489	0.5842056117057104
-0.4736595145624989	0.5775695781178934
-0.4735984794062489	0.5706462365665266
-0.4735374442499989	0.5634389371366563
-0.4734764090937489	0.5559512424503198
-0.4734153739374989	0.5481869870671356
-0.4733543387812489	0.5401500849344659
-0.4732933036249989	0.5318441099813813
-0.4732322684687489	0.523272778134122
-0.4731712333124989	0.5144404854534946
-0.4731101981562489	0.5053518223214718
-0.4730491629999989	0.49601119178659364
-0.4729881278437489	0.4864228981514989
-0.4729270926874989	0.4765915017047483
-0.4728660575312489	0.46652187411908735
-0.4728050223749989	0.4562189573063234
-0.4727439872187489	0.4456879526253228
-0.4726829520624989	0.43493405750829317
-0.4726219169062489	0.42396233856271937
-0.4725608817499989	0.4127781156809114
-0.4724998465937489	0.4013868756600671
-0.4724388114374989	0.38979430931011505
-0.4723777762812489	0.37800619164474286
-0.4723167411249989	0.3660283310457369
-0.4722557059687489	0.3538668343526585
-0.4721946708124989	0.3415275693595592
-0.4721336356562489	0.32901613398977875
-0.4720726004999989	0.31633882014331544
-0.4720115653437489	0.3035023614295372
-0.4719505301874989	0.2905130754490272
-0.4718894950312489	0.2773770954463555
-0.4718284598749989	0.26410078887155664
-0.4717674247187489	0.25069074846096684
-0.4717063895624989	0.23715364829509636
-0.4716453544062489	0.22349629865286594
-0.4715843192499989	0.20972577442105914
-0.4715232840937489	0.19584900345754058
-0.4714622489374989	0.18187257499163545
-0.4714012137812489	0.1678032312448063
-0.4713401786249989	0.15364789995584913
-0.4712791434687489	0.13941349932815653
-0.4712181083124989	0.1251073636185444
-0.4711570731562489	0.11073689179529936
-0.4710960379999989	0.09630890069489148
-0.4710350028437489	0.08183042890029285
-0.4709739676874989	0.06730906761972878
-0.4709129325312489	0.05275219943719609
-0.4708518973749989	0.038166885698976034
-0.4707908622187489	0.02356019815113087
-0.4707298270624989	0.008939307874667284
-0.4706687919062489	-0.0056884551542765414
-0.4706077567499989	-0.020315604402571744
-0.4705467215937489	-0.03493486813235344
-0.4704856864374989	-0.04953906157302492
-0.4704246512812489	-0.0641206820014123
-0.4703636161249989	-0.07867231060459388
-0.4703025809687489	-0.0931867543940479
-0.4702415458124989	-0.10765686480074882
-0.4701805106562489	-0.12207552815104171
-0.4701194754999989	-0.13643553285987947
-0.4700584403437489	-0.15072967763967948
-0.4699974051874989	-0.16495081408571008
-0.4699363700312489	-0.17909166837169477
-0.4698753348749989	-0.1931450647554706
-0.4698142997187489	-0.20710406635696404
-0.4697532645624989	-0.22096160765294873
-0.4696922294062489	-0.23471072765967213
-0.4696311942499989	-0.24834478713632868
-0.4695701590937489	-0.2618568545714241
-0.4695091239374989	-0.2752399150287259
