Time	Frequency
-0.5000457750312535	-3.35802809900819e-24
-0.49998473987500347	-2.7701422105508675e-24
-0.49992370471875347	-2.1856370649126677e-24
-0.49986266956250347	-1.6003260121915292e-24
-0.49980163440625347	-1.0102523525008088e-24
-0.49974059925000347	-4.1845679815923e-25
-0.49967956409375347	1.6980810905594492e-25
-0.49961852893750347	7.553808810045643e-25
-0.49955749378125347	1.3433809379154623e-24
-0.49949645862500347	1.934449243829298e-24
-0.49943542346875347	2.52349777060095e-24
-0.49937438831250347	3.1078460085459922e-24
-0.49931335315625347	3.691234559946982e-24
-0.49925231800000347	4.277244849189396e-24
-0.49919128284375347	4.863130204703599e-24
-0.49913024768750347	5.444146759153166e-24
-0.49906921253125347	6.0210589086438614e-24
-0.49900817737500347	6.5984559547175326e-24
-0.49894714221875347	7.176831387669624e-24
-0.49888610706250347	7.751543488506837e-24
-0.49882507190625347	8.320225061908262e-24
-0.49876403675000347	8.886316880041285e-24
-0.49870300159375347	9.45301294950632e-24
-0.49864196643750347	1.0017735331297046e-23
-0.49858093128125347	1.0576176984197988e-23
-0.49851989612500347	1.1129087052263792e-23
-0.49845886096875347	1.1680624587377321e-23
-0.49839782581250347	1.2231168825954352e-23
-0.49833679065625347	1.2776489269557242e-23
-0.49827575550000347	1.331449746457079e-23
-0.49821472034375347	1.3848339428297012e-23
-0.49815368518750347	1.4380823896613088e-23
-0.49809265003125347	1.4909525933827885e-23
-0.49803161487500347	1.5430597011757655e-23
-0.49797057971875347	1.5944839441135657e-23
-0.49790954456250347	1.645601374542349e-23
-0.49784850940625347	1.6964309688681516e-23
-0.49778747425000347	1.74658274812286e-23
-0.49772643909375347	1.7958810429996886e-23
-0.49766540393750347	1.8446218150390444e-23
-0.49760436878125347	1.8930485889882937e-23
-0.49754333362500347	1.9409267135123142e-23
-0.49748229846875347	1.987913028206719e-23
-0.49742126331250347	2.034097830330383e-23
-0.49736022815625347	2.0798239957385972e-23
-0.49729919300000347	2.1250912937383473e-23
-0.49723815784375347	2.1695363868789098e-23
-0.49717712268750347	2.2130138015506527e-23
-0.49711608753125347	2.2558081146226374e-23
-0.49705505237500347	2.2981335666066825e-23
-0.49699401721875347	2.3397589521188756e-23
-0.49693298206250347	2.380373920605999e-23
-0.49687194690625347	2.4200796195380924e-23
-0.49681091175000347	2.4591927226912362e-23
-0.49674987659375347	2.4976976680580085e-23
-0.49668884143750347	2.535255656991276e-23
-0.49662780628125347	2.5717477132996413e-23
-0.49656677112500347	2.6074481646257244e-23
-0.49650573596875347	2.642546444913956e-23
-0.49644470081250347	2.676814982452523e-23
-0.49638366565625347	2.7099697347817837e-23
-0.49632263050000347	2.7421215815950855e-23
-0.49626159534375347	2.7735723094019276e-23
-0.49620056018750347	2.8042962574688866e-23
-0.49613952503125347	2.8339670361898564e-23
-0.49607848987500347	2.862482554289494e-23
-0.49601745471875347	2.890117473396619e-23
-0.49595641956250347	2.917051452256141e-23
-0.49589538440625347	2.943054370386852e-23
-0.49583434925000347	2.967851791428392e-23
-0.49577331409375347	2.9915674147959853e-23
-0.49571227893750347	3.0145064023781365e-23
-0.49565124378125347	3.0366352718174705e-23
-0.49559020862500347	3.057621703413377e-23
-0.49552917346875347	3.0773721798144544e-23
-0.49546813831250347	3.0961786686982845e-23
-0.49540710315625347	3.1142267617082843e-23
-0.49534606800000347	3.1312736204005684e-23
-0.49528503284375347	3.147033644319204e-23
-0.49522399768750347	3.1616443167447165e-23
-0.49516296253125347	3.175438841988186e-23
-0.49510192737500347	3.188386754398645e-23
-0.49504089221875347	3.2001257139072753e-23
-0.49497985706250347	3.210548974574956e-23
-0.49491882190625347	3.219985180781903e-23
-0.49485778675000347	3.228657159199329e-23
-0.49479675159375347	3.2362998706665704e-23
-0.49473571643750347	3.242581311617214e-23
-0.49467468128125347	3.247651282750373e-23
-0.49461364612500347	3.251904924164212e-23
-0.49455261096875347	3.255326593747979e-23
-0.49449157581250347	3.2574961665814005e-23
-0.49443054065625347	3.25827450363737e-23
-0.49436950550000347	3.2580476625158954e-23
-0.49430847034375347	3.2571010534143616e-23
-0.49424743518750347	3.255134981898372e-23
-0.49418640003125347	3.251741179900118e-23
-0.49412536487500347	3.2470844361093523e-23
-0.49406432971875347	3.24165380115508e-23
-0.49400329456250347	3.235457547018618e-23
-0.49394225940625347	3.2279887123590014e-23
-0.49388122425000347	3.219055856503052e-23
-0.49382018909375347	3.209123611655585e-23
-0.49375915393750347	3.1985673058798913e-23
-0.49369811878125347	3.1870429220819476e-23
-0.49363708362500347	3.174036455184575e-23
-0.49357604846875347	3.159725119102925e-23
-0.49351501331250347	3.144717959947647e-23
-0.49345397815625347	3.129059975421822e-23
-0.49339294300000347	3.112139182202462e-23
-0.49333190784375347	3.093692709117514e-23
-0.49327087268750347	3.074271762179386e-23
-0.49320983753125347	3.054361939588515e-23
-0.49314880237500347	3.0335765056689523e-23
-0.49308776721875347	3.011278523008424e-23
-0.49302673206250347	2.987647894017278e-23
-0.49296569690625347	2.9634239837063954e-23
-0.49290466175000347	2.9387030103021917e-23
-0.49284362659375347	2.912765969936557e-23
-0.49278259143750347	2.8852634447576344e-23
-0.49272155628125347	2.8568260805962187e-23
-0.49266052112500347	2.8280600655717396e-23
-0.49259948596875347	2.798549564056971e-23
-0.49253845081250347	2.767532023179549e-23
-0.49247741565625347	2.735174125782677e-23
-0.49241638050000347	2.7023390872831976e-23
-0.49235534534375347	2.669187181818206e-23
-0.49229431018750347	2.6349062654033923e-23
-0.49223327503125347	2.599052492880344e-23
-0.49217223987500347	2.562315191596817e-23
-0.49211120471875347	2.5254207087741644e-23
-0.49205016956250347	2.487948789195539e-23
-0.49198913440625347	2.4490224311027802e-23
-0.49192809925000347	2.4087703897285018e-23
-0.49186706409375347	2.3681550808093282e-23
-0.49180602893750347	2.327416744000429e-23
-0.49174499378125347	2.2856847139211358e-23
-0.49168395862500347	2.2424215929644277e-23
-0.49162292346875347	2.198338893688157e-23
-0.49156188831250347	2.1542595043001396e-23
-0.49150085315625347	2.1097823638922314e-23
-0.49143981800000347	2.063956091624751e-23
-0.49137878284375347	2.016868846893693e-23
-0.49131774768750347	1.9695362121142033e-23
-0.49125671253125347	1.922258846268969e-23
-0.49119567737500347	1.8741484616526376e-23
-0.49113464221875347	1.8246088472783442e-23
-0.49107360706250347	1.7743417705291926e-23
-0.49101257190625347	1.7242213971476797e-23
-0.49095153675000347	1.6738847667061914e-23
-0.49089050159375347	1.6223568891746058e-23
-0.49082946643750347	1.569681275451868e-23
-0.49076843128125347	1.5168732178380225e-23
-0.49070739612500347	1.464276914457434e-23
-0.49064636096875347	1.4110306252933927e-23
-0.49058532581250347	1.3565142810737375e-23
-0.49052429065625347	1.3013942333854779e-23
-0.49046325550000347	1.2465519427517401e-23
-0.49040222034375347	1.191666319138736e-23
-0.49034118518750347	1.1357784475122763e-23
-0.49028015003125347	1.0788987057548525e-23
-0.49021911487500347	1.0220110457201726e-23
-0.49015807971875347	9.654801123313526e-24
-0.49009704456250347	9.084895418193918e-24
-0.49003600940625347	8.5042412913479e-24
-0.48997497425000347	7.919071084932405e-24
-0.48991393909375347	7.33793974274876e-24
-0.48985290393750347	6.757987685820899e-24
-0.48979186878125347	6.170101871383616e-24
-0.48973083362500347	5.5742428379631274e-24
-0.48966979846875347	4.979678889163473e-24
-0.48960876331250347	4.389981890841156e-24
-0.48954772815625347	3.797588853978277e-24
-0.48948669300000347	3.196689490473662e-24
-0.48942565784375347	2.593042231931156e-24
-0.48936462268750347	1.9946748518990992e-24
-0.48930358753125347	1.399002586189411e-24
-0.48924255237500347	7.9753381196119875e-25
-0.48918151721875347	1.9020737197823079e-25
-0.48912048206250347	-4.142800514742519e-25
-0.48905944690625347	-1.0125244097892023e-24
-0.48899841175000347	-1.6116080324875252e-24
-0.48893737659375347	-2.2170258308325556e-24
-0.48887634143750347	-2.823379545853031e-24
-0.48881530628125347	-3.423057173203359e-24
-0.48875427112500347	-4.01841265306211e-24
-0.48869323596875347	-4.617445642983875e-24
-0.48863220081250347	-5.2202880869362524e-24
-0.48857116565625347	-5.8187527402034015e-24
-0.48851013050000347	-6.409529538016595e-24
-0.48844909534375347	-6.999240956457518e-24
-0.48838806018750347	-7.593157810628513e-24
-0.48832702503125347	-8.186266429665562e-24
-0.48826598987500347	-8.771284986875777e-24
-0.48820495471875347	-9.350276112762367e-24
-0.48814391956250347	-9.930826827025017e-24
-0.48808288440625347	-1.0513264391490739e-23
-0.48802184925000347	-1.1089910291972265e-23
-0.48796081409375347	-1.165742306817447e-23
-0.48789977893750347	-1.2221888006524819e-23
-0.48783874378125347	-1.2788433960709612e-23
-0.48777770862500347	-1.3352555784504513e-23
-0.48771667346875347	-1.39072960350887e-23
-0.48765563831250347	-1.445434500793214e-23
-0.48759460315625347	-1.500087599804733e-23
-0.48753356800000347	-1.5547458708237653e-23
-0.48747253284375347	-1.608691628449153e-23
-0.48741149768750347	-1.6615849255001555e-23
-0.48735046253125347	-1.7139820468881594e-23
-0.48728942737500347	-1.7663858865066675e-23
-0.48722839221875347	-1.8184007865002263e-23
-0.48716735706250347	-1.869362983690575e-23
-0.48710632190625347	-1.919396521708374e-23
-0.48704528675000347	-1.9691719513771166e-23
-0.48698425159375347	-2.01877874640114e-23
-0.48692321643750347	-2.067561096236546e-23
-0.48686218128125347	-2.1151714559512542e-23
-0.48680114612500347	-2.162104691220107e-23
-0.48674011096875347	-2.208851623907731e-23
-0.48667907581250347	-2.2550749744695337e-23
-0.48661804065625347	-2.300147113517273e-23
-0.48655700550000347	-2.3441505765292233e-23
-0.48649597034375347	-2.3877067400108268e-23
-0.48643493518750347	-2.4309319754952052e-23
-0.48637390003125347	-2.473234602840761e-23
-0.48631286487500347	-2.5142671179094285e-23
-0.48625182971875347	-2.554462385829822e-23
-0.48619079456250347	-2.59429084718725e-23
-0.48612975940625347	-2.633473289005786e-23
-0.48606872425000347	-2.6714291043174326e-23
-0.48600768909375347	-2.708205541339183e-23
-0.48594665393750347	-2.74436686223746e-23
-0.48588561878125347	-2.7800443209444184e-23
-0.48582458362500347	-2.814711169501368e-23
-0.48576354846875347	-2.848035174573338e-23
-0.48570251331250347	-2.880397177419739e-23
-0.48564147815625347	-2.912236364441775e-23
-0.48558044300000347	-2.943314805137804e-23
-0.48551940784375347	-2.97310376991847e-23
-0.48545837268750347	-3.0016358038860466e-23
-0.48539733753125347	-3.0294210243939084e-23
-0.48533630237500347	-3.056586568498848e-23
-0.48527526721875347	-3.082662237380738e-23
-0.48521423206250347	-3.107348131430278e-23
-0.48515319690625347	-3.1309870725220107e-23
-0.48509216175000347	-3.1539750193959757e-23
-0.48503112659375347	-3.1760982160472676e-23
-0.48497009143750347	-3.196884000121031e-23
-0.48490905628125347	-3.2163681265653945e-23
-0.48484802112500347	-3.235012598241635e-23
-0.48478698596875347	-3.252927997861152e-23
-0.48472595081250347	-3.269689808960176e-23
-0.48466491565625347	-3.285035614687182e-23
-0.48460388050000347	-3.299281377394999e-23
-0.48454284534375347	-3.312781567789992e-23
-0.48448181018750347	-3.325339144888703e-23
-0.48442077503125347	-3.3365335508906145e-23
-0.48435973987500347	-3.3464082523953325e-23
-0.48429870471875347	-3.3553817935150346e-23
-0.48423766956250347	-3.363545848280018e-23
-0.48417663440625347	-3.370516449365755e-23
-0.48411559925000347	-3.376070552104013e-23
-0.48405456409375347	-3.3805049831938395e-23
-0.48399352893750347	-3.384133341941364e-23
-0.48393249378125347	-3.3867662012293824e-23
-0.48387145862500347	-3.3880308211551865e-23
-0.48381042346875347	-3.3879869193712845e-23
-0.48374938831250347	-3.387017716104108e-23
-0.48368835315625347	-3.385190909351398e-23
-0.48362731800000347	-3.38215396727134e-23
-0.48356628284375347	-3.3777243808812165e-23
-0.48350524768750347	-3.37218767265158e-23
-0.48344421253125347	-3.3658189683704804e-23
-0.48338317737500347	-3.358431643096552e-23
-0.48332214221875347	-3.349696287457652e-23
-0.48326110706250347	-3.3396906656678666e-23
-0.48320007190625347	-3.328768623580444e-23
-0.48313903675000347	-3.3169752855892835e-23
-0.48307800159375347	-3.303983052857151e-23
-0.48301696643750347	-3.289645342216946e-23
-0.48295593128125347	-3.274241644103129e-23
-0.48289489612500347	-3.258015345279588e-23
-0.48283386096875347	-3.240780561464279e-23
-0.48277282581250347	-3.222244699287428e-23
-0.48271179065625347	-3.2025020245396945e-23
-0.48265075550000347	-3.181881396565204e-23
-0.48258972034375347	-3.160409238708135e-23
-0.48252868518750347	-3.1377800882304734e-23
-0.48246765003125347	-3.1138770890474166e-23
-0.48240661487500347	-3.088975624449769e-23
-0.48234557971875347	-3.0632964848756354e-23
-0.48228454456250347	-3.036653250811039e-23
-0.48222350940625347	-3.008776645632077e-23
-0.48216247425000347	-2.9797755663435603e-23
-0.48210143909375347	-2.9499703908487576e-23
-0.48204040393750347	-2.919375614422596e-23
-0.48197936878125347	-2.887691088125583e-23
-0.48191833362500347	-2.854817023516686e-23
-0.48185729846875347	-2.821037504119421e-23
-0.48179626331250347	-2.7865668516545304e-23
-0.48173522815625347	-2.751210681458022e-23
-0.48167419300000347	-2.714705273715731e-23
-0.48161315784375347	-2.6771746341612986e-23
-0.48155212268750347	-2.6389468824466937e-23
-0.48149108753125347	-2.6000300234220196e-23
-0.48143005237500347	-2.5601142387471845e-23
-0.48136901721875347	-2.5191045164234507e-23
-0.48130798206250347	-2.477306329913723e-23
-0.48124694690625347	-2.4349471333841167e-23
-0.48118591175000347	-2.391815659539247e-23
-0.48112487659375347	-2.34762434343787e-23
-0.48106384143750347	-2.30251098045539e-23
-0.48100280628125347	-2.25684649890385e-23
-0.48094177112500347	-2.2106477408747316e-23
-0.48088073596875347	-2.1635621966987515e-23
-0.48081970081250347	-2.1154692238823937e-23
-0.48075866565625347	-2.066715665157372e-23
-0.48069763050000347	-2.017578769619201e-23
-0.48063659534375347	-1.967824707839327e-23
-0.48057556018750347	-1.9171065448322257e-23
-0.48051452503125347	-1.8655703550364567e-23
-0.48045348987500347	-1.8136600430417517e-23
-0.48039245471875347	-1.7614126026708207e-23
-0.48033141956250347	-1.7084050811212276e-23
-0.48027038440625347	-1.6544715029804852e-23
-0.48020934925000347	-1.6000227051537056e-23
-0.48014831409375347	-1.5454140753834612e-23
-0.48008727893750347	-1.4903755864686212e-23
-0.48002624378125347	-1.4344651779466546e-23
-0.47996520862500347	-1.377834762344993e-23
-0.47990417346875347	-1.3210352968338413e-23
-0.47984313831250347	-1.2641405175700939e-23
-0.47978210315625347	-1.2066294315423516e-23
-0.47972106800000347	-1.1482638125361856e-23
-0.47966003284375347	-1.0895354454812438e-23
-0.47959899768750347	-1.0309082489650227e-23
-0.47953796253125347	-9.720684703328549e-24
-0.47947692737500347	-9.124458534799288e-24
-0.47941589221875347	-8.521927988019932e-24
-0.47935485706250347	-7.91996165020042e-24
-0.47929382190625347	-7.319824947549798e-24
-0.47923278675000347	-6.715135728664649e-24
-0.47917175159375347	-6.102554451123916e-24
-0.47911071643750347	-5.487842346938228e-24
-0.47904968128125347	-4.876926208429874e-24
-0.47898864612500347	-4.266316809684499e-24
-0.47892761096875347	-3.6489096818196604e-24
-0.47886657581250347	-3.0260708651476648e-24
-0.47880554065625347	-2.4060322342068972e-24
-0.47874450550000347	-1.7907412330794333e-24
-0.47868347034375347	-1.172706482637414e-24
-0.47862243518750347	-5.474923917917826e-25
-0.47856140003125347	7.843378820097587e-26
-0.47850036487500347	6.977683752893812e-25
-0.47843932971875347	1.3141671264024787e-24
-0.47837829456250347	1.9361555919108183e-24
-0.47831725940625347	2.5627434505632364e-24
-0.47825622425000347	3.184454463300344e-24
-0.47819518909375347	3.798494909511876e-24
-0.47813415393750347	4.413229527285823e-24
-0.47807311878125347	5.034256536244088e-24
-0.47801208362500347	5.654726232658466e-24
-0.47795104846875347	6.26605949269541e-24
-0.47789001331250347	6.871769399311167e-24
-0.47782897815625347	7.481548029076147e-24
-0.47776794300000347	8.095009878522636e-24
-0.47770690784375347	8.701823761089842e-24
-0.47764587268750347	9.298306719780267e-24
-0.47758483753125347	9.893278186940642e-24
-0.47752380237500347	1.0493326764391752e-23
-0.47746276721875347	1.1091572814345274e-23
-0.47740173206250347	1.1678546268843009e-23
-0.47734069690625347	1.2257453212562328e-23
-0.47727966175000347	1.2838670612902437e-23
-0.47721862659375347	1.3422390473732266e-23
-0.47715759143750347	1.3997933547577757e-23
-0.47709655628125347	1.456093976597248e-23
-0.47703552112500347	1.512022562092892e-23
-0.47697448596875347	1.5683011811632884e-23
-0.47691345081250347	1.6242776117844378e-23
-0.47685241565625347	1.678968461625292e-23
-0.47679138050000347	1.73264282463789e-23
-0.47673034534375347	1.7863444705945293e-23
-0.47666931018750347	1.8401446610654062e-23
-0.47660827503125347	1.8930008959948035e-23
-0.47654723987500347	1.94444547929077e-23
-0.47648620471875347	1.995320239647652e-23
-0.47642516956250347	2.0463586449177114e-23
-0.47636413440625347	2.096956905097505e-23
-0.47630309925000347	2.146146916003497e-23
-0.47624206409375347	2.1941578713609597e-23
-0.47618102893750347	2.2420009398850066e-23
-0.47611999378125347	2.2897768186580957e-23
-0.47605895862500347	2.3364954662400653e-23
-0.47599792346875347	2.381685868573808e-23
-0.47593688831250347	2.4261344186173744e-23
-0.47587585315625347	2.4705547255121373e-23
-0.47581481800000347	2.5143965277253518e-23
-0.47575378284375347	2.5567415714610352e-23
-0.47569274768750347	2.5977883656276916e-23
-0.47563171253125347	2.638485143923006e-23
-0.47557067737500347	2.6789416164411794e-23
-0.47550964221875347	2.718240736907469e-23
-0.47544860706250347	2.755935832249679e-23
-0.47538757190625347	2.792753347188207e-23
-0.47532653675000347	2.829362876215831e-23
-0.47526550159375347	2.865259846305666e-23
-0.47520446643750347	2.899589944789021e-23
-0.47514343128125347	2.9325354710261944e-23
-0.47508239612500347	2.9649822200108096e-23
-0.47502136096875347	2.997037836920906e-23
-0.47496032581250347	3.027848363618311e-23
-0.47489929065625347	3.056994723474701e-23
-0.47483825550000347	3.0851567102681445e-23
-0.47477722034375347	3.1129666340640963e-23
-0.47471618518750347	3.1399572690601816e-23
-0.47465515003125347	3.1653272418970197e-23
-0.47459411487500347	3.189244037534283e-23
-0.47453307971875347	3.2125423916192564e-23
-0.47447204456250347	3.2353345547162716e-23
-0.47441100940625347	3.256822848478753e-23
-0.47434997425000347	3.276604927056924e-23
-0.47428893909375347	3.29531488654758e-23
-0.47422790393750347	3.313560277584839e-23
-0.47416686878125347	3.330918132941773e-23
-0.47410583362500347	3.346630727796068e-23
-0.47404479846875347	3.3608389893025356e-23
-0.47398376331250347	3.374330636301898e-23
-0.47392272815625347	3.3872361059211143e-23
-0.47386169300000347	3.39881688486249e-23
-0.47380065784375347	3.4086761635797537e-23
-0.47373962268750347	3.417395353595084e-23
-0.47367858753125347	3.425565704726968e-23
-0.47361755237500347	3.432817890618943e-23
-0.47355651721875347	3.4384329141713887e-23
-0.47349548206250347	3.4425156225102407e-23
-0.47343444690625347	3.445808760658353e-23
-0.47337341175000347	3.4484703280817327e-23
-0.47331237659375347	3.4498228293729445e-23
-0.47325134143750347	3.44946769686064e-23
-0.47319030628125347	3.447928237858293e-23
-0.47312927112500347	3.4457829009300164e-23
-0.47306823596875347	3.4427239289219334e-23
-0.47300720081250347	3.438073567116862e-23
-0.47294616565625347	3.4318939834427095e-23
-0.47288513050000347	3.4248755341032435e-23
-0.47282409534375347	3.417206027861098e-23
-0.47276306018750347	3.408277777606299e-23
-0.47270202503125347	3.397693625026655e-23
-0.47264098987500347	3.3859130455572125e-23
-0.47257995471875347	3.373495138173311e-23
-0.47251891956250347	3.3601945157956814e-23
-0.47245788440625347	3.345381859025959e-23
-0.47239684925000347	3.329080424159854e-23
-0.47233581409375347	3.311922229239336e-23
-0.47227477893750347	3.294117336425465e-23
