Time	Frequency
-0.5000019066875012	0.5332796061561234
-0.4999408715312512	0.5339543995236967
-0.4998798363750012	0.5344733578391336
-0.4998188012187512	0.5348382086094494
-0.4997577660625012	0.5350165219273602
-0.4996967309062512	0.5350024714967143
-0.4996356957500012	0.5348290555054878
-0.4995746605937512	0.5345065338703219
-0.4995136254375012	0.534001724789339
-0.4994525902812512	0.5332993091274612
-0.4993915551250012	0.5324319902449252
-0.4993305199687512	0.5314210004497008
-0.4992694848125012	0.5302358886445188
-0.4992084496562512	0.5288502889180312
-0.4991474145000012	0.5272923400705539
-0.4990863793437512	0.5255947457106859
-0.4990253441875012	0.5237344095793165
-0.4989643090312512	0.5216744100112066
-0.4989032738750012	0.5194336213692246
-0.4988422387187512	0.5170548175929376
-0.4987812035625012	0.5145270082626769
-0.4987201684062512	0.5118052005591704
-0.4986591332500012	0.5088942637698051
-0.4985980980937512	0.5058431371708577
-0.4985370629375012	0.502657153575923
-0.4984760277812512	0.49928847625321904
-0.4984149926250012	0.4957248201485755
-0.4983539574687512	0.49201518539465455
-0.4982929223125012	0.48818313510196876
-0.4982318871562512	0.48418465883691253
-0.4981708520000012	0.47998972619626207
-0.4981098168437512	0.47564040270679503
-0.4980487816875012	0.47117756733215144
-0.4979877465312512	0.46656792578365236
-0.4979267113750012	0.4617659803866521
-0.4978656762187512	0.4568001489165672
-0.4978046410625012	0.45172506650751804
-0.4977436059062512	0.44652469355793095
-0.4976825707500012	0.4411431596769592
-0.4976215355937512	0.435589446762153
-0.4975605004375012	0.42992527673217534
-0.4974994652812512	0.4241560776940195
-0.4974384301250012	0.4182232403341774
-0.4973773949687512	0.41211383497784737
-0.4973163598125012	0.40588862495618044
-0.4972553246562512	0.3995753445187259
-0.4971942895000012	0.3931206729841613
-0.4971332543437512	0.386490346548663
-0.4970722191875012	0.37973629982566226
-0.4970111840312512	0.37290677115568466
-0.4969501488750012	0.36596158043409904
-0.4968891137187512	0.3588482325602523
-0.4968280785625012	0.3516020723924558
-0.4967670434062512	0.34428721684914315
-0.4967060082500012	0.33688359391271316
-0.4966449730937512	0.32932628558668287
-0.4965839379375012	0.3216281456160106
-0.4965229027812512	0.31386228846271574
-0.4964618676250012	0.306033541596537
-0.4964008324687512	0.29807267710048835
-0.4963397973125012	0.2899666993338174
-0.4962787621562512	0.2817885675013718
-0.4962177270000012	0.27356964869783645
-0.4961566918437512	0.2652460050594231
-0.4960956566875012	0.25677863044533145
-0.4960346215312512	0.24823054079889256
-0.4959735863750012	0.23965820188620832
-0.4959125512187512	0.2310125717341365
-0.4958515160625012	0.22223191375389578
-0.4957904809062512	0.21336015961720978
-0.4957294457500012	0.2044737696082189
-0.4956684105937512	0.19554706827512078
-0.4956073754375012	0.18650213135900504
-0.4955463402812512	0.17735608351752896
-0.4954853051250012	0.16819746561083956
-0.4954242699687512	0.1590306322509119
-0.4953632348125012	0.14977077065322392
-0.4953021996562512	0.14040293614697308
-0.4952411645000012	0.13101714534817357
-0.4951801293437512	0.12165125022647733
-0.4951190941875012	0.11222529182940041
-0.4950580590312512	0.10269074826821185
-0.4949970238750012	0.09312610113992492
-0.4949359887187512	0.08360166803888228
-0.4948749535625012	0.07405577149193071
-0.4948139184062512	0.06441009111621669
-0.4947528832500012	0.0547190249549109
-0.4946918480937512	0.04507938293480869
-0.4946308129375012	0.03545932482261304
-0.4945697777812512	0.02575856748128855
-0.4945087426250012	0.015996257942369998
-0.4944477074687512	0.006285275009546679
-0.4943866723125012	-0.003366524444289153
-0.4943256371562512	-0.013068250123267285
-0.4942646020000012	-0.02284333017925648
-0.4942035668437512	-0.03257803144237605
-0.4941425316875012	-0.042220307722733996
-0.4940814965312512	-0.051871642223011806
-0.4940204613750012	-0.06159996434087895
-0.4939594262187512	-0.07130802149293033
-0.4938983910625012	-0.08090046740475235
-0.4938373559062512	-0.09045296097170709
-0.4937763207500012	-0.10007351609924973
-0.4937152855937512	-0.109700104838449
-0.4936542504375012	-0.11920305059536046
-0.4935932152812512	-0.12861461844440983
-0.4935321801250012	-0.13806953166435115
-0.4934711449687512	-0.1475560860986233
-0.4934101098125012	-0.1569271471131189
-0.4933490746562512	-0.16615903855397623
-0.4932880395000012	-0.17539316941003508
-0.4932270043437512	-0.18467766211098016
-0.4931659691875012	-0.19387115817780676
-0.4931049340312512	-0.2028892142398536
-0.4930438988750012	-0.2118546256200206
-0.4929828637187512	-0.22087484228140802
-0.4929218285625012	-0.22984047069516422
-0.4928607934062512	-0.2386123453632795
-0.4927997582500012	-0.24726832123013
-0.4927387230937512	-0.25596278743605777
-0.4926776879375012	-0.26464339284693766
-0.4926166527812512	-0.2731353234391444
-0.4925556176250012	-0.2814499346320036
-0.4924945824687512	-0.28976401015951714
-0.4924335473125012	-0.2980988432363744
-0.4923725121562512	-0.3062729077428083
-0.4923114770000012	-0.3142202960816573
-0.4922504418437512	-0.3221076673759299
-0.4921894066875012	-0.330033985104344
-0.4921283715312512	-0.33784579395466163
-0.4920673363750012	-0.34540369536231263
-0.4920063012187512	-0.352829137486219
-0.4919452660625012	-0.36028650896981257
-0.4918842309062512	-0.36768397308771533
-0.4918231957500012	-0.3748296945903465
-0.4917621605937512	-0.3817701852532186
-0.4917011254375012	-0.3887061066389683
-0.4916400902812512	-0.3956306248505507
-0.4915790551250012	-0.4023349324150612
-0.4915180199687512	-0.4087754921535234
-0.4914569848125012	-0.4151497209551466
-0.4913959496562512	-0.42154185516431
-0.4913349145000012	-0.42776795324667893
-0.4912738793437512	-0.43369821172589
-0.4912128441875012	-0.43948471754689006
-0.4911518090312512	-0.44528837493084866
-0.4910907738750012	-0.45098941595469233
-0.4910297387187512	-0.4563964968254433
-0.4909687035625012	-0.4615831521272141
-0.4909076684062512	-0.4667537206234411
-0.4908466332500012	-0.4718775455427585
-0.4907855980937512	-0.4767412545486895
-0.4907245629375012	-0.48132454444931133
-0.4906635277812512	-0.4858318028171624
-0.4906024926250012	-0.4903261618157114
-0.4905414574687512	-0.4946167292597293
-0.4904804223125012	-0.49859576961749247
-0.4904193871562512	-0.5024252131925254
-0.4903583520000012	-0.5062450966751979
-0.4902973168437512	-0.5099248457565024
-0.4902362816875012	-0.5132953727848226
-0.4901752465312512	-0.5164451628783446
-0.4901142113750012	-0.5195577281681539
-0.4900531762187512	-0.5225852099304357
-0.4899921410625012	-0.5253355522080284
-0.4899311059062512	-0.5278111187385487
-0.4898700707500012	-0.530198200585351
-0.4898090355937512	-0.5325342126145023
-0.4897480004375012	-0.5346446709330593
-0.4896869652812512	-0.5364533679984398
-0.4896259301250012	-0.5381116833078409
-0.4895648949687512	-0.5397255999561645
-0.4895038598125012	-0.5411706278586779
-0.4894428246562512	-0.5423159741595752
-0.4893817895000012	-0.5432524740923583
-0.4893207543437512	-0.5441254439366583
-0.4892597191875012	-0.5448783328285274
-0.4891986840312512	-0.5453583713783369
-0.4891376488750012	-0.5455863085478463
-0.4890766137187512	-0.5457129564241258
-0.4890155785625012	-0.5457506972211673
-0.4889545434062512	-0.5455576027698064
-0.4888935082500012	-0.5450913266558869
-0.4888324730937512	-0.5444783954496775
-0.4887714379375012	-0.5437862972993488
-0.4887104027812512	-0.5429091061927631
-0.4886493676250012	-0.5417605450281824
-0.4885883324687512	-0.5404234366014989
-0.4885272973125012	-0.538997530952421
-0.4884662621562512	-0.5374259147707047
-0.4884052270000012	-0.5356031678145872
-0.4883441918437512	-0.5335619877700593
-0.4882831566875012	-0.5314093766410852
-0.4882221215312512	-0.5291375653638108
-0.4881610863750012	-0.5266456537344305
-0.4881000512187512	-0.5239217038090944
-0.4880390160625012	-0.5210589951998708
-0.4879779809062512	-0.5180887106290899
-0.4879169457500012	-0.5149316611281952
-0.4878559105937512	-0.5115449698853544
-0.4877948754375012	-0.5079955200188833
-0.4877338402812512	-0.5043376275025159
-0.4876728051250012	-0.5005216431662554
-0.4876117699687512	-0.4964902150108433
-0.4875507348125012	-0.49228057556281896
-0.4874896996562512	-0.4879542866070798
-0.4874286645000012	-0.48349044452926304
-0.4873676293437512	-0.47883158336598736
-0.4873065941875012	-0.47398964223207285
-0.4872455590312512	-0.46902149562024775
-0.4871845238750012	-0.46392786189963403
-0.4871234887187512	-0.45865983284874795
-0.4870624535625012	-0.45321238348168896
-0.4870014184062512	-0.44763224132527557
-0.4869403832500012	-0.4419334667851687
-0.4868793480937512	-0.43607863886868137
-0.4868183129375012	-0.4300536573422169
-0.4867572777812512	-0.4238942660484471
-0.4866962426250012	-0.41762056019090527
-0.4866352074687512	-0.411205354974958
-0.4865741723125012	-0.4046313414960047
-0.4865131371562512	-0.39792616311693824
-0.4864521020000012	-0.39111216193480863
-0.4863910668437512	-0.3841686876717627
-0.4863300316875012	-0.37707696299046817
-0.4862689965312512	-0.3698600890771836
-0.4862079613750012	-0.36254245720293365
-0.4861469262187512	-0.35510733759090257
-0.4860858910625012	-0.3475336578474236
-0.4860248559062512	-0.33984123760306995
-0.4859638207500012	-0.3320577620168622
-0.4859027855937512	-0.32417005760986617
-0.4858417504375012	-0.3161532167330918
-0.4857807152812512	-0.30802353527176757
-0.4857196801250012	-0.2998139178535409
-0.4856586449687512	-0.2915161868063
-0.4855976098125012	-0.28309977229000505
-0.4855365746562512	-0.274574209560756
-0.4854755395000012	-0.26597804059798935
-0.4854145043437512	-0.25731210496198903
-0.4853534691875012	-0.2485415273434357
-0.4852924340312512	-0.2396654889119194
-0.4852313988750012	-0.23072569382945288
-0.4851703637187512	-0.2217350605645463
-0.4851093285625012	-0.21265762947883993
-0.4850482934062512	-0.20347955408930846
-0.4849872582500012	-0.19424156413801275
-0.4849262230937512	-0.1849703885408672
-0.4848651879375012	-0.17563362770118005
-0.4848041527812512	-0.1662035617836062
-0.4847431176250012	-0.1567148185941477
-0.4846820824687512	-0.14720796144404188
-0.4846210473125012	-0.13766001954065235
-0.4845600121562512	-0.12803073487927366
-0.4844989770000012	-0.11834240678310419
-0.4844379418437512	-0.10864642536378281
-0.4843769066875012	-0.09893496319983035
-0.4843158715312512	-0.08915945106635387
-0.4842548363750012	-0.07932486479302872
-0.4841938012187512	-0.06948789328464298
-0.4841327660625012	-0.05965973456099003
-0.4840717309062512	-0.04979027104210692
-0.4840106957500012	-0.03986484916095139
-0.4839496605937512	-0.029938006338278852
-0.4838886254375012	-0.020040561473881793
-0.4838275902812512	-0.01012832623349652
-0.4837665551250012	-0.00016773780595102073
-0.4837055199687512	0.009796038594804086
-0.4836444848125012	0.019714309137460147
-0.4835834496562512	0.029618428275967452
-0.4835224145000012	0.03955815816701117
-0.4834613793437512	0.049504790180430996
-0.4834003441875012	0.05939619833683602
-0.4833393090312512	0.06924406872559268
-0.4832782738750012	0.07910778223011017
-0.4832172387187512	0.08898035387674359
-0.4831562035625012	0.09879418607791207
-0.4830951684062512	0.10853822914092061
-0.4830341332500012	0.11827343594593062
-0.4829730980937512	0.128016256594145
-0.4829120629375012	0.1377015583618551
-0.4828510277812512	0.14729465594450536
-0.4827899926250012	0.15684985354266198
-0.4827289574687512	0.1664068301195018
-0.4826679223125012	0.17591170599754402
-0.4826068871562512	0.18530837697097458
-0.4825458520000012	0.19463573238591414
-0.4824848168437512	0.20395222331830332
-0.4824237816875012	0.2132231410139723
-0.4823627465312512	0.22237694026104127
-0.4823017113750012	0.23143044996668632
-0.4822406762187512	0.2404543405412515
-0.4821796410625012	0.24943883315364346
-0.4821186059062512	0.25830427405725553
-0.4820575707500012	0.26704052805689404
-0.4819965355937512	0.2757219128458013
-0.4819355004375012	0.28436716121111727
-0.4818744652812512	0.2928983109179586
-0.4818134301250012	0.3012766071260964
-0.4817523949687512	0.3095695973840473
-0.4816913598125012	0.31782429615709645
-0.4816303246562512	0.3259750089310739
-0.4815692895000012	0.33395622470950775
-0.4815082543437512	0.3418182345350388
-0.4814472191875012	0.34963286961810724
-0.4813861840312512	0.357357085146111
-0.4813251488750012	0.3649042536826235
-0.4812641137187512	0.37229773458974996
-0.4812030785625012	0.3796263769498584
-0.4811420434062512	0.3868781664673555
-0.4810810082500012	0.39395478417725627
-0.4810199730937512	0.40084565201256456
-0.4809589379375012	0.40764570144979995
-0.4808979027812512	0.4143795776031028
-0.4808368676250012	0.42095004338577274
-0.4807758324687512	0.4273090779671465
-0.4807147973125012	0.4335436793188047
-0.4806537621562512	0.43971603909972196
-0.4805927270000012	0.44574446799281214
-0.4805316918437512	0.4515453267449238
-0.4804706566875012	0.4571831169403439
-0.4804096215312512	0.4627529721306186
-0.4803485863750012	0.46820314248313794
-0.4802875512187512	0.4734219634642646
-0.4802265160625012	0.47843787758197276
-0.4801654809062512	0.48336850949701354
-0.4801044457500012	0.4882043148222206
-0.4800434105937512	0.4928188419248832
-0.4799823754375012	0.4971941061686729
-0.4799213402812512	0.5014543947898917
-0.4798603051250012	0.505640166826792
-0.4797992699687512	0.5096282349084095
-0.4797382348125012	0.5133495023286028
-0.4796771996562512	0.5169150516410446
-0.4796161645000012	0.5204164078151124
-0.4795551293437512	0.5237549641968096
-0.4794940941875012	0.5268139136224763
-0.4794330590312512	0.5296693347947645
-0.4793720238750012	0.532455557758342
-0.4793109887187512	0.5351196542428077
-0.4792499535625012	0.5375101125192218
-0.4791889184062512	0.5396486342515873
-0.4791278832500012	0.5416947685762447
-0.4790668480937512	0.5436579481509447
-0.4790058129375012	0.5453740298456438
-0.4789447777812512	0.5467975472538535
-0.4788837426250012	0.5480871644111774
-0.4788227074687512	0.5493223566965093
-0.4787616723125012	0.5503556118628515
-0.4787006371562512	0.5510728840761585
-0.4786396020000012	0.5516009787721695
-0.4785785668437512	0.5520838399370631
-0.4785175316875012	0.552421555695125
-0.4784564965312512	0.5524442917377443
-0.4783954613750012	0.5522176861790876
-0.4783344262187512	0.5519301489814346
-0.4782733910625012	0.5515553597303573
-0.4782123559062512	0.5508946243237773
-0.4781513207500012	0.5499315758128264
-0.4780902855937512	0.5488661567679197
-0.4780292504375012	0.5477595335897503
-0.4779682152812512	0.5464215976814113
-0.4779071801250012	0.544748562958217
-0.4778461449687512	0.5429118718348698
-0.4777851098125012	0.5410560698921522
-0.4777240746562512	0.5390400210037757
-0.4776630395000012	0.5366865424928177
-0.4776020043437512	0.5341002654817538
-0.4775409691875012	0.5314852961222346
-0.4774799340312512	0.5287829435679926
-0.4774188988750012	0.525775345149065
-0.4773578637187512	0.5224744176836145
-0.4772968285625012	0.5191041533295335
-0.4772357934062512	0.5157047240674258
-0.4771747582500012	0.5120617916219666
-0.4771137230937512	0.5080886682391996
-0.4770526879375012	0.5039827802108137
-0.4769916527812512	0.49987769675585275
-0.4769306176250012	0.49560861748706014
-0.4768695824687512	0.491007408968732
-0.4768085473125012	0.486202721692559
-0.4767475121562512	0.48139341772774014
-0.4766864770000012	0.47649922250499627
-0.4766254418437512	0.4713075543299814
-0.4765644066875012	0.46585297599118725
-0.4765033715312512	0.46035652167007046
-0.4764423363750012	0.4548367115136216
-0.4763813012187512	0.449082764121089
-0.4763202660625012	0.4430324030981928
-0.4762592309062512	0.43688237781002454
-0.4761981957500012	0.43074134268847164
-0.4761371605937512	0.42444400601130816
-0.4760761254375012	0.4178504479678272
-0.4760150902812512	0.4110947908592984
-0.4759540551250012	0.40434745711007497
-0.4758930199687512	0.3975194448725586
-0.4758319848125012	0.3904287964472198
-0.4757709496562512	0.3831255900956807
-0.4757099145000012	0.37580179424929055
-0.4756488793437512	0.3684554048762481
-0.4755878441875012	0.36090397988162926
-0.4755268090312512	0.35311352225182
-0.4754657738750012	0.3452574852867042
-0.4754047387187512	0.3374112669793901
-0.4753437035625012	0.32942847832627875
-0.4752826684062512	0.32120886551844385
-0.4752216332500012	0.3128758815069377
-0.4751605980937512	0.30455751392056046
-0.4750995629375012	0.296168009875112
-0.4750385277812512	0.28757091212882147
-0.4749774926250012	0.27882362403382277
-0.4749164574687512	0.27007387714425374
-0.4748554223125012	0.2613035128229974
-0.4747943871562512	0.2523727578191257
-0.4747333520000012	0.24327413744897777
-0.4746723168437512	0.2341441283849957
-0.4746112816875012	0.22502402224859472
-0.4745502465312512	0.21579840396490707
-0.4744892113750012	0.20640908582904452
-0.4744281762187512	0.19695816577601422
-0.4743671410625012	0.18752722607425198
-0.4743061059062512	0.17804257461680398
-0.4742450707500012	0.16841775585336263
-0.4741840355937512	0.15870950391083677
-0.4741230004375012	0.14901587326114307
-0.4740619652812512	0.13930939989658186
-0.4740009301250012	0.129498651348078
-0.4739398949687512	0.11959644244487257
-0.4738788598125012	0.10969587566814619
-0.4738178246562512	0.09980895380545222
-0.4737567895000012	0.08985750386555573
-0.4736957543437512	0.07982116351366134
-0.4736347191875012	0.06977385222154156
-0.4735736840312512	0.05975397518280893
-0.4735126488750012	0.04970672555229436
-0.4734516137187512	0.039592899385339594
-0.4733905785625012	0.029461346347135018
-0.4733295434062512	0.01936179901480557
-0.4732685082500012	0.00926386213492126
-0.4732074730937512	-0.000876532800814368
-0.4731464379375012	-0.011032728067753116
-0.4730854027812512	-0.021154848519325517
-0.4730243676250012	-0.031253700984644
-0.4729633324687512	-0.04136985353569641
-0.4729022973125012	-0.05149302208647339
-0.4728412621562512	-0.06157935896429897
-0.4727802270000012	-0.07162701055519546
-0.4727191918437512	-0.08166940669431874
-0.4726581566875012	-0.09170549109477642
-0.4725971215312512	-0.10169849613636286
-0.4725360863750012	-0.11164019715169628
-0.4724750512187512	-0.1215579757545223
-0.4724140160625012	-0.13145512959756844
-0.4723529809062512	-0.14129948125313926
-0.4722919457500012	-0.15107966323192423
-0.4722309105937512	-0.1608200876201842
-0.4721698754375012	-0.17052709018988774
-0.4721088402812512	-0.18017039275614727
-0.4720478051250012	-0.18973529765872596
-0.4719867699687512	-0.19924533381303272
-0.4719257348125012	-0.20871117575717174
-0.4718646996562512	-0.21810304155282115
-0.4718036645000012	-0.22740074348209613
-0.4717426293437512	-0.23662725467327347
-0.4716815941875012	-0.2458003448718867
-0.4716205590312512	-0.25489206549079174
-0.4715595238750012	-0.26387417420357007
-0.4714984887187512	-0.27276632912416776
-0.4714374535625012	-0.28159517106807586
-0.4713764184062512	-0.29033821659014847
-0.4713153832500012	-0.29895852592409144
-0.4712543480937512	-0.3074684016956379
-0.4711933129375012	-0.31590290601326804
-0.4711322777812512	-0.32424936357586076
-0.4710712426250012	-0.33246370524671764
-0.4710102074687512	-0.34054660070874593
-0.4709491723125012	-0.34853894603847674
-0.4708881371562512	-0.356441759794074
-0.4708271020000012	-0.36420754385377135
-0.4707660668437512	-0.37182210230488966
-0.4707050316875012	-0.37932738360084206
-0.4706439965312512	-0.38674063139524656
-0.4705829613750012	-0.39401663850575563
-0.4705219262187512	-0.40112478229760196
-0.4704608910625012	-0.4081018261566674
-0.4703998559062512	-0.41498168890508363
-0.4703388207500012	-0.42172819332320377
-0.4702777855937512	-0.42829534657132107
-0.4702167504375012	-0.43470756880142825
-0.4701557152812512	-0.4410123572897683
-0.4700946801250012	-0.447189359952997
-0.4700336449687512	-0.4531823445048894
-0.4699726098125012	-0.4589980726597456
-0.4699115746562512	-0.4646915703282891
-0.4698505395000012	-0.47026228391835967
-0.4697895043437512	-0.47565013690026037
-0.4697284691875012	-0.4808410678460579
-0.4696674340312512	-0.4858904865490652
-0.4696063988750012	-0.4908196957848597
-0.4695453637187512	-0.4955728497040776
