Time	Frequency
-0.5000009364375018	0.5487268487052317
-0.49993990128125176	0.5441364547741627
-0.49987886612500176	0.539229503114484
-0.49981783096875176	0.5340804018433705
-0.49975679581250176	0.5287777299224616
-0.49969576065625176	0.5232963311749619
-0.49963472550000176	0.5175415773257525
-0.49957369034375176	0.5114946844609153
-0.49951265518750176	0.5052412370743401
-0.49945162003125176	0.49884481357186694
-0.49939058487500176	0.4922577028691596
-0.49932954971875176	0.48539927763107604
-0.49926851456250176	0.4782803382147413
-0.49920747940625176	0.47098807480037697
-0.49914644425000176	0.4635587945577254
-0.49908540909375176	0.45593057274455945
-0.49902437393750176	0.44804303144465374
-0.49896333878125176	0.4399313977748316
-0.49890230362500176	0.4316758038053552
-0.49884126846875176	0.42328594163937455
-0.49878023331250176	0.41469424300412333
-0.49871919815625176	0.4058640502586559
-0.49865816300000176	0.39684829228425034
-0.49859712784375176	0.38771313411097336
-0.49853609268750176	0.37844483260731215
-0.49847505753125176	0.36897877629548215
-0.49841402237500176	0.35930309328010385
-0.49835298721875176	0.34948037832841455
-0.49829195206250176	0.3395580421939928
-0.49823091690625176	0.32950439488721595
-0.49816988175000176	0.31926496881387
-0.49810884659375176	0.30885089120595793
-0.49804781143750176	0.2983261770458653
-0.49798677628125176	0.2877166760598256
-0.49792574112500176	0.2769795174566966
-0.49786470596875176	0.26607634845331074
-0.49780367081250176	0.25503729661741015
-0.49774263565625176	0.24392057649313797
-0.49768160050000176	0.23273150501052195
-0.49762056534375176	0.2214231604041213
-0.49755953018750176	0.20997531586851875
-0.49749849503125176	0.1984312667630665
-0.49743745987500176	0.18683833510569167
-0.49737642471875176	0.17518380592378424
-0.49731538956250176	0.1634229399891038
-0.49725435440625176	0.15155473157055016
-0.49719331925000176	0.13962999002906215
-0.49713228409375176	0.12768100528063403
-0.49707124893750176	0.11568074195824418
-0.49701021378125176	0.10359284627941355
-0.49694917862500176	0.0914347744578522
-0.49688814346875176	0.07925776029566976
-0.49682710831250176	0.06707591397047946
-0.49676607315625176	0.05485338205588995
-0.49670503800000176	0.04256778725981099
-0.49664400284375176	0.030252175250817907
-0.49658296768750176	0.01795210006558046
-0.49652193253125176	0.005663874273418799
-0.49646089737500176	-0.006651730341663888
-0.49639986221875176	-0.019001267586577216
-0.49633882706250176	-0.03134047796585897
-0.49627779190625176	-0.043634176904999294
-0.49621675675000176	-0.05590227523601793
-0.49615572159375176	-0.06818113905542733
-0.49609468643750176	-0.08045954108069699
-0.49603365128125176	-0.09268773933600766
-0.49597261612500176	-0.10484590948623529
-0.49591158096875176	-0.11696688117600622
-0.49585054581250176	-0.1290778710152577
-0.49578951065625176	-0.14115037882218054
-0.49572847550000176	-0.1531356567183976
-0.49566744034375176	-0.16503167575606362
-0.49560640518750176	-0.17687874279150992
-0.49554537003125176	-0.18869014752288288
-0.49548433487500176	-0.20042362600480684
-0.49542329971875176	-0.21203791690882828
-0.49536226456250176	-0.22354876765418666
-0.49530122940625176	-0.23499781913851894
-0.49524019425000176	-0.24638095315972514
-0.49517915909375176	-0.25764620582001213
-0.49511812393750176	-0.2687653867789098
-0.49505708878125176	-0.27977055034664483
-0.49499605362500176	-0.2906987564319298
-0.49493501846875176	-0.3015278737294536
-0.49487398331250176	-0.312202036271093
-0.49481294815625176	-0.32270986873638174
-0.49475191300000176	-0.33309596147953446
-0.49469087784375176	-0.3433862696396283
-0.49462984268750176	-0.3535407130227168
-0.49456880753125176	-0.3635066046146827
-0.49450777237500176	-0.37329273958358167
-0.49444673721875176	-0.38295071670314773
-0.49438570206250176	-0.3924901273271088
-0.49432466690625176	-0.40185626811633446
-0.49426363175000176	-0.41100630974316316
-0.49420259659375176	-0.4199694062452447
-0.49414156143750176	-0.42879766869160163
-0.49408052628125176	-0.4374805486108602
-0.49401949112500176	-0.44595345827909927
-0.49395845596875176	-0.4541899370549892
-0.49389742081250176	-0.46223786185581894
-0.49383638565625176	-0.4701422644598214
-0.49377535050000176	-0.4778703786506284
-0.49371431534375176	-0.48535456696674983
-0.49365328018750176	-0.49259036343723833
-0.49359224503125176	-0.4996401830180387
-0.49353120987500176	-0.5065342890750535
-0.49347017471875176	-0.5132185844954714
-0.49340913956250176	-0.5196309529418972
-0.49334810440625176	-0.5257921123667889
-0.49328706925000176	-0.531771591919477
-0.49322603409375176	-0.5375779414583507
-0.49316499893750176	-0.5431399375755113
-0.49310396378125176	-0.5484100361324629
-0.49304292862500176	-0.5534343037765774
-0.49298189346875176	-0.5582805578667598
-0.49292085831250176	-0.5629314365441508
-0.49285982315625176	-0.5673055246774066
-0.49279878800000176	-0.5713774563500894
-0.49273775284375176	-0.5752153840724967
-0.49267671768750176	-0.5788760274309978
-0.49261568253125176	-0.58231462420829
-0.49255464737500176	-0.5854484463396901
-0.49249361221875176	-0.5882804131053448
-0.49243257706250176	-0.5908947929270398
-0.49237154190625176	-0.593328187177137
-0.49231050675000176	-0.5955102299952578
-0.49224947159375176	-0.597366872138165
-0.49218843643750176	-0.5989322820628482
-0.49212740128125176	-0.6002979805158716
-0.49206636612500176	-0.6014729898579322
-0.49200533096875176	-0.6023669496594759
-0.49194429581250176	-0.6029250240985224
-0.49188326065625176	-0.6032120322086733
-0.49182222550000176	-0.6033158678036108
-0.49176119034375176	-0.6032132713514357
-0.49170015518750176	-0.6028023354108857
-0.49163912003125176	-0.6020563698749157
-0.49157808487500176	-0.601066895352857
-0.49151704971875176	-0.5999071315538169
-0.49145601456250176	-0.5985200886491019
-0.49139497940625176	-0.5968029260949951
-0.49133394425000176	-0.5947637422943963
-0.49127290909375176	-0.5925131710576109
-0.49121187393750176	-0.5900992515671366
-0.49115083878125176	-0.5874337643382214
-0.49108980362500176	-0.5844249553413833
-0.49102876846875176	-0.5811191115821609
-0.49096773331250176	-0.5776351949470544
-0.49090669815625176	-0.573987295148531
-0.49084566300000176	-0.5700627864918392
-0.49078462784375176	-0.5657932409674165
-0.49072359268750176	-0.5612623720054221
-0.49066255753125176	-0.5565849164967603
-0.49060152237500176	-0.5517353526355626
-0.49054048721875176	-0.5465861747020884
-0.49047945206250176	-0.5411025368376847
-0.49041841690625176	-0.5354008616106467
-0.49035738175000176	-0.5295790652112277
-0.49029634659375176	-0.5235709590194001
-0.49023531143750176	-0.5172466050476778
-0.49017427628125176	-0.5106119547549488
-0.49011324112500176	-0.5038068907555872
-0.49005220596875176	-0.49690019260905866
-0.48999117081250176	-0.48978810486747154
-0.48993013565625176	-0.4823524695152611
-0.48986910050000176	-0.4746439868153932
-0.48980806534375176	-0.4668134484597794
-0.48974703018750176	-0.4588904004500285
-0.48968599503125176	-0.4507413477868036
-0.48962495987500176	-0.4422736551616066
-0.48956392471875176	-0.4335812983842586
-0.48950288956250176	-0.4248115267528194
-0.48944185440625176	-0.415949122929583
-0.48938081925000176	-0.4068425393162499
-0.48931978409375176	-0.39743609072812136
-0.48925874893750176	-0.38786094074220406
-0.48919771378125176	-0.3782460451977217
-0.48913667862500176	-0.36853036128070954
-0.48907564346875176	-0.35855872415297324
-0.48901460831250176	-0.3483201106150167
-0.48895357315625176	-0.3379717392281033
-0.48889253800000176	-0.32761112056450775
-0.48883150284375176	-0.3171361676277149
-0.48877046768750176	-0.3064036128973897
-0.48870943253125176	-0.295450125315091
-0.48864839737500176	-0.2844451650616815
-0.48858736221875176	-0.2734449471741417
-0.48852632706250176	-0.2623151371225279
-0.48846529190625176	-0.2509381473271009
-0.48840425675000176	-0.2393956312474606
-0.48834322159375176	-0.2278538459270564
-0.48828218643750176	-0.21632319855353765
-0.48822115128125176	-0.2046507803320853
-0.48816011612500176	-0.19275608105804679
-0.48809908096875176	-0.18075767674790072
-0.48803804581250176	-0.1688031995900332
-0.48797701065625176	-0.15685740365434647
-0.48791597550000176	-0.14476365967873375
-0.48785494034375176	-0.13248536766634
-0.48779390518750176	-0.12016671409105091
-0.48773287003125176	-0.10792445198531393
-0.48767183487500176	-0.09568314090334303
-0.48761079971875176	-0.08329740695551129
-0.48754976456250176	-0.07077596728641908
-0.48748872940625176	-0.05827421146382657
-0.48742769425000176	-0.045869819402305556
-0.48736665909375176	-0.033457206224095364
-0.48730562393750176	-0.020915107910673525
-0.48724458878125176	-0.008294123931554332
-0.48718355362500176	0.004253673609233857
-0.48712251846875176	0.016693588670026016
-0.48706148331250176	0.029148930994094442
-0.48700044815625176	0.04170737912438862
-0.48693941300000176	0.054284547428396744
-0.48687837784375176	0.06674470550145238
-0.48681734268750176	0.07909411341510517
-0.48675630753125176	0.0914600574124573
-0.48669527237500176	0.10389214785324821
-0.48663423721875176	0.11628364025351065
-0.48657320206250176	0.12852517374944716
-0.48651216690625176	0.14065782177135666
-0.48645113175000176	0.15280035148310406
-0.48639009659375176	0.16496423713121475
-0.48632906143750176	0.17703227364258875
-0.48626802628125176	0.18892768433041554
-0.48620699112500176	0.2007182848320007
-0.48614595596875176	0.21250403322720604
-0.48608492081250176	0.22426104991860252
-0.48602388565625176	0.23587346970336318
-0.48596285050000176	0.24729978480651732
-0.48590181534375176	0.25862403587129507
-0.48584078018750176	0.2699203866860836
-0.48577974503125176	0.2811369610936892
-0.48571870987500176	0.29216945773261743
-0.48565767471875176	0.3030095069530186
-0.48559663956250176	0.31374632343138537
-0.48553560440625176	0.3244245622949735
-0.48547456925000176	0.33497327571275515
-0.48541353409375176	0.3453080120572276
-0.48535249893750176	0.3554492719418331
-0.48529146378125176	0.36548187159908224
-0.48523042862500176	0.3754206831377105
-0.48516939346875176	0.3851846167658428
-0.48510835831250176	0.3947135573371699
-0.48504732315625176	0.4040501099931073
-0.48498628800000176	0.4132665500708447
-0.48492525284375176	0.4223507384579065
-0.48486421768750176	0.43122136506672704
-0.48480318253125176	0.4398452330216537
-0.48474214737500176	0.44827892081475484
-0.48468111221875176	0.4565757230045304
-0.48462007706250176	0.4647011140089758
-0.48455904190625176	0.47258194592725866
-0.48449800675000176	0.4802112319489005
-0.48443697159375176	0.4876509387404
-0.48437593643750176	0.4949323997687862
-0.48431490128125176	0.502005979522343
-0.48425386612500176	0.5088130858235614
-0.48419283096875176	0.5153690304608074
-0.48413179581250176	0.5217329874326406
-0.48407076065625176	0.5279138406949027
-0.48400972550000176	0.5338546108082652
-0.48394869034375176	0.5395158764460565
-0.48388765518750176	0.5449301193861887
-0.48382662003125176	0.5501469122051429
-0.48376558487500176	0.5551545606414207
-0.48370454971875176	0.5598960999559202
-0.48364351456250176	0.5643528046170444
-0.48358247940625176	0.5685679683546664
-0.48352144425000176	0.5725769479208903
-0.48346040909375176	0.5763513210538609
-0.48339937393750176	0.5798407569667888
-0.48333833878125176	0.583046974721566
-0.48327730362500176	0.5860175279285453
-0.48321626846875176	0.5887705852664833
-0.48315523331250176	0.5912659879150365
-0.48309419815625176	0.5934655441113112
-0.48303316300000176	0.595389267263661
-0.48297212784375176	0.5970822367998508
-0.48291109268750176	0.5985441491121802
-0.48285005753125176	0.5997293207283234
-0.48278902237500176	0.6006159638363064
-0.48272798721875176	0.6012382351388716
-0.48266695206250176	0.6016327381085268
-0.48260591690625176	0.6017820359702348
-0.48254488175000176	0.6016414162051463
-0.48248384659375176	0.6012073928906306
-0.48242281143750176	0.6005228800620436
-0.48236177628125176	0.5996113162690895
-0.48230074112500176	0.5984410143799953
-0.48223970596875176	0.5969744660045169
-0.48217867081250176	0.5952267565369981
-0.48211763565625176	0.5932433420936818
-0.48205660050000176	0.591031219223215
-0.48199556534375176	0.5885491163739336
-0.48193453018750176	0.5857721382914249
-0.48187349503125176	0.5827319332388626
-0.48181245987500176	0.5794702865371101
-0.48175142471875176	0.5759767104041826
-0.48169038956250176	0.5722060356527983
-0.48162935440625176	0.5681499121632314
-0.48156831925000176	0.5638527064633415
-0.48150728409375176	0.5593464225552814
-0.48144624893750176	0.5546037894221103
-0.48138521378125176	0.5495823387920072
-0.48132417862500176	0.5442929131523631
-0.48126314346875176	0.5387871708961768
-0.48120210831250176	0.5330820633067163
-0.48114107315625176	0.5271365944602112
-0.48108003800000176	0.5209176078079408
-0.48101900284375176	0.5144551440100327
-0.48095796768750176	0.5078017284713692
-0.48089693253125176	0.500956010397785
-0.48083589737500176	0.4938678735370405
-0.48077486221875176	0.4865190756006333
-0.48071382706250176	0.4789567567339136
-0.48065279190625176	0.47122727878684734
-0.48059175675000176	0.4633099243639295
-0.48053072159375176	0.4551522472309837
-0.48046968643750176	0.4467552473260802
-0.48040865128125176	0.4381787318640888
-0.48034761612500176	0.42945635864276055
-0.48028658096875176	0.4205486219491811
-0.48022554581250176	0.41140745329156275
-0.48016451065625176	0.4020561221671759
-0.48010347550000176	0.3925614801420127
-0.48004244034375176	0.3829382472006864
-0.47998140518750176	0.3731312129415414
-0.47992037003125176	0.3631048817304905
-0.47985933487500176	0.35290527414054335
-0.47979829971875176	0.34259801845086185
-0.47973726456250176	0.332174604031024
-0.47967622940625176	0.32157022016519937
-0.47961519425000176	0.31076892523920346
-0.47955415909375176	0.2998366882417045
-0.47949312393750176	0.28882941336389956
-0.47943208878125176	0.27771398212237636
-0.47937105362500176	0.26642409181155885
-0.47931001846875176	0.2549687012297575
-0.47924898331250176	0.2434278263928428
-0.47918794815625176	0.23183916262304344
-0.47912691300000176	0.22014678990585948
-0.47906587784375176	0.20829234437874586
-0.47900484268750176	0.19631236515107237
-0.47894380753125176	0.1842925878740715
-0.47888277237500176	0.17224567623350748
-0.47882173721875176	0.16009795781842712
-0.47876070206250176	0.14780835240076529
-0.47869966690625176	0.13544056197902693
-0.47863863175000176	0.12307638423264129
-0.47857759659375176	0.11069875802371747
-0.47851656143750176	0.09822336399733779
-0.47845552628125176	0.08563448522275534
-0.47839449112500176	0.07301954163669527
-0.47833345596875176	0.06044635674719773
-0.47827242081250176	0.04786698140919817
-0.47821138565625176	0.03519660979174158
-0.47815035050000176	0.02245112241371682
-0.47808931534375176	0.009733804873971783
-0.47802828018750176	-0.0029119507203309663
-0.47796724503125176	-0.015562061570527516
-0.47790620987500176	-0.02829024191335029
-0.47784517471875176	-0.0410465857965016
-0.47778413956250176	-0.053722174926745525
-0.47772310440625176	-0.06630571407106302
-0.47766206925000176	-0.07889484301928974
-0.47760103409375176	-0.09154114108204206
-0.47753999893750176	-0.10416142093610951
-0.47747896378125176	-0.11665270176913306
-0.47741792862500176	-0.12904075864845538
-0.47735689346875176	-0.14143588730193513
-0.47729585831250176	-0.1538581087084307
-0.47723482315625176	-0.16619578468495153
-0.47717378800000176	-0.17836444458896608
-0.47711275284375176	-0.1904281999200294
-0.47705171768750176	-0.20249751252145265
-0.47699068253125176	-0.21455366053560554
-0.47692964737500176	-0.22646578353796154
-0.47686861221875176	-0.23817951464579548
-0.47680757706250176	-0.24979389219452505
-0.47674654190625176	-0.2614064127617455
-0.47668550675000176	-0.27295644232695326
-0.47662447159375176	-0.2843054668865167
-0.47656343643750176	-0.2954381986786585
-0.47650240128125176	-0.30648154823811957
-0.47644136612500176	-0.31750782990965354
-0.47638033096875176	-0.3284160535059232
-0.47631929581250176	-0.3390736843562151
-0.47625826065625176	-0.3495097729030491
-0.47619722550000176	-0.359867323194252
-0.47613619034375176	-0.37018169857782973
-0.47607515518750176	-0.3803176271776026
-0.47601412003125176	-0.39016379215752284
-0.47595308487500176	-0.39979520280530945
-0.47589204971875176	-0.40935669258907803
-0.47583101456250176	-0.41883855237780193
-0.47576997940625176	-0.4280817467927979
-0.47570894425000176	-0.43700912693741617
-0.47564790909375176	-0.44573726992312157
-0.47558687393750176	-0.45439791360727955
-0.47552583878125176	-0.46293360138177153
-0.47546480362500176	-0.47117536649710123
-0.47540376846875176	-0.4790897790370306
-0.47534273331250176	-0.4868256229866223
-0.47528169815625176	-0.4944870868556331
-0.47522066300000176	-0.5019713111872666
-0.47515962784375176	-0.5091154558385782
-0.47509859268750176	-0.5159356636369676
-0.47503755753125176	-0.5225997690147861
-0.47497652237500176	-0.5291721425607205
-0.47491548721875176	-0.5355117638303001
-0.47485445206250176	-0.5414776000740873
-0.47479341690625176	-0.5471354425383157
-0.47473238175000176	-0.5526565205449748
-0.47467134659375176	-0.5580581561823926
-0.47461031143750176	-0.5631736370088081
-0.47454927628125176	-0.567897050554189
-0.47448824112500176	-0.5723378370178387
-0.47442720596875176	-0.576654276957714
-0.47436617081250176	-0.5808146125759767
-0.47430513565625176	-0.5846419730231294
-0.47424410050000176	-0.5880752307213616
-0.47418306534375176	-0.5912565947433064
-0.47412203018750176	-0.5943165457110337
-0.47406099503125176	-0.5971778743536234
-0.47399995987500176	-0.5996699918243155
-0.47393892471875176	-0.6017809901566884
-0.47387788956250176	-0.6036718009386646
-0.47381685440625176	-0.6054341023330015
-0.47375581925000176	-0.6069541087974599
-0.47369478409375176	-0.6080826325434145
-0.47363374893750176	-0.6088551800797507
-0.47357271378125176	-0.609435542097515
-0.47351167862500176	-0.6098707933048407
-0.47345064346875176	-0.610023360925692
-0.47338960831250176	-0.6097774463161352
-0.47332857315625176	-0.6092093360087117
-0.47326753800000176	-0.608470642862567
-0.47320650284375176	-0.6075631217531612
-0.47314546768750176	-0.6063399612611582
-0.47308443253125176	-0.6047263485259758
-0.47302339737500176	-0.6028286002839826
-0.47296236221875176	-0.600773682262491
-0.47290132706250176	-0.5985226857614498
-0.47284029190625176	-0.5959339210854152
-0.47277925675000176	-0.5929758002525948
-0.47271822159375176	-0.5897716348428136
-0.47265718643750176	-0.5864153038972071
-0.47259615128125176	-0.5828359885561499
-0.47253511612500176	-0.5789095227919349
-0.47247408096875176	-0.5746449534690349
-0.47241304581250176	-0.5701694053331208
-0.47235201065625176	-0.5655397762182942
-0.47229097550000176	-0.5606640600185876
-0.47222994034375176	-0.5554446968106405
-0.47216890518750176	-0.5499254643560904
-0.47210787003125176	-0.5442253785388387
-0.47204683487500176	-0.5383642692332508
-0.47198579971875176	-0.53224070758753
-0.47192476456250176	-0.5257893815010656
-0.47186372940625176	-0.5190797895019094
-0.47180269425000176	-0.5122130279789604
-0.47174165909375176	-0.5051759082669092
-0.47168062393750176	-0.497868945590198
-0.47161958878125176	-0.49026071112740655
-0.47155855362500176	-0.4824362656962354
-0.47149751846875176	-0.4744722376482363
-0.47143648331250176	-0.46632924824933697
-0.47137544815625176	-0.4579194822026745
-0.47131441300000176	-0.44924321857341354
-0.47125337784375176	-0.4403903903500639
-0.47119234268750176	-0.4314098183098159
-0.47113130753125176	-0.4222442480316981
-0.47107027237500176	-0.41282486600680635
-0.47100923721875176	-0.4031794784860444
-0.47094820206250176	-0.3933936548933277
-0.47088716690625176	-0.38348804032578965
-0.47082613175000176	-0.37339679858225855
-0.47076509659375176	-0.36307503783331846
-0.47070406143750176	-0.3525709611514174
-0.47064302628125176	-0.3419573028766941
-0.47058199112500176	-0.33122921317473286
-0.47052095596875176	-0.3203213295529723
-0.47045992081250176	-0.30921410759338613
-0.47039888565625176	-0.29796815698013335
-0.47033785050000176	-0.28663839668474855
-0.47027681534375176	-0.2752000119871909
