Time	Frequency
-0.5000247941562534	-1.425609213317916e-23
-0.49996375900000345	-1.4640390341339864e-23
-0.49990272384375345	-1.5022952953363263e-23
-0.49984168868750345	-1.5400039893943652e-23
-0.49978065353125345	-1.576719824924355e-23
-0.49971961837500345	-1.6124045570427738e-23
-0.49965858321875345	-1.647446145469988e-23
-0.49959754806250345	-1.6822046334650508e-23
-0.49953651290625345	-1.7165957451863358e-23
-0.49947547775000345	-1.75017407697343e-23
-0.49941444259375345	-1.7826164185299813e-23
-0.49935340743750345	-1.8140620078047624e-23
-0.49929237228125345	-1.8449340650585513e-23
-0.49923133712500345	-1.8754501867575506e-23
-0.49917030196875345	-1.9053709504021816e-23
-0.49910926681250345	-1.9342599152429693e-23
-0.49904823165625345	-1.9619557053217384e-23
-0.49898719650000345	-1.9887296672406385e-23
-0.49892616134375345	-2.0149626060252233e-23
-0.49886512618750345	-2.0407093807280843e-23
-0.49880409103125345	-2.0656340195675793e-23
-0.49874305587500345	-2.0893769314125743e-23
-0.49868202071875345	-2.1119391288763122e-23
-0.49862098556250345	-2.1336602484190036e-23
-0.49855995040625345	-2.1548248307020083e-23
-0.49849891525000345	-2.1753403626671827e-23
-0.49843788009375345	-2.1948396166745213e-23
-0.49837684493750345	-2.2130819905667994e-23
-0.49831580978125345	-2.2302039720312053e-23
-0.49825477462500345	-2.246548770222899e-23
-0.49819373946875345	-2.2622749282034982e-23
-0.49813270431250345	-2.277180605397949e-23
-0.49807166915625345	-2.290929448461786e-23
-0.49801063400000345	-2.3034160616450735e-23
-0.49794959884375345	-2.3148655065038457e-23
-0.49788856368750345	-2.3255684974574e-23
-0.49782752853125345	-2.3355563754280153e-23
-0.49776649337500345	-2.3445726068694753e-23
-0.49770545821875345	-2.3523588102514292e-23
-0.49764442306250345	-2.358930672714022e-23
-0.49758338790625345	-2.364544690060126e-23
-0.49752235275000345	-2.369405713399465e-23
-0.49746131759375345	-2.373444537506621e-23
-0.49740028243750345	-2.3764033278235913e-23
-0.49733924728125345	-2.3781212160528183e-23
-0.49727821212500345	-2.37870133106312e-23
-0.49721717696875345	-2.378385190929424e-23
-0.49715614181250345	-2.377284846590535e-23
-0.49709510665625345	-2.3752686192590893e-23
-0.49703407150000345	-2.37211558086385e-23
-0.49697303634375345	-2.3677582232583298e-23
-0.49691200118750345	-2.3623475140440986e-23
-0.49685096603125345	-2.356080665250892e-23
-0.49678993087500345	-2.3489899930026764e-23
-0.49672889571875345	-2.340920646827587e-23
-0.49666786056250345	-2.33170925442643e-23
-0.49660682540625345	-2.3213610582086193e-23
-0.49654579025000345	-2.31003783636514e-23
-0.49648475509375345	-2.2978816548809482e-23
-0.49642371993750345	-2.284871358193612e-23
-0.49636268478125345	-2.2708605874919068e-23
-0.49630164962500345	-2.255744788574436e-23
-0.49624061446875345	-2.239573382792789e-23
-0.49617957931250345	-2.2224941268036572e-23
-0.49611854415625345	-2.204599894828361e-23
-0.49605750900000345	-2.1858438019903734e-23
-0.49599647384375345	-2.1661049553137527e-23
-0.49593543868750345	-2.1453258484847678e-23
-0.49587440353125345	-2.123575298150843e-23
-0.49581336837500345	-2.1009784824526546e-23
-0.49575233321875345	-2.0775950393276286e-23
-0.49569129806250345	-2.0533719229946392e-23
-0.49563026290625345	-2.0282136996872538e-23
-0.49556922775000345	-2.002092089975958e-23
-0.49550819259375345	-1.975081539318861e-23
-0.49544715743750345	-1.9472898272497268e-23
-0.49538612228125345	-1.918759748551551e-23
-0.49532508712500345	-1.889440471530248e-23
-0.49526405196875345	-1.8592533111784814e-23
-0.49520301681250345	-1.8281839720116733e-23
-0.49514198165625345	-1.7963090131863067e-23
-0.49508094650000345	-1.763730830309856e-23
-0.49501991134375345	-1.7304871697932696e-23
-0.49495887618750345	-1.69652638823895e-23
-0.49489784103125345	-1.6617736836813498e-23
-0.49483680587500345	-1.6262225982413572e-23
-0.49477577071875345	-1.5899587720151209e-23
-0.49471473556250345	-1.5530883974637136e-23
-0.49465370040625345	-1.515642580555578e-23
-0.49459266525000345	-1.477558264264515e-23
-0.49453163009375345	-1.4387594420110538e-23
-0.49447059493750345	-1.3992561696941738e-23
-0.49440955978125345	-1.3591550713051405e-23
-0.49434852462500345	-1.3185657867317396e-23
-0.49428748946875345	-1.2775005220605253e-23
-0.49422645431250345	-1.2358747022161085e-23
-0.49416541915625345	-1.1936132345563921e-23
-0.49410438400000345	-1.1507533360219962e-23
-0.49404334884375345	-1.1074300014065078e-23
-0.49398231368750345	-1.0637515451344756e-23
-0.49392127853125345	-1.0196974598170517e-23
-0.49386024337500345	-9.751559120211259e-24
-0.49379920821875345	-9.300661886745864e-24
-0.49373817306250345	-8.845100259047799e-24
-0.49367713790625345	-8.386471485645859e-24
-0.49361610275000345	-7.925608999360895e-24
-0.49355506759375345	-7.461839058826148e-24
-0.49349403243750345	-6.993905433670311e-24
-0.49343299728125345	-6.5215805743877215e-24
-0.49337196212500345	-6.046187503997757e-24
-0.49331092696875345	-5.569401438910014e-24
-0.49324989181250345	-5.0915926674663446e-24
-0.49318885665625345	-4.6115782442391974e-24
-0.49312782150000345	-4.128141809604752e-24
-0.49306678634375345	-3.64165328214336e-24
-0.49300575118750345	-3.1539434702145692e-24
-0.49294471603125345	-2.6665143560714578e-24
-0.49288368087500345	-2.1790507978019512e-24
-0.49282264571875345	-1.689945953042912e-24
-0.49276161056250345	-1.1983315210378325e-24
-0.49270057540625345	-7.053393778669811e-25
-0.49263954025000345	-2.131174902168894e-25
-0.49257850509375345	2.773506973249132e-25
-0.49251746993750345	7.671697267773526e-25
-0.49245643478125345	1.2580909822310352e-24
-0.49239539962500345	1.750284720907277e-24
-0.49233436446875345	2.241860918758844e-24
-0.49227332931250345	2.730728306137631e-24
-0.49221229415625345	3.216734128323734e-24
-0.49215125900000345	3.70165667606709e-24
-0.49209022384375345	4.18698561009794e-24
-0.49202918868750345	4.6719668060002096e-24
-0.49196815353125345	5.1541688640664064e-24
-0.49190711837500345	5.6319826146689874e-24
-0.49184608321875345	6.1062443964472344e-24
-0.49178504806250345	6.579107410567786e-24
-0.49172401290625345	7.051376314866718e-24
-0.49166297775000345	7.52131476255954e-24
-0.49160194259375345	7.986327292114402e-24
-0.49154090743750345	8.445678660255532e-24
-0.49147987228125345	8.901169530513877e-24
-0.49141883712500345	9.354913107071025e-24
-0.49135780196875345	9.806680115585305e-24
-0.49129676681250345	1.0253871629831392e-23
-0.49123573165625345	1.0694223349647618e-23
-0.49117469650000345	1.112819227528359e-23
-0.49111366134375345	1.1558279650049695e-23
-0.49105262618750345	1.198599843574142e-23
-0.49099159103125345	1.240990093050484e-23
-0.49093055587500345	1.2826950788677354e-23
-0.49086952071875345	1.323574940755685e-23
-0.49080848556250345	1.3637971446478454e-23
-0.49074745040625345	1.4036326567896342e-23
-0.49068641525000345	1.4431282417327356e-23
-0.49062538009375345	1.4820264537355287e-23
-0.49056434493750345	1.5200328743735388e-23
-0.49050330978125345	1.5571340959494555e-23
-0.49044227462500345	1.593602031539097e-23
-0.49038123946875345	1.6296703998135488e-23
-0.49032020431250345	1.6652472012472074e-23
-0.49025916915625345	1.69999444856897e-23
-0.49019813400000345	1.733691396945193e-23
-0.49013709884375345	1.7664726735299606e-23
-0.49007606368750345	1.7986667438465272e-23
-0.49001502853125345	1.8304084190522417e-23
-0.48995399337500345	1.861462746900318e-23
-0.48989295821875345	1.8914684152701653e-23
-0.48983192306250345	1.920333155441845e-23
-0.48977088790625345	1.948331717974291e-23
-0.48970985275000345	1.9757861645612977e-23
-0.48964881759375345	2.0026844592965163e-23
-0.48958778243750345	2.0286725825167155e-23
-0.48952674728125345	2.0534372897572292e-23
-0.48946571212500345	2.0770513792568158e-23
-0.48940467696875345	2.0998874423167608e-23
-0.48934364181250345	2.122188190056172e-23
-0.48928260665625345	2.1437747975006402e-23
-0.48922157150000345	2.1642298670744762e-23
-0.48916053634375345	2.1833575563698107e-23
-0.48909950118750345	2.2014017374689732e-23
-0.48903846603125345	2.2187681122903057e-23
-0.48897743087500345	2.2355562184925333e-23
-0.48891639571875345	2.2514303485988742e-23
-0.48885536056250345	2.2659842085798098e-23
-0.48879432540625345	2.2791945932657913e-23
-0.48873329025000345	2.291448660015433e-23
-0.48867225509375345	2.3031047959762934e-23
-0.48861121993750345	2.3140779972752184e-23
-0.48855018478125345	2.3239220529027e-23
-0.48848914962500345	2.3323242830463747e-23
-0.48842811446875345	2.3394581732033196e-23
-0.48836707931250345	2.3457907057271278e-23
-0.48830604415625345	2.3515536381761314e-23
-0.48824500900000345	2.3564735242108593e-23
-0.48818397384375345	2.3600711009238855e-23
-0.48812293868750345	2.3621990152537683e-23
-0.48806190353125345	2.3632115372087456e-23
-0.48800086837500345	2.3635688575807458e-23
-0.48793983321875345	2.3633169232006905e-23
-0.48787879806250345	2.3620300812789078e-23
-0.48781776290625345	2.359286866102481e-23
-0.48775672775000345	2.355146981376196e-23
-0.48769569259375345	2.3500902443526692e-23
-0.48763465743750345	2.3444810065107187e-23
-0.48757362228125345	2.3381581770496194e-23
-0.48751258712500345	2.330614608392768e-23
-0.48745155196875345	2.3215689697904503e-23
-0.48739051681250345	2.311288480449665e-23
-0.48732948165625345	2.3002964035815e-23
-0.48726844650000345	2.2887893353988345e-23
-0.48720741134375345	2.2764190229392714e-23
-0.48714637618750345	2.2626870952411076e-23
-0.48708534103125345	2.247510927748115e-23
-0.48702430587500345	2.2313239816767288e-23
-0.48696327071875345	2.214597479802009e-23
-0.48690223556250345	2.197320041853809e-23
-0.48684120040625345	2.1790184020214525e-23
-0.48678016525000345	2.1592960442791564e-23
-0.48671913009375345	2.1382861084758644e-23
-0.48665809493750345	2.1165112361607198e-23
-0.48659705978125345	2.0943078020939724e-23
-0.48653602462500345	2.0714603320865078e-23
-0.48647498946875345	2.0474554937758825e-23
-0.48641395431250345	2.0220684307412533e-23
-0.48635291915625345	1.9956239382038573e-23
-0.48629188400000345	1.968643033833639e-23
-0.48623084884375345	1.9412730111619608e-23
-0.48616981368750345	1.9131388434209566e-23
-0.48610877853125345	1.883779087004518e-23
-0.48604774337500345	1.8531746251534116e-23
-0.48598670821875345	1.8217794677903092e-23
-0.48592567306250345	1.7900248963593962e-23
-0.48586463790625345	1.7578555540805732e-23
-0.48580360275000345	1.7248126969216393e-23
-0.48574256759375345	1.6905645092325543e-23
-0.48568153243750345	1.6552886249849478e-23
-0.48562049728125345	1.6194841975549456e-23
-0.48555946212500345	1.583430419178967e-23
-0.48549842696875345	1.5468981220313236e-23
-0.48543739181250345	1.509430149073175e-23
-0.48537635665625345	1.470869325724811e-23
-0.48531532150000345	1.4315444982093292e-23
-0.48525428634375345	1.3919154053307704e-23
-0.48519325118750345	1.352080442575081e-23
-0.48513221603125345	1.3116953228588373e-23
-0.48507118087500345	1.2703831587511e-23
-0.48501014571875345	1.2281702042010522e-23
-0.48494911056250345	1.1854669088415104e-23
-0.48488807540625345	1.1426274593048056e-23
-0.48482704025000345	1.0995818089778157e-23
-0.48476600509375345	1.0559438769404118e-23
-0.48470496993750345	1.0114655359444772e-23
-0.48464393478125345	9.663263764372614e-24
-0.48458289962500345	9.209449059861856e-24
-0.48452186446875345	8.755340294800172e-24
-0.48446082931250345	8.298966199209063e-24
-0.48439979415625345	7.836758584105336e-24
-0.48433875900000345	7.36772512084047e-24
-0.48427772384375345	6.894686155638602e-24
-0.48421668868750345	6.421292624237173e-24
-0.48415565353125345	5.948224149014283e-24
-0.48409461837500345	5.4727787698370426e-24
-0.48403358321875345	4.992178767340647e-24
-0.48397254806250345	4.5068255499732765e-24
-0.48391151290625345	4.019955181185232e-24
-0.48385047775000345	3.534233658132634e-24
-0.48378944259375345	3.049127483797925e-24
-0.48372840743750345	2.561863171085948e-24
-0.48366737228125345	2.0707716727697262e-24
-0.48360633712500345	1.577273310987919e-24
-0.48354530196875345	1.0844195178808091e-24
-0.48348426681250345	5.937518668095326e-25
-0.48342323165625345	1.0394868624937365e-25
-0.48336219650000345	-3.873783013187316e-25
-0.48330116134375345	-8.808227239994491e-25
-0.48324012618750345	-1.3743919156892026e-24
-0.48317909103125345	-1.8655447869728667e-24
-0.48311805587500345	-2.353723147318703e-24
-0.48305702071875345	-2.840617029073926e-24
-0.48299598556250345	-3.328001727475102e-24
-0.48293495040625345	-3.815600841791029e-24
-0.48287391525000345	-4.301262807238778e-24
-0.48281288009375345	-4.783136243166079e-24
-0.48275184493750345	-5.261393871181911e-24
-0.48269080978125345	-5.737694750040987e-24
-0.48262977462500345	-6.213112840754392e-24
-0.48256873946875345	-6.686823639611043e-24
-0.48250770431250345	-7.156871868258896e-24
-0.48244666915625345	-7.622071358492836e-24
-0.48238563400000345	-8.082976890380914e-24
-0.48232459884375345	-8.540976889346138e-24
-0.48226356368750345	-8.996580734185582e-24
-0.48220252853125345	-9.44873479322974e-24
-0.48214149337500345	-9.895806164998837e-24
-0.48208045821875345	-1.0337104876605576e-23
-0.48201942306250345	-1.0773330030137772e-23
-0.48195838790625345	-1.1205554863810129e-23
-0.48189735275000345	-1.1633903327223295e-23
-0.48183631759375345	-1.2057290256225776e-23
-0.48177528243750345	-1.2474408837898746e-23
-0.48171424728125345	-1.2884873555867282e-23
-0.48165321212500345	-1.3289362300209612e-23
-0.48159217696875345	-1.3688699543499183e-23
-0.48153114181250345	-1.4082844750755543e-23
-0.48147010665625345	-1.4470781757418436e-23
-0.48140907150000345	-1.4851399329803852e-23
-0.48134803634375345	-1.5224445679788213e-23
-0.48128700118750345	-1.5590588773383268e-23
-0.48122596603125345	-1.5950551954346104e-23
-0.48116493087500345	-1.630420789290876e-23
-0.48110389571875345	-1.6650547618705256e-23
-0.48104286056250345	-1.698855557515806e-23
-0.48098182540625345	-1.73180943119419e-23
-0.48092079025000345	-1.7639903824036677e-23
-0.48085975509375345	-1.795469964161651e-23
-0.48079871993750345	-1.8262263520602223e-23
-0.48073768478125345	-1.8561489213796726e-23
-0.48067664962500345	-1.8851384910530734e-23
-0.48061561446875345	-1.913199665676011e-23
-0.48055457931250345	-1.9404256838942305e-23
-0.48049354415625345	-1.966887333865362e-23
-0.48043250900000345	-1.9925417512782054e-23
-0.48037147384375345	-2.017261424281484e-23
-0.48031043868750345	-2.0409571900671365e-23
-0.48024940353125345	-2.0636654465162015e-23
-0.48018836837500345	-2.0855023621051388e-23
-0.48012733321875345	-2.1065277718641848e-23
-0.48006629806250345	-2.1266646854521265e-23
-0.48000526290625345	-2.145767744478457e-23
-0.47994422775000345	-2.1637719802339797e-23
-0.47988319259375345	-2.1807592668077634e-23
-0.47982215743750345	-2.19686382264721e-23
-0.47976112228125345	-2.212115033459232e-23
-0.47970008712500345	-2.2263917313448003e-23
-0.47963905196875345	-2.239544467243999e-23
-0.47957801681250345	-2.2515551506920125e-23
-0.47951698165625345	-2.2625559455190067e-23
-0.47945594650000345	-2.272679748117784e-23
-0.47939491134375345	-2.2819036149495434e-23
-0.47933387618750345	-2.2900629131778142e-23
-0.47927284103125345	-2.2970278257959824e-23
-0.47921180587500345	-2.302847885394012e-23
-0.47915077071875345	-2.3076984676994388e-23
-0.47908973556250345	-2.3116823943613116e-23
-0.47902870040625345	-2.314707282806729e-23
-0.47896766525000345	-2.3165815536768615e-23
-0.47890663009375345	-2.3172276873875204e-23
-0.47884559493750345	-2.3167732629946816e-23
-0.47878455978125345	-2.315411342272059e-23
-0.47872352462500345	-2.313181885799074e-23
-0.47866248946875345	-2.3099215221394397e-23
-0.47860145431250345	-2.305444707590816e-23
-0.47854041915625345	-2.2997563994404637e-23
-0.47847938400000345	-2.2930540009577328e-23
-0.47841834884375345	-2.2855099338871453e-23
-0.47835731368750345	-2.2770766413665833e-23
-0.47829627853125345	-2.2675378800417902e-23
-0.47823524337500345	-2.2567553657031848e-23
-0.47817420821875345	-2.2448339910793374e-23
-0.47811317306250345	-2.2320135886065217e-23
-0.47805213790625345	-2.2184035450267674e-23
-0.47799110275000345	-2.2038600173193087e-23
-0.47793006759375345	-2.1881502103514727e-23
-0.47786903243750345	-2.1712237152625472e-23
-0.47780799728125345	-2.1532831110605645e-23
-0.47774696212500345	-2.134567074698268e-23
-0.47768592696875345	-2.1150865111520956e-23
-0.47762489181250345	-2.0946146407316482e-23
-0.47756385665625345	-2.0729499645670312e-23
-0.47750282150000345	-2.050158703878055e-23
-0.47744178634375345	-2.026516926430869e-23
-0.47738075118750345	-2.002210294279557e-23
-0.47731971603125345	-1.977130232688914e-23
-0.47725868087500345	-1.951002652718407e-23
-0.47719764571875345	-1.9237104021597002e-23
-0.47713661056250345	-1.8954450520577674e-23
-0.47707557540625345	-1.8665091992372328e-23
-0.47701454025000345	-1.836986466894703e-23
-0.47695350509375345	-1.8066538133151902e-23
-0.47689246993750345	-1.7752437848454346e-23
-0.47683143478125345	-1.742765773497593e-23
-0.47677039962500345	-1.7095184022596685e-23
-0.47670936446875345	-1.675770355548325e-23
-0.47664832931250345	-1.6414677821843542e-23
-0.47658729415625345	-1.6063043826485608e-23
-0.47652625900000345	-1.570083151502809e-23
-0.47646522384375345	-1.5329637240436107e-23
-0.47640418868750345	-1.4953077709119098e-23
-0.47634315353125345	-1.457287547410594e-23
-0.47628211837500345	-1.4187020163860776e-23
-0.47622108321875345	-1.3792169543460767e-23
-0.47616004806250345	-1.3387631278386646e-23
-0.47609901290625345	-1.2976420972540415e-23
-0.47603797775000345	-1.2562118255911149e-23
-0.47597694259375345	-1.2144990439238799e-23
-0.47591590743750345	-1.1721799973234555e-23
-0.47585487228125345	-1.1289632033407604e-23
-0.47579383712500345	-1.084946253588592e-23
-0.47573280196875345	-1.040535628166056e-23
-0.47567176681250345	-9.960113296244946e-24
-0.47561073165625345	-9.512266021751344e-24
-0.47554969650000345	-9.057875349916918e-24
-0.47548866134375345	-8.595190328735824e-24
-0.47542762618750345	-8.126931036679818e-24
-0.47536659103125345	-7.657524399429622e-24
-0.47530555587500345	-7.188325402013558e-24
-0.47524452071875345	-6.71623568469061e-24
-0.47518348556250345	-6.237373089592163e-24
-0.47512245040625345	-5.751723944863105e-24
-0.47506141525000345	-5.2634983830585336e-24
-0.47500038009375345	-4.776674342300075e-24
-0.47493934493750345	-4.290694121476807e-24
-0.47487830978125345	-3.801238690051633e-24
-0.47481727462500345	-3.3053135455706703e-24
-0.47475623946875345	-2.8049298726050326e-24
-0.47469520431250345	-2.305171118282181e-24
-0.47463416915625345	-1.808741132351871e-24
-0.47457313400000345	-1.3131000096433704e-24
-0.47451209884375345	-8.134935131863254e-25
-0.47445106368750345	-3.0856226375922924e-25
-0.47439002853125345	1.9780534987558508e-25
-0.47432899337500345	7.005455353397391e-25
-0.47426795821875345	1.1988826844273891e-24
-0.47420692306250345	1.697016915419731e-24
-0.47414588790625345	2.1991846239348983e-24
-0.47408485275000345	2.7046104473211917e-24
-0.47402381759375345	3.208071752287531e-24
-0.47396278243750345	3.7054943940745425e-24
-0.47390174728125345	4.198312043859627e-24
-0.47384071212500345	4.691658185478663e-24
-0.47377967696875345	5.1883584404842915e-24
-0.47371864181250345	5.685466921793101e-24
-0.47365760665625345	6.177282112022426e-24
-0.47359657150000345	6.66149623211618e-24
-0.47353553634375345	7.141585366578619e-24
-0.47347450118750345	7.622705434590389e-24
-0.47341346603125345	8.105649291949656e-24
-0.47335243087500345	8.585671777814727e-24
-0.47329139571875345	9.057552663606973e-24
-0.47323036056250345	9.521225451738781e-24
-0.47316932540625345	9.981627781412987e-24
-0.47310829025000345	1.0442934680310161e-23
-0.47304725509375345	1.0903649691523151e-23
-0.47298621993750345	1.1358044672759892e-23
-0.47292518478125345	1.1802339309952646e-23
-0.47286414962500345	1.2238710116154859e-23
-0.47280311446875345	1.2672625593687897e-23
-0.47274207931250345	1.3106493928912643e-23
-0.47268104415625345	1.353675653912723e-23
-0.47262000900000345	1.3957667936300924e-23
-0.47255897384375345	1.4367502589024126e-23
-0.47249793868750345	1.4770248832625487e-23
