Time	Frequency
-0.5000267021562479	-0.5485709968740261
-0.4999656669999979	-0.5436336951099631
-0.4999046318437479	-0.5384717171494218
-0.4998435966874979	-0.5330872750355744
-0.4997825615312479	-0.5274825652957846
-0.4997215263749979	-0.521659713213599
-0.4996604912187479	-0.5156209619414461
-0.4995994560624979	-0.5093687483721316
-0.4995384209062479	-0.5029055942790035
-0.4994773857499979	-0.49623413658514776
-0.4994163505937479	-0.4893572110725398
-0.4993553154374979	-0.4822776201395602
-0.4992942802812479	-0.47499809001248877
-0.4992332451249979	-0.4675216101178967
-0.4991722099687479	-0.45985125665724497
-0.4991111748124979	-0.45199000891225266
-0.4990501396562479	-0.44394105493274083
-0.4989891044999979	-0.4357077806134843
-0.4989280693437479	-0.42729359351544344
-0.4988670341874979	-0.4187019802607726
-0.4988059990312479	-0.4099364550497879
-0.4987449638749979	-0.4010004326881084
-0.4986839287187479	-0.3918974775713448
-0.4986228935624979	-0.382631469493085
-0.4985618584062479	-0.37320620939225946
-0.4985008232499979	-0.36362543173163164
-0.4984397880937479	-0.3538931930962379
-0.4983787529374979	-0.34401362654693807
-0.4983177177812479	-0.3339906978096447
-0.4982566826249979	-0.323828413772586
-0.4981956474687479	-0.31353088567995274
-0.4981346123124979	-0.30310236922686334
-0.4980735771562479	-0.2925473131238454
-0.4980125419999979	-0.28187008935514407
-0.4979515068437479	-0.2710748862870101
-0.4978904716874979	-0.2601660729920503
-0.4978294365312479	-0.24914833919956622
-0.4977684013749979	-0.23802636606154134
-0.4977073662187479	-0.2268046994671654
-0.4976463310624979	-0.21548787378535356
-0.4975852959062479	-0.20408047417837796
-0.4975242607499979	-0.1925871748579918
-0.4974632255937479	-0.1810127690574286
-0.4974021904374979	-0.1693621402876312
-0.4973411552812479	-0.15764004084861785
-0.4972801201249979	-0.14585124417347106
-0.4972190849687479	-0.134000810108948
-0.4971580498124979	-0.12209370168970006
-0.4970970146562479	-0.11013470914670001
-0.4970359794999979	-0.09812870619651147
-0.4969749443437479	-0.08608072591890283
-0.4969139091874979	-0.07399590872909252
-0.4968528740312479	-0.06187919271416955
-0.4967918388749979	-0.04973545374218872
-0.4967308037187479	-0.03756973287252964
-0.4966697685624979	-0.025387029096704306
-0.4966087334062479	-0.013192454418184297
-0.4965476982499979	-0.00099139933399237
-0.4964866630937479	0.011211035517435833
-0.4964256279374979	0.023410212183142015
-0.4963645927812479	0.035601041896741854
-0.4963035576249979	0.047778046341619626
-0.4962425224687479	0.05993627302652732
-0.4961814873124979	0.07207097714556672
-0.4961204521562479	0.08417704446647652
-0.4960594169999979	0.09624923863464034
-0.4959983818437479	0.10828255580245616
-0.4959373466874979	0.12027217769433511
-0.4958763115312479	0.13221317477295447
-0.4958152763749979	0.1441002984921972
-0.4957542412187479	0.1559283327049706
-0.4956932060624979	0.16769252989685354
-0.4956321709062479	0.17938816072027153
-0.4955711357499979	0.19101025122589468
-0.4955101005937479	0.2025539787921171
-0.4954490654374979	0.2140146429071181
-0.4953880302812479	0.225387473437519
-0.4953269951249979	0.2366676149912926
-0.4952659599687479	0.2478502157199943
-0.4952049248124979	0.25893067462340075
-0.4951438896562479	0.26990438504492703
-0.4950828544999979	0.28076648059990433
-0.4950218193437479	0.2915125101612069
-0.4949607841874979	0.3021383877766639
-0.4948997490312479	0.31263956972660845
-0.4948387138749979	0.3230114635498925
-0.4947776787187479	0.33324984381943207
-0.4947166435624979	0.34335034722790375
-0.4946556084062479	0.35330855953720053
-0.4945945732499979	0.36312033806092253
-0.4945335380937479	0.3727816201798023
-0.4944725029374979	0.38228836712285413
-0.4944114677812479	0.39163661783643794
-0.4943504326249979	0.40082249983841906
-0.4942893974687479	0.4098422387375422
-0.4942283623124979	0.4186919984326172
-0.4941673271562479	0.42736789808257386
-0.4941062919999979	0.43586621082706944
-0.4940452568437479	0.4441834122980876
-0.4939842216874979	0.4523161533203423
-0.4939231865312479	0.46026105992815036
-0.4938621513749979	0.46801463150835815
-0.4938011162187479	0.4755735075493442
-0.4937400810624979	0.4829345138114941
-0.4936790459062479	0.4900945701296909
-0.4936180107499979	0.49705079617576753
-0.4935569755937479	0.5038003041698852
-0.4934959404374979	0.5103400672607721
-0.4934349052812479	0.5166672926053548
-0.4933738701249979	0.5227794033757678
-0.4933128349687479	0.5286737931511042
-0.4932517998124979	0.5343479528964257
-0.4931907646562479	0.5397994401509902
-0.4931297294999979	0.5450258734167924
-0.4930686943437479	0.5500251384183
-0.4930076591874979	0.5547951883316672
-0.4929466240312479	0.559333854596441
-0.4928855888749979	0.5636391551573913
-0.4928245537187479	0.5677093820996691
-0.4927635185624979	0.5715428363769345
-0.4927024834062479	0.5751378174066123
-0.4926414482499979	0.5784927195113562
-0.4925804130937479	0.5816060970322848
-0.4925193779374979	0.5844767120611516
-0.4924583427812479	0.5871033421474197
-0.4923973076249979	0.5894847609948739
-0.4923362724687479	0.591619935251696
-0.4922752373124979	0.5935079807401764
-0.4922142021562479	0.5951480960080828
-0.4921531669999979	0.5965395614417062
-0.4920921318437479	0.5976817181075551
-0.4920310966874979	0.5985740343184024
-0.4919700615312479	0.5992161245604362
-0.4919090263749979	0.5996077119895054
-0.4918479912187479	0.5997486167316037
-0.4917869560624979	0.5996387291057964
-0.4917259209062479	0.5992780492023031
-0.4916648857499979	0.5986667165101547
-0.4916038505937479	0.5978049369523126
-0.4915428154374979	0.5966930269260851
-0.4914817802812479	0.5953314943184803
-0.4914207451249979	0.5937208700403608
-0.4913597099687479	0.5918617137831466
-0.4912986748124979	0.5897548152565728
-0.4912376396562479	0.5874010466796491
-0.4911766044999979	0.5848013678174263
-0.4911155693437479	0.5819569153131283
-0.4910545341874979	0.5788688066345586
-0.4909934990312479	0.5755382677565671
-0.4909324638749979	0.5719667097948015
-0.4908714287187479	0.5681555995807419
-0.4908103935624979	0.564106549749627
-0.4907493584062479	0.5598212271192556
-0.4906883232499979	0.5553013085576476
-0.4906272880937479	0.5505487237555926
-0.4905662529374979	0.5455655556029015
-0.4905052177812479	0.5403538497997087
-0.4904441826249979	0.5349157838675205
-0.4903831474687479	0.529253609843264
-0.4903221123124979	0.52336956325789
-0.4902610771562479	0.5172661086776555
-0.4902000419999979	0.5109459130686838
-0.4901390068437479	0.5044116434982916
-0.4900779716874979	0.4976659991177675
-0.4900169365312479	0.4907118309108239
-0.4899559013749979	0.48355209281260764
-0.4898948662187479	0.4761897307195742
-0.4898338310624979	0.4686277296257635
-0.4897727959062479	0.46086921751513704
-0.4897117607499979	0.4529175675657011
-0.4896507255937479	0.4447762467525653
-0.4895896904374979	0.4364486184487957
-0.4895286552812479	0.4279380897596617
-0.4894676201249979	0.419248267645448
-0.4894065849687479	0.41038287824243397
-0.4893455498124979	0.4013455345276811
-0.4892845146562479	0.39213991466867704
-0.4892234794999979	0.38277006308062755
-0.4891624443437479	0.37324007643079077
-0.4891014091874979	0.3635539838153571
-0.4890403740312479	0.3537158750320143
-0.4889793388749979	0.3437297308733505
-0.4889183037187479	0.33359958403021495
-0.4888572685624979	0.3233298026935041
-0.4887962334062479	0.3129248481167242
-0.4887351982499979	0.3023890531617644
-0.4886741630937479	0.2917268082392377
-0.4886131279374979	0.2809427884260957
-0.4885520927812479	0.27004176316865625
-0.4884910576249979	0.25902821624182004
-0.4884300224687479	0.24790662497353877
-0.4883689873124979	0.23668167575731922
-0.4883079521562479	0.22535796925625143
-0.4882469169999979	0.21394026004649508
-0.4881858818437479	0.20243362520512653
-0.4881248466874979	0.19084318135807382
-0.4880638115312479	0.17917391403712948
-0.4880027763749979	0.16743048962611373
-0.4879417412187479	0.15561754412096734
-0.4878807060624979	0.14374021843985801
-0.4878196709062479	0.1318039106114107
-0.4877586357499979	0.11981374626635376
-0.4876976005937479	0.10777453377161658
-0.4876365654374979	0.09569116414941198
-0.4875755302812479	0.08356893092431542
-0.4875144951249979	0.0714132481838538
-0.4874534599687479	0.05922929591850015
-0.4873924248124979	0.04702215034701176
-0.4873313896562479	0.034796957084037274
-0.4872703544999979	0.02255881527652356
-0.4872093193437479	0.010312881281892254
-0.4871482841874979	-0.0019354543407180162
-0.4870872490312479	-0.014180894002412537
-0.4870262138749979	-0.026418345124128502
-0.4869651787187479	-0.03864275631326426
-0.4869041435624979	-0.05084897212838146
-0.4868431084062479	-0.06303142610198985
-0.4867820732499979	-0.0751846379861498
-0.4867210380937479	-0.08730382557630016
-0.4866600029374979	-0.09938416463346637
-0.4865989677812479	-0.11142025929393636
-0.4865379326249979	-0.1234067553803597
-0.4864768974687479	-0.13533863489449804
-0.4864158623124979	-0.1472108680955876
-0.4863548271562479	-0.15901834764548914
-0.4862937919999979	-0.17075603700346512
-0.4862327568437479	-0.18241886125889012
-0.4861717216874979	-0.1940017366423345
-0.4861106865312479	-0.20549981464236006
-0.4860496513749979	-0.21690837788124956
-0.4859886162187479	-0.22822252066833906
-0.4859275810624979	-0.23943722111056592
-0.4858665459062479	-0.25054757009848094
-0.4858055107499979	-0.2615486891699654
-0.4857444755937479	-0.272435855422064
-0.4856834404374979	-0.28320468917924596
-0.4856224052812479	-0.2938508379735098
-0.4855613701249979	-0.3043696897011254
-0.4855003349687479	-0.31475637628373593
-0.4854392998124979	-0.32500613491465524
-0.4853782646562479	-0.3351147337241099
-0.4853172294999979	-0.34507816712354794
-0.4852561943437479	-0.35489210710482044
-0.4851951591874979	-0.3645521321754699
-0.4851341240312479	-0.3740541532643232
-0.4850730888749979	-0.38339411220541797
-0.4850120537187479	-0.3925678297928579
-0.4849510185624979	-0.401571369627168
-0.4848899834062479	-0.41040101921644995
-0.4848289482499979	-0.41905302492602176
-0.4847679130937479	-0.42752350953812734
-0.4847068779374979	-0.4358086485694022
-0.4846458427812479	-0.4439049606080481
-0.4845848076249979	-0.45180912072035645
-0.4845237724687479	-0.4595176463899123
-0.4844627373124979	-0.46702709518197455
-0.4844017021562479	-0.4743341588529976
-0.4843406669999979	-0.48143559751185716
-0.4842796318437479	-0.48832840029389923
-0.4842185966874979	-0.4950097218728063
-0.4841575615312479	-0.5014766788360903
-0.4840965263749979	-0.5077263867622177
-0.4840354912187479	-0.5137560558573336
-0.4839744560624979	-0.5195630133785478
-0.4839134209062479	-0.5251447197713919
-0.4838523857499979	-0.5304988124544812
-0.4837913505937479	-0.5356230047235453
-0.4837303154374979	-0.5405149595445955
-0.4836692802812479	-0.5451724625673803
-0.4836082451249979	-0.5495935029086978
-0.4835472099687479	-0.5537761197371805
-0.4834861748124979	-0.5577184574471503
-0.4834251396562479	-0.5614188466538073
-0.4833641044999979	-0.564875666961456
-0.4833030693437479	-0.5680873147787278
-0.4832420341874979	-0.5710523273990109
-0.4831809990312479	-0.5737693867366173
-0.4831199638749979	-0.5762372859064596
-0.4830589287187479	-0.5784549214835467
-0.4829978935624979	-0.5804212454120171
-0.4829368584062479	-0.5821353048601419
-0.4828758232499979	-0.5835963174479069
-0.4828147880937479	-0.584803645439357
-0.4827537529374979	-0.5857567274541168
-0.4826927177812479	-0.5864550799535508
-0.4826316826249979	-0.5868983079168764
-0.4825706474687479	-0.5870861327513889
-0.4825096123124979	-0.5870184451620454
-0.4824485771562479	-0.5866952197057784
-0.4823875419999979	-0.5861165098723697
-0.4823265068437479	-0.585282507494679
-0.4822654716874979	-0.5841934694242901
-0.4822044365312479	-0.5828497508838644
-0.4821434013749979	-0.5812518855599269
-0.4820823662187479	-0.5794005476455977
-0.4820213310624979	-0.577296518798642
-0.4819602959062479	-0.5749406851749287
-0.4818992607499979	-0.5723339400056293
-0.4818382255937479	-0.5694772376988027
-0.4817771904374979	-0.5663717611923978
-0.4817161552812479	-0.5630187721378473
-0.4816551201249979	-0.5594195907773074
-0.4815940849687479	-0.5555757128702569
-0.4815330498124979	-0.551488721886207
-0.4814720146562479	-0.5471603632470478
-0.4814109794999979	-0.5425925399253606
-0.4813499443437479	-0.537787149818785
-0.4812889091874979	-0.5327461766443039
-0.4812278740312479	-0.5274717462841881
-0.4811668388749979	-0.5219659664606222
-0.4811058037187479	-0.5162309836383214
-0.4810447685624979	-0.5102692582208082
-0.4809837334062479	-0.5040834403921428
-0.4809226982499979	-0.4976760343942665
-0.4808616630937479	-0.4910496182456724
-0.4808006279374979	-0.4842071105058322
-0.4807395927812479	-0.4771515746967193
-0.4806785576249979	-0.46988606998753757
-0.4806175224687479	-0.4624135385147676
-0.4805564873124979	-0.45473688511175947
-0.4804954521562479	-0.44685935470408333
-0.4804344169999979	-0.4387844597173543
-0.4803733818437479	-0.4305157073175214
-0.4803123466874979	-0.42205653378710367
-0.4802513115312479	-0.4134103472930803
-0.4801902763749979	-0.40458082225636405
-0.4801292412187479	-0.39557180790955104
-0.4800682060624979	-0.38638711716685775
-0.4800071709062479	-0.37703080761550206
-0.4799461357499979	-0.3675070478382255
-0.4798851005937479	-0.3578197659845975
-0.4798240654374979	-0.3479728599578718
-0.4797630302812479	-0.3379704370214813
-0.4797019951249979	-0.32781675460668463
-0.4796409599687479	-0.3175161576541482
-0.4795799248124979	-0.30707312476456805
-0.4795188896562479	-0.29649234571403965
-0.4794578544999979	-0.28577844652540296
-0.4793968193437479	-0.27493571916307763
-0.4793357841874979	-0.2639686160073305
-0.4792747490312479	-0.25288202933717474
-0.4792137138749979	-0.241680910696782
-0.4791526787187479	-0.23037011279812497
-0.4790916435624979	-0.21895427494354114
-0.4790306084062479	-0.20743786156170474
-0.4789695732499979	-0.1958258039940927
-0.4789085380937479	-0.1841236051353928
-0.4788475029374979	-0.17233654484273367
-0.4787864677812479	-0.16046950905176735
-0.4787254326249979	-0.14852730775896963
-0.4786643974687479	-0.13651482876146526
-0.4786033623124979	-0.12443742651231221
-0.4785423271562479	-0.11230071112903126
-0.4784812919999979	-0.10010986864572553
-0.4784202568437479	-0.08786984020291905
-0.4783592216874979	-0.07558582661724
-0.4782981865312479	-0.06326326484688408
-0.4782371513749979	-0.05090755330490433
-0.4781761162187479	-0.038523988717875254
-0.4781150810624979	-0.026117820245658133
-0.4780540459062479	-0.013694294390045814
-0.4779930107499979	-0.0012587964532589796
-0.4779319755937479	0.011183197440216994
-0.4778709404374979	0.023626177222922227
-0.4778099052812479	0.036064584571782986
-0.4777488701249979	0.04849309061489216
-0.4776878349687479	0.06090663752320584
-0.4776267998124979	0.07330003897965813
-0.4775657646562479	0.08566775049011913
-0.4775047294999979	0.0980042680998867
-0.4774436943437479	0.11030444633387039
-0.4773826591874979	0.12256290593983069
-0.4773216240312479	0.13477394891258976
-0.4772605888749979	0.14693223400963762
-0.4771995537187479	0.15903273095513834
-0.4771385185624979	0.17107037230165442
-0.4770774834062479	0.18303997137160916
-0.4770164482499979	0.19493625467305614
-0.4769554130937479	0.20675387406302526
-0.4768943779374979	0.2184875121151398
-0.4768333427812479	0.23013224807268565
-0.4767723076249979	0.2416833551265771
-0.4767112724687479	0.253135666386672
-0.4766502373124979	0.2644837828402093
-0.4765892021562479	0.2757226710040769
-0.4765281669999979	0.28684761193133246
-0.4764671318437479	0.2978539396338752
-0.4764060966874979	0.30873696229571945
-0.4763450615312479	0.31949186798354257
-0.4762840263749979	0.33011377367792466
-0.4762229912187479	0.3405979290448445
-0.4761619560624979	0.35093976657861614
-0.4761009209062479	0.36113480700231826
-0.4760398857499979	0.3711786394519317
-0.4759788505937479	0.3810668889425562
-0.4759178154374979	0.39079515074197013
-0.4758567802812479	0.40035904321914795
-0.4757957451249979	0.40975428507068623
-0.4757347099687479	0.4189768061552167
-0.4756736748124979	0.4280227337418878
-0.4756126396562479	0.43688814552983085
-0.4755516044999979	0.4455690258681849
-0.4754905693437479	0.4540614439098408
-0.4754295341874979	0.46236161531004355
-0.4753684990312479	0.4704658028342602
-0.4753074638749979	0.4783703484445193
-0.4752464287187479	0.4860718287784242
-0.4751853935624979	0.49356690758356214
-0.4751243584062479	0.5008522265146449
-0.4750633232499979	0.5079245689773548
-0.4750022880937479	0.5147808394117286
-0.4749412529374979	0.5214179500170762
-0.4748802177812479	0.5278328499275632
-0.4748191826249979	0.5340226159507865
-0.4747581474687479	0.5399845104954694
-0.4746971123124979	0.5457158503526404
-0.4746360771562479	0.55121393125243
-0.4745750419999979	0.5564762688019896
-0.4745140068437479	0.5615006120647256
-0.4744529716874979	0.5662847290997929
-0.4743919365312479	0.5708264273866925
-0.4743309013749979	0.5751235641999636
-0.4742698662187479	0.5791741159241022
-0.4742088310624979	0.5829762678630489
-0.4741477959062479	0.5865282597274025
-0.4740867607499979	0.5898284146024779
-0.4740257255937479	0.5928752310562535
-0.4739646904374979	0.595667240674634
-0.4739036552812479	0.5982030542971016
-0.4738426201249979	0.6004814800682216
-0.4737815849687479	0.6025014465277951
-0.4737205498124979	0.6042619842460235
-0.4736595146562479	0.6057622058572034
-0.4735984794999979	0.6070012862052452
-0.4735374443437479	0.607978572635051
-0.4734764091874979	0.608693561788244
-0.4734153740312479	0.6091457882858379
-0.4733543388749979	0.6093348945318766
-0.4732933037187479	0.6092606957101471
-0.4732322685624979	0.6089231149895317
-0.4731712334062479	0.60832218558593
-0.4731101982499979	0.6074580406882525
-0.4730491630937479	0.6063309185793289
-0.4729881279374979	0.6049412288568167
-0.4729270927812479	0.6032894176669474
-0.4728660576249979	0.6013759844983766
-0.4728050224687479	0.5992016583591925
-0.4727439873124979	0.596767284773764
-0.4726829521562479	0.594073790772221
-0.4726219169999979	0.5911222188301065
-0.4725608818437479	0.587913691071581
-0.4724998466874979	0.5844495354361259
-0.4724388115312479	0.5807312180772422
-0.4723777763749979	0.5767601760787147
-0.4723167412187479	0.572537936385028
-0.4722557060624979	0.5680661690833385
-0.4721946709062479	0.5633466292416747
-0.4721336357499979	0.558381238476084
-0.4720726005937479	0.5531721055071949
-0.4720115654374979	0.5477214221314718
-0.4719505302812479	0.5420314513388919
-0.4718894951249979	0.536104579586583
-0.4718284599687479	0.5299432193920298
-0.4717674248124979	0.5235497869086205
-0.4717063896562479	0.5169269376491787
-0.4716453544999979	0.5100774914291425
-0.4715843193437479	0.503004258226632
-0.4715232841874979	0.4957102073833685
-0.4714622490312479	0.488198450928974
-0.4714012138749979	0.48047213437295233
-0.4713401787187479	0.4725345092744228
-0.4712791435624979	0.46438892365384027
-0.4712181084062479	0.4560387431569359
-0.4711570732499979	0.44748741009417436
-0.4710960380937479	0.43873853330096785
-0.4710350029374979	0.42979580098423004
-0.4709739677812479	0.4206629239526315
-0.4709129326249979	0.4113438046062152
-0.4708518974687479	0.4018426073749392
-0.4707908623124979	0.392163471386493
-0.4707298271562479	0.38231037147247715
-0.4706687919999979	0.3722872760149695
-0.4706077568437479	0.3620982639211156
-0.4705467216874979	0.3517476963290952
-0.4704856865312479	0.34124020064604194
-0.4704246513749979	0.33058038162223663
-0.4703636162187479	0.31977268125421304
-0.4703025810624979	0.3088215503001796
-0.4702415459062479	0.2977317460588034
-0.4701805107499979	0.2865081148201337
-0.4701194755937479	0.2751552587697535
-0.4700584404374979	0.26367793798894346
-0.4699974052812479	0.2520812269891943
-0.4699363701249979	0.24037024693120312
-0.4698753349687479	0.22855005203685602
-0.4698142998124979	0.21662540780068276
-0.4697532646562479	0.20460120478107227
-0.4696922294999979	0.19248279559218565
-0.4696311943437479	0.18027540186096466
-0.4695701591874979	0.16798424123895453
-0.4695091240312479	0.15561481505152663
-0.4694480888749979	0.14317245840077483
