Time	Frequency
-0.5000154445937497	0.25232461789544497
-0.4999544094374997	0.2593083694225837
-0.4998933742812497	0.2661227695836036
-0.4998323391249997	0.27295532767054564
-0.4997713039687497	0.2798351458365916
-0.4997102688124997	0.286582664463987
-0.4996492336562497	0.2931210858104903
-0.4995881984999997	0.29960361373417593
-0.4995271633437497	0.30614057767034003
-0.4994661281874997	0.31260688820690125
-0.4994050930312497	0.3188605197145857
-0.4993440578749997	0.324984989409165
-0.4992830227187497	0.33113681996372435
-0.4992219875624997	0.3372707438178645
-0.4991609524062497	0.3432197812659855
-0.4990999172499997	0.34898339309884047
-0.4990388820937497	0.35472133041568527
-0.4989778469374997	0.36047136987871353
-0.4989168117812497	0.36608479678737393
-0.4988557766249997	0.37148485739381837
-0.4987947414687497	0.37679436480054007
-0.4987337063124997	0.3821163054295105
-0.4986726711562497	0.3873544492066453
-0.4986116359999997	0.3923818318820414
-0.4985506008437497	0.3972576930255062
-0.4984895656874997	0.40211795330839206
-0.4984285305312497	0.4069368194719221
-0.4983674953749997	0.4115734864059275
-0.4983064602187497	0.4160154251924286
-0.4982454250624997	0.42039399498138913
-0.4981843899062497	0.42475212890377423
-0.4981233547499997	0.4289710361241048
-0.4980623195937497	0.4329771797253505
-0.4980012844374997	0.4368651912339937
-0.4979402492812497	0.44072823622514623
-0.4978792141249997	0.4444962266412291
-0.4978181789687497	0.4480593431507512
-0.4977571438124997	0.4514560596334278
-0.4976961086562497	0.45480087937280894
-0.4976350734999997	0.45808369508433106
-0.4975740383437497	0.46118922149690605
-0.4975130031874997	0.46409655038957764
-0.4974519680312497	0.4669106716870862
-0.4973909328749997	0.4696769512031551
-0.4973298977187497	0.47230377471159407
-0.4972688625624997	0.4747227333150243
-0.4972078274062497	0.4770039955672588
-0.4971467922499997	0.4792303965199563
-0.4970857570937497	0.4813538044823186
-0.4970247219374997	0.48328060587837707
-0.4969636867812497	0.4850326052029303
-0.4969026516249997	0.4867050826613458
-0.4968416164687497	0.488300188642165
-0.4967805813124997	0.4897253400781604
-0.4967195461562497	0.4909542609638783
-0.4966585109999997	0.4920692902336272
-0.4965974758437497	0.4931160436172045
-0.4965364406874997	0.4940256030447139
-0.4964754055312497	0.49473570514895565
-0.4964143703749997	0.49529697280013657
-0.4963533352187497	0.4957823165791312
-0.4962923000624997	0.496160757962318
-0.4962312649062497	0.49635327787414096
-0.4961702297499997	0.4963696542111875
-0.4961091945937497	0.49628906061041395
-0.4960481594374997	0.49612200732169004
-0.4959871242812497	0.49579402263416406
-0.4959260891249997	0.49527600851062425
-0.4958650539687497	0.49463335548120113
-0.4958040188124997	0.4939111564545632
-0.4957429836562497	0.4930570921295596
-0.4956819484999997	0.4920141949721099
-0.4956209133437497	0.4908197023976198
-0.4955598781874997	0.4895390955076436
-0.4954988430312497	0.4881527010790701
-0.4954378078749997	0.4865919351669433
-0.4953767727187497	0.48485967490085136
-0.4953157375624997	0.48302471366051
-0.4952547024062497	0.4811019782628332
-0.4951936672499997	0.4790282795301412
-0.4951326320937497	0.476774271257995
-0.4950715969374997	0.4743958737249395
-0.4950105617812497	0.47193656523743416
-0.4949495266249997	0.4693527975870183
-0.4948884914687497	0.46659227535040865
-0.4948274563124997	0.4636866604071432
-0.4947664211562497	0.46069645346217336
-0.4947053859999997	0.457605861097803
-0.4946443508437497	0.45435253254261565
-0.4945833156874997	0.45093918451148496
-0.4945222805312497	0.4474300863160539
-0.4944612453749997	0.4438388466463126
-0.4944002102187497	0.4401059229932465
-0.4943391750624997	0.4362057131055496
-0.4942781399062497	0.43219374719532755
-0.4942171047499997	0.42810998560276015
-0.4941560695937497	0.42390956415308023
-0.4940950344374997	0.41954449347287337
-0.4940339992812497	0.41505135165795715
-0.4939729641249997	0.4104884067033739
-0.4939119289687497	0.4058334700353898
-0.4938508938124997	0.40102503522971494
-0.4937898586562497	0.39607458761454056
-0.4937288234999997	0.3910492482443024
-0.4936677883437497	0.38595405296094054
-0.4936067531874997	0.38072432032760534
-0.4935457180312497	0.37534373797964427
-0.4934846828749997	0.36987722080206387
-0.4934236477187497	0.36435742309836994
-0.4933626125624997	0.35872730211253057
-0.4933015774062497	0.35294432511597185
-0.4932405422499997	0.34706125976149815
-0.4931795070937497	0.3411357349528139
-0.4931184719374997	0.335128014898684
-0.4930574367812497	0.3289732822501821
-0.4929964016249997	0.32270218746395485
-0.4929353664687497	0.3163908770912101
-0.4928743313124997	0.3100262534606922
-0.4928132961562497	0.3035298942005932
-0.4927522609999997	0.2969024640574813
-0.4926912258437497	0.2902289022745833
-0.4926301906874997	0.283529272493349
-0.4925691555312497	0.2767224124168086
-0.4925081203749997	0.2697741148397198
-0.4924470852187497	0.26276562422660066
-0.4923860500624997	0.2557528368621998
-0.4923250149062497	0.24866558830438776
-0.4922639797499997	0.24143392598279437
-0.4922029445937497	0.23412008315681065
-0.4921419094374997	0.2268145275012479
-0.4920808742812497	0.21947521586794336
-0.4920198391249997	0.21200163141235906
-0.4919588039687497	0.20441981842551255
-0.4918977688124997	0.1968448586745054
-0.4918367336562497	0.18927811149467363
-0.4917756984999997	0.18160252058424
-0.4917146633437497	0.17379456601504265
-0.4916536281874997	0.16597581605805464
-0.4915925930312497	0.15820194346513322
-0.4915315578749997	0.15036173720896215
-0.4914705227187497	0.14237576331855462
-0.4914094875624997	0.13434674049110398
-0.4913484524062497	0.12638521260650523
-0.4912874172499997	0.11841246706476469
-0.4912263820937497	0.11029840845061152
-0.4911653469374997	0.1020995631838026
-0.4911043117812497	0.09396926572595804
-0.4910432766249997	0.08588790227267437
-0.4909822414687497	0.0776945465403805
-0.4909212063124997	0.06937623521715021
-0.4908601711562497	0.06110214483344159
-0.4907991359999997	0.052929695202710764
-0.4907381008437497	0.04470015791119063
-0.4906770656874997	0.03632019959240608
-0.4906160305312497	0.02793674305717747
-0.4905549953749997	0.01968566643583402
-0.4904939602187497	0.01145081143265244
-0.4904329250624997	0.0030675006449190413
-0.4903718899062497	-0.0053791220432840275
-0.4903108547499997	-0.013693622521847764
-0.4902498195937497	-0.021912659220183463
-0.4901887844374997	-0.0302431509205815
-0.4901277492812497	-0.0386935748032945
-0.4900667141249997	-0.04704855623661855
-0.4900056789687497	-0.0552428208595561
-0.4899446438124997	-0.06347808191827757
-0.4898836086562497	-0.0718667724857984
-0.4898225734999997	-0.08022518790771573
-0.4897615383437497	-0.08838868939134152
-0.4897005031874997	-0.09650089874520973
-0.4896394680312497	-0.1047617997117814
-0.4895784328749997	-0.11306985184134266
-0.4895173977187497	-0.12119144919550319
-0.4894563625624997	-0.12916853446535445
-0.4893953274062497	-0.13724597178656922
-0.4893342922499997	-0.1454377812932432
-0.4892732570937497	-0.15349432185936096
-0.4892122219374997	-0.16133537073608506
-0.4891511867812497	-0.16919045706921593
-0.4890901516249997	-0.1771943372021225
-0.4890291164687497	-0.18514417398133606
-0.4889680813124997	-0.19284888899438904
-0.4889070461562497	-0.2004620688531812
-0.4888460109999997	-0.20821134584243334
-0.4887849758437497	-0.2159948425165461
-0.4887239406874997	-0.22355410858348826
-0.4886629055312497	-0.23092349123256167
-0.4886018703749997	-0.23836778755623836
-0.4885408352187497	-0.24591503382133353
-0.4884798000624997	-0.2533026651749375
-0.4884187649062497	-0.2604331638849311
-0.4883577297499997	-0.26754172147710203
-0.4882966945937497	-0.27478139195985574
-0.4882356594374997	-0.2819517677744445
-0.4881746242812497	-0.28884624084475513
-0.4881135891249997	-0.2956097712796609
-0.4880525539687497	-0.3024814032620322
-0.4879915188124997	-0.30937319004027664
-0.4879304836562497	-0.3160216864094142
-0.4878694484999997	-0.32244495842188825
-0.4878084133437497	-0.32890626327043004
-0.4877473781874997	-0.3354506674364954
-0.4876863430312497	-0.3418249408100715
-0.4876253078749997	-0.34791769368196396
-0.4875642727187497	-0.353949039006082
-0.4875032375624997	-0.36008134469177483
-0.4874422024062497	-0.36613421412929104
-0.4873811672499997	-0.37189901778875656
-0.4873201320937497	-0.37749919140358773
-0.4872590969374997	-0.38316895069271106
-0.4871980617812497	-0.3888421386595409
-0.4871370266249997	-0.3942682402452815
-0.4870759914687497	-0.3994472393137029
-0.4870149563124997	-0.40462360685628573
-0.4869539211562497	-0.409855778580152
-0.4868928859999997	-0.4149146847220974
-0.4868318508437497	-0.4196829333421034
-0.4867708156874997	-0.4243544960288134
-0.4867097805312497	-0.42909114995245223
-0.4866487453749997	-0.43374006553298833
-0.4865877102187497	-0.43810169872696675
-0.4865266750624997	-0.4422743648831414
-0.4864656399062497	-0.4464764863488416
-0.4864046047499997	-0.45066369800582806
-0.4863435695937497	-0.454608311410388
-0.4862825344374997	-0.4582951605746028
-0.4862214992812497	-0.46194202358326
-0.4861604641249997	-0.4656161785930043
-0.4860994289687497	-0.4691189731366888
-0.4860383938124997	-0.4723331230718951
-0.4859773586562497	-0.4754223271634415
-0.4859163234999997	-0.47854074431271054
-0.4858552883437497	-0.4815650435642081
-0.4857942531874997	-0.4843119359947523
-0.4857332180312497	-0.4868548291928156
-0.4856721828749997	-0.48939009402867806
-0.4856111477187497	-0.4918936573403967
-0.4855501125624997	-0.49416598950688395
-0.4854890774062497	-0.4961794624954716
-0.4854280422499997	-0.49812120629701157
-0.4853670070937497	-0.5000640507172177
-0.4853059719374997	-0.5018423346181969
-0.4852449367812497	-0.5033424322730873
-0.4851839016249997	-0.5046967464456272
-0.4851228664687497	-0.5060485585353763
-0.4850618313124997	-0.507303840170777
-0.4850007961562497	-0.5082985758695501
-0.4849397609999997	-0.5090826886080521
-0.4848787258437497	-0.5098279740735941
-0.4848176906874997	-0.5105283454851742
-0.4847566555312497	-0.5110145098623752
-0.4846956203749997	-0.511249590559691
-0.4846345852187497	-0.5113888313379051
-0.4845735500624997	-0.511506832037319
-0.4845125149062497	-0.5114711234861847
-0.4844514797499997	-0.511175770874406
-0.4843904445937497	-0.5107229419104142
-0.4843294094374997	-0.510241379830283
-0.4842683742812497	-0.5096642531326313
-0.4842073391249997	-0.5088497646566537
-0.4841463039687497	-0.507827391881094
-0.4840852688124997	-0.5067425644177592
-0.4840242336562497	-0.5056036082781185
-0.4839631984999997	-0.504271969291863
-0.4839021633437497	-0.5027052838654958
-0.4838411281874997	-0.5010277735487716
-0.4837800930312497	-0.4993122753665361
-0.4837190578749997	-0.4974573834545327
-0.4836580227187497	-0.4953678012438596
-0.4835969875624997	-0.4931186444749529
-0.4835359524062497	-0.4908220734782748
-0.4834749172499997	-0.4884346133851845
-0.4834138820937497	-0.48583771205490767
-0.4833528469374997	-0.48304462242421026
-0.4832918117812497	-0.48017464007770905
-0.4832307766249997	-0.4772462150526316
-0.4831697414687497	-0.4741496681970727
-0.4831087063124997	-0.47084070824809415
-0.4830476711562497	-0.4674157447228927
-0.4829866359999997	-0.4639436264352243
-0.4829256008437497	-0.4603501378039474
-0.4828645656874997	-0.45655145378134027
-0.4828035305312497	-0.45259973809343806
-0.4827424953749997	-0.4485910339337256
-0.4826814602187497	-0.4445009383622839
-0.4826204250624997	-0.4402320181077654
-0.4825593899062497	-0.4357850826574851
-0.4824983547499997	-0.4312566872040291
-0.4824373195937497	-0.42667256891393446
-0.4823762844374997	-0.42194790342344185
-0.4823152492812497	-0.41703839594102904
-0.4822542141249997	-0.4120170260482479
-0.4821931789687497	-0.40694739128765045
-0.4821321438124997	-0.4017772903446034
-0.4820711086562497	-0.3964342898012519
-0.4820100734999997	-0.39095307405950314
-0.4819490383437497	-0.38541514881211947
-0.4818880031874997	-0.3798099793367602
-0.4818269680312497	-0.37405826226929617
-0.4817659328749997	-0.3681526711325384
-0.4817048977187497	-0.36217109551182997
-0.4816438625624997	-0.3561432911719967
-0.4815828274062497	-0.3500038330012944
-0.4815217922499997	-0.3437098869863507
-0.4814607570937497	-0.3373172653304349
-0.4813997219374997	-0.33088483003563984
-0.4813386867812497	-0.32437588474763923
-0.4812776516249997	-0.31772674016441266
-0.4812166164687497	-0.31096040195599084
-0.4811555813124997	-0.30414801015396836
-0.4810945461562497	-0.29728793235565565
-0.4810335109999997	-0.290313293277843
-0.4809724758437497	-0.28321234964916364
-0.4809114406874997	-0.276051107697219
-0.4808504055312497	-0.26886073010553935
-0.4807893703749997	-0.2615873522258689
-0.4807283352187497	-0.25419055812002384
-0.4806673000624997	-0.24671708452703553
-0.4806062649062497	-0.2392216548997515
-0.4805452297499997	-0.2316750166945162
-0.4804841945937497	-0.2240197276967457
-0.4804231594374997	-0.21627441862857158
-0.4803621242812497	-0.20850393638605136
-0.4803010891249997	-0.20070882469571547
-0.4802400539687497	-0.19282862638282766
-0.4801790188124997	-0.18485274817344385
-0.4801179836562497	-0.17684275803930605
-0.4800569484999997	-0.16882693407774563
-0.4799959133437497	-0.16075415501016202
-0.4799348781874997	-0.15258865478187808
-0.4798738430312497	-0.14437763138908624
-0.4798128078749997	-0.13617148692341077
-0.4797517727187497	-0.12793786313172364
-0.4796907375624997	-0.11962301689542874
-0.4796297024062497	-0.11125192671959369
-0.4795686672499997	-0.10288809240919093
-0.4795076320937497	-0.09452400534218122
-0.4794465969374997	-0.08609817250996694
-0.4793855617812497	-0.07760942607764539
-0.4793245266249997	-0.06912404498894767
-0.4792634914687497	-0.0606612816732932
-0.4792024563124997	-0.052161987294916536
-0.4791414211562497	-0.0435986682917086
-0.4790803859999997	-0.03503043665655859
-0.4790193508437497	-0.02650175319389345
-0.4789583156874997	-0.01796512243736135
-0.4788972805312497	-0.009369174094926214
-0.4788362453749997	-0.0007567582267157172
-0.4787752102187497	0.007805652836253989
-0.4787141750624997	0.01634431326544675
-0.4786531399062497	0.024928942311901996
-0.4785921047499997	0.033542056684655285
-0.4785310695937497	0.04210365770280894
-0.4784700344374997	0.05061162177079695
-0.4784089992812497	0.05914441646016993
-0.4783479641249997	0.0677156944514138
-0.4782869289687497	0.07624174171996452
-0.4782258938124997	0.0846867605788955
-0.4781648586562497	0.0931268765645122
-0.4781038234999997	0.1016109981200146
-0.4780427883437497	0.11006488507054851
-0.4779817531874997	0.11841728700915972
-0.4779207180312497	0.12672696712351542
-0.4778596828749997	0.1350769867921996
-0.4777986477187497	0.14341907837187848
-0.4777376125624997	0.15165142447439942
-0.4776765774062497	0.1597986003331475
-0.4776155422499997	0.16796871789789794
-0.4775545070937497	0.17615505734502207
-0.4774934719374997	0.18423791274520615
-0.4774324367812497	0.19219400021489516
-0.4773714016249997	0.2001405639460049
-0.4773103664687497	0.2081240641375033
-0.4772493313124997	0.21602695986247233
-0.4771882961562497	0.22376991162879772
-0.4771272609999997	0.23145484771007752
-0.4770662258437497	0.23918432892449906
-0.4770051906874997	0.2468706138811937
-0.4769441555312497	0.254381917754949
-0.4768831203749997	0.2617762030572546
-0.4768220852187497	0.2692012913557138
-0.4767610500624997	0.27662666350530885
-0.4767000149062497	0.28388645574815835
-0.4766389797499997	0.2909703497767368
-0.4765779445937497	0.29804598225675255
-0.4765169094374997	0.3051598526539354
-0.4764558742812497	0.3121439865196973
-0.4763948391249997	0.3189064557938591
-0.4763338039687497	0.32559724929975326
-0.4762727688124997	0.3323445560272046
-0.4762117336562497	0.3390192186326314
-0.4761506984999997	0.34545329126894225
-0.4760896633437497	0.35173746637594244
-0.4760286281874997	0.3580648765190125
-0.4759675930312497	0.3643848020295869
-0.4759065578749997	0.37048158828802347
-0.4758455227187497	0.37635217618632827
-0.4757844875624997	0.3822156738453319
-0.4757234524062497	0.38812568964798677
-0.4756624172499997	0.39386631322381094
-0.4756013820937497	0.399326512285509
-0.4755403469374997	0.4046985263519931
-0.4754793117812497	0.41014101110750917
-0.4754182766249997	0.41549261671356486
-0.4753572414687497	0.4205477996429003
-0.4752962063124997	0.42541854501521276
-0.4752351711562497	0.4303406676623561
-0.4751741359999997	0.4352556168051069
-0.4751131008437497	0.43990532912221136
-0.4750520656874997	0.444282930397127
-0.4749910305312497	0.44864750687880345
-0.4749299953749997	0.4530684392204885
-0.4748689602187497	0.4572972793792832
-0.4748079250624997	0.46119922158801796
-0.4747468899062497	0.464990536633822
-0.4746858547499997	0.46885992384950675
-0.4746248195937497	0.4726336081850455
-0.4745637844374997	0.4760752526485229
-0.4745027492812497	0.4792994155780203
-0.4744417141249997	0.48257165929460477
-0.4743806789687497	0.48584143257034285
-0.4743196438124997	0.48882695033594165
-0.4742586086562497	0.49150667017619554
-0.4741975734999997	0.4941567756139195
-0.4741365383437497	0.4968668500944726
-0.4740755031874997	0.49938103868177103
-0.4740144680312497	0.5015439182503004
-0.4739534328749997	0.5035712866455334
-0.4738923977187497	0.5056716519059749
-0.4738313625624997	0.5076806949569824
-0.4737703274062497	0.5093479522685795
-0.4737092922499997	0.5107733650695928
-0.4736482570937497	0.5122306768826285
-0.4735872219374997	0.513688393346973
-0.4735261867812497	0.514865591762228
-0.4734651516249997	0.5157222339092251
-0.4734041164687497	0.5165265677705081
-0.4733430813124997	0.5173851628668605
-0.4732820461562497	0.5180582764072873
-0.4732210109999997	0.5183797179348105
-0.4731599758437497	0.5185449128636858
-0.4730989406874997	0.5187670229383873
-0.4730379055312497	0.5189059227473286
-0.4729768703749997	0.5187157177588754
-0.4729158352187497	0.5182732103095906
-0.4728548000624997	0.5178403633150618
-0.4727937649062497	0.5174070619542662
-0.4727327297499997	0.5167126085239764
-0.4726716945937497	0.5157019454689152
-0.4726106594374997	0.5146184468079652
-0.4725496242812497	0.5135775717314162
-0.4724885891249997	0.5123689787098215
-0.4724275539687497	0.5108269093346315
-0.4723665188124997	0.5091173987859933
-0.4723054836562497	0.5074455863899843
-0.4722444484999997	0.5057003248909482
-0.4721834133437497	0.5036531811038126
-0.4721223781874997	0.5013571111965744
-0.4720613430312497	0.49905039778000554
-0.4720003078749997	0.4967413982604225
-0.4719392727187497	0.49419945971062784
-0.4718782375624997	0.49136005535497157
-0.4718172024062497	0.48843449424841306
-0.4717561672499997	0.4855400342179671
-0.4716951320937497	0.4825002612844122
-0.4716340969374997	0.47915763690853386
-0.4715730617812497	0.47564690931745746
-0.4715120266249997	0.4721574910806236
-0.4714509914687497	0.4686065053117101
-0.4713899563124997	0.46478949711977763
-0.4713289211562497	0.4607380717584463
-0.4712678859999997	0.4566619604534625
-0.4712068508437497	0.4525846857999972
-0.4711458156874997	0.44830899514000017
-0.4710847805312497	0.4437644135491689
-0.4710237453749997	0.4391281017221938
-0.4709627102187497	0.43451547489623704
-0.4709016750624997	0.42978464285888246
-0.4708406399062497	0.424789492502016
-0.4707796047499997	0.41963394969756945
-0.4707185695937497	0.41448885535228197
-0.4706575344374997	0.4092982175933901
-0.4705964992812497	0.40388415453216947
-0.4705354641249997	0.39825918370699576
-0.4704744289687497	0.3926021190650991
-0.4704133938124997	0.3869482379114322
-0.4703523586562497	0.3811351528509115
-0.4702913234999997	0.37509052778180807
-0.4702302883437497	0.36895686522986154
-0.4701692531874997	0.3628430912153118
-0.4701082180312497	0.3566409517141701
-0.4700471828749997	0.3502203099650181
-0.4699861477187497	0.343656545002513
-0.4699251125624997	0.3370981442362447
-0.4698640774062497	0.33051250744256344
-0.4698030422499997	0.32375036655870215
-0.4697420070937497	0.3168088920364661
-0.4696809719374997	0.3098354040758582
-0.4696199367812497	0.30287300701344627
-0.4695589016249997	0.2957931138667679
-0.4694978664687497	0.28852501211667436
-0.4694368313124997	0.28117884493443585
