Time	Frequency
-0.5000591273749997	-0.4381527029786199
-0.4999980922187497	-0.4345741214161412
-0.4999370570624997	-0.4308772836825613
-0.4998760219062497	-0.4270633599736129
-0.4998149867499997	-0.4231331311188961
-0.4997539515937497	-0.41908733959913785
-0.4996929164374997	-0.41492774928676285
-0.4996318812812497	-0.41065466854295385
-0.4995708461249997	-0.40626997493358735
-0.4995098109687497	-0.4017742320284626
-0.4994487758124997	-0.3971687613832854
-0.4993877406562497	-0.3924552909422439
-0.4993267054999997	-0.38763412650933604
-0.4992656703437497	-0.38270732535681246
-0.4992046351874997	-0.37767540342747785
-0.4991436000312497	-0.3725402180188408
-0.4990825648749997	-0.3673028341149357
-0.4990215297187497	-0.3619642416829964
-0.4989604945624997	-0.35652678298124224
-0.4988994594062497	-0.3509912166080957
-0.4988384242499997	-0.34535975917876777
-0.4987773890937497	-0.33963284111597164
-0.4987163539374997	-0.33381250404963286
-0.4986553187812497	-0.3279005553006558
-0.4985942836249997	-0.3218976484293222
-0.4985332484687497	-0.3158063122750375
-0.4984722133124997	-0.3096272896465097
-0.4984111781562497	-0.30336305519116635
-0.4983501429999997	-0.29701463786205007
-0.4982891078437497	-0.29058360496874364
-0.4982280726874997	-0.2840721967448986
-0.4981670375312497	-0.2774816073867515
-0.4981060023749997	-0.2708144842165294
-0.4980449672187497	-0.2640715673079279
-0.4979839320624997	-0.257255384114231
-0.4979228969062497	-0.2503672981052465
-0.4978618617499997	-0.24340894800359766
-0.4978008265937497	-0.23638287919659023
-0.4977397914374997	-0.22928987135192228
-0.4976787562812497	-0.2221325709786261
-0.4976177211249997	-0.21491235611150156
-0.4975566859687497	-0.20763181387655685
-0.4974956508124997	-0.2002928801238353
-0.4974346156562497	-0.1928970574389263
-0.4973735804999997	-0.18544669215275014
-0.4973125453437497	-0.17794303195486497
-0.4972515101874997	-0.17038889076665192
-0.4971904750312497	-0.16278569625504574
-0.4971294398749997	-0.15513574913155048
-0.4970684047187497	-0.147441177819455
-0.4970073695624997	-0.13970363337471028
-0.4969463344062497	-0.13192560105779452
-0.4968852992499997	-0.12410856352277531
-0.4968242640937497	-0.11625519075235709
-0.4967632289374997	-0.10836738100434816
-0.4967021937812497	-0.10044749598394412
-0.4966411586249997	-0.09249760831491671
-0.4965801234687497	-0.08451943353571972
-0.4965190883124997	-0.07651538135609602
-0.4964580531562497	-0.06848727033208793
-0.4963970179999997	-0.060437369479517694
-0.4963359828437497	-0.05236760129826275
-0.4962749476874997	-0.04428075418014719
-0.4962139125312497	-0.036178960061682676
-0.4961528773749997	-0.028064206021847903
-0.4960918422187497	-0.019938671729714676
-0.4960308070624997	-0.011804105928000604
-0.4959697719062497	-0.0036630353848316794
-0.4959087367499997	0.00448248706183719
-0.4958477015937497	0.012630118057383441
-0.4957866664374997	0.020777859762227804
-0.4957256312812497	0.0289231712714671
-0.4956645961249997	0.0370638679126366
-0.4956035609687497	0.045198060199188435
-0.4955425258124997	0.05332360146542256
-0.4954814906562497	0.061438520046450604
-0.4954204554999997	0.06953994604380459
-0.4953594203437497	0.07762616608499458
-0.4952983851874997	0.08569478644323372
-0.4952373500312497	0.09374392261368145
-0.4951763148749997	0.10177134143419954
-0.4951152797187497	0.10977433018234777
-0.4950542445624997	0.11775145477287484
-0.4949932094062497	0.12570016586632213
-0.4949321742499997	0.13361862343474512
-0.4948711390937497	0.14150438415736766
-0.4948101039374997	0.1493556687299969
-0.4947490687812497	0.15717008407130792
-0.4946880336249997	0.16494515643759688
-0.4946269984687497	0.17267950575793875
-0.4945659633124997	0.18037037438960762
-0.4945049281562497	0.18801659540467963
-0.4944438929999997	0.1956155165789856
-0.4943828578437497	0.20316495762364647
-0.4943218226874997	0.2106628762326807
-0.4942607875312497	0.21810707605536334
-0.4941997523749997	0.22549645005517022
-0.4941387172187497	0.2328281679975263
-0.4940776820624997	0.24010080682167395
-0.4940166469062497	0.24731158398152575
-0.4939556117499997	0.2544588824060285
-0.4938945765937497	0.26154117463228344
-0.4938335414374997	0.26855613830421254
-0.4937725062812497	0.27550235407363605
-0.4937114711249997	0.28237687085906843
-0.4936504359687497	0.2891788102468824
-0.4935894008124997	0.2959058328914338
-0.4935283656562497	0.3025566215784489
-0.4934673304999997	0.30912926692781095
-0.4934062953437497	0.3156211841219434
-0.4933452601874997	0.3220315436516331
-0.4932842250312497	0.3283573619608138
-0.4932231898749997	0.3345981230545509
-0.4931621547187497	0.34075172035037693
-0.4931011195624997	0.34681658155908685
-0.4930400844062497	0.3527911234397021
-0.4929790492499997	0.35867301769658017
-0.4929180140937497	0.36446179928791717
-0.4928569789374997	0.3701548059124943
-0.4927959437812497	0.37575132886149293
-0.4927349086249997	0.3812490069492522
-0.4926738734687497	0.3866465896803036
-0.4926128383124997	0.3919428316390724
-0.4925518031562497	0.3971357249622595
-0.4924907679999997	0.4022250686736933
-0.4924297328437497	0.4072080437765999
-0.4923686976874997	0.4120843933001765
-0.4923076625312497	0.41685211624044033
-0.4922466273749997	0.42151008457254185
-0.4921855922187497	0.42605704488519824
-0.4921245570624997	0.4304907951993482
-0.4920635219062497	0.43481161482833486
-0.4920024867499997	0.4390171753356853
-0.4919414515937497	0.4431075242934217
-0.4918804164374997	0.4470805740853203
-0.4918193812812497	0.45093521495305106
-0.4917583461249997	0.454670703043971
-0.4916973109687497	0.45828526718231877
-0.4916362758124997	0.4617792675990067
-0.4915752406562497	0.46515016739581155
-0.4915142054999997	0.4683983725916785
-0.4914531703437497	0.4715220281706199
-0.4913921351874997	0.47452042949362133
-0.4913311000312497	0.4773933495410466
-0.4912700648749997	0.480138957907444
-0.4912090297187497	0.48275781131459256
-0.4911479945624997	0.4852475013103353
-0.4910869594062497	0.4876087932534537
-0.4910259242499997	0.4898400514668085
-0.4909648890937497	0.49194081480345814
-0.4909038539374997	0.49391112598460296
-0.4908428187812497	0.4957490946173483
-0.4907817836249997	0.49745587716382134
-0.4907207484687497	0.4990292921436681
-0.4906597133124997	0.5004702943504217
-0.4905986781562497	0.5017775167526141
-0.4905376429999997	0.5029506457812559
-0.4904766078437497	0.5039901256194877
-0.4904155726874997	0.5048941584093088
-0.4903545375312497	0.5056642838572887
-0.4902935023749997	0.506298398915875
-0.4902324672187497	0.5067977684354097
-0.4901714320624997	0.5071614191765964
-0.4901103969062497	0.5073891287841249
-0.4900493617499997	0.507481761926805
-0.4899883265937497	0.5074375462106644
-0.4899272914374997	0.5072585315493027
-0.4898662562812497	0.5069427407013877
-0.4898052211249997	0.5064916018666172
-0.4897441859687497	0.5059046389562303
-0.4896831508124997	0.505181581293271
-0.4896221156562497	0.5043238345994305
-0.4895610804999997	0.5033296833218495
-0.4895000453437497	0.5022015262805077
-0.4894390101874997	0.5009377067616885
-0.4893779750312497	0.49953980453178226
-0.4893169398749997	0.49800775576097683
-0.4892559047187497	0.4963411261902206
-0.4891948695624997	0.4945420324495973
-0.4891338344062497	0.4926088152129932
-0.4890727992499997	0.49054416081821867
-0.4890117640937497	0.4883468419809906
-0.4889507289374997	0.4860182197145416
-0.4888896937812497	0.48355892206476975
-0.4888286586249997	0.48096851413676434
-0.4887676234687497	0.47824965481209697
-0.4887065883124997	0.4754008165959008
-0.4886455531562497	0.47242467775345953
-0.4885845179999997	0.46932057332567034
-0.4885234828437497	0.46608985971099987
-0.4884624476874997	0.46273389823139754
-0.4884014125312497	0.4592519219996915
-0.4883403773749997	0.4556469090743732
-0.4882793422187497	0.4519177937730709
-0.4882183070624997	0.4480672871228698
-0.4881572719062497	0.44409536519116044
-0.4880962367499997	0.4400030788654028
-0.4880352015937497	0.4357925721380728
-0.4879741664374997	0.4314630307652287
-0.4879131312812497	0.42701767008781394
-0.4878520961249997	0.4224558283461297
-0.4877910609687497	0.4177798692601042
-0.4877300258124997	0.41299075480048425
-0.4876689906562497	0.40808900595791603
-0.4876079554999997	0.4030774101957168
-0.4875469203437497	0.3979556735252304
-0.4874858851874997	0.39272673314844725
-0.4874248500312497	0.38739047385065223
-0.4873638148749997	0.38194892100420563
-0.4873027797187497	0.3764041060942958
-0.4872417445624997	0.37075639343524164
-0.4871807094062497	0.3650085855346404
-0.4871196742499997	0.3591606557214211
-0.4870586390937497	0.3532152187808381
-0.4869976039374997	0.3471733070195376
-0.4869365687812497	0.3410365969725613
-0.4868755336249997	0.3348076514140694
-0.4868144984687497	0.32848691602136215
-0.4867534633124997	0.32207713252200304
-0.4866924281562497	0.31557900697640195
-0.4866313929999997	0.3089946054947263
-0.4865703578437497	0.30232566786258436
-0.4865093226874997	0.29557370381890363
-0.4864482875312497	0.28874147212911516
-0.4863872523749997	0.281829746578208
-0.4863262172187497	0.2748413162439446
-0.4862651820624997	0.2677774395529025
-0.4862041469062497	0.26063968620940114
-0.4861431117499997	0.25343076693166644
-0.4860820765937497	0.2461518495567515
-0.4860210414374997	0.2388057291905783
-0.4859600062812497	0.23139392295863165
-0.4858989711249997	0.2239183268734631
-0.4858379359687497	0.21638083378543005
-0.4857769008124997	0.20878319040005971
-0.4857158656562497	0.2011285466933063
-0.4856548304999997	0.19341789057476108
-0.4855937953437497	0.18565377731881427
-0.4855327601874997	0.17783870549278846
-0.4854717250312497	0.1699742387265326
-0.4854106898749997	0.1620625369309575
-0.4853496547187497	0.154104981207358
-0.4852886195624997	0.14610508593249785
-0.4852275844062497	0.13806463118494608
-0.4851665492499997	0.12998534550102417
-0.4851055140937497	0.1218694419298465
-0.4850444789374997	0.11371865815748262
-0.4849834437812497	0.10553664875509447
-0.4849224086249997	0.09732466272521181
-0.4848613734687497	0.08908513388883636
-0.4848003383124997	0.08082012907446187
-0.4847393031562497	0.07253161351603084
-0.4846782679999997	0.06422273185980577
-0.4846172328437497	0.05589466334215936
-0.4845561976874997	0.04755049396747452
-0.4844951625312497	0.03919192867422458
-0.4844341273749997	0.030821491341635615
-0.4843730922187497	0.022441372805246756
-0.4843120570624997	0.014053348248953
-0.4842510219062497	0.0056610760218606
-0.4841899867499997	-0.002734339807990368
-0.4841289515937497	-0.011129911618881116
-0.4840679164374997	-0.019523992474479303
-0.4840068812812497	-0.02791444780216069
-0.4839458461249997	-0.03629827892766132
-0.4838848109687497	-0.04467405105080652
-0.4838237758124997	-0.05303837915284048
-0.4837627406562497	-0.061389893256556596
-0.4837017054999997	-0.06972601342393579
-0.4836406703437497	-0.07804450564867121
-0.4835796351874997	-0.08634290290271343
-0.4835186000312497	-0.09461867704170883
-0.4834575648749997	-0.10287087239058865
-0.4833965297187497	-0.11109581810220824
-0.4833354945624997	-0.11929193116370737
-0.4832744594062497	-0.12745713824457047
-0.4832134242499997	-0.13558923123266695
-0.4831523890937497	-0.1436857621425201
-0.4830913539374997	-0.1517436499008688
-0.4830303187812497	-0.15976190184328826
-0.4829692836249997	-0.1677376354552468
-0.4829082484687497	-0.17566930751091556
-0.4828472133124997	-0.18355465776724908
-0.4827861781562497	-0.1913910745943914
-0.4827251429999997	-0.19917675147317518
-0.4826641078437497	-0.2069090863950365
-0.4826030726874997	-0.2145866066984874
-0.4825420375312497	-0.22220669374143326
-0.4824810023749997	-0.2297676260360349
-0.4824199672187497	-0.23726729985819633
-0.4823589320624997	-0.24470352047219238
-0.4822978969062497	-0.2520743912813215
-0.4822368617499997	-0.2593774723134772
-0.4821758265937497	-0.26661121919424186
-0.4821147914374997	-0.2737731351116104
-0.4820537562812497	-0.28086163332069436
-0.4819927211249997	-0.2878749190048065
-0.4819316859687497	-0.29481089711316094
-0.4818706508124997	-0.30166766580648957
-0.4818096156562497	-0.30844327668433275
-0.4817485804999997	-0.31513606896480284
-0.4816875453437497	-0.3217438528326373
-0.4816265101874997	-0.3282650508511892
-0.4815654750312497	-0.3346975256539193
-0.4815044398749997	-0.34103963694223244
-0.4814434047187497	-0.34728973082024434
-0.4813823695624997	-0.3534462508750201
-0.4813213344062497	-0.3595075718186735
-0.4812602992499997	-0.3654715477440173
-0.4811992640937497	-0.3713368865185195
-0.4811382289374997	-0.37710177143444107
-0.4810771937812497	-0.3827649903346502
-0.4810161586249997	-0.3883245475032662
-0.4809551234687497	-0.3937788281486163
-0.4808940883124997	-0.39912638263292816
-0.4808330531562497	-0.4043655742563534
-0.4807720179999997	-0.40949560792280354
-0.4807109828437497	-0.4145144733917344
-0.4806499476874997	-0.41942121643674585
-0.4805889125312497	-0.42421411162468364
-0.4805278773749997	-0.4288920045329201
-0.4804668422187497	-0.4334536992173577
-0.4804058070624997	-0.43789744578846285
-0.4803447719062497	-0.4422224588595828
-0.4802837367499997	-0.44642684923970044
-0.4802227015937497	-0.4505103105896238
-0.4801616664374997	-0.45447121342868324
-0.4801006312812497	-0.4583084876560687
-0.4800395961249997	-0.46202134729777533
-0.4799785609687497	-0.465608387287379
-0.4799175258124997	-0.4690691766060743
-0.4798564906562497	-0.47240175922560496
-0.4797954554999997	-0.4756060203935154
-0.4797344203437497	-0.47868055683504546
-0.4796733851874997	-0.481624671914814
-0.4796123500312497	-0.48443786394579735
-0.4795513148749997	-0.48711871369639304
-0.4794902797187497	-0.4896671043647441
-0.4794292445624997	-0.4920814208868271
-0.4793682094062497	-0.4943619820158304
-0.4793071742499997	-0.49650755092981225
-0.4792461390937497	-0.4985176396633306
-0.4791851039374997	-0.5003918631496143
-0.4791240687812497	-0.5021290260519116
-0.4790630336249997	-0.5037296070791538
-0.4790019984687497	-0.5051919937026131
-0.4789409633124997	-0.5065167731424688
-0.4788799281562497	-0.5077029770801792
-0.4788188929999997	-0.5087503117978028
-0.4787578578437497	-0.5096588297871611
-0.4786968226874997	-0.510427513739745
-0.4786357875312497	-0.5110571766922359
-0.4785747523749997	-0.5115464331900738
-0.4785137172187497	-0.5118961005303352
-0.4784526820624997	-0.5121054562735984
-0.4783916469062497	-0.5121745565231315
-0.4783306117499997	-0.5121037023430987
-0.4782695765937497	-0.5118920053181772
-0.4782085414374997	-0.5115406721913479
-0.4781475062812497	-0.5110485756008433
-0.4780864711249997	-0.5104169019602993
-0.4780254359687497	-0.5096450130164536
-0.4779644008124997	-0.5087332331836351
-0.4779033656562497	-0.5076823288163231
-0.4778423304999997	-0.5064916064694953
-0.4777812953437497	-0.5051626020081192
-0.4777202601874997	-0.5036942159897894
-0.4776592250312497	-0.5020880071561779
-0.4775981898749997	-0.5003437504723509
-0.4775371547187497	-0.49846201162437026
-0.4774761195624997	-0.496443723539638
-0.4774150844062497	-0.4942882360576316
-0.4773540492499997	-0.49199759009655114
-0.4772930140937497	-0.4895710796417882
-0.4772319789374997	-0.4870106141236424
-0.4771709437812497	-0.484315971090425
-0.4771099086249997	-0.48148795217650375
-0.4770488734687497	-0.478527970079481
-0.4769878383124997	-0.47543547680263337
-0.4769268031562497	-0.4722128469269567
-0.4768657679999997	-0.4688593598612682
-0.4768047328437497	-0.46537729975345943
-0.4767436976874997	-0.46176694780312
-0.4766826625312497	-0.45802936996348276
-0.4766216273749997	-0.4541661474296505
-0.4765605922187497	-0.4501767036120641
-0.4764995570624997	-0.4460639865590932
-0.4764385219062497	-0.4418274306365461
-0.4763774867499997	-0.4374696201479205
-0.4763164515937497	-0.43299106729303893
-0.4762554164374997	-0.4283927851644852
-0.4761943812812497	-0.42367686200669236
-0.4761333461249997	-0.41884287175004886
-0.4760723109687497	-0.4138941714691371
-0.4760112758124997	-0.40883041131191133
-0.4759502406562497	-0.403654291719023
-0.4758892054999997	-0.39836654141847844
-0.4758281703437497	-0.392968313479134
-0.4757671351874997	-0.38746215488925617
-0.4757061000312497	-0.3818477414244582
-0.4756450648749997	-0.3761287938589713
-0.4755840297187497	-0.37030490389544124
-0.4755229945624997	-0.3643789925882052
-0.4754619594062497	-0.35835222400671574
-0.4754009242499997	-0.35222570007681353
-0.4753398890937497	-0.34600268891676983
-0.4752788539374997	-0.3396827803260426
-0.4752178187812497	-0.3332696236337194
-0.4751567836249997	-0.32676302471062296
-0.4750957484687497	-0.3201662795426296
-0.4750347133124997	-0.31348101514325544
-0.4749736781562497	-0.3067080889740726
-0.4749126429999997	-0.2998513118828065
-0.4748516078437497	-0.29291010723118704
-0.4747905726874997	-0.2858885090363319
-0.4747295375312497	-0.2787866408542295
-0.4746685023749997	-0.271607305787301
-0.4746074672187497	-0.2643530091922453
-0.4745464320624997	-0.25702453279799947
-0.4744853969062497	-0.24962579210010055
-0.4744243617499997	-0.2421561889159295
-0.4743633265937497	-0.23461998105346601
-0.4743022914374997	-0.22701812086095596
-0.4742412562812497	-0.21935310053727317
-0.4741802211249997	-0.2116275587442641
-0.4741191859687497	-0.20384179539555403
-0.4740581508124997	-0.19600037255893896
-0.4739971156562497	-0.18810331818973197
-0.4739360804999997	-0.18015445592335286
-0.4738750453437497	-0.17215470343375314
-0.4738140101874997	-0.1641062810032388
-0.4737529750312497	-0.15601315358969992
-0.4736919398749997	-0.14787560415686685
-0.4736309047187497	-0.1396979470336752
-0.4735698695624997	-0.1314799230531174
-0.4735088344062497	-0.12322506035355023
-0.4734477992499997	-0.11493584951927781
-0.4733867640937497	-0.10661356972464159
-0.4733257289374997	-0.09826230811172673
-0.4732646937812497	-0.08988253498786354
-0.4732036586249997	-0.08147817945144871
-0.4731426234687497	-0.07305017366446631
-0.4730815883124997	-0.06460150894513686
-0.4730205531562497	-0.05613498608267739
-0.4729595179999997	-0.047651679778999534
-0.4728984828437497	-0.03915573650294437
-0.4728374476874997	-0.03064770866526531
-0.4727764125312497	-0.022130982742599566
-0.4727153773749997	-0.013607360511889922
-0.4726543422187497	-0.005079346671531765
-0.4725933070624997	0.0034497461861572733
-0.4725322719062497	0.01197918709924929
-0.4724712367499997	0.02050495821137576
-0.4724102015937497	0.029025576614253545
-0.4723491664374997	0.03753855630465628
-0.4722881312812497	0.046041635280342615
-0.4722270961249997	0.054532732431870866
-0.4721660609687497	0.06300823307059301
-0.4721050258124997	0.0714671904538885
-0.4720439906562497	0.07990644259159381
-0.4719829554999997	0.08832392203619575
-0.4719219203437497	0.0967173862542598
-0.4718608851874997	0.10508399318185487
-0.4717998500312497	0.11342235006278917
-0.4717388148749997	0.1217291199758674
-0.4716777797187497	0.13000253989876118
-0.4716167445624997	0.13823984882285317
-0.4715557094062497	0.14643860127357602
-0.4714946742499997	0.15459753248899732
-0.4714336390937497	0.16271361057252828
-0.4713726039374997	0.1707850866491446
-0.4713115687812497	0.17880876463537018
-0.4712505336249997	0.18678256623967382
-0.4711894984687497	0.19470522860315848
-0.4711284633124997	0.20257382515105446
-0.4710674281562497	0.21038648521879053
-0.4710063929999997	0.21814027580251324
-0.4709453578437497	0.22583378569384793
-0.4708843226874997	0.2334647896580054
-0.4708232875312497	0.24103066773618306
-0.4707622523749997	0.24853000275637438
-0.4707012172187497	0.2559595282068241
-0.4706401820624997	0.2633179805194231
-0.4705791469062497	0.2706030330621446
-0.4705181117499997	0.27781297525525744
-0.4704570765937497	0.2849460771597239
-0.4703960414374997	0.2919991958886266
-0.4703350062812497	0.29897126879830277
-0.4702739711249997	0.3058594834231375
-0.4702129359687497	0.3126626452523396
-0.4701519008124997	0.31937863439016395
-0.4700908656562497	0.32600532872368726
-0.4700298304999997	0.33254154920259454
-0.4699687953437497	0.3389844029512753
-0.4699077601874997	0.34533320992940336
-0.4698467250312497	0.35158506928738775
-0.4697856898749997	0.35773852738225653
-0.4697246547187497	0.36379206435876055
