Time	Frequency
-0.5000457753437502	0.4712614254345495
-0.49998474018750017	0.46921627382125136
-0.49992370503125017	0.46704573366614494
-0.49986266987500017	0.46474998858855876
-0.49980163471875017	0.46232968026935234
-0.49974059956250017	0.4597855552413451
-0.49967956440625017	0.45711785977420194
-0.49961852925000017	0.45432782476664674
-0.49955749409375017	0.45141564077796686
-0.49949645893750017	0.4483824096539315
-0.49943542378125017	0.4452288991741748
-0.49937438862500017	0.4419555548738692
-0.49931335346875017	0.43856365334357916
-0.49925231831250017	0.4350536489945449
-0.49919128315625017	0.4314267589384408
-0.49913024800000017	0.42768371196561084
-0.49906921284375017	0.42382555878346717
-0.49900817768750017	0.4198536354388198
-0.49894714253125017	0.4157684488393651
-0.49888610737500017	0.41157124321993427
-0.49882507221875017	0.40726282738201836
-0.49876403706250017	0.40284473038123364
-0.49870300190625017	0.3983181596585802
-0.49864196675000017	0.3936838218032503
-0.49858093159375017	0.38894332797663195
-0.49851989643750017	0.38409764903917476
-0.49845886128125017	0.37914820977115743
-0.49839782612500017	0.37409626387582995
-0.49833679096875017	0.3689431859902476
-0.49827575581250017	0.3636902582443516
-0.49821472065625017	0.35833856418473414
-0.49815368550000017	0.35289003161149146
-0.49809265034375017	0.34734562568303246
-0.49803161518750017	0.3417068709216493
-0.49797058003125017	0.3359753937453363
-0.49790954487500017	0.33015280302776795
-0.49784850971875017	0.324240727040016
-0.49778747456250017	0.31824004803664835
-0.49772643940625017	0.3121529208408449
-0.49766540425000017	0.30598078765426623
-0.49760436909375017	0.29972523420804636
-0.49754333393750017	0.29338799687899864
-0.49748229878125017	0.28697036521523456
-0.49742126362500017	0.28047447253178437
-0.49736022846875017	0.27390179158281924
-0.49729919331250017	0.26725426712545364
-0.49723815815625017	0.2605334478863493
-0.49717712300000017	0.25374121860403054
-0.49711608784375017	0.24687954893911815
-0.49705505268750017	0.2399496738558353
-0.49699401753125017	0.23295391844967558
-0.49693298237500017	0.2258938281937056
-0.49687194721875017	0.2187715841220143
-0.49681091206250017	0.2115890993871678
-0.49674987690625017	0.20434771318664385
-0.49668884175000017	0.1970495986431005
-0.49662780659375017	0.18969656141567318
-0.49656677143750017	0.18229126302740936
-0.49650573628125017	0.174835189369714
-0.49644470112500017	0.1673301349927863
-0.49638366596875017	0.15977854317146736
-0.49632263081250017	0.15218179071553092
-0.49626159565625017	0.1445424067568015
-0.49620056050000017	0.13686203657200988
-0.49613952534375017	0.12914276265456193
-0.49607849018750017	0.12138698163001241
-0.49601745503125017	0.11359622887999893
-0.49595641987500017	0.10577317562172983
-0.49589538471875017	0.09791951727050828
-0.49583434956250017	0.09003765468648679
-0.49577331440625017	0.08212954039331842
-0.49571227925000017	0.07419673699520446
-0.49565124409375017	0.06624246653998701
-0.49559020893750017	0.05826773531382987
-0.49552917378125017	0.05027516088677403
-0.49546813862500017	0.04226709503808119
-0.49540710346875017	0.0342449439675323
-0.49534606831250017	0.026211702645169
-0.49528503315625017	0.018168546788370876
-0.49522399800000017	0.010119045002882217
-0.49516296284375017	0.0020644483703938015
-0.49510192768750017	-0.005993652204399318
-0.49504089253125017	-0.014051741676855198
-0.49497985737500017	-0.022109256625735242
-0.49491882221875017	-0.0301624603602439
-0.49485778706250017	-0.03821032461907341
-0.49479675190625017	-0.04625020275079008
-0.49473571675000017	-0.05427947145246678
-0.49467468159375017	-0.0622975936723514
-0.49461364643750017	-0.0703003256947367
-0.49455261128125017	-0.07828766641094007
-0.49449157612500017	-0.08625592508954855
-0.49443054096875017	-0.09420300301962901
-0.49436950581250017	-0.10212802412642871
-0.49430847065625017	-0.11002683439993996
-0.49424743550000017	-0.11789982276717016
-0.49418640034375017	-0.12574266354397715
-0.49412536518750017	-0.13355416851287857
-0.49406433003125017	-0.1413326498382684
-0.49400329487500017	-0.14907445791441673
-0.49394225971875017	-0.15678031490051655
-0.49388122456250017	-0.16444546455043588
-0.49382018940625017	-0.17206921694596117
-0.49375915425000017	-0.17964917217844567
-0.49369811909375017	-0.18718225053669502
-0.49363708393750017	-0.19466905181724542
-0.49357604878125017	-0.2021044992099556
-0.49351501362500017	-0.20948871801252336
-0.49345397846875017	-0.21681891838289824
-0.49339294331250017	-0.22409223953860624
-0.49333190815625017	-0.23130938690124822
-0.49327087300000017	-0.23846507432092878
-0.49320983784375017	-0.2455601142498728
-0.49314880268750017	-0.2525913964278374
-0.49308776753125017	-0.25955625075209027
-0.49302673237500017	-0.2664552040673847
-0.49296569721875017	-0.2732828027972838
-0.49290466206250017	-0.2800406560498801
-0.49284362690625017	-0.2867248643791128
-0.49278259175000017	-0.2933335831154515
-0.49272155659375017	-0.29986729712098475
-0.49266052143750017	-0.30632046620299674
-0.49259948628125017	-0.31269535783919694
-0.49253845112500017	-0.3189871595367878
-0.49247741596875017	-0.325195333408419
-0.49241638081250017	-0.33131968289677366
-0.49235534565625017	-0.3373547902995252
-0.49229431050000017	-0.3433033803477316
-0.49223327534375017	-0.34915991658678
-0.49217224018750017	-0.35492505045281264
-0.49211120503125017	-0.3605975486141795
-0.49205016987500017	-0.3661733243380161
-0.49198913471875017	-0.37165498252877904
-0.49192809956250017	-0.3770362732630013
-0.49186706440625017	-0.382319150453638
-0.49180602925000017	-0.3875011785354441
-0.49174499409375017	-0.3925795664479055
-0.49168395893750017	-0.3975564165791102
-0.49162292378125017	-0.40242578458993
-0.49156188862500017	-0.40719024659662767
-0.49150085346875017	-0.41184610837755536
-0.49143981831250017	-0.4163923038919298
-0.49137878315625017	-0.4208297853710573
-0.49131774800000017	-0.4251533175715442
-0.49125671284375017	-0.42936619363086564
-0.49119567768750017	-0.4334639308761692
-0.49113464253125017	-0.4374467196772333
-0.49107360737500017	-0.4413143078924451
-0.49101257221875017	-0.44506244892827407
-0.49095153706250017	-0.4486942539734385
-0.49089050190625017	-0.4522050225469445
-0.49082946675000017	-0.4555962595337409
-0.49076843159375017	-0.45886682039282456
-0.49070739643750017	-0.46201369170238415
-0.49064636128125017	-0.4650392206495089
-0.49058532612500017	-0.46793885973622307
-0.49052429096875017	-0.4707148783783065
-0.49046325581250017	-0.4733650997712698
-0.49040222065625017	-0.47588796788101223
-0.49034118550000017	-0.478285389610289
-0.49028015034375017	-0.4805533656330955
-0.49021911518750017	-0.48269434413870543
-0.49015808003125017	-0.4847056108834043
-0.49009704487500017	-0.48658695662007156
-0.49003600971875017	-0.48833918958261785
-0.48997497456250017	-0.4899589903950191
-0.48991393940625017	-0.4914491392796451
-0.48985290425000017	-0.4928067100602713
-0.48979186909375017	-0.4940323641601963
-0.48973083393750017	-0.49512621812717
-0.48966979878125017	-0.49608605128805827
-0.48960876362500017	-0.49691423607938984
-0.48954772846875017	-0.497607839345153
-0.48948669331250017	-0.4981684341389464
-0.48942565815625017	-0.49859540192981094
-0.48936462300000017	-0.4988875449830249
-0.48930358784375017	-0.49904685035441565
-0.48924255268750017	-0.4990706878698114
-0.48918151753125017	-0.4989611600857416
-0.48912048237500017	-0.4987171277489087
-0.48905944721875017	-0.49833835428061807
-0.48899841206250017	-0.4978263451979302
-0.48893737690625017	-0.49717907175559045
-0.48887634175000017	-0.49639880607982356
-0.48881530659375017	-0.4954841601304503
-0.48875427143750017	-0.494435840021172
-0.48869323628125017	-0.4932547381493818
-0.48863220112500017	-0.491939531569187
-0.48857116596875017	-0.49049247036046834
-0.48851013081250017	-0.4889121233934283
-0.48844909565625017	-0.4871999607181038
-0.48838806050000017	-0.485356367060134
-0.48832702534375017	-0.48338076363470683
-0.48826599018750017	-0.4812752871263999
-0.48820495503125017	-0.47903876093824244
-0.48814391987500017	-0.47667305198429194
-0.48808288471875017	-0.4741781002668616
-0.48802184956250017	-0.4715541687931565
-0.48796081440625017	-0.46880317640320185
-0.48789977925000017	-0.4659242913177955
-0.48783874409375017	-0.46291959931652854
-0.48777770893750017	-0.45978886911237266
-0.48771667378125017	-0.4565330950813264
-0.48765563862500017	-0.45315377225928255
-0.48759460346875017	-0.4496506153650365
-0.48753356831250017	-0.44602592459833235
-0.48747253315625017	-0.44227930669649856
-0.48741149800000017	-0.43841233232800547
-0.48735046284375017	-0.4344263350472689
-0.48728942768750017	-0.4303214405519617
-0.48722839253125017	-0.4260997455310512
-0.48716735737500017	-0.42176123946225486
-0.48710632221875017	-0.41730806628680545
-0.48704528706250017	-0.4127410524216494
-0.48698425190625017	-0.4080608107907449
-0.48692321675000017	-0.40326945605848497
-0.48686218159375017	-0.39836726488880203
-0.48680114643750017	-0.3933564570784257
-0.48674011128125017	-0.3882377296819757
-0.48667907612500017	-0.3830125852716657
-0.48661804096875017	-0.3776829547668267
-0.48655700581250017	-0.37224912852875447
-0.48649597065625017	-0.36671340990363516
-0.48643493550000017	-0.3610766876511223
-0.48637390034375017	-0.3553408528102721
-0.48631286518750017	-0.34950753248018823
-0.48625183003125017	-0.3435775267505478
-0.48619079487500017	-0.33755308086603586
-0.48612975971875017	-0.3314351397406915
-0.48606872456250017	-0.32522598560677696
-0.48600768940625017	-0.3189271636523981
-0.48594665425000017	-0.31254000430199363
-0.48588561909375017	-0.3060666313184267
-0.48582458393750017	-0.2995082143580974
-0.48576354878125017	-0.29286716139858815
-0.48570251362500017	-0.28614465486012214
-0.48564147846875017	-0.27934242503799506
-0.48558044331250017	-0.27246252932703546
-0.48551940815625017	-0.2655063610112416
-0.48545837300000017	-0.25847663078645366
-0.48539733784375017	-0.2513746601349199
-0.48533630268750017	-0.2442024451225431
-0.48527526753125017	-0.23696202410371503
-0.48521423237500017	-0.22965499835594883
-0.48515319721875017	-0.22228367315380498
-0.48509216206250017	-0.21484933546551427
-0.48503112690625017	-0.20735458502377485
-0.48497009175000017	-0.1998015050705742
-0.48490905659375017	-0.19219169902148275
-0.48484802143750017	-0.1845275703881808
-0.48478698628125017	-0.1768107995454296
-0.48472595112500017	-0.16904354024185247
-0.48466491596875017	-0.16122758075664384
-0.48460388081250017	-0.15336553723437088
-0.48454284565625017	-0.14545983255792846
-0.48448181050000017	-0.1375119604166524
-0.48442077534375017	-0.1295243571171686
-0.48435974018750017	-0.12149870127343522
-0.48429870503125017	-0.11343717515708605
-0.48423766987500017	-0.10534213212695467
-0.48417663471875017	-0.09721587420435483
-0.48411559956250017	-0.08906084741653184
-0.48405456440625017	-0.08087863111544805
-0.48399352925000017	-0.07267177000257695
-0.48393249409375017	-0.06444250670340068
-0.48387145893750017	-0.05619280834536446
-0.48381042378125017	-0.0479247730058259
-0.48374938862500017	-0.03964088155272407
-0.48368835346875017	-0.03134384312695638
-0.48362731831250017	-0.0230349761084511
-0.48356628315625017	-0.014716733198436166
-0.48350524800000017	-0.006391847816015726
-0.48344421284375017	0.0019375009160928494
-0.48338317768750017	0.010269440334924941
-0.48332214253125017	0.018602002634564792
-0.48326110737500017	0.026932204602802223
-0.48320007221875017	0.03525839823955169
-0.48313903706250017	0.04357813848683645
-0.48307800190625017	0.051888609550379654
-0.48301696675000017	0.06018782410909535
-0.48295593159375017	0.06847380665053196
-0.48289489643750017	0.07674485673963775
-0.48283386128125017	0.08499809622557108
-0.48277282612500017	0.09323147630862975
-0.48271179096875017	0.10144250030455841
-0.48265075581250017	0.10962868269754983
-0.48258972065625017	0.11778852030972156
-0.48252868550000017	0.12591939214083017
-0.48246765034375017	0.13401926376138648
-0.48240661518750017	0.1420857339807705
-0.48234558003125017	0.15011690461832541
-0.48228454487500017	0.15811059419039852
-0.48222350971875017	0.16606405468729096
-0.48216247456250017	0.17397579242110578
-0.48210143940625017	0.18184342718501856
-0.48204040425000017	0.18966488951241592
-0.48197936909375017	0.19743770514863307
-0.48191833393750017	0.2051598588811231
-0.48185729878125017	0.21282988317129348
-0.48179626362500017	0.22044487637538562
-0.48173522846875017	0.22800331476955052
-0.48167419331250017	0.23550297159635147
-0.48161315815625017	0.24294147730291415
-0.48155212300000017	0.25031718911593237
-0.48149108784375017	0.25762762869792116
-0.48143005268750017	0.2648715424284588
-0.48136901753125017	0.27204640237805383
-0.48130798237500017	0.2791502498799404
-0.48124694721875017	0.2861816954226974
-0.48118591206250017	0.29313805241918417
-0.48112487690625017	0.30001830568718785
-0.48106384175000017	0.3068195802142052
-0.48100280659375017	0.3135402725960256
-0.48094177143750017	0.320179040316663
-0.48088073628125017	0.3267331261220295
-0.48081970112500017	0.3332021331100651
-0.48075866596875017	0.33958303103462534
-0.48069763081250017	0.3458748451855708
-0.48063659565625017	0.35207569360943713
-0.48057556050000017	0.3581829840844758
-0.48051452534375017	0.36419660322695435
-0.48045349018750017	0.37011312799378165
-0.48039245503125017	0.37593260332501177
-0.48033141987500017	0.3816525142299444
-0.48027038471875017	0.3872709805613133
-0.48020934956250017	0.39278774184077114
-0.48014831440625017	0.398199230601305
-0.48008727925000017	0.4035062983762972
-0.48002624409375017	0.40870564769516604
-0.47996520893750017	0.41379655472038857
-0.47990417378125017	0.4187782680947624
-0.47984313862500017	0.42364746547388055
-0.47978210346875017	0.4284053135708875
-0.47972106831250017	0.4330480559134734
-0.47966003315625017	0.4375761458937317
-0.47959899800000017	0.44198808926144145
-0.47953796284375017	0.4462812399424382
-0.47947692768750017	0.45045688122998473
-0.47941589253125017	0.4545109466816656
-0.47935485737500017	0.45844452852590994
-0.47929382221875017	0.46225568013529583
-0.47923278706250017	0.4659426400882013
-0.47917175190625017	0.46950665438703904
-0.47911071675000017	0.4729436613308931
-0.47904968159375017	0.47625544875287085
-0.47898864643750017	0.47943948724908053
-0.47892761128125017	0.4824944314177215
-0.47886657612500017	0.4854217369465852
-0.47880554096875017	0.48821727706606177
-0.47874450581250017	0.49088348960888756
-0.47868347065625017	0.49341757299454125
-0.47862243550000017	0.4958189053699123
-0.47856140034375017	0.4980888720838943
-0.47850036518750017	0.5002231095301255
-0.47843933003125017	0.502224943208002
-0.47837829487500017	0.5040909205135535
-0.47831725971875017	0.5058212972016516
-0.47825622456250017	0.5074172638458958
-0.47819518940625017	0.5088746902474662
-0.47813415425000017	0.5101976097320848
-0.47807311909375017	0.5113817387631833
-0.47801208393750017	0.5124286704144689
-0.47795104878125017	0.5133387993256866
-0.47789001362500017	0.5141086102787015
-0.47782897846875017	0.5147425039700104
-0.47776794331250017	0.5152356982310251
-0.47770690815625017	0.5155911202982616
-0.47764587300000017	0.5158079673456443
-0.47758483784375017	0.5158841197948029
-0.47752380268750017	0.5158236132069441
-0.47746276753125017	0.5156215378555016
-0.47740173237500017	0.5152820765603865
-0.47734069721875017	0.5148031454856364
-0.47727966206250017	0.51418423741583
-0.47721862690625017	0.5134285631030123
-0.47715759175000017	0.5125317677832256
-0.47709655659375017	0.5114986488645461
-0.47703552143750017	0.5103261348668154
-0.47697448628125017	0.5090154846115242
-0.47691345112500017	0.5075686348646574
-0.47685241596875017	0.5059822851540554
-0.47679138081250017	0.5042614263103792
-0.47673034565625017	0.5024024024408442
-0.47666931050000017	0.5004079582890044
-0.47660827534375017	0.49827879125320007
-0.47654724018750017	0.4960129024779125
-0.47648620503125017	0.49361493981845955
-0.47642516987500017	0.4910811761766542
-0.47636413471875017	0.4884154146350574
-0.47630309956250017	0.4856174134714231
-0.47624206440625017	0.48268657811746446
-0.47618102925000017	0.47962676747151556
-0.47611999409375017	0.476434719988842
-0.47605895893750017	0.47311478069863
-0.47599792378125017	0.46966599639380624
-0.47593688862500017	0.46608926988904104
-0.47587585346875017	0.4623875065914892
-0.47581481831250017	0.4585581702052736
-0.47575378315625017	0.45460576414101567
-0.47569274800000017	0.4505289826691185
-0.47563171284375017	0.44632993255990405
-0.47557067768750017	0.44201033709724374
-0.47550964253125017	0.43756877193872773
-0.47544860737500017	0.4330100008034697
-0.47538757221875017	0.4283323623740136
-0.47532653706250017	0.4235384578814891
-0.47526550190625017	0.418629552478267
-0.47520446675000017	0.41360567487427125
-0.47514343159375017	0.40847079405672454
-0.47508239643750017	0.4032232625786006
-0.47502136128125017	0.39786656712117024
-0.47496032612500017	0.3924013595341823
-0.47489929096875017	0.3868286035823475
-0.47483825581250017	0.38115156138691353
-0.47477722065625017	0.3753692082232455
-0.47471618550000017	0.3694855677044317
-0.47465515034375017	0.363500574835289
-0.47459411518750017	0.3574159731547033
-0.47453308003125017	0.3512347113853472
-0.47447204487500017	0.3449565802576564
-0.47441100971875017	0.33858540394681635
-0.47434997456250017	0.3321209907152512
-0.47428893940625017	0.3255660183617395
-0.47422790425000017	0.3189224527955591
-0.47416686909375017	0.31219065553865055
-0.47410583393750017	0.3053745159588621
-0.47404479878125017	0.2984739506670894
-0.47398376362500017	0.2914921179330882
-0.47392272846875017	0.28443074630662396
-0.47386169331250017	0.27729108851415124
-0.47380065815625017	0.2700763270209532
-0.47373962300000017	0.2627866867300505
-0.47367858784375017	0.25542576554821395
-0.47361755268750017	0.2479944856361878
-0.47355651753125017	0.24049483796364243
-0.47349548237500017	0.2329300907088447
-0.47343444721875017	0.2253007573822864
-0.47337341206250017	0.21761022641733582
-0.47331237690625017	0.20985949099970733
-0.47325134175000017	0.20205119520855763
-0.47319030659375017	0.19418768776380851
-0.47312927143750017	0.1862700172545603
-0.47306823628125017	0.17830196444259022
-0.47300720112500017	0.17028451269374706
-0.47294616596875017	0.1622206986274992
-0.47288513081250017	0.15411251559141403
-0.47282409565625017	0.14596121623772493
-0.47276306050000017	0.13777005759571975
-0.47270202534375017	0.12954021445847272
-0.47264099018750017	0.12127520023044601
-0.47257995503125017	0.11297682275360152
-0.47251891987500017	0.10464688561582956
-0.47245788471875017	0.09628845941605614
-0.47239684956250017	0.08790304434595181
-0.47233581440625017	0.0794939700184799
-0.47227477925000017	0.07106265191043565
-0.47221374409375017	0.06261154076158959
-0.47215270893750017	0.05414315855957925
-0.47209167378125017	0.04565893423164599
-0.47203063862500017	0.03716250143897961
-0.47196960346875017	0.028655573652150202
-0.47190856831250017	0.020140765798867335
-0.47184753315625017	0.011620363970692058
-0.47178649800000017	0.003096166070325181
-0.47172546284375017	-0.005428825354743913
-0.47166442768750017	-0.013952905591016751
-0.47160339253125017	-0.022473039787223384
-0.47154235737500017	-0.030987198107107945
-0.47148132221875017	-0.03949323143266035
-0.47142028706250017	-0.047988427161749996
-0.47135925190625017	-0.0564710140194428
-0.47129821675000017	-0.06493781309743756
-0.47123718159375017	-0.07338692282731452
-0.47117614643750017	-0.08181602448647092
-0.47111511128125017	-0.09022276205087841
-0.47105407612500017	-0.09860520970079042
-0.47099304096875017	-0.1069603828338584
-0.47093200581250017	-0.11528661590961052
-0.47087097065625017	-0.12358123189430899
-0.47080993550000017	-0.13184184170878582
-0.47074890034375017	-0.1400663116333604
-0.47068786518750017	-0.1482520192237549
-0.47062683003125017	-0.1563976277744819
-0.47056579487500017	-0.16450033917069812
-0.47050475971875017	-0.172557792403424
-0.47044372456250017	-0.18056779847545598
-0.47038268940625017	-0.18852774870691816
