Time	Frequency
-0.5000381458437531	-0.2002323647801928
-0.49997711068750306	-0.21055871483940738
-0.49991607553125306	-0.2207391923683622
-0.49985504037500306	-0.2308106269602183
-0.49979400521875306	-0.24084761815352224
-0.49973297006250306	-0.25082463086644774
-0.49967193490625306	-0.2606574354315095
-0.49961089975000306	-0.27034501371281633
-0.49954986459375306	-0.2799613325556429
-0.49948882943750306	-0.2895173547243355
-0.49942779428125306	-0.2989383129634241
-0.49936675912500306	-0.308190747886647
-0.49930572396875306	-0.31733232925295185
-0.49924468881250306	-0.3264014712662262
-0.49918365365625306	-0.33534541260278256
-0.49912261850000306	-0.344109804954615
-0.49906158334375306	-0.35272710079676844
-0.49900054818750306	-0.36125038546493066
-0.49893951303125306	-0.36965445695670834
-0.49887847787500306	-0.3778773358252285
-0.49881744271875306	-0.38592379919191694
-0.49875640756250306	-0.39384844438908273
-0.49869537240625306	-0.40165323244306644
-0.49863433725000306	-0.40928131626371944
-0.49857330209375306	-0.4167132454182425
-0.49851226693750306	-0.42399366599560884
-0.49845123178125306	-0.4311456221242422
-0.49839019662500306	-0.4381266619330663
-0.49832916146875306	-0.44490086680509056
-0.49826812631250306	-0.451496098089032
-0.49820709115625306	-0.45794788891493715
-0.49814605600000306	-0.4642330567847381
-0.49808502084375306	-0.47030862039269145
-0.49802398568750306	-0.47618296274042643
-0.49796295053125306	-0.48189426865792256
-0.49790191537500306	-0.48743877251401013
-0.49784088021875306	-0.492775793336107
-0.49777984506250306	-0.4978963932989774
-0.49771880990625306	-0.5028333122507769
-0.49765777475000306	-0.5075985314522106
-0.49759673959375306	-0.5121605487172596
-0.49753570443750306	-0.5164980932538922
-0.49747466928125306	-0.5206329703537355
-0.49741363412500306	-0.5245867787725841
-0.49735259896875306	-0.528340877554621
-0.49729156381250306	-0.5318683710863757
-0.49723052865625306	-0.5351783516350042
-0.49716949350000306	-0.5382953899308949
-0.49710845834375306	-0.541214004257402
-0.49704742318750306	-0.5439081346065641
-0.49698638803125306	-0.5463752756538542
-0.49692535287500306	-0.548636958974587
-0.49686431771875306	-0.5506982790237498
-0.49680328256250306	-0.5525390695388209
-0.49674224740625306	-0.5541490646442245
-0.49668121225000306	-0.5555431257012781
-0.49662017709375306	-0.5567323949320755
-0.49655914193750306	-0.5577047729420263
-0.49649810678125306	-0.5584470334980861
-0.49643707162500306	-0.5589665658896186
-0.49637603646875306	-0.5592758806179059
-0.49631500131250306	-0.5593704897157759
-0.49625396615625306	-0.5592383589806581
-0.49619293100000306	-0.5588809063384769
-0.49613189584375306	-0.5583086714912455
-0.49607086068750306	-0.5575225655777639
-0.49600982553125306	-0.5565142474005264
-0.49594879037500306	-0.5552818819377885
-0.49588775521875306	-0.5538323931556653
-0.49582672006250306	-0.55216904825261
-0.49576568490625306	-0.5502879339133175
-0.49570464975000306	-0.5481870836033036
-0.49564361459375306	-0.5458700174153482
-0.49558257943750306	-0.5433394429520397
-0.49552154428125306	-0.540594731920597
-0.49546050912500306	-0.5376361826117486
-0.49539947396875306	-0.5344657754380189
-0.49533843881250306	-0.53108393825325
-0.49527740365625306	-0.5274909434998529
-0.49521636850000306	-0.5236902652565526
-0.49515533334375306	-0.5196851204638305
-0.49509429818750306	-0.5154737817593309
-0.49503326303125306	-0.5110545704400531
-0.49497222787500306	-0.5064329384792098
-0.49491119271875306	-0.5016157077041739
-0.49485015756250306	-0.4966008290948765
-0.49478912240625306	-0.49138297695776495
-0.49472808725000306	-0.4859673646674614
-0.49466705209375306	-0.48036541010792577
-0.49460601693750306	-0.47457727688803525
-0.49454498178125306	-0.4685937196044516
-0.49448394662500306	-0.46241685230024143
-0.49442291146875306	-0.456062105058002
-0.49436187631250306	-0.4495349009253056
-0.49430084115625306	-0.44282363977778444
-0.49423980600000306	-0.435924416576608
-0.49417877084375306	-0.42885406670127446
-0.49411773568750306	-0.42162550981239616
-0.49405670053125306	-0.41422804068888736
-0.49399566537500306	-0.40665020312222816
-0.49393463021875306	-0.39890644659116953
-0.49387359506250306	-0.3910179854042845
-0.49381255990625306	-0.38297938563217293
-0.49375152475000306	-0.3747719050339677
-0.49369048959375306	-0.36640287779448855
-0.49362945443750306	-0.3579000708863825
-0.49356841928125306	-0.3492677050245704
-0.49350738412500306	-0.3404828847053621
-0.49344634896875306	-0.3315421242208718
-0.49338531381250306	-0.32247521984312466
-0.49332427865625306	-0.3132987208610844
-0.49326324350000306	-0.30399107896443184
-0.49320220834375306	-0.29453651937912706
-0.49314117318750306	-0.2849610494239143
-0.49308013803125306	-0.2752938349035659
-0.49301910287500306	-0.26552039262429583
-0.49295806771875306	-0.2556133203683042
-0.49289703256250306	-0.24558883185582803
-0.49283599740625306	-0.23548657651720412
-0.49277496225000306	-0.22530524875538582
-0.49271392709375306	-0.21500973388343322
-0.49265289193750306	-0.20460078210352545
-0.49259185678125306	-0.1941230098751585
-0.49253082162500306	-0.1835930786407479
-0.49246978646875306	-0.17297497073800308
-0.49240875131250306	-0.1622503022839314
-0.49234771615625306	-0.15146046457510684
-0.49228668100000306	-0.14064177675131648
-0.49222564584375306	-0.12976627578724348
-0.49216461068750306	-0.11879696613254109
-0.49210357553125306	-0.10776278261224626
-0.49204254037500306	-0.09671711575436495
-0.49198150521875306	-0.08564933690750297
-0.49192047006250306	-0.07450858101656829
-0.49185943490625306	-0.06330238455049952
-0.49179839975000306	-0.05209381697791458
-0.49173736459375306	-0.04089706061239368
-0.49167632943750306	-0.029656900834272013
-0.49161529428125306	-0.018353771536076893
-0.49155425912500306	-0.007049265270451976
-0.49149322396875306	0.004213854313623561
-0.49143218881250306	0.015482441520134565
-0.49137115365625306	0.026804069005946236
-0.49131011850000306	0.03813253315057229
-0.49124908334375306	0.049399628658242815
-0.49118804818750306	0.060630238330329336
-0.49112701303125306	0.071893447524141
-0.49106597787500306	0.08317108629710654
-0.49100494271875306	0.09437860238455534
-0.49094390756250306	0.10550736038477586
-0.49088287240625306	0.1166358325106852
-0.49082183725000306	0.1277835689276328
-0.49076080209375306	0.13886545864915184
-0.49069976693750306	0.14983330347933735
-0.49063873178125306	0.16075666016333545
-0.49057769662500306	0.17169424488554927
-0.49051666146875306	0.18257960843192442
-0.49045562631250306	0.1933283114148063
-0.49039459115625306	0.2039819806753526
-0.49033355600000306	0.21463066277985907
-0.49027252084375306	0.22524492020656114
-0.49021148568750306	0.2357167993405108
-0.49015045053125306	0.24604362459217316
-0.49008941537500306	0.2563292099281393
-0.49002838021875306	0.2665938621854928
-0.48996734506250306	0.2767277747385175
-0.48990630990625306	0.28667638086123837
-0.48984527475000306	0.29653281057445113
-0.48978423959375306	0.30636867067009865
-0.48972320443750306	0.3160982683809004
-0.48966216928125306	0.3256204052350718
-0.48960113412500306	0.3349920463873217
-0.48954009896875306	0.34432416187761844
-0.48947906381250306	0.3535783809820384
-0.48941802865625306	0.3626250622681151
-0.48935699350000306	0.3714656875537862
-0.48929595834375306	0.3802269201307979
-0.48923492318750306	0.3889316377571307
-0.48917388803125306	0.39744982778091237
-0.48911285287500306	0.40572051351456806
-0.48905181771875306	0.4138553772168641
-0.48899078256250306	0.4219377692614673
-0.48892974740625306	0.4298687504131244
-0.48886871225000306	0.43753400764052314
-0.48880767709375306	0.44500036411045507
-0.48874664193750306	0.4523942885375273
-0.48868560678125306	0.45967371315727545
-0.48862457162500306	0.4666955259537251
-0.48856353646875306	0.47346224619430766
-0.48850250131250306	0.48011370063038084
-0.48844146615625306	0.4866765975752742
-0.48838043100000306	0.49301232211458984
-0.48831939584375306	0.4990557102028546
-0.48825836068750306	0.5049251220938542
-0.48819732553125306	0.5107101793361305
-0.48813629037500306	0.5163104145343079
-0.48807525521875306	0.5216080199245923
-0.48801422006250306	0.5266704143885889
-0.48795318490625306	0.531627179281867
-0.48789214975000306	0.5364391357273294
-0.48783111459375306	0.5409650420791257
-0.48777007943750306	0.5452062611286436
-0.48770904428125306	0.5492992462265228
-0.48764800912500306	0.5532722261370652
-0.48758697396875306	0.5569946899971254
-0.48752593881250306	0.5604049333575234
-0.48746490365625306	0.5636137627799385
-0.48740386850000306	0.5667055461018664
-0.48734283334375306	0.5695893388522545
-0.48728179818750306	0.5721587330257355
-0.48722076303125306	0.5744753570501192
-0.48715972787500306	0.5766557437448439
-0.48709869271875306	0.5786654750402215
-0.48703765756250306	0.5803813105060719
-0.48697662240625306	0.5818063619678799
-0.48691558725000306	0.5830598220055423
-0.48685455209375306	0.5841652938264784
-0.48679351693750306	0.5850115726717404
-0.48673248178125306	0.5855490243565216
-0.48667144662500306	0.5858730973532991
-0.48661041146875306	0.5860533566410725
-0.48654937631250306	0.5860131928374225
-0.48648834115625306	0.5856674660318579
-0.48642730600000306	0.5850703976100945
-0.48636627084375306	0.584316569533802
-0.48630523568750306	0.5833755535190266
-0.48624420053125306	0.5821496487239773
-0.48618316537500306	0.5806463956818566
-0.48612213021875306	0.5789621438238783
-0.48606109506250306	0.5771122725214481
-0.48600005990625306	0.5750085975583845
-0.48593902475000306	0.5726175434654086
-0.48587798959375306	0.5700174993417885
-0.48581695443750306	0.5672597132554313
-0.48575591928125306	0.5642820191732626
-0.48569488412500306	0.5610230970760779
-0.48563384896875306	0.55753067744952
-0.48557281381250306	0.5538760548025917
-0.48551177865625306	0.5500315703484622
-0.48545074350000306	0.5459253021069677
-0.48538970834375306	0.5415702263144063
-0.48532867318750306	0.537040457302818
-0.48526763803125306	0.5323426532316159
-0.48520660287500306	0.5274104001108156
-0.48514556771875306	0.5222257351600356
-0.48508453256250306	0.516851248081287
-0.48502349740625306	0.5113211873950619
-0.48496246225000306	0.5055868621571623
-0.48490142709375306	0.4996085664918995
-0.48484039193750306	0.4934277780451882
-0.48477935678125306	0.4870952025641651
-0.48471832162500306	0.4805863305404418
-0.48465728646875306	0.47385165215085034
-0.48459625131250306	0.4669078869966639
-0.48453521615625306	0.45981009096038494
-0.48447418100000306	0.45255897733615347
-0.48441314584375306	0.44510721829192074
-0.48435211068750306	0.43744869834602873
-0.48429107553125306	0.4296317632261225
-0.48423004037500306	0.42167745543446983
-0.48416900521875306	0.4135495801082948
-0.48410797006250306	0.4052257666707451
-0.48404693490625306	0.3967408715241025
-0.48398589975000306	0.38812903698825024
-0.48392486459375306	0.3793703198831283
-0.48386382943750306	0.37043385282231245
-0.48380279428125306	0.361337364040589
-0.48374175912500306	0.35211954246526767
-0.48368072396875306	0.3427781855374394
-0.48361968881250306	0.33328261378341717
-0.48355865365625306	0.32363437442780946
-0.48349761850000306	0.31386880597594
-0.48343658334375306	0.30399846179072415
-0.48337554818750306	0.29399943785230004
-0.48331451303125306	0.2838613406575372
-0.48325347787500306	0.2736107164141779
-0.48319244271875306	0.26326958401088646
-0.48313140756250306	0.2528248865552444
-0.48307037240625306	0.2422603370712223
-0.48300933725000306	0.23159132058280235
-0.48294830209375306	0.22084293995539533
-0.48288726693750306	0.21001339307885575
-0.48282623178125306	0.19908639287586644
-0.48276519662500306	0.1880671861222684
-0.48270416146875306	0.17697874657515428
-0.48264312631250306	0.1658283810376668
-0.48258209115625306	0.15460442798957727
-0.48252105600000306	0.1433053995689691
-0.48246002084375306	0.13194846526243406
-0.48239898568750306	0.12054541463645221
-0.48233795053125306	0.10909087746958589
-0.48227691537500306	0.09758109757296378
-0.48221588021875306	0.08602739133219585
-0.48215484506250306	0.07444246728436546
-0.48209380990625306	0.06282669415481423
-0.48203277475000306	0.05117706307829188
-0.48197173959375306	0.03949994517626573
-0.48191070443750306	0.027806077802610227
-0.48184966928125306	0.016099699626927585
-0.48178863412500306	0.004380774861917616
-0.48172759896875306	-0.007346654166797677
-0.48166656381250306	-0.019075238513507634
-0.48160552865625306	-0.030799895940934147
-0.48154449350000306	-0.042517226314874694
-0.48148345834375306	-0.05422252876915733
-0.48142242318750306	-0.06591135558336032
-0.48136138803125306	-0.0775804961577785
-0.48130035287500306	-0.08922458070442028
-0.48123931771875306	-0.10083617752721825
-0.48117828256250306	-0.1124115543664722
-0.48111724740625306	-0.12395078034499397
-0.48105621225000306	-0.13544939624260566
-0.48099517709375306	-0.14689677282980995
-0.48093414193750306	-0.1582869068145823
-0.48087310678125306	-0.16962282623714633
-0.48081207162500306	-0.18090378919634117
-0.48075103646875306	-0.19211707088970412
-0.48069000131250306	-0.203251961694158
-0.48062896615625306	-0.2143125173480493
-0.48056793100000306	-0.22530359411283243
-0.48050689584375306	-0.2362131655733097
-0.48044586068750306	-0.24702478686384927
-0.48038482553125306	-0.2577403881570867
-0.48032379037500306	-0.2683708958395882
-0.48026275521875306	-0.2789086329744344
-0.48020172006250306	-0.28933192479008507
-0.48014068490625306	-0.2996366010989521
-0.48007964975000306	-0.3098378036047491
-0.48001861459375306	-0.3199359265868677
-0.47995757943750306	-0.32990702004049904
-0.47989654428125306	-0.3397377620421773
-0.47983550912500306	-0.34944391127376995
-0.47977447396875306	-0.3590364437661732
-0.47971343881250306	-0.3684938024637049
-0.47965240365625306	-0.3777923037165622
-0.47959136850000306	-0.3869428213157924
-0.47953033334375306	-0.39596629548644
-0.47946929818750306	-0.40484911738311113
-0.47940826303125306	-0.4135594175235902
-0.47934722787500306	-0.4220981962280988
-0.47928619271875306	-0.43049324895660157
-0.47922515756250306	-0.4387434114275977
-0.47916412240625306	-0.4468127704254156
-0.47910308725000306	-0.45468867084901293
-0.47904205209375306	-0.46240062647663643
-0.47898101693750306	-0.46996286204205556
-0.47891998178125306	-0.4773415193598933
-0.47885894662500306	-0.48450840778045834
-0.47879791146875306	-0.4914878136992411
-0.47873687631250306	-0.4983099103304688
-0.47867584115625306	-0.5049506624250484
-0.47861480600000306	-0.511367725884165
-0.47855377084375306	-0.5175721275545513
-0.47849273568750306	-0.523606415054348
-0.47843170053125306	-0.5294639759005115
-0.47837066537500306	-0.5350939638631163
-0.47830963021875306	-0.5404877037663941
-0.47824859506250306	-0.5456929213505958
-0.47818755990625306	-0.550725569512749
-0.47812652475000306	-0.5555349481338553
-0.47806548959375306	-0.5600890257344928
-0.47800445443750306	-0.5644305181415917
-0.47794341928125306	-0.5685995491429661
-0.47788238412500306	-0.5725570457692635
-0.47782134896875306	-0.5762488299524583
-0.47776031381250306	-0.5797007897193407
-0.47769927865625306	-0.5829730962141961
-0.47763824350000306	-0.5860496926107799
-0.47757720834375306	-0.5888612272211899
-0.47751617318750306	-0.5914064492928627
-0.47745513803125306	-0.5937558125025089
-0.47739410287500306	-0.595924802816981
-0.47733306771875306	-0.5978412583856219
-0.47727203256250306	-0.5994707740486035
-0.47721099740625306	-0.6008796757164581
-0.47714996225000306	-0.6021180842384493
-0.47708892709375306	-0.6031270034475746
-0.47702789193750306	-0.6038392745724637
-0.47696685678125306	-0.6043002046984316
-0.47690582162500306	-0.6045899923989072
-0.47684478646875306	-0.6046795909193963
-0.47678375131250306	-0.6044781424545559
-0.47672271615625306	-0.6039945460531054
-0.47666168100000306	-0.6033257692192785
-0.47660064584375306	-0.6024855951497589
-0.47653961068750306	-0.601376579416836
-0.47647857553125306	-0.5999618510760153
-0.47641754037500306	-0.5983348157377022
-0.47635650521875306	-0.5965568939071325
-0.47629547006250306	-0.5945466684555669
-0.47623443490625306	-0.5922221458773278
-0.47617339975000306	-0.5896495881209568
-0.47611236459375306	-0.5869314076481355
-0.47605132943750306	-0.58402522748253
-0.47599029428125306	-0.5808167264878074
-0.47592925912500306	-0.5773242379374486
-0.47586822396875306	-0.5736724451768049
-0.47580718881250306	-0.5698747930097617
-0.47574615365625306	-0.5658084454165863
-0.47568511850000306	-0.5614325507900855
-0.47562408334375306	-0.5568664913263808
-0.47556304818750306	-0.552184143523617
-0.47550201303125306	-0.5472838389673949
-0.47544097787500306	-0.5420683077747627
-0.47537994271875306	-0.5366215607099671
-0.47531890756250306	-0.5310672178711637
-0.47525787240625306	-0.5253531944744714
-0.47519683725000306	-0.5193443371526436
-0.47513580209375306	-0.5130646945271442
-0.47507476693750306	-0.5066619361782736
-0.47501373178125306	-0.5001520258005133
-0.47495269662500306	-0.4933933337070518
-0.47489166146875306	-0.4863395667605416
-0.47483062631250306	-0.4791274769357175
-0.47476959115625306	-0.47184211257851116
-0.47470855600000306	-0.4643709971336978
-0.47464752084375306	-0.45660579822859404
-0.47458648568750306	-0.4486385845272368
-0.47452545053125306	-0.4406063024388083
-0.47446441537500306	-0.4324554951038014
-0.47440338021875306	-0.4240412953321693
-0.47434234506250306	-0.41538727476498183
-0.47428130990625306	-0.4066496099170825
-0.47422027475000306	-0.3978488430097657
-0.47415923959375306	-0.38884039694421046
-0.47409820443750306	-0.37957471831937684
-0.47403716928125306	-0.3701897030846573
-0.47397613412500306	-0.3607743490379964
-0.47391509896875306	-0.35122002438103156
-0.47385406381250306	-0.34141892931103857
-0.47379302865625306	-0.33145872184495695
-0.47373199350000306	-0.3214733535557396
-0.47367095834375306	-0.31141573461069066
-0.47360992318750306	-0.30114995242892706
-0.47354888803125306	-0.2906965609007557
-0.47348785287500306	-0.28020061338957236
-0.47342681771875306	-0.26968359249965856
-0.47336578256250306	-0.2590158817183399
-0.47330474740625306	-0.24815297772624922
-0.47324371225000306	-0.23721823097380582
-0.47318267709375306	-0.22629168310072822
-0.47312164193750306	-0.21527961820767758
-0.47306060678125306	-0.20408969812858624
-0.47299957162500306	-0.19279884472438924
-0.47293853646875306	-0.18152221816575487
-0.47287750131250306	-0.17021975240775677
-0.47281646615625306	-0.15877824048427921
-0.47275543100000306	-0.1472179385864128
-0.47269439584375306	-0.13566093875794225
-0.47263336068750306	-0.12412393148845711
-0.47257232553125306	-0.11250091540556878
-0.47251129037500306	-0.1007592593798128
-0.47245025521875306	-0.08900151384765423
-0.47238922006250306	-0.0772906251385862
-0.47232818490625306	-0.06555034451693349
-0.47226714975000306	-0.05371075986314822
-0.47220611459375306	-0.04183726935504513
-0.47214507943750306	-0.030019994425040594
-0.47208404428125306	-0.018224814220238167
-0.47202300912500306	-0.006365834610980201
-0.47196197396875306	0.0055353736969024885
-0.47190093881250306	0.01738356882904105
-0.47183990365625306	0.029170121309394653
-0.47177886850000306	0.040976264178488445
-0.47171783334375306	0.0528201357847792
-0.47165679818750306	0.06461985755663253
-0.47159576303125306	0.07633178107082245
-0.47153472787500306	0.08801626734414114
-0.47147369271875306	0.09972016934683096
-0.47141265756250306	0.11138815525376317
-0.47135162240625306	0.12295534446576359
-0.47129058725000306	0.1344523241084456
-0.47122955209375306	0.1459397918952877
-0.47116851693750306	0.1573939803137276
-0.47110748178125306	0.16874379097108166
-0.47104644662500306	0.17998821378372973
-0.47098541146875306	0.19118685507686214
-0.47092437631250306	0.20234598676843452
-0.47086334115625306	0.21340257058716186
-0.47080230600000306	0.22432924493248751
-0.47074127084375306	0.23517233175216118
-0.47068023568750306	0.2459603643601639
-0.47061920053125306	0.2566482079362366
-0.47055816537500306	0.2671915825690808
-0.47049713021875306	0.27761614338592566
-0.47043609506250306	0.28796191717684916
-0.47037505990625306	0.29820592818326425
