Time	Frequency
-0.5000040412187516	4.030987676364281e-23
-0.49994300606250164	4.028550079791199e-23
-0.49988197090625164	4.025038908253961e-23
-0.49982093575000164	4.0205515740712835e-23
-0.49975990059375164	4.014895504136033e-23
-0.49969886543750164	4.0081113728784667e-23
-0.49963783028125164	4.00035647124626e-23
-0.49957679512500164	3.9914902889600634e-23
-0.49951575996875164	3.981464281810552e-23
-0.49945472481250164	3.970448447212138e-23
-0.49939368965625164	3.9583807696602007e-23
-0.49933265450000164	3.94515091818523e-23
-0.49927161934375164	3.93089741589278e-23
-0.49921058418750164	3.9156386640763234e-23
-0.49914954903125164	3.899243893854839e-23
-0.49908851387500164	3.881793304639955e-23
-0.49902747871875164	3.863363499551395e-23
-0.49896644356250164	3.8438397211529373e-23
-0.49890540840625164	3.823241384007677e-23
-0.49884437325000164	3.801675283994079e-23
-0.49878333809375164	3.779064652997877e-23
-0.49872230293750164	3.755376511709898e-23
-0.49866126778125164	3.7307199181866184e-23
-0.49860023262500164	3.705068169280463e-23
-0.49853919746875164	3.678353795402819e-23
-0.49847816231250164	3.6506618408827764e-23
-0.49841712715625164	3.6220151257675967e-23
-0.49835609200000164	3.592340415513678e-23
-0.49829505684375164	3.5616857769296084e-23
-0.49823402168750164	3.530106221234338e-23
-0.49817298653125164	3.4975416392102645e-23
-0.49811195137500164	3.464001720474373e-23
-0.49805091621875164	3.429556381619867e-23
-0.49798988106250164	3.394174615758622e-23
-0.49792884590625164	3.357835201295388e-23
-0.49786781075000164	3.3206019905021917e-23
-0.49780677559375164	3.2824788174399875e-23
-0.49774574043750164	3.243431208515477e-23
-0.49768470528125164	3.203502534383899e-23
-0.49762367012500164	3.1627232962531566e-23
-0.49756263496875164	3.121060991987798e-23
-0.49750159981250164	3.0785329488499354e-23
-0.49744056465625164	3.0351852258339816e-23
-0.49737952950000164	2.9910034462412856e-23
-0.49731849434375164	2.94598481973936e-23
-0.49725745918750164	2.9001757380759596e-23
-0.49719642403125164	2.853580675349152e-23
-0.49713538887500164	2.806180238973224e-23
-0.49707435371875164	2.7580103268531276e-23
-0.49701331856250164	2.709102026697498e-23
-0.49695228340625164	2.659436554039115e-23
-0.49689124825000164	2.6090274681457515e-23
-0.49683021309375164	2.5579201273716055e-23
-0.49676917793750164	2.506108984001896e-23
-0.49670814278125164	2.4535865401223844e-23
-0.49664710762500164	2.4003996003212852e-23
-0.49658607246875164	2.3465619962396538e-23
-0.49652503731250164	2.292052284476084e-23
-0.49646400215625164	2.236910163802083e-23
-0.49640296700000164	2.1811720949559676e-23
-0.49634193184375164	2.124809560159488e-23
-0.49628089668750164	2.0678450155495956e-23
-0.49621986153125164	2.010337898845098e-23
-0.49615882637500164	1.9522637490704952e-23
-0.49609779121875164	1.8936151830001865e-23
-0.49603675606250164	1.8344648392655727e-23
-0.49597572090625164	1.7748131054695427e-23
-0.49591468575000164	1.714628445676374e-23
-0.49585365059375164	1.6539800918220482e-23
-0.49579261543750164	1.5928966518948484e-23
-0.49573158028125164	1.5313261837377545e-23
-0.49567054512500164	1.469319927512738e-23
-0.49560950996875164	1.4069419186431273e-23
-0.49554847481250164	1.3441367572085503e-23
-0.49548743965625164	1.280923207817491e-23
-0.49542640450000164	1.2173937541055193e-23
-0.49536536934375164	1.1535083330315695e-23
-0.49530433418750164	1.089247163093237e-23
-0.49524329903125164	1.024717302438072e-23
-0.49518226387500164	9.599093572124522e-24
-0.49512122871875164	8.947627280084405e-24
-0.49506019356250164	8.293783351696229e-24
-0.49499915840625164	7.637937295848808e-24
-0.49493812325000164	6.979229418809471e-24
-0.49487708809375164	6.318414536226927e-24
-0.49481605293750164	5.656371716288726e-24
-0.49475501778125164	4.992132569446044e-24
-0.49469398262500164	4.325951806437757e-24
-0.49463294746875164	3.659172311925157e-24
-0.49457191231250164	2.991058163256819e-24
-0.49451087715625164	2.3212357533296207e-24
-0.49444984200000164	1.6512361998101562e-24
-0.49438880684375164	9.808374256164299e-25
-0.49432777168750164	3.0911670181116165e-25
-0.49426673653125164	-3.6252887854963004e-25
-0.49420570137500164	-1.0336774972702112e-24
-0.49414466621875164	-1.7056040376878305e-24
-0.49408363106250164	-2.377301420929458e-24
-0.49402259590625164	-3.0476609787159913e-24
-0.49396156075000164	-3.718039110404781e-24
-0.49390052559375164	-4.388063377251196e-24
-0.49383949043750164	-5.056075964127048e-24
-0.49377845528125164	-5.723234345539883e-24
-0.49371742012500164	-6.3899472998658436e-24
-0.49365638496875164	-7.054173947710233e-24
-0.49359534981250164	-7.716467387956142e-24
-0.49353431465625164	-8.378059509004718e-24
-0.49347327950000164	-9.03696022779796e-24
-0.49341224434375164	-9.692836414542406e-24
-0.49335120918750164	-1.0347539751607079e-23
-0.49329017403125164	-1.0999586488995293e-23
-0.49322913887500164	-1.1647633702909378e-23
-0.49316810371875164	-1.2293716456221868e-23
-0.49310706856250164	-1.2937210718359671e-23
-0.49304603340625164	-1.3575925325137616e-23
-0.49298499825000164	-1.42117051728308e-23
-0.49292396309375164	-1.4845080678726323e-23
-0.49286292793750164	-1.5473200869844064e-23
-0.49280189278125164	-1.6097041406163014e-23
-0.49274085762500164	-1.671840727557644e-23
-0.49267982246875164	-1.7334516574375156e-23
-0.49261878731250164	-1.7945059016109665e-23
-0.49255775215625164	-1.855273671813717e-23
-0.49249671700000164	-1.915542058954598e-23
-0.49243568184375164	-1.9751331071493935e-23
-0.49237464668750164	-2.0343557445436098e-23
-0.49231361153125164	-2.0931277319564058e-23
-0.49225257637500164	-2.1511380763324912e-23
-0.49219154121875164	-2.2086553057400182e-23
-0.49213050606250164	-2.265767901101106e-23
-0.49206947090625164	-2.3220839845191647e-23
-0.49200843575000164	-2.377750507017604e-23
-0.49194740059375164	-2.4330316620249042e-23
-0.49188636543750164	-2.4875406100514182e-23
-0.49182533028125164	-2.5412371184571266e-23
-0.49176429512500164	-2.5945145495376568e-23
-0.49170325996875164	-2.6470904859348667e-23
-0.49164222481250164	-2.698715590088577e-23
-0.49158118965625164	-2.7498252495411007e-23
-0.49152015450000164	-2.8003264873124575e-23
-0.49145911934375164	-2.849790829506675e-23
-0.49139808418750164	-2.898586975560851e-23
-0.49133704903125164	-2.946861609977528e-23
-0.49127601387500164	-2.994085587011433e-23
-0.49121497871875164	-3.0404465865116795e-23
-0.49115394356250164	-3.086327413152822e-23
-0.49109290840625164	-3.131225881738276e-23
-0.49103187325000164	-3.175065717944876e-23
-0.49097083809375164	-3.2183865261651115e-23
-0.49090980293750164	-3.2608519364965613e-23
-0.49084876778125164	-3.3021106911318727e-23
-0.49078773262500164	-3.342725683063762e-23
-0.49072669746875164	-3.3826287514339526e-23
-0.49066566231250164	-3.421258305413182e-23
-0.49060462715625164	-3.4590500738458006e-23
-0.49054359200000164	-3.4962425164616294e-23
-0.49048255684375164	-3.532192904405032e-23
-0.49042152168750164	-3.5670820457991383e-23
-0.49036048653125164	-3.6014115321318784e-23
-0.49029945137500164	-3.634619211267048e-23
-0.49023841621875164	-3.666563713447938e-23
-0.49017738106250164	-3.6978884884140433e-23
-0.49011634590625164	-3.7282612202609707e-23
-0.49005531075000164	-3.757239333880131e-23
-0.48999427559375164	-3.785444111132203e-23
-0.48993324043750164	-3.812866383801489e-23
-0.48987220528125164	-3.838866644751791e-23
-0.48981117012500164	-3.863877459752652e-23
-0.48975013496875164	-3.888217737928074e-23
-0.48968909981250164	-3.9112154169670534e-23
-0.48962806465625164	-3.933001542718863e-23
-0.48956702950000164	-3.9541361802898834e-23
-0.48950599434375164	-3.974083409212858e-23
-0.48944495918750164	-3.992642760372198e-23
-0.48938392403125164	-4.010467776770688e-23
-0.48932288887500164	-4.027289118145565e-23
-0.48926185371875164	-4.042634445410045e-23
-0.48920081856250164	-4.0570828812719826e-23
-0.48913978340625164	-4.0706866902051223e-23
-0.48907874825000164	-4.08283030250398e-23
-0.48901771309375164	-4.0938769271897794e-23
-0.48895667793750164	-4.104167113080888e-23
-0.48889564278125164	-4.113101964370248e-23
-0.48883460762500164	-4.120756041187604e-23
-0.48877357246875164	-4.127653015966103e-23
-0.48871253731250164	-4.1333502974903405e-23
-0.48865150215625164	-4.137640066894642e-23
-0.48859046700000164	-4.141091459572266e-23
-0.48852943184375164	-4.1435070534578944e-23
-0.48846839668750164	-4.144468427959099e-23
-0.48840736153125164	-4.144454338431966e-23
-0.48834632637500164	-4.1435358303417265e-23
-0.48828529121875164	-4.1411997474178655e-23
-0.48822425606250164	-4.137733474550198e-23
-0.48816322090625164	-4.1334335589942526e-23
-0.48810218575000164	-4.127817930125793e-23
-0.48804115059375164	-4.120937705654565e-23
-0.48798011543750164	-4.1132250957295965e-23
-0.48791908028125164	-4.10433413204301e-23
-0.48785804512500164	-4.094094487534849e-23
-0.48779700996875164	-4.0829633583194064e-23
-0.48773597481250164	-4.0707912225575385e-23
-0.48767493965625164	-4.057249015156662e-23
-0.48761390450000164	-4.0427189551225073e-23
-0.48755286934375164	-4.0272600646359145e-23
-0.48749183418750164	-4.01047273337875e-23
-0.48743079903125164	-3.9925896624695275e-23
-0.48736976387500164	-3.973843960646804e-23
-0.48730872871875164	-3.953859800342849e-23
-0.48724769356250164	-3.932687561561577e-23
-0.48718665840625164	-3.910668785185057e-23
-0.48712562325000164	-3.8875316022570174e-23
-0.48706458809375164	-3.863150681079732e-23
-0.48700355293750164	-3.83788995801015e-23
-0.48694251778125164	-3.811632594452142e-23
-0.48688148262500164	-3.7841270986988723e-23
-0.48682044746875164	-3.755681084680014e-23
-0.48675941231250164	-3.726342582291258e-23
-0.48669837715625164	-3.6957999523644316e-23
-0.48663734200000164	-3.6642432409967634e-23
-0.48657630684375164	-3.631862747164262e-23
-0.48651527168750164	-3.598364517352718e-23
-0.48645423653125164	-3.563790018652538e-23
-0.48639320137500164	-3.528417974849056e-23
-0.48633216621875164	-3.492041837119876e-23
-0.48627113106250164	-3.454560018385972e-23
-0.48621009590625164	-3.416264816263498e-23
-0.48614906075000164	-3.37707866042249e-23
-0.48608802559375164	-3.336801578094169e-23
-0.48602699043750164	-3.2956735478827994e-23
-0.48596595528125164	-3.253751227643615e-23
-0.48590492012500164	-3.2107945973746255e-23
-0.48584388496875164	-3.166940353853137e-23
-0.48578284981250164	-3.122352592085434e-23
-0.48572181465625164	-3.0768208325569023e-23
-0.48566077950000164	-3.030365892246651e-23
-0.48559974434375164	-2.983206793515326e-23
-0.48553870918750164	-2.935206780891018e-23
-0.48547767403125164	-2.8862827749751833e-23
-0.48541663887500164	-2.8366527699493654e-23
-0.48535560371875164	-2.7862806328049323e-23
-0.48529456856250164	-2.735020229452373e-23
-0.48523353340625164	-2.683042351750318e-23
-0.48517249825000164	-2.6304073252830898e-23
-0.48511146309375164	-2.5769492443140536e-23
-0.48505042793750164	-2.5227572302456215e-23
-0.48498939278125164	-2.4679639718130658e-23
-0.48492835762500164	-2.4124364478093322e-23
-0.48486732246875164	-2.3561762960794675e-23
-0.48480628731250164	-2.2993426183648968e-23
-0.48474525215625164	-2.2418693958833537e-23
-0.48468421700000164	-2.1836967267470763e-23
-0.48462318184375164	-2.1249666072473157e-23
-0.48456214668750164	-2.065678238807591e-23
-0.48450111153125164	-2.0057402796315585e-23
-0.48444007637500164	-1.9452558882449555e-23
-0.48437904121875164	-1.8842804463986802e-23
-0.48431800606250164	-1.8227218039763018e-23
-0.48425697090625164	-1.7606349821994062e-23
-0.48419593575000164	-1.6981139282616804e-23
-0.48413490059375164	-1.635089132276464e-23
-0.48407386543750164	-1.5715640415678347e-23
-0.48401283028125164	-1.5076451292777273e-23
-0.48395179512500164	-1.443304167578606e-23
-0.48389075996875164	-1.3785060155721742e-23
-0.48382972481250164	-1.313341415728978e-23
-0.48376868965625164	-1.2478249478950667e-23
-0.48370765450000164	-1.1819080376124259e-23
-0.48364661934375164	-1.1156553477109715e-23
-0.48358558418750164	-1.049119193251153e-23
-0.48352454903125164	-9.822576942299734e-24
-0.48346351387500164	-9.150961039707335e-24
-0.48340247871875164	-8.477000763499365e-24
-0.48334144356250164	-7.800512314540079e-24
-0.48328040840625164	-7.121464791642903e-24
-0.48321937325000164	-6.4404712353900924e-24
-0.48315833809375164	-5.757633533954473e-24
-0.48309730293750164	-5.072812498132256e-24
-0.48303626778125164	-4.386489172861353e-24
-0.48297523262500164	-3.698993131414766e-24
-0.48291419746875164	-3.010176443387712e-24
-0.48285316231250164	-2.3203135115745622e-24
-0.48279212715625164	-1.6298422868673255e-24
-0.48273109200000164	-9.386596006604568e-25
-0.48267005684375164	-2.4683772859817466e-25
-0.48260902168750164	4.450426476888378e-25
-0.48254798653125164	1.1368317955662467e-24
-0.48248695137500164	1.8287064796519576e-24
-0.48242591621875164	2.5202741638402994e-24
-0.48236488106250164	3.2111385711084166e-24
-0.48230384590625164	3.901454689613031e-24
-0.48224281075000164	4.590988036244146e-24
-0.48218177559375164	5.279165071747938e-24
-0.48212074043750164	5.966086634115714e-24
-0.48205970528125164	6.651802642713337e-24
-0.48199867012500164	7.335687974244684e-24
-0.48193763496875164	8.017626495010311e-24
-0.48187659981250164	8.697843700022794e-24
-0.48181556465625164	9.37576671831742e-24
-0.48175452950000164	1.0051058181014677e-23
-0.48169349434375164	1.0724083183666368e-23
-0.48163245918750164	1.1394399700601215e-23
-0.48157142403125164	1.2061359741181927e-23
-0.48151038887500164	1.272537174640815e-23
-0.48144935371875164	1.3386353253179127e-23
-0.48138831856250164	1.4043449856317582e-23
-0.48132728340625164	1.4696876476242698e-23
-0.48126624825000164	1.5346873401826743e-23
-0.48120521309375164	1.5992510010104865e-23
-0.48114417793750164	1.6633712400666582e-23
-0.48108314278125164	1.7271062383170024e-23
-0.48102210762500164	1.7903732379850654e-23
-0.48096107246875164	1.853118024192335e-23
-0.48090003731250164	1.915414868976289e-23
-0.48083900215625164	1.9772185979147487e-23
-0.48077796700000164	2.0384397626089076e-23
-0.48071693184375164	2.099147580467784e-23
-0.48065589668750164	2.159336665582641e-23
-0.48059486153125164	2.2188860272444327e-23
-0.48053382637500164	2.2778440679966163e-23
-0.48047279121875164	2.3362621193211486e-23
-0.48041175606250164	2.3940080427591e-23
-0.48035072090625164	2.4510772528017737e-23
-0.48028968575000164	2.5075642727984603e-23
-0.48022865059375164	2.5633588253452448e-23
-0.48016761543750164	2.6183998236342685e-23
-0.48010658028125164	2.672806806253665e-23
-0.48004554512500164	2.726515200065722e-23
-0.47998450996875164	2.779405115322028e-23
-0.47992347481250164	2.831588438530537e-23
-0.47986243965625164	2.883065663288451e-23
-0.47980140450000164	2.933680011791001e-23
-0.47974036934375164	2.983509153603467e-23
-0.47967933418750164	3.032621716790886e-23
-0.47961829903125164	3.080845291437084e-23
-0.47955726387500164	3.12819553805241e-23
-0.47949622871875164	3.174803370676092e-23
-0.47943519356250164	3.2205175210950406e-23
-0.47937415840625164	3.265277384581611e-23
-0.47931312325000164	3.309254310139099e-23
-0.47925208809375164	3.352351131702594e-23
-0.47919105293750164	3.3944232832991223e-23
-0.47913001778125164	3.4356438087482825e-23
-0.47906898262500164	3.4760025165967595e-23
-0.47900794746875164	3.5152922812127906e-23
-0.47894691231250164	3.553647253646572e-23
-0.47888587715625164	3.5911591518493915e-23
-0.47882484200000164	3.6275892274420813e-23
-0.47876380684375164	3.662985240861703e-23
-0.47870277168750164	3.6975329841474526e-23
-0.47864173653125164	3.7310145153210344e-23
-0.47858070137500164	3.763366492690041e-23
-0.47851966621875164	3.7948433269982095e-23
-0.47845863106250164	3.8253019787088476e-23
-0.47839759590625164	3.854551634070967e-23
-0.47833656075000164	3.882857397269431e-23
-0.47827552559375164	3.910204254269342e-23
-0.47821449043750164	3.936301135143045e-23
-0.47815345528125164	3.9613548645684706e-23
-0.47809242012500164	3.985500502045799e-23
-0.47803138496875164	4.0083991956566265e-23
-0.47797034981250164	4.03013568191359e-23
-0.47790931465625164	4.05098944947604e-23
-0.47784827950000164	4.0706508311841404e-23
-0.47778724434375164	4.089032872443717e-23
-0.47772620918750164	4.1065097042421e-23
-0.47766517403125164	4.122886287612421e-23
-0.47760413887500164	4.137894959218647e-23
-0.47754310371875164	4.15192201223991e-23
-0.47748206856250164	4.1649571004169367e-23
-0.47742103340625164	4.176588699272356e-23
-0.47735999825000164	4.187114513054411e-23
-0.47729896309375164	4.19674322543808e-23
-0.47723792793750164	4.2050023463929295e-23
-0.47717689278125164	4.2120048188243794e-23
-0.47711585762500164	4.218158377517042e-23
-0.47705482246875164	4.2230449003128335e-23
-0.47699378731250164	4.226531187161189e-23
-0.47693275215625164	4.229146244652531e-23
-0.47687171700000164	4.2306477854222276e-23
-0.47681068184375164	4.230653155695219e-23
-0.47674964668750164	4.229685434151271e-23
-0.47668861153125164	4.2277697887719706e-23
-0.47662757637500164	4.224344389631553e-23
-0.47656654121875164	4.219782636655111e-23
-0.47650550606250164	4.21440403778277e-23
-0.47644447090625164	4.2075986498046307e-23
-0.47638343575000164	4.199470794878981e-23
-0.47632240059375164	4.190579544754656e-23
-0.47626136543750164	4.180427664905542e-23
-0.47620033028125164	4.1687970715732247e-23
-0.47613929512500164	4.15635933700546e-23
-0.47607825996875164	4.1428741456843263e-23
-0.47601722481250164	4.127831390817775e-23
-0.47595618965625164	4.1118420157837204e-23
-0.47589515450000164	4.095008315629425e-23
-0.47583411934375164	4.076650433240446e-23
-0.47577308418750164	4.057151392499352e-23
-0.47571204903125164	4.036943296582666e-23
-0.47565101387500164	4.015350986572835e-23
-0.47558997871875164	3.992424448856611e-23
-0.47552894356250164	3.968824523009135e-23
-0.47546790840625164	3.9440575602601296e-23
-0.47540687325000164	3.9178203251266414e-23
-0.47534583809375164	3.8908344031697944e-23
-0.47528480293750164	3.862921308632593e-23
-0.47522376778125164	3.8335063458502747e-23
-0.47516273262500164	3.8031851183122864e-23
-0.47510169746875164	3.7721350724849266e-23
-0.47504066231250164	3.739662941286298e-23
-0.47497962715625164	3.7060947093393915e-23
-0.47491859200000164	3.6719149740348163e-23
-0.47485755684375164	3.63649353021141e-23
-0.47479652168750164	3.5998133320018277e-23
-0.47473548653125164	3.5625296770058234e-23
-0.47467445137500164	3.524232753726881e-23
-0.47461341621875164	3.484590815098641e-23
-0.47455238106250164	3.444260706999154e-23
-0.47449134590625164	3.4031411759379844e-23
-0.47443031075000164	3.3606914403430085e-23
-0.47436927559375164	3.317411895267393e-23
-0.47430824043750164	3.273511760075425e-23
-0.47424720528125164	3.228394400812991e-23
-0.47418617012500164	3.182303961220795e-23
-0.47412513496875164	3.135680958609214e-23
-0.47406409981250164	3.0880153790828446e-23
-0.47400306465625164	3.039267396852079e-23
-0.47394202950000164	2.9899919923866886e-23
-0.47388099434375164	2.939879130232224e-23
-0.47381995918750164	2.8886445477589454e-23
-0.47375892403125164	2.8368204748394547e-23
-0.47369788887500164	2.7843488575799653e-23
-0.47363685371875164	2.730795280756491e-23
-0.47357581856250164	2.676554379907936e-23
-0.47351478340625164	2.621806756853465e-23
-0.47345374825000164	2.5660874921310087e-23
-0.47339271309375164	2.5095898617430566e-23
-0.47333167793750164	2.4526673192573103e-23
-0.47327064278125164	2.3949265400045247e-23
-0.47320960762500164	2.336342719544729e-23
-0.47314857246875164	2.2773538396325714e-23
-0.47308753731250164	2.2177198056058436e-23
-0.47302650215625164	2.157229110736149e-23
-0.47296546700000164	2.0963059845878202e-23
-0.47290443184375164	2.0349041915570152e-23
-0.47284339668750164	1.9726911982967354e-23
-0.47278236153125164	1.909986182888347e-23
-0.47272132637500164	1.846932004275304e-23
-0.47266029121875164	1.7831696719701542e-23
-0.47259925606250164	1.7188588629939183e-23
-0.47253822090625164	1.65427939423842e-23
-0.47247718575000164	1.589129467854254e-23
-0.47241615059375164	1.5233984812007342e-23
-0.47235511543750164	1.4574323756310125e-23
-0.47229408028125164	1.3910459298343664e-23
