Time	Frequency
-0.5000591265624976	-2.877012155126332e-23
-0.4999980914062476	-2.9054648864658653e-23
-0.4999370562499976	-2.933132310391683e-23
-0.4998760210937476	-2.9592990912962015e-23
-0.4998149859374976	-2.984027845379601e-23
-0.4997539507812476	-3.008046837305923e-23
-0.4996929156249976	-3.031720935826675e-23
-0.4996318804687476	-3.0545427443973094e-23
-0.4995708453124976	-3.075837628487064e-23
-0.4995098101562476	-3.0956890676090317e-23
-0.4994487749999976	-3.114802066944781e-23
-0.4993877398437476	-3.1335088625758496e-23
-0.4993267046874976	-3.1513051512518086e-23
-0.4992656695312476	-3.167552046183387e-23
-0.4992046343749976	-3.1823554699447107e-23
-0.4991435992187476	-3.196402068580557e-23
-0.4990825640624976	-3.209992354453186e-23
-0.4990215289062476	-3.222621210195194e-23
-0.4989604937499976	-3.2336819364970006e-23
-0.4988994585937476	-3.2433048582979313e-23
-0.4988384234374976	-3.252163689206683e-23
-0.4987773882812476	-3.26052824374314e-23
-0.4987163531249976	-3.2678881999880525e-23
-0.4986553179687476	-3.273666895762991e-23
-0.4985942828124976	-3.278021817068645e-23
-0.4985332476562476	-3.2816158740189814e-23
-0.4984722124999976	-3.284686774601633e-23
-0.4984111773437476	-3.2867167732149397e-23
-0.4983501421874976	-3.2871585511213133e-23
-0.4982891070312476	-3.286198161178013e-23
-0.4982280718749976	-3.284490371127672e-23
-0.4981670367187476	-3.282241432596059e-23
-0.4981060015624976	-3.2789237618830786e-23
-0.4980449664062476	-3.274017665847503e-23
-0.4979839312499976	-3.2677387985983336e-23
-0.4979228960937476	-3.260735573897303e-23
-0.4978618609374976	-3.2531833185011954e-23
-0.4978008257812476	-3.244542792053192e-23
-0.4977397906249976	-3.234319303170126e-23
-0.4976787554687476	-3.222758974131841e-23
-0.4976177203124976	-3.2105079653103944e-23
-0.4975566851562476	-3.19771229299159e-23
-0.4974956499999976	-3.1838179393479767e-23
-0.4974346148437476	-3.1683514933970127e-23
-0.4973735796874976	-3.1515900663033714e-23
-0.4973125445312476	-3.13418154275592e-23
-0.4972515093749976	-3.116243855394209e-23
-0.4971904742187476	-3.0972045838459175e-23
-0.4971294390624976	-3.0766093821529984e-23
-0.4970684039062476	-3.054769464159942e-23
-0.4970073687499976	-3.032337790071254e-23
-0.4969463335937476	-3.009402501591564e-23
-0.4968852984374976	-2.9853683772154066e-23
-0.4968242632812476	-2.9597989170208424e-23
-0.4967632281249976	-2.9330427736189224e-23
-0.4967021929687476	-2.905761599679087e-23
-0.4966411578124976	-2.878013395585964e-23
-0.4965801226562476	-2.849176452151994e-23
-0.4965190874999976	-2.8188296868679217e-23
-0.4964580523437476	-2.787360774710904e-23
-0.4963970171874976	-2.755442491754323e-23
-0.4963359820312476	-2.723102151885873e-23
-0.4962749468749976	-2.689690093740246e-23
-0.4962139117187476	-2.654801003266632e-23
-0.4961528765624976	-2.6188624759323265e-23
-0.4960918414062476	-2.5825592745809647e-23
-0.4960308062499976	-2.545887974798785e-23
-0.4959697710937476	-2.5081672021476483e-23
-0.4959087359374976	-2.4690043004477825e-23
-0.4958477007812476	-2.428871510481554e-23
-0.4957866656249976	-2.3884711949509788e-23
-0.4957256304687476	-2.3477660629171837e-23
-0.4956645953124976	-2.306038336185553e-23
-0.4956035601562476	-2.262909013743697e-23
-0.4955425249999976	-2.218895730394327e-23
-0.4954814898437476	-2.1747174682630767e-23
-0.4954204546874976	-2.1303040954670722e-23
-0.4953594195312476	-2.084901308360227e-23
-0.4952983843749976	-2.0381424149058572e-23
-0.4952373492187476	-1.990592578668199e-23
-0.4951763140624976	-1.9429904308418423e-23
-0.4951152789062476	-1.8952318266566893e-23
-0.4950542437499976	-1.846520851195329e-23
-0.4949932085937476	-1.7964991249429965e-23
-0.4949321734374976	-1.745781721819557e-23
-0.4948711382812476	-1.6951320606552506e-23
-0.4948101031249976	-1.6444128655651593e-23
-0.4947490679687476	-1.592785459186031e-23
-0.4946880328124976	-1.53989917467268e-23
-0.4946269976562476	-1.4864170082065525e-23
-0.4945659624999976	-1.4331257657850838e-23
-0.4945049273437476	-1.379855408345633e-23
-0.4944438921874976	-1.3257240757414576e-23
-0.4943828570312476	-1.270388654747457e-23
-0.4943218218749976	-1.2145627009078844e-23
-0.4942607867187476	-1.1590599392655686e-23
-0.4941997515624976	-1.1036766521456634e-23
-0.4941387164062476	-1.0474809147242444e-23
-0.4940776812499976	-9.901323053585872e-24
-0.4940166460937476	-9.323984786371886e-24
-0.4939556109374976	-8.751264016741317e-24
-0.4938945757812476	-8.180808028422362e-24
-0.4938335406249976	-7.602773717171564e-24
-0.4937725054687476	-7.013748304004764e-24
-0.4937114703124976	-6.421935041762373e-24
-0.4936504351562476	-5.836134943211287e-24
-0.4935893999999976	-5.2536794910910744e-24
-0.4935283648437476	-4.664225911627695e-24
-0.4934673296874976	-4.0643650411237315e-24
-0.4934062945312476	-3.4627824851390056e-24
-0.4933452593749976	-2.8685980093084606e-24
-0.4932842242187476	-2.2788869806119025e-24
-0.4932231890624976	-1.68281478736634e-24
-0.4931621539062476	-1.0769125288278519e-24
-0.4931011187499976	-4.703402440972904e-25
-0.4930400835937476	1.2741577053440887e-25
-0.4929790484374976	7.195281850836263e-25
-0.4929180132812476	1.3173558086180066e-24
-0.4928569781249976	1.9244581982016016e-24
-0.4927959429687476	2.531211067862778e-24
-0.4927349078124976	3.1277325008384003e-24
-0.4926738726562476	3.7174027918828904e-24
-0.4926128374999976	4.312108440325944e-24
-0.4925518023437476	4.91553564157729e-24
-0.4924907671874976	5.517616927408867e-24
-0.4924297320312476	6.108063255435024e-24
-0.4923686968749976	6.690432187147747e-24
-0.4923076617187476	7.277132186693725e-24
-0.4922466265624976	7.872021894920894e-24
-0.4921855914062476	8.464634850087432e-24
-0.4921245562499976	9.044250253445114e-24
-0.4920635210937476	9.61454001679358e-24
-0.4920024859374976	1.0188418149107722e-23
-0.4919414507812476	1.0769965426740763e-23
-0.4918804156249976	1.1348368147159656e-23
-0.4918193804687476	1.1912459531745773e-23
-0.4917583453124976	1.2465958129452668e-23
-0.4916973101562476	1.30222523918546e-23
-0.4916362749999976	1.3585700719553025e-23
-0.4915752398437476	1.414522543778529e-23
-0.4915142046874976	1.4689239480550662e-23
-0.4914531695312476	1.522145274446691e-23
-0.4913921343749976	1.5755643868907793e-23
-0.4913310992187476	1.6296425004250536e-23
-0.4912700640624976	1.6832522513201212e-23
-0.4912090289062476	1.7351993093484078e-23
-0.4911479937499976	1.7858498613891593e-23
-0.4910869585937476	1.8366139715927817e-23
-0.4910259234374976	1.8879815465512264e-23
-0.4909648882812476	1.9388144378329396e-23
-0.4909038531249976	1.987884957574982e-23
-0.4908428179687476	2.0355493057837703e-23
-0.4907817828124976	2.083241531465438e-23
-0.4907207476562476	2.1314774834813732e-23
-0.4906597124999976	2.1791193327339148e-23
-0.4905986773437476	2.2249166896846252e-23
-0.4905376421874976	2.269205229409651e-23
-0.4904766070312476	2.3134257665891312e-23
-0.4904155718749976	2.3581233853289388e-23
-0.4903545367187476	2.4021776528108057e-23
-0.4902935015624976	2.4443237132290052e-23
-0.4902324664062476	2.4848718686623018e-23
-0.4901714312499976	2.5252596441932282e-23
-0.4901103960937476	2.5660550996020042e-23
-0.4900493609374976	2.606160242823725e-23
-0.4899883257812476	2.6443062626445763e-23
-0.4899272906249976	2.6807778447378815e-23
-0.4898662554687476	2.71699715591462e-23
-0.4898052203124976	2.753549317272874e-23
-0.4897441851562476	2.7893681914491577e-23
-0.4896831499999976	2.823192958187496e-23
-0.4896221148437476	2.8552823717157046e-23
-0.4895610796874976	2.8870327152194714e-23
-0.4895000445312476	2.9190394999329834e-23
-0.4894390093749976	2.9502745293016627e-23
-0.4893779742187476	2.979495947310308e-23
-0.4893169390624976	3.00693634965458e-23
-0.4892559039062476	3.03395349651568e-23
-0.4891948687499976	3.061145517836614e-23
-0.4891338335937476	3.0875298352293684e-23
-0.4890727984374976	3.111895915575344e-23
-0.4890117632812476	3.1344521511687704e-23
-0.4889507281249976	3.156509393743683e-23
-0.4888896929687476	3.178661339269739e-23
-0.4888286578124976	3.19997314985202e-23
-0.4887676226562476	3.219273249203247e-23
-0.4887065874999976	3.236749120405528e-23
-0.4886455523437476	3.253659319020909e-23
-0.4885845171874976	3.270585613313754e-23
-0.4885234820312476	3.286641308282594e-23
-0.4884624468749976	3.300702432302791e-23
-0.4884014117187476	3.312940857804457e-23
-0.4883403765624976	3.324557756029884e-23
-0.4882793414062476	3.336116052072428e-23
-0.4882183062499976	3.34677753757186e-23
-0.4881572710937476	3.3554705669093634e-23
-0.4880962359374976	3.362354696793574e-23
-0.4880352007812476	3.368572930369189e-23
-0.4879741656249976	3.3746645985723655e-23
-0.4879131304687476	3.379837263010019e-23
-0.4878520953124976	3.383075709218889e-23
-0.4877910601562476	3.384532227363952e-23
-0.4877300249999976	3.3852904053421436e-23
-0.4876689898437476	3.385860971853803e-23
-0.4876079546874976	3.385495045816407e-23
-0.4875469195312476	3.383236192853884e-23
-0.4874858843749976	3.379233531220743e-23
-0.4874248492187476	3.374513030963889e-23
-0.4873638140624976	3.36955401055073e-23
-0.4873027789062476	3.3636465974987733e-23
-0.4872417437499976	3.355892713478668e-23
-0.4871807085937476	3.346442685641268e-23
-0.4871196734374976	3.33626845708037e-23
-0.4870586382812476	3.325816359763134e-23
-0.4869976031249976	3.314410327182427e-23
-0.4869365679687476	3.301208121670852e-23
-0.4868755328124976	3.2863654122692044e-23
-0.4868144976562476	3.2708055595487154e-23
-0.4867534624999976	3.2549411169531733e-23
-0.4866924273437476	3.238124508269254e-23
-0.4866313921874976	3.219566772498227e-23
-0.4865703570312476	3.1994317266360687e-23
-0.4865093218749976	3.178598174761488e-23
-0.4864482867187476	3.157444708672504e-23
-0.4863872515624976	3.135348312579249e-23
-0.4863262164062476	3.1115712441244204e-23
-0.4862651812499976	3.0862877481579287e-23
-0.4862041460937476	3.060335479542555e-23
-0.4861431109374976	3.034059393533595e-23
-0.4860820757812476	3.006857313369635e-23
-0.4860210406249976	2.9780395303089195e-23
-0.4859600054687476	2.947793470966795e-23
-0.4858989703124976	2.9169205564013384e-23
-0.4858379351562476	2.8857309708805456e-23
-0.4857768999999976	2.8536383061667595e-23
-0.4857158648437476	2.8199994626139323e-23
-0.4856548296874976	2.785017414617449e-23
-0.4855937945312476	2.7494606769767896e-23
-0.4855327593749976	2.713606414308172e-23
-0.4854717242187476	2.67688009300811e-23
-0.4854106890624976	2.6386797913365146e-23
-0.4853496539062476	2.5992263839662422e-23
-0.4852886187499976	2.5592621600534326e-23
-0.4852275835937476	2.5190317021479397e-23
-0.4851665484374976	2.477966395772434e-23
-0.4851055132812476	2.4355013321474303e-23
-0.4850444781249976	2.3918780293968822e-23
-0.4849834429687476	2.3478180965518152e-23
-0.4849224078124976	2.3035340584785548e-23
-0.4848613726562476	2.2584590396541933e-23
-0.4848003374999976	2.2120628574454967e-23
-0.4847393023437476	2.1646095883953815e-23
-0.4846782671874976	2.116802593992097e-23
-0.4846172320312476	2.0688208561214215e-23
-0.4845561968749976	2.0200953683031432e-23
-0.4844951617187476	1.9701305737737438e-23
-0.4844341265624976	1.919217051653514e-23
-0.4843730914062476	1.868042710526646e-23
-0.4843120562499976	1.816751935556189e-23
-0.4842510210937476	1.76476976267614e-23
-0.4841899859374976	1.711632759002473e-23
-0.4841289507812476	1.657658990584343e-23
-0.4840679156249976	1.6035222894726456e-23
-0.4840068804687476	1.5493331967982545e-23
-0.4839458453124976	1.4945116615572228e-23
-0.4838848101562476	1.438624893094399e-23
-0.4838237749999976	1.382017297594533e-23
-0.4837627398437476	1.3253519405119536e-23
-0.4837017046874976	1.268706452093726e-23
-0.4836406695312476	1.211490290327277e-23
-0.4835796343749976	1.1532976752750516e-23
-0.4835185992187476	1.094501431653268e-23
-0.4834575640624976	1.0357580728521472e-23
-0.4833965289062476	9.771145061727707e-24
-0.4833354937499976	9.17966354399369e-24
-0.4832744585937476	8.57931300608597e-24
-0.4832134234374976	7.974146603790908e-24
-0.4831523882812476	7.370704521589881e-24
-0.4830913531249976	6.76910095917038e-24
-0.4830303179687476	6.163091722042504e-24
-0.4829692828124976	5.5490865015961165e-24
-0.4829082476562476	4.9314980226502864e-24
-0.4828472124999976	4.316877633254224e-24
-0.4827861773437476	3.704998185025174e-24
-0.4827251421874976	3.089393522466462e-24
-0.4826641070312476	2.4666756624181585e-24
-0.4826030718749976	1.841617431352177e-24
-0.4825420367187476	1.220805737143136e-24
-0.4824810015624976	6.036641784393431e-25
-0.4824199664062476	-1.6540072163454288e-26
-0.4823589312499976	-6.43001422154491e-25
-0.4822978960937476	-1.2705432207523898e-24
-0.4822368609374976	-1.892514175640259e-24
-0.4821758257812476	-2.509858656994453e-24
-0.4821147906249976	-3.1296114668496697e-24
-0.4820537554687476	-3.754780875561206e-24
-0.4819927203124976	-4.379756423089087e-24
-0.4819316851562476	-4.997807310695278e-24
-0.4818706499999976	-5.610282344437099e-24
-0.4818096148437476	-6.224551281958567e-24
-0.4817485796874976	-6.843416978397075e-24
-0.4816875445312476	-7.46080760738853e-24
-0.4816265093749976	-8.069912410997365e-24
-0.4815654742187476	-8.67248289148571e-24
-0.4815044390624976	-9.27622833526883e-24
-0.4814434039062476	-9.883775162028401e-24
-0.4813823687499976	-1.0488584265599228e-23
-0.4813213335937476	-1.108373098594576e-23
-0.4812602984374976	-1.1671409274883838e-23
-0.4811992632812476	-1.2259735544024062e-23
-0.4811382281249976	-1.2851135279566071e-23
-0.4810771929687476	-1.3438535873565627e-23
-0.4810161578124976	-1.401486584147396e-23
-0.4809551226562476	-1.4582748023458857e-23
-0.4808940874999976	-1.515073667316271e-23
-0.4808330523437476	-1.5721129598552956e-23
-0.4807720171874976	-1.6286353649676847e-23
-0.4807109820312476	-1.683916989314561e-23
-0.4806499468749976	-1.7382609496257606e-23
-0.4805889117187476	-1.7925655558706513e-23
-0.4805278765624976	-1.8470461827117005e-23
-0.4804668414062476	-1.9008924022116405e-23
-0.4804058062499976	-1.9533618286351752e-23
-0.4803447710937476	-2.0048020509956713e-23
-0.4802837359374976	-2.0561613929523647e-23
-0.4802227007812476	-2.1076438029900643e-23
-0.4801616656249976	-2.158381694625692e-23
-0.4801006304687476	-2.207608992276671e-23
-0.4800395953124976	-2.2557166195141032e-23
-0.4799785601562476	-2.303704591483593e-23
-0.4799175249999976	-2.3517679686339166e-23
-0.4798564898437476	-2.3989838416837836e-23
-0.4797954546874976	-2.444561119667861e-23
-0.4797344195312476	-2.488932599343539e-23
-0.4796733843749976	-2.53315232422692e-23
-0.4796123492187476	-2.5774078996127573e-23
-0.4795513140624976	-2.620718818373116e-23
-0.4794902789062476	-2.662267635935533e-23
-0.4794292437499976	-2.702528476799153e-23
-0.4793682085937476	-2.7426085557105657e-23
-0.4793071734374976	-2.782691762148995e-23
-0.4792461382812476	-2.821745229157599e-23
-0.4791851031249976	-2.858922601825511e-23
-0.4791240679687476	-2.894733313688089e-23
-0.4790630328124976	-2.9303385145839733e-23
-0.4790019976562476	-2.965922884834053e-23
-0.4789409624999976	-3.0004010951870425e-23
-0.4788799273437476	-3.0328941576466766e-23
-0.4788188921874976	-3.063945918986072e-23
-0.4787578570312476	-3.094775163424163e-23
-0.4786968218749976	-3.125571122273064e-23
-0.4786357867187476	-3.155195393561108e-23
-0.4785747515624976	-3.182732190177881e-23
-0.4785137164062476	-3.2087563591857195e-23
-0.4784526812499976	-3.2345454644091944e-23
-0.4783916460937476	-3.260298670042055e-23
-0.4783306109374976	-3.2848279986295045e-23
-0.4782695757812476	-3.30717758180415e-23
-0.4782085406249976	-3.327947512350889e-23
-0.4781475054687476	-3.3484736583027056e-23
-0.4780864703124976	-3.3689706560991237e-23
-0.4780254351562476	-3.3882056886167056e-23
-0.4779643999999976	-3.4051801470524777e-23
-0.4779033648437476	-3.4205118695246325e-23
-0.4778423296874976	-3.4355930263008617e-23
-0.4777812945312476	-3.450660690376653e-23
-0.4777202593749976	-3.464443908314084e-23
-0.4776592242187476	-3.475899660437087e-23
-0.4775981890624976	-3.4856563252560047e-23
-0.4775371539062476	-3.495157624531777e-23
-0.4774761187499976	-3.5046660546404465e-23
-0.4774150835937476	-3.5128807402575595e-23
-0.4773540484374976	-3.5187174899199347e-23
-0.4772930132812476	-3.522808202921646e-23
-0.4772319781249976	-3.5266404614466145e-23
-0.4771709429687476	-3.530505443596194e-23
-0.4771099078124976	-3.533082299980751e-23
-0.4770488726562476	-3.533248037945677e-23
-0.4769878374999976	-3.5316291541039863e-23
-0.4769268023437476	-3.5297483693156535e-23
-0.4768657671874976	-3.527928349913527e-23
-0.4768047320312476	-3.5248401615649514e-23
-0.4767436968749976	-3.519328625018044e-23
-0.4766826617187476	-3.512006332508842e-23
-0.4766216265624976	-3.5044177209728486e-23
-0.4765605914062476	-3.4969176045751195e-23
-0.4764995562499976	-3.4881833235193263e-23
-0.4764385210937476	-3.4770354234204565e-23
-0.4763774859374976	-3.464063384901315e-23
-0.4763164507812476	-3.450819569983881e-23
-0.4762554156249976	-3.43769036997629e-23
-0.4761943804687476	-3.4233724879971165e-23
-0.4761333453124976	-3.406672259974542e-23
-0.4760723101562476	-3.38815079010555e-23
-0.4760112749999976	-3.369354624700512e-23
-0.4759502398437476	-3.350696640804676e-23
-0.4758892046874976	-3.330903255244107e-23
-0.4758281695312476	-3.308778938954524e-23
-0.4757671343749976	-3.284853154717707e-23
-0.4757060992187476	-3.2606520007912475e-23
-0.4756450640624976	-3.236610080415191e-23
-0.4755840289062476	-3.211495035284085e-23
-0.4755229937499976	-3.184120670128566e-23
-0.4754619585937476	-3.1549810198178216e-23
-0.4754009234374976	-3.1255685016754384e-23
-0.4753398882812476	-3.096333533999857e-23
-0.4752788531249976	-3.0660933907662963e-23
-0.4752178179687476	-3.033683050802781e-23
-0.4751567828124976	-2.999561519380963e-23
-0.4750957476562476	-2.965176171574381e-23
-0.4750347124999976	-2.93098456159103e-23
-0.4749736773437476	-2.8958586924130166e-23
-0.4749126421874976	-2.8586667663418786e-23
-0.4748516070312476	-2.819835156983959e-23
-0.4747905718749976	-2.780755787979862e-23
-0.4747295367187476	-2.741885626081234e-23
-0.4746685015624976	-2.70215633501828e-23
-0.4746074664062476	-2.660478005556139e-23
-0.4745464312499976	-2.617246222174016e-23
-0.4744853960937476	-2.5737918329157786e-23
-0.4744243609374976	-2.5305637097454658e-23
-0.4743633257812476	-2.486552293602243e-23
-0.4743022906249976	-2.440716479596601e-23
-0.4742412554687476	-2.393426029144128e-23
-0.4741802203124976	-2.3459482658868236e-23
-0.4741191851562476	-2.298718508501859e-23
-0.4740581499999976	-2.2507843961193234e-23
-0.4739971148437476	-2.2011590965794158e-23
-0.4739360796874976	-2.15019148426552e-23
-0.4738750445312476	-2.0990803565641496e-23
-0.4738140093749976	-2.0482388039607345e-23
-0.4737529742187476	-1.9967710181339913e-23
-0.4736919390624976	-1.943750529856131e-23
-0.4736309039062476	-1.8895104302138385e-23
-0.4735698687499976	-1.8351822479303214e-23
-0.4735088335937476	-1.781154013568941e-23
-0.4734477984374976	-1.7265808320417233e-23
-0.4733867632812476	-1.6705936563947203e-23
-0.4733257281249976	-1.6135129135230813e-23
-0.4732646929687476	-1.5564071458877375e-23
-0.4732036578124976	-1.4996390039917662e-23
-0.4731426226562476	-1.442410362660966e-23
-0.4730815874999976	-1.3839080248350365e-23
-0.4730205523437476	-1.324445359402417e-23
-0.4729595171874976	-1.2650327497282877e-23
-0.4728984820312476	-1.2060013649217462e-23
-0.4728374468749976	-1.1465913191409864e-23
-0.4727764117187476	-1.0860463283099199e-23
-0.4727153765624976	-1.0246777602330702e-23
-0.4726543414062476	-9.634402667265247e-24
-0.4725933062499976	-9.026347822837987e-24
-0.4725322710937476	-8.415368400808234e-24
-0.4724712359374976	-7.79441791533355e-24
-0.4724102007812476	-7.16661786941945e-24
-0.4723491656249976	-6.541025811597175e-24
-0.4722881304687476	-5.920320185420217e-24
-0.4722270953124976	-5.297541091034751e-24
-0.4721660601562476	-4.666166668464806e-24
-0.4721050249999976	-4.0293591684444285e-24
-0.4720439898437476	-3.395684921535493e-24
-0.4719829546874976	-2.7674794231673307e-24
-0.4719219195312476	-2.138038514918151e-24
-0.4718608843749976	-1.5013439829634403e-24
-0.4717998492187476	-8.60650129350584e-25
