Time	Frequency
-0.5000114428125002	2.6065336522708503e-23
-0.4999504076562502	2.6358732239707078e-23
-0.4998893725000002	2.664954004524241e-23
-0.4998283373437502	2.693742287416555e-23
-0.4997673021875002	2.721505979402542e-23
-0.4997062670312502	2.747654234293556e-23
-0.4996452318750002	2.7724005697524634e-23
-0.4995841967187502	2.7964935753135215e-23
-0.4995231615625002	2.820340456860579e-23
-0.4994621264062502	2.843536711134812e-23
-0.4994010912500002	2.8653330301689274e-23
-0.4993400560937502	2.8854896549299954e-23
-0.4992790209375002	2.9045337979387945e-23
-0.4992179857812502	2.923135048374045e-23
-0.4991569506250002	2.9413281377470773e-23
-0.4990959154687502	2.958475656523646e-23
-0.4990348803125002	2.974001613512885e-23
-0.4989738451562502	2.988043160553198e-23
-0.4989128100000002	3.001275802360065e-23
-0.4988517748437502	3.014125642490045e-23
-0.4987907396875002	3.026279400355139e-23
-0.4987297045312502	3.037048571445133e-23
-0.4986686693750002	3.046158576555533e-23
-0.4986076342187502	3.0540530547709906e-23
-0.4985465990625002	3.061371765026695e-23
-0.4984855639062502	3.0682111175215626e-23
-0.4984245287500002	3.074017066707646e-23
-0.4983634935937502	3.078225736006144e-23
-0.4983024584375002	3.080908345530441e-23
-0.4982414232812502	3.0826799137016307e-23
-0.4981803881250002	3.0839849086391056e-23
-0.4981193529687502	3.084587422045804e-23
-0.4980583178125002	3.083849066170048e-23
-0.4979972826562502	3.081466634800514e-23
-0.4979362475000002	3.077817161138751e-23
-0.4978752123437502	3.073518121101988e-23
-0.4978141771875002	3.068715859045912e-23
-0.4977531420312502	3.0629223963552556e-23
-0.4976921068750002	3.0555839710578455e-23
-0.4976310717187502	3.04672189620123e-23
-0.4975700365625002	3.0369068426115036e-23
-0.4975090014062502	3.026599756473271e-23
-0.4974479662500002	3.0156233245465617e-23
-0.4973869310937502	3.003374129167941e-23
-0.4973258959375002	2.9895270798990487e-23
-0.4972648607812502	2.974414954383044e-23
-0.4972038256250002	2.958645025684637e-23
-0.4971427904687502	2.9423998615708073e-23
-0.4970817553125002	2.925233475282113e-23
-0.4970207201562502	2.906597036260366e-23
-0.4969596850000002	2.886482514110354e-23
-0.4968986498437502	2.865437701616893e-23
-0.4968376146875002	2.843935951739198e-23
-0.4967765795312502	2.821833822907826e-23
-0.4967155443750002	2.7985473826641086e-23
-0.4966545092187502	2.773741223573716e-23
-0.4965934740625002	2.747728318997714e-23
-0.4965324389062502	2.7211147965505604e-23
-0.4964714037500002	2.6941024892156175e-23
-0.4964103685937502	2.666263012238497e-23
-0.4963493334375002	2.6370486303095065e-23
-0.4962882982812502	2.606443824307153e-23
-0.4962272631250002	2.574995290484808e-23
-0.4961662279687502	2.543184620828062e-23
-0.4961051928125002	2.5108769761611711e-23
-0.4960441576562502	2.4774905027746407e-23
-0.4959831225000002	2.4426897909917945e-23
-0.4959220873437502	2.4067936447481914e-23
-0.4958610521875002	2.3704172369420894e-23
-0.4958000170312502	2.333764022733813e-23
-0.4957389818750002	2.2963991008226193e-23
-0.4956779467187502	2.257773104918886e-23
-0.4956169115625002	2.2178829552608e-23
-0.4955558764062502	2.1772939935047554e-23
-0.4954948412500002	2.136493276881205e-23
-0.4954338060937502	2.0953297093584667e-23
-0.4953727709375002	2.0532041866382694e-23
-0.4953117357812502	2.0097920444075124e-23
-0.4952507006250002	1.9654459936456977e-23
-0.4951896654687502	1.9208014075987834e-23
-0.4951286303125002	1.8760452006856932e-23
-0.4950675951562502	1.8307081381676982e-23
-0.4950065600000002	1.7842315197236896e-23
-0.4949455248437502	1.736647165350915e-23
-0.4948844896875002	1.6885651449875657e-23
-0.4948234545312502	1.6404748112928236e-23
-0.4947624193750002	1.5921824408557596e-23
-0.4947013842187502	1.543054497473995e-23
-0.4946403490625002	1.4927843633948918e-23
-0.4945793139062502	1.4417795762572308e-23
-0.4945182787500002	1.3907069593175712e-23
-0.4944572435937502	1.3397234543100733e-23
-0.4943962084375002	1.2883033246949985e-23
-0.4943351732812502	1.2358764878478943e-23
-0.4942741381250002	1.182527344991385e-23
-0.4942131029687502	1.1289234535467397e-23
-0.4941520678125002	1.0755508576995798e-23
-0.4940910326562502	1.022155611344691e-23
-0.4940299975000002	9.680572490608245e-24
-0.4939689623437502	9.129755074768188e-24
-0.4939079271875002	8.57393359939338e-24
-0.4938468920312502	8.020146081678179e-24
-0.4937858568750002	7.469498636460178e-24
-0.4937248217187502	6.915972924424213e-24
-0.4936637865625002	6.353717541507463e-24
-0.4936027514062502	5.78427894033515e-24
-0.4935417162500002	5.215116179650436e-24
-0.4934806810937502	4.651022228667953e-24
-0.4934196459375002	4.088593359796235e-24
-0.4933586107812502	3.520385130601496e-24
-0.4932975756250002	2.943957063181658e-24
-0.4932365404687502	2.365107732821179e-24
-0.4931755053125002	1.7913299720579683e-24
-0.4931144701562502	1.2231316009948496e-24
-0.4930534350000002	6.535526912859585e-25
-0.4929923998437502	7.658309814772926e-26
-0.4929313646875002	-5.054139975660054e-25
-0.4928703295312502	-1.0841382462606627e-24
-0.4928092943750002	-1.6549190534915708e-24
-0.4927482592187502	-2.222122987778462e-24
-0.4926872240625002	-2.7938613202432363e-24
-0.4926261889062502	-3.3721311579863206e-24
-0.4925651537500002	-3.950086783631895e-24
-0.4925041185937502	-4.519809023530546e-24
-0.4924430834375002	-5.081490755412545e-24
-0.4923820482812502	-5.643127854410363e-24
-0.4923210131250002	-6.210903888051675e-24
-0.4922599779687502	-6.781546042563412e-24
-0.4921989428125002	-7.345808872345545e-24
-0.4921379076562502	-7.899143212920086e-24
-0.4920768725000002	-8.446968625139224e-24
-0.4920158373437502	-8.998180078278279e-24
-0.4919548021875002	-9.554396439818597e-24
-0.4918937670312502	-1.0107660194216721e-23
-0.4918327318750002	-1.0649497129368855e-23
-0.4917716967187502	-1.1180767489063213e-23
-0.4917106615625002	-1.1710589558080831e-23
-0.4916496264062502	-1.2245421720644176e-23
-0.4915885912500002	-1.2781121158987455e-23
-0.4915275560937502	-1.3307466562650973e-23
-0.4914665209375002	-1.3819971063074006e-23
-0.4914054857812502	-1.4325081088216237e-23
-0.4913444506250002	-1.4832490744668073e-23
-0.4912834154687502	-1.534347598519987e-23
-0.4912223803125002	-1.5849035253227894e-23
-0.4911613451562502	-1.6340210125889256e-23
-0.4911003100000002	-1.6818497758893517e-23
-0.4910392748437502	-1.7294008626246328e-23
-0.4909782396875002	-1.77734239991794e-23
-0.4909172045312502	-1.8251853290752622e-23
-0.4908561693750002	-1.8718250773971273e-23
-0.4907951342187502	-1.9168195535859676e-23
-0.4907340990625002	-1.960901746993959e-23
-0.4906730639062502	-2.0051090684244897e-23
-0.4906120287500002	-2.0495432971897857e-23
-0.4905509935937502	-2.0932221725899716e-23
-0.4904899584375002	-2.1352079781100927e-23
-0.4904289232812502	-2.1756953473783157e-23
-0.4903678881250002	-2.2157760811146267e-23
-0.4903068529687502	-2.2561445462944407e-23
-0.4902458178125002	-2.2962590633837932e-23
-0.4901847826562502	-2.334951799322269e-23
-0.4901237475000002	-2.3717812407214582e-23
-0.4900627123437502	-2.407541201710314e-23
-0.4900016771875002	-2.4433216532050806e-23
-0.4899406420312502	-2.4792156599386144e-23
-0.4898796068750002	-2.5141888458378707e-23
-0.4898185717187502	-2.5472717806039436e-23
-0.4897575365625002	-2.5786831591715358e-23
-0.4896965014062502	-2.6095644825928538e-23
-0.4896354662500002	-2.6406322165655255e-23
-0.4895744310937502	-2.6713249806663566e-23
-0.4895133959375002	-2.700445275342904e-23
-0.4894523607812502	-2.7275467236822413e-23
-0.4893913256250002	-2.753444745697803e-23
-0.4893302904687502	-2.7792525580289753e-23
-0.4892692553125002	-2.8050692905674436e-23
-0.4892082201562502	-2.8298539460187827e-23
-0.4891471850000002	-2.85263148425658e-23
-0.4890861498437502	-2.8736203829421636e-23
-0.4890251146875002	-2.893965654377385e-23
-0.4889640795312502	-2.914392414646955e-23
-0.4889030443750002	-2.9343534728748754e-23
-0.4888420092187502	-2.952662933570477e-23
-0.4887809740625002	-2.968871514423021e-23
-0.4887199389062502	-2.983778171163684e-23
-0.4886589037500002	-2.998486946331147e-23
-0.4885978685937502	-3.013115047272009e-23
-0.4885368334375002	-3.026656711574454e-23
-0.4884757982812502	-3.0381533694521746e-23
-0.4884147631250002	-3.047800838699559e-23
-0.4883537279687502	-3.056707532564159e-23
-0.4882926928125002	-3.06559625358457e-23
-0.4882316576562502	-3.073965965564288e-23
-0.4881706225000002	-3.080680640191888e-23
-0.4881095873437502	-3.0852879283816014e-23
-0.4880485521875002	-3.0885324005010436e-23
-0.4879875170312502	-3.0914782502132713e-23
-0.4879264818750002	-3.094273117060183e-23
-0.4878654467187502	-3.0959869938958885e-23
-0.4878044115625002	-3.095698924898921e-23
-0.4877433764062502	-3.0935600226073395e-23
-0.4876823412500002	-3.0906047878306123e-23
-0.4876213060937502	-3.087545101252434e-23
-0.4875602709375002	-3.0839539338272533e-23
-0.4874992357812502	-3.0787755056472877e-23
-0.4874382006250002	-3.0715533800054357e-23
-0.4873771654687502	-3.0629494049730184e-23
-0.4873161303125002	-3.0539663495254965e-23
-0.4872550951562502	-3.0447904192067325e-23
-0.4871940600000002	-3.0345929532577754e-23
-0.4871330248437502	-3.0225041826720014e-23
-0.4870719896875002	-3.0086191273457054e-23
-0.4870109545312502	-2.9938770980991205e-23
-0.4869499193750002	-2.9789721840700095e-23
-0.4868888842187502	-2.9635647577446374e-23
-0.4868278490625002	-2.946695378139245e-23
-0.4867668139062502	-2.9279042417357324e-23
-0.4867057787500002	-2.907757362772398e-23
-0.4866447435937502	-2.887185248695539e-23
-0.4865837084375002	-2.8664154095818694e-23
-0.4865226732812502	-2.844732243903102e-23
-0.4864616381250002	-2.821323693626662e-23
-0.4864006029687502	-2.7962229210667025e-23
-0.4863395678125002	-2.770264038762826e-23
-0.4862785326562502	-2.7441207577184486e-23
-0.4862174975000002	-2.717547009550261e-23
-0.4861564623437502	-2.689686298931677e-23
-0.4860954271875002	-2.6600748749476126e-23
-0.4860343920312502	-2.629176578407479e-23
-0.4859733568750002	-2.597845865694866e-23
-0.4859123217187502	-2.566354107800225e-23
-0.4858512865625002	-2.534102229661711e-23
-0.4857902514062502	-2.500335308977068e-23
-0.4857292162500002	-2.4650222870541048e-23
-0.4856681810937502	-2.4288915153182892e-23
-0.4856071459375002	-2.3925973623479086e-23
-0.4855461107812502	-2.355986860458254e-23
-0.4854850756250002	-2.3183030811250937e-23
-0.4854240404687502	-2.2790764013033084e-23
-0.4853630053125002	-2.238672597872047e-23
-0.4853019701562502	-2.1978755686022256e-23
-0.4852409350000002	-2.1569982739586915e-23
-0.4851798998437502	-2.1155486810882852e-23
-0.4851188646875002	-2.0728231356727097e-23
-0.4850578295312502	-2.0287318227127645e-23
-0.4849967943750002	-1.9839084954587302e-23
-0.4849357592187502	-1.938990517197009e-23
-0.4848747240625002	-1.8939066159706776e-23
-0.4848136889062502	-1.847987670332707e-23
-0.4847526537500002	-1.800760441517878e-23
-0.4846916185937502	-1.752504805624505e-23
-0.4846305834375002	-1.7039407838400733e-23
-0.4845695482812502	-1.655417077876918e-23
-0.4845085131250002	-1.606536115737618e-23
-0.4844474779687502	-1.5566385560816272e-23
-0.4843864428125002	-1.505582546419666e-23
-0.4843254076562502	-1.453920510345793e-23
-0.4842643725000002	-1.4022760305165336e-23
-0.4842033373437502	-1.3506469549089725e-23
-0.4841423021875002	-1.2984372441853359e-23
-0.4840812670312502	-1.2451701203550405e-23
-0.4840202318750002	-1.1910552944983334e-23
-0.4839591967187502	-1.1367618464406383e-23
-0.4838981615625002	-1.0826659304767925e-23
-0.4838371264062502	-1.0284426444082651e-23
-0.4837760912500002	-9.734674894333126e-24
-0.4837150560937502	-9.175594802327765e-24
-0.4836540209375002	-8.612087816696774e-24
-0.4835929857812502	-8.050298707745712e-24
-0.4835319506250002	-7.490751062771808e-24
-0.4834709154687502	-6.927999825066774e-24
-0.4834098803125002	-6.35718032784138e-24
-0.4833488451562502	-5.779872388272378e-24
-0.4832878100000002	-5.2024725014942516e-24
-0.4832267748437502	-4.6289804809114104e-24
-0.4831657396875002	-4.056604675229325e-24
-0.4831047045312502	-3.479274534340745e-24
-0.4830436693750002	-2.894939501354701e-24
-0.4829826342187502	-2.3081656894251617e-24
-0.4829215990625002	-1.7250454843968876e-24
-0.4828605639062502	-1.146354147108692e-24
-0.4827995287500002	-5.669015393520208e-25
-0.4827384935937502	1.8181231282037602e-26
-0.4826774584375002	6.075426612901299e-25
-0.4826164232812502	1.1949482301703316e-24
-0.4825553881250002	1.7762962129443335e-24
-0.4824943529687502	2.354162671196353e-24
-0.4824333178125002	2.9345619934163672e-24
-0.4823722826562502	3.519678686399962e-24
-0.4823112475000002	4.1050721219779434e-24
-0.4822502123437502	4.6846343562334054e-24
-0.4821891771875002	5.2574997994612156e-24
-0.4821281420312502	5.828815375494046e-24
-0.4820671068750002	6.403471541491083e-24
-0.4820060717187502	6.980135587298554e-24
-0.4819450365625002	7.552559736513326e-24
-0.4818840014062502	8.116652749087127e-24
-0.4818229662500002	8.675070145139489e-24
-0.4817619310937502	9.233895335798153e-24
-0.4817008959375002	9.795248311925193e-24
-0.4816398607812502	1.035453149675597e-23
-0.4815788256250002	1.0905583998260782e-23
-0.4815177904687502	1.1447704860645577e-23
-0.4814567553125002	1.1986286174638828e-23
-0.4813957201562502	1.2526255255409145e-23
-0.4813346850000002	1.3066013109639084e-23
-0.4812736498437502	1.35990471270511e-23
-0.4812126146875002	1.4121375588377677e-23
-0.4811515795312502	1.4636062818135348e-23
-0.4810905443750002	1.514943051416754e-23
-0.4810295092187502	1.5663376648981908e-23
-0.4809684740625002	1.617286533990495e-23
-0.4809074389062502	1.6671615847475648e-23
-0.4808464037500002	1.7159326873617523e-23
-0.4807853685937502	1.7641882244316204e-23
-0.4807243334375002	1.812422854605961e-23
-0.4806632982812502	1.860428251396355e-23
-0.4806022631250002	1.9075109138355804e-23
-0.4805412279687502	1.953290884255393e-23
-0.4804801928125002	1.9981383385272093e-23
-0.4804191576562502	2.042722583820765e-23
-0.4803581225000002	2.0871999323184205e-23
-0.4802970873437502	2.1310022197470232e-23
-0.4802360521875002	2.17348464127211e-23
-0.4801750170312502	2.2146739382674893e-23
-0.4801139818750002	2.2552281902110167e-23
-0.4800529467187502	2.2956438002002755e-23
-0.4799919115625002	2.3356428949942693e-23
-0.4799308764062502	2.374475447254413e-23
-0.4798698412500002	2.4117901467137286e-23
-0.4798088060937502	2.4480436340339072e-23
-0.4797477709375002	2.4839527156936172e-23
-0.4796867357812502	2.519626907163595e-23
-0.4796257006250002	2.5544112127361233e-23
-0.4795646654687502	2.587639981503556e-23
-0.4795036303125002	2.6194174732103267e-23
-0.4794425951562502	2.6504926307792764e-23
-0.4793815600000002	2.6813614407372427e-23
-0.4793205248437502	2.7116559067488845e-23
-0.4792594896875002	2.740554820446805e-23
-0.4791984545312502	2.767743841149664e-23
-0.4791374193750002	2.793787961782688e-23
-0.4790763842187502	2.8194607031614456e-23
-0.4790153490625002	2.8448122654260285e-23
-0.4789543139062502	2.869084658357415e-23
-0.4788932787500002	2.8915908042357223e-23
-0.4788322435937502	2.912526189534204e-23
-0.4787712084375002	2.932742485166405e-23
-0.4787101732812502	2.952733536191127e-23
-0.4786491381250002	2.9720295681099316e-23
-0.4785881029687502	2.9897305562055994e-23
-0.4785270678125002	3.00556383962337e-23
-0.4784660326562502	3.0202140793706615e-23
-0.4784049975000002	3.0345179104712653e-23
-0.4783439623437502	3.048462014142111e-23
-0.4782829271875002	3.0611756594462535e-23
-0.4782218920312502	3.071945808620339e-23
-0.4781608568750002	3.0810647254687126e-23
-0.4780998217187502	3.089496667931787e-23
-0.4780387865625002	3.097737664667381e-23
-0.4779777514062502	3.1052111237589844e-23
-0.4779167162500002	3.11092971682152e-23
-0.4778556810937502	3.1146597376269467e-23
-0.4777946459375002	3.1172110242351126e-23
-0.4777336107812502	3.119490787631376e-23
-0.4776725756250002	3.121424644868961e-23
-0.4776115404687502	3.1220259015754377e-23
-0.4775505053125002	3.1205507987050905e-23
-0.4774894701562502	3.117385694404402e-23
-0.4774284350000002	3.113607926998275e-23
-0.4773673998437502	3.1097195265745945e-23
-0.4773063646875002	3.10504291356947e-23
-0.4772453295312502	3.098506482333782e-23
-0.4771842943750002	3.089910727965625e-23
-0.4771232592187502	3.0801808594905966e-23
-0.4770622240625002	3.0702910230474785e-23
-0.4770011889062502	3.0601151461579125e-23
-0.4769401537500002	3.048563621809077e-23
-0.4768791185937502	3.0348625077297035e-23
-0.4768180834375002	3.0194779902076095e-23
-0.4767570482812502	3.0035871609000216e-23
-0.4766960131250002	2.987702181271123e-23
-0.4766349779687502	2.9710636639706455e-23
-0.4765739428125002	2.952528207302142e-23
-0.4765129076562502	2.931919502203671e-23
-0.4764518725000002	2.910254445396442e-23
-0.4763908373437502	2.888565398284189e-23
-0.4763298021875002	2.866692465858216e-23
-0.4762687670312502	2.843468805555378e-23
-0.4762077318750002	2.818093540534351e-23
-0.4761466967187502	2.791086484421263e-23
-0.4760856615625002	2.763698172694184e-23
-0.4760246264062502	2.736456917418011e-23
-0.4759635912500002	2.7085542043317074e-23
-0.4759025560937502	2.6787960729851957e-23
-0.4758415209375002	2.647013186225307e-23
-0.4757804857812502	2.6142767932647966e-23
-0.4757194506250002	2.581661023086656e-23
-0.4756584154687502	2.548997914890469e-23
-0.4755973803125002	2.5150840571846895e-23
-0.4755363451562502	2.4790993694051834e-23
-0.4754753100000002	2.4415805050374185e-23
-0.4754142748437502	2.403810193920212e-23
-0.4753532396875002	2.3663343899073857e-23
-0.4752922045312502	2.328339474695776e-23
-0.4752311693750002	2.288617551647266e-23
-0.4751701342187502	2.2469922681234933e-23
-0.4751090990625002	2.2045394668597817e-23
-0.4750480639062502	2.1623468073603357e-23
-0.4749870287500002	2.1202632569686303e-23
-0.4749259935937502	2.0770965937527963e-23
-0.4748649584375002	2.0320232406568665e-23
-0.4748039232812502	1.985562596106925e-23
-0.4747428881250002	1.938983862767687e-23
-0.4746818529687502	1.8928450513044272e-23
-0.4746208178125002	1.8463680153382505e-23
-0.4745597826562502	1.798370181256015e-23
-0.4744987475000002	1.7486602021977312e-23
-0.4744377123437502	1.6982721539917198e-23
-0.4743766771875002	1.6482751518213818e-23
-0.4743156420312502	1.59855386493802e-23
-0.4742546068750002	1.5479745629062335e-23
-0.4741935717187502	1.4957289221575305e-23
-0.4741325365625002	1.442286354989012e-23
-0.4740715014062502	1.3888575540436058e-23
-0.4740104662500002	1.3360083253068407e-23
-0.4739494310937502	1.283036017325073e-23
-0.4738883959375002	1.228818153272921e-23
-0.4738273607812502	1.1731352750007704e-23
-0.4737663256250002	1.1169355048048193e-23
-0.4737052904687502	1.0612473457741776e-23
-0.4736442553125002	1.0060132075066232e-23
-0.4735832201562502	9.501943362751024e-24
-0.4735221850000002	8.930073008284312e-24
-0.4734611498437502	8.348457349401495e-24
-0.4734001146875002	7.768308272609158e-24
-0.4733390795312502	7.195320376238263e-24
-0.4732780443750002	6.623445949065375e-24
-0.4732170092187502	6.042286845021264e-24
-0.4731559740625002	5.4493660533192336e-24
-0.4730949389062502	4.853084306647888e-24
-0.4730339037500002	4.26311261708544e-24
-0.4729728685937502	3.679490316218833e-24
-0.4729118334375002	3.0929933320156883e-24
-0.4728507982812502	2.496134209754365e-24
-0.4727897631250002	1.89196852740643e-24
-0.4727287279687502	1.2906456616340672e-24
-0.4726676928125002	6.978756678233357e-25
-0.4726066576562502	1.0869703759381586e-25
-0.4725456225000002	-4.863864175211504e-25
-0.4724845873437502	-1.0901767526429096e-24
-0.4724235521875002	-1.6954506868628743e-24
-0.4723625170312502	-2.2931900023562123e-24
-0.4723014818750002	-2.8827068760215666e-24
-0.4722404467187502	-3.472026186042351e-24
-0.4721794115625002	-4.0682825996379425e-24
-0.4721183764062502	-4.669325182812201e-24
-0.4720573412500002	-5.266118325594335e-24
-0.4719963060937502	-5.852974440904511e-24
-0.4719352709375002	-6.433746713398146e-24
-0.4718742357812502	-7.016989110303206e-24
-0.4718132006250002	-7.60584389011129e-24
-0.4717521654687502	-8.194316235722e-24
-0.4716911303125002	-8.774062222825946e-24
-0.4716300951562502	-9.343727463549885e-24
