Time	Frequency
-0.5000362390312532	-3.053501591331732e-23
-0.49997520387500316	-3.08350285504168e-23
-0.49991416871875316	-3.111863031586437e-23
-0.49985313356250316	-3.139507037783603e-23
-0.49979209840625316	-3.167114261592073e-23
-0.49973106325000316	-3.194311909952603e-23
-0.49967002809375316	-3.2200780818914197e-23
-0.49960899293750316	-3.2439082507540744e-23
-0.49954795778125316	-3.26640476513594e-23
-0.49948692262500316	-3.288592035038097e-23
-0.49942588746875316	-3.3107259215231487e-23
-0.49936485231250316	-3.331969705552708e-23
-0.49930381715625316	-3.3513315940901147e-23
-0.49924278200000316	-3.3688045929281856e-23
-0.49918174684375316	-3.3853926176782235e-23
-0.49912071168750316	-3.40196547422887e-23
-0.49905967653125316	-3.418240374086375e-23
-0.49899864137500316	-3.4330733596375097e-23
-0.49893760621875316	-3.4457551429194863e-23
-0.49887657106250316	-3.4568368805124764e-23
-0.49881553590625316	-3.4675209225064646e-23
-0.49875450075000316	-3.4782853023493115e-23
-0.49869346559375316	-3.4883094724373065e-23
-0.49863243043750316	-3.496382375963101e-23
-0.49857139528125316	-3.502283646283715e-23
-0.49851036012500316	-3.507059737184885e-23
-0.49844932496875316	-3.5118495997981136e-23
-0.49838828981250316	-3.516574664811373e-23
-0.49832725465625316	-3.5199961324373017e-23
-0.49826621950000316	-3.521107266281164e-23
-0.49820518434375316	-3.520293781406095e-23
-0.49814414918750316	-3.518924907999365e-23
-0.49808311403125316	-3.5178068274536165e-23
-0.49802207887500316	-3.5162442360870896e-23
-0.49796104371875316	-3.512800219441246e-23
-0.49790000856250316	-3.506924671681371e-23
-0.49783897340625316	-3.4996065332962535e-23
-0.49777793825000316	-3.4922799745048653e-23
-0.49771690309375316	-3.485196247926057e-23
-0.49765586793750316	-3.477111627019679e-23
-0.49759483278125316	-3.4666767631009096e-23
-0.49753379762500316	-3.45397687857044e-23
-0.49747276246875316	-3.440468776393641e-23
-0.49741172731250316	-3.4273536912668626e-23
-0.49735069215625316	-3.414207627261957e-23
-0.49728965700000316	-3.3994336422856223e-23
-0.49722862184375316	-3.382058884756866e-23
-0.49716758668750316	-3.3628598249570283e-23
-0.49710655153125316	-3.343521085389439e-23
-0.49704551637500316	-3.324743971548986e-23
-0.49698448121875316	-3.305435529768364e-23
-0.49692344606250316	-3.283921602483689e-23
-0.49686241090625316	-3.2598433904036627e-23
-0.49680137575000316	-3.23459659037532e-23
-0.49674034059375316	-3.2097886709969166e-23
-0.49667930543750316	-3.185427643839346e-23
-0.49661827028125316	-3.159891394826216e-23
-0.49655723512500316	-3.1317454488162015e-23
-0.49649619996875316	-3.101380510468061e-23
-0.49643516481250316	-3.070610663640043e-23
-0.49637412965625316	-3.0406540017007404e-23
-0.49631309450000316	-3.0107539777963136e-23
-0.49625205934375316	-2.97901172096392e-23
-0.49619102418750316	-2.9445253959656543e-23
-0.49612998903125316	-2.908437908989108e-23
-0.49606895387500316	-2.872689360631333e-23
-0.49600791871875316	-2.837848296611863e-23
-0.49594688356250316	-2.802459326751183e-23
-0.49588584840625316	-2.764667299927124e-23
-0.49582481325000316	-2.7243180064038286e-23
-0.49576377809375316	-2.6831709302851094e-23
-0.49570274293750316	-2.642955276441241e-23
-0.49564170778125316	-2.6034324509933022e-23
-0.49558067262500316	-2.5626516613212834e-23
-0.49551963746875316	-2.5191383616302706e-23
-0.49545860231250316	-2.4735749975900762e-23
-0.49539756715625316	-2.4280759554105265e-23
-0.49533653200000316	-2.3838409329664323e-23
-0.49527549684375316	-2.3398075923840658e-23
-0.49521446168750316	-2.2938336927891833e-23
-0.49515342653125316	-2.24510944523753e-23
-0.49509239137500316	-2.1950999313312508e-23
-0.49503135621875316	-2.1459396590444297e-23
-0.49497032106250316	-2.098056789861e-23
-0.49490928590625316	-2.0496906755125992e-23
-0.49484825075000316	-1.998864229648886e-23
-0.49478721559375316	-1.945618424017781e-23
-0.49472618043750316	-1.8920021569378372e-23
-0.49466514528125316	-1.8398098193707936e-23
-0.49460411012500316	-1.7885845548799607e-23
-0.49454307496875316	-1.736127780732528e-23
-0.49448203981250316	-1.6809661968985324e-23
-0.49442100465625316	-1.624027259539524e-23
-0.49435996950000316	-1.5676369234169027e-23
-0.49429893434375316	-1.5129437667948162e-23
-0.49423789918750316	-1.4586455615173288e-23
-0.49417686403125316	-1.402449978735173e-23
-0.49411582887500316	-1.343650093422003e-23
-0.49405479371875316	-1.2839420689737435e-23
-0.49399375856250316	-1.2255625727035914e-23
-0.49393272340625316	-1.1688128786623535e-23
-0.49387168825000316	-1.111731098417048e-23
-0.49381065309375316	-1.0522918057726886e-23
-0.49374961793750316	-9.906899021776072e-24
-0.49368858278125316	-9.291522347093282e-24
-0.49362754762500316	-8.694772405576816e-24
-0.49356651246875316	-8.110474371683088e-24
-0.49350547731250316	-7.515333589483885e-24
-0.49344444215625316	-6.895082426383578e-24
-0.49338340700000316	-6.260599545383909e-24
-0.49332237184375316	-5.636018176588967e-24
-0.49326133668750316	-5.032077563737779e-24
-0.49320030153125316	-4.4343634446299625e-24
-0.49313926637500316	-3.81953432169627e-24
-0.49307823121875316	-3.1815336393210938e-24
-0.49301719606250316	-2.5385610920038686e-24
-0.49295616090625316	-1.912986693654049e-24
-0.49289512575000316	-1.3066545419055028e-24
-0.49283409059375316	-6.990951125429182e-25
-0.49277305543750316	-7.053870782952718e-26
-0.49271202028125316	5.75900009719811e-25
-0.49265098512500316	1.2175148685551437e-24
-0.49258994996875316	1.8370983879774883e-24
-0.49252891481250316	2.441843541276102e-24
-0.49246787965625316	3.0550280217038842e-24
-0.49240684450000316	3.689877887947591e-24
-0.49234580934375316	4.334732977065438e-24
-0.49228477418750316	4.965897435183408e-24
-0.49222373903125316	5.573784785566699e-24
-0.49216270387500316	6.1732720628478345e-24
-0.49210166871875316	6.786827974198153e-24
-0.49204063356250316	7.419321003172171e-24
-0.49197959840625316	8.05253978926998e-24
-0.49191856325000316	8.6653530765835e-24
-0.49185752809375316	9.25695542428772e-24
-0.49179649293750316	9.847383877256246e-24
-0.49173545778125316	1.0454909338908049e-23
-0.49167442262500316	1.1075581981352786e-23
-0.49161338746875316	1.1687609341800057e-23
-0.49155235231250316	1.2275496204659986e-23
-0.49149131715625316	1.2846963292985221e-23
-0.49143028200000316	1.342393666877209e-23
-0.49136924684375316	1.4017883978712375e-23
-0.49130821168750316	1.461702359836548e-23
-0.49124717653125316	1.5199459650580415e-23
-0.49118614137500316	1.575736785601387e-23
-0.49112510621875316	1.630527537164457e-23
-0.49106407106250316	1.6863468345679142e-23
-0.49100303590625316	1.743525929825837e-23
-0.49094200075000316	1.8003384428575805e-23
-0.49088096559375316	1.8549231194382784e-23
-0.49081993043750316	1.9073272192798992e-23
-0.49075889528125316	1.9594059991900516e-23
-0.49069786012500316	2.0127207243852003e-23
-0.49063682496875316	2.0667962791622555e-23
-0.49057578981250316	2.1196638246905335e-23
-0.49051475465625316	2.170047850582298e-23
-0.49045371950000316	2.218747681747146e-23
-0.49039268434375316	2.267698554745355e-23
-0.49033164918750316	2.3177912486733576e-23
-0.49027061403125316	2.3678877995206424e-23
-0.49020957887500316	2.4161042009580973e-23
-0.49014854371875316	2.4618941149995255e-23
-0.49008750856250316	2.5066090809823665e-23
-0.49002647340625316	2.551947387545767e-23
-0.48996543825000316	2.5980509072671858e-23
-0.48990440309375316	2.6433650180198353e-23
-0.48984336793750316	2.686381878810729e-23
-0.48978233278125316	2.7272951773267756e-23
-0.48972129762500316	2.767732727284054e-23
-0.48966026246875316	2.80890423183808e-23
-0.48959922731250316	2.850255163035735e-23
-0.48953819215625316	2.8901099536084893e-23
-0.48947715700000316	2.927543150330955e-23
-0.48941612184375316	2.9633729371340655e-23
-0.48935508668750316	2.999196764986248e-23
-0.48929405153125316	3.035586614433878e-23
-0.48923301637500316	3.071468222147364e-23
-0.48917198121875316	3.105344792392833e-23
-0.48911094606250316	3.1369582717674905e-23
-0.48904991090625316	3.167530492099857e-23
-0.48898887575000316	3.198353454152646e-23
-0.48892784059375316	3.2293393275070116e-23
-0.48886680543750316	3.25914502052156e-23
-0.48880577028125316	3.2866924482504565e-23
-0.48874473512500316	3.3123524623957035e-23
-0.48868369996875316	3.337479942202187e-23
-0.48862266481250316	3.362864665858488e-23
-0.48856162965625316	3.387857408002197e-23
-0.48850059450000316	3.4111281894637704e-23
-0.48843955934375316	3.432164004726461e-23
-0.48837852418750316	3.4518098046643874e-23
-0.48831748903125316	3.47127413732282e-23
-0.48825645387500316	3.4907577598765624e-23
-0.48819541871875316	3.509252576580757e-23
-0.48813438356250316	3.5257014868410557e-23
-0.48807334840625316	3.5401799021656196e-23
-0.48801231325000316	3.553771906560876e-23
-0.48795127809375316	3.5673144953941835e-23
-0.48789024293750316	3.5804554894350624e-23
-0.48782920778125316	3.592081111964873e-23
-0.48776817262500316	3.601592463534432e-23
-0.48770713746875316	3.609563679551726e-23
-0.48764610231250316	3.6170542562260896e-23
-0.48758506715625316	3.624390620051222e-23
-0.48752403200000316	3.6308120813776383e-23
-0.48746299684375316	3.6353618726733375e-23
-0.48740196168750316	3.6379802385487477e-23
-0.48734092653125316	3.6395490489819737e-23
-0.48727989137500316	3.640859788502726e-23
-0.48721885621875316	3.641707608850411e-23
-0.48715782106250316	3.641146378162424e-23
-0.48709678590625316	3.638590269624802e-23
-0.48703575075000316	3.6344818787533335e-23
-0.48697471559375316	3.629765494241246e-23
-0.48691368043750316	3.62478981480473e-23
-0.48685264528125316	3.6189132427333916e-23
-0.48679161012500316	3.611259359723359e-23
-0.48673057496875316	3.601737838384943e-23
-0.48666953981250316	3.5911468530028974e-23
-0.48660850465625316	3.5802433909741816e-23
-0.48654746950000316	3.568864820432428e-23
-0.48648643434375316	3.556122406431394e-23
-0.48642539918750316	3.541440629978498e-23
-0.48636436403125316	3.525234604375857e-23
-0.48630332887500316	3.5084363215630235e-23
-0.48624229371875316	3.4914146394923696e-23
-0.48618125856250316	3.473543481076025e-23
-0.48612022340625316	3.4539286015335896e-23
-0.48605918825000316	3.4324570513716667e-23
-0.48599815309375316	3.409947723144446e-23
-0.48593711793750316	3.387215158496676e-23
-0.48587608278125316	3.3641237079745833e-23
-0.48581504762500316	3.339736430551297e-23
-0.48575401246875316	3.313403540152849e-23
-0.48569297731250316	3.285536195805479e-23
-0.48563194215625316	3.2571576871348573e-23
-0.48557090700000316	3.2287327103713345e-23
-0.48550987184375316	3.199622559320692e-23
-0.48544883668750316	3.1688125816629193e-23
-0.48538780153125316	3.136094979007202e-23
-0.48532676637500316	3.102342367828794e-23
-0.48526573121875316	3.068531909753988e-23
-0.48520469606250316	3.0346227975020114e-23
-0.48514366090625316	2.999587661295153e-23
-0.48508262575000316	2.9625919570490224e-23
-0.48502159059375316	2.9239811432675365e-23
-0.48496055543750316	2.8849251340373003e-23
-0.48489952028125316	2.846098104265701e-23
-0.48483848512500316	2.806897241997475e-23
-0.48477744996875316	2.766118794317889e-23
-0.48471641481250316	2.723346820307583e-23
-0.48465537965625316	2.6794682563180545e-23
-0.48459434450000316	2.635700475019564e-23
-0.48453330934375316	2.5922139438386166e-23
-0.48447227418750316	2.5479223119827783e-23
-0.48441123903125316	2.5017136003193205e-23
-0.48435020387500316	2.4537456149111887e-23
-0.48428916871875316	2.405314740158764e-23
-0.48422813356250316	2.3574112926466588e-23
-0.48416709840625316	2.3095896071725386e-23
-0.48410606325000316	2.2604595563835713e-23
-0.48404502809375316	2.2092752707302862e-23
-0.48398399293750316	2.1568251019932164e-23
-0.48392295778125316	2.1045851897402745e-23
-0.48386192262500316	2.0530627668002215e-23
-0.48380088746875316	2.0012082536460272e-23
-0.48373985231250316	1.94759758049856e-23
-0.48367881715625316	1.8920721477153985e-23
-0.48361778200000316	1.8359681135011256e-23
-0.48355674684375316	1.7806421081100702e-23
-0.48349571168750316	1.7259420930314774e-23
-0.48343467653125316	1.670366261139444e-23
-0.48337364137500316	1.612765717327556e-23
-0.48331260621875316	1.5536827464320667e-23
-0.48325157106250316	1.4947890596999254e-23
-0.48319053590625316	1.437026882294088e-23
-0.48312950075000316	1.3795432823670784e-23
-0.48306846559375316	1.3206417583571304e-23
-0.48300743043750316	1.2597116063171397e-23
-0.48294639528125316	1.1979662176083721e-23
-0.48288536012500316	1.1371248187793456e-23
-0.48282432496875316	1.0774910008271526e-23
-0.48276328981250316	1.017599675876513e-23
-0.48270225465625316	9.558660260113758e-24
-0.48264121950000316	8.924038236583967e-24
-0.48258018434375316	8.289508324268828e-24
-0.48251914918750316	7.669502601949785e-24
-0.48245811403125316	7.059316866686106e-24
-0.48239707887500316	6.440314031965367e-24
-0.48233604371875316	5.800994839096646e-24
-0.48227500856250316	5.150348705233622e-24
-0.48221397340625316	4.508265951661439e-24
-0.48215293825000316	3.883464499191947e-24
-0.48209190309375316	3.2636413684344082e-24
-0.48203086793750316	2.6292415760822273e-24
-0.48196983278125316	1.975696965863805e-24
-0.48190879762500316	1.3190584814512857e-24
-0.48184776246875316	6.784021746989016e-25
-0.48178672731250316	5.456150923257511e-26
-0.48172569215625316	-5.708762051091365e-25
-0.48166465700000316	-1.2148650493647728e-24
-0.48160362184375316	-1.8735265485886887e-24
-0.48154258668750316	-2.5259951590161243e-24
-0.48148155153125316	-3.157463775999389e-24
-0.48142051637500316	-3.775715015849774e-24
-0.48135948121875316	-4.402444835764404e-24
-0.48129844606250316	-5.048812527276584e-24
-0.48123741090625316	-5.702512927034661e-24
-0.48117637575000316	-6.341094765547762e-24
-0.48111534059375316	-6.956882961797457e-24
-0.48105430543750316	-7.565568824451628e-24
-0.48099327028125316	-8.188614742609386e-24
-0.48093223512500316	-8.82897232398878e-24
-0.48087119996875316	-9.467340154016178e-24
-0.48081016481250316	-1.0083387691878644e-23
-0.48074912965625316	-1.067834714282477e-23
-0.48068809450000316	-1.1273634881673022e-23
-0.48062705934375316	-1.1886823225874716e-23
-0.48056602418750316	-1.2511687490050331e-23
-0.48050498903125316	-1.3124735824004058e-23
-0.48044395387500316	-1.371115297493087e-23
-0.48038291871875316	-1.4281277940218342e-23
-0.48032188356250316	-1.4859045240167678e-23
-0.48026084840625316	-1.545507201694486e-23
-0.48019981325000316	-1.6054454147655837e-23
-0.48013877809375316	-1.6633068794751962e-23
-0.48007774293750316	-1.718428700893227e-23
-0.48001670778125316	-1.772627976877312e-23
-0.47995567262500316	-1.828168099993192e-23
-0.47989463746875316	-1.885214811455338e-23
-0.47983360231250316	-1.9416173974865743e-23
-0.47977256715625316	-1.9952779413711185e-23
-0.47971153200000316	-2.0464774351188175e-23
-0.47965049684375316	-2.09755327438441e-23
-0.47958946168750316	-2.1502773167899453e-23
-0.47952842653125316	-2.2038597261771884e-23
-0.47946739137500316	-2.2558060737431725e-23
-0.47940635621875316	-2.304675096830665e-23
-0.47934532106250316	-2.3516693226216685e-23
-0.47928428590625316	-2.399283304745815e-23
-0.47922325075000316	-2.4485090531310707e-23
-0.47916221559375316	-2.4977115720332503e-23
-0.47910118043750316	-2.5444296532377095e-23
-0.47904014528125316	-2.588099171332716e-23
-0.47897911012500316	-2.630665736270572e-23
-0.47891807496875316	-2.6744032925215706e-23
-0.47885703981250316	-2.719368709625412e-23
-0.47879600465625316	-2.763325250271167e-23
-0.47873496950000316	-2.804217303450444e-23
-0.47867393434375316	-2.842440933556396e-23
-0.47861289918750316	-2.88038383712991e-23
-0.47855186403125316	-2.919750857879665e-23
-0.47849082887500316	-2.9596583645085945e-23
-0.47842979371875316	-2.9976135676975814e-23
-0.47836875856250316	-3.0322751732874155e-23
-0.47830772340625316	-3.064922805546496e-23
-0.47824668825000316	-3.0980116355730744e-23
-0.47818565309375316	-3.132429661244466e-23
-0.47812461793750316	-3.1665098878143884e-23
-0.47806358278125316	-3.197884025665386e-23
-0.47800254762500316	-3.226101728826847e-23
-0.47794151246875316	-3.2531048334460594e-23
-0.47788047731250316	-3.281046001971812e-23
-0.47781944215625316	-3.3098907843379885e-23
-0.47775840700000316	-3.337464429249379e-23
-0.47769737184375316	-3.3618712037125806e-23
-0.47763633668750316	-3.383582827351936e-23
-0.47757530153125316	-3.4048839561643585e-23
-0.47751426637500316	-3.4273149353458917e-23
-0.47745323121875316	-3.4499656540338253e-23
-0.47739219606250316	-3.4705020726508383e-23
-0.47733116090625316	-3.487759508983497e-23
-0.47727012575000316	-3.5030117992671324e-23
-0.47720909059375316	-3.5185240986113416e-23
-0.47714805543750316	-3.535026092500518e-23
-0.47708702028125316	-3.550919257374986e-23
-0.47702598512500316	-3.5640728339603676e-23
-0.47696494996875316	-3.574183889271868e-23
-0.47690391481250316	-3.583080278575316e-23
-0.47684287965625316	-3.592661808416852e-23
-0.47678184450000316	-3.602794324674866e-23
-0.47672080934375316	-3.611487206256368e-23
-0.47665977418750316	-3.6171220080885544e-23
-0.47659873903125316	-3.6202333866210223e-23
-0.47653770387500316	-3.6228781476738585e-23
-0.47647666871875316	-3.6263316658547234e-23
-0.47641563356250316	-3.629690297781748e-23
-0.47635459840625316	-3.630909689798574e-23
-0.47629356325000316	-3.629086011032106e-23
-0.47623252809375316	-3.6254332667623366e-23
-0.47617149293750316	-3.621899348079498e-23
-0.47611045778125316	-3.6189971711728674e-23
-0.47604942262500316	-3.615267043044868e-23
-0.47598838746875316	-3.608933789918069e-23
-0.47592735231250316	-3.599879425963851e-23
-0.47586631715625316	-3.58973964748104e-23
-0.47580528200000316	-3.580056922173055e-23
-0.47574424684375316	-3.570578356739789e-23
-0.47568321168750316	-3.559580326880591e-23
-0.47562217653125316	-3.545814500761228e-23
-0.47556114137500316	-3.5298827225490587e-23
-0.47550010621875316	-3.5135298918011725e-23
-0.47543907106250316	-3.4976871049682075e-23
-0.47537803590625316	-3.481465985235262e-23
-0.47531700075000316	-3.463196488008568e-23
-0.47525596559375316	-3.442304095940279e-23
-0.47519493043750316	-3.419922636619293e-23
-0.47513389528125316	-3.3975971831566114e-23
-0.47507286012500316	-3.3755665045422794e-23
-0.47501182496875316	-3.3525424698486453e-23
-0.47495078981250316	-3.3271908960253883e-23
-0.47488975465625316	-3.2996222006902203e-23
-0.47482871950000316	-3.271235943352291e-23
-0.47476768434375316	-3.2431368512262447e-23
-0.47470664918750316	-3.214923107325544e-23
-0.47464561403125316	-3.1851880951959243e-23
-0.47458457887500316	-3.1531282039507306e-23
-0.47452354371875316	-3.1194298330000247e-23
-0.47446250856250316	-3.085468185818488e-23
-0.47440147340625316	-3.051763032873353e-23
-0.47434043825000316	-3.017437372399533e-23
-0.47427940309375316	-2.9812536539357695e-23
-0.47421836793750316	-2.9430209931764885e-23
-0.47415733278125316	-2.903787603423565e-23
-0.47409629762500316	-2.864640576245855e-23
-0.47403526246875316	-2.825499338319724e-23
-0.47397422731250316	-2.7852556575816195e-23
-0.47391319215625316	-2.7430650732542e-23
-0.47385215700000316	-2.6993041155788355e-23
-0.47379112184375316	-2.6551227429874875e-23
-0.47373008668750316	-2.6111373505326167e-23
-0.47366905153125316	-2.5667671824848079e-23
-0.47360801637500316	-2.5209451241089154e-23
-0.47354698121875316	-2.4733558467398886e-23
-0.47348594606250316	-2.4247859554473776e-23
-0.47342491090625316	-2.3762161078761128e-23
-0.47336387575000316	-2.3277158308184438e-23
-0.47330284059375316	-2.278404935157057e-23
-0.47324180543750316	-2.227502918008729e-23
-0.47318077028125316	-2.1752383803546226e-23
-0.47311973512500316	-2.1225805804253069e-23
-0.47305869996875316	-2.0701286594434455e-23
-0.47299766481250316	-2.0174485770914074e-23
-0.47293662965625316	-1.9636111350374232e-23
-0.47287559450000316	-1.908294138246062e-23
-0.47281455934375316	-1.8521670997326287e-23
-0.47275352418750316	-1.796119880888769e-23
-0.47269248903125316	-1.740244672051908e-23
-0.47263145387500316	-1.6837572358317474e-23
-0.47257041871875316	-1.6259390259438616e-23
-0.47250938356250316	-1.566996066536442e-23
-0.47244834840625316	-1.5078369554749104e-23
