Time	Frequency
-0.5000040412187516	0.4907408116029071
-0.49994300606250164	0.4904440535335023
-0.49988197090625164	0.49001659621827354
-0.49982093575000164	0.48947029883521503
-0.49975990059375164	0.488781717134313
-0.49969886543750164	0.4879558029051828
-0.49963783028125164	0.4870117050744693
-0.49957679512500164	0.4859323176289412
-0.49951575996875164	0.4847117306957347
-0.49945472481250164	0.483370640113145
-0.49939368965625164	0.4819014959848404
-0.49933265450000164	0.4802908663894488
-0.49927161934375164	0.4785556154175363
-0.49921058418750164	0.47669798328078733
-0.49914954903125164	0.47470204990403514
-0.49908851387500164	0.47257757893021585
-0.49902747871875164	0.47033389618222027
-0.49896644356250164	0.4679570308514252
-0.49890540840625164	0.46544934650706354
-0.49884437325000164	0.4628238447011821
-0.49878333809375164	0.46007117952411164
-0.49872230293750164	0.4571873360062596
-0.49866126778125164	0.454185591101922
-0.49860023262500164	0.4510626939144537
-0.49853919746875164	0.44781043055601044
-0.49847816231250164	0.4444391544998428
-0.49841712715625164	0.44095164390589897
-0.49835609200000164	0.4373389830487414
-0.49829505684375164	0.43360702368147636
-0.49823402168750164	0.4297624629841506
-0.49817298653125164	0.4257979831357737
-0.49811195137500164	0.42171476377044176
-0.49805091621875164	0.41752131667941944
-0.49798988106250164	0.4132138670197492
-0.49792884590625164	0.4087898312303504
-0.49786781075000164	0.4042569828194333
-0.49780677559375164	0.3996157885535412
-0.49774574043750164	0.3948620515458286
-0.49768470528125164	0.3900010518299398
-0.49762367012500164	0.3850365026862723
-0.49756263496875164	0.37996444723735334
-0.49750159981250164	0.37478699494005907
-0.49744056465625164	0.3695097531120284
-0.49737952950000164	0.36413097150410884
-0.49731849434375164	0.3586503104154281
-0.49725745918750164	0.35307341767370787
-0.49719642403125164	0.3474008379649393
-0.49713538887500164	0.34163021039546143
-0.49707435371875164	0.3357659052507789
-0.49701331856250164	0.32981170721310643
-0.49695228340625164	0.3237653294223916
-0.49689124825000164	0.3176284226120539
-0.49683021309375164	0.3114065088023371
-0.49676917793750164	0.3050989126029219
-0.49670814278125164	0.29870472120215674
-0.49664710762500164	0.29222963268781854
-0.49658607246875164	0.28567533095261605
-0.49652503731250164	0.27903920543232674
-0.49646400215625164	0.2723260891378434
-0.49640296700000164	0.2655404208751735
-0.49634193184375164	0.25867872883076476
-0.49628089668750164	0.2517437468613679
-0.49621986153125164	0.24474271103831605
-0.49615882637500164	0.23767264343164943
-0.49609779121875164	0.23053264519214925
-0.49603675606250164	0.22333155949766384
-0.49597572090625164	0.2160694335357741
-0.49591468575000164	0.20874242805616852
-0.49585365059375164	0.20135897149852033
-0.49579261543750164	0.1939225466587385
-0.49573158028125164	0.1864268299907496
-0.49567054512500164	0.17887805957829175
-0.49560950996875164	0.1712840312267951
-0.49554847481250164	0.16363800043489432
-0.49548743965625164	0.15594225164499803
-0.49542640450000164	0.14820804400697793
-0.49536536934375164	0.14043050016300856
-0.49530433418750164	0.1326072118719034
-0.49524329903125164	0.12475121261489261
-0.49518226387500164	0.11686135876472592
-0.49512122871875164	0.10893027282362348
-0.49506019356250164	0.10097024104381311
-0.49499915840625164	0.09298583494849585
-0.49493812325000164	0.08496658844762216
-0.49487708809375164	0.07692169082366548
-0.49481605293750164	0.06886184403531315
-0.49475501778125164	0.0607752587070744
-0.49469398262500164	0.05266503574038465
-0.49463294746875164	0.044547523692012064
-0.49457191231250164	0.036413763286755864
-0.49451087715625164	0.028259206154148852
-0.49444984200000164	0.020102492438658765
-0.49438880684375164	0.011940918527766627
-0.49432777168750164	0.003763250927750355
-0.49426673653125164	-0.00441350186036638
-0.49420570137500164	-0.012584204534262193
-0.49414466621875164	-0.020764377788462633
-0.49408363106250164	-0.02894176123560931
-0.49402259590625164	-0.03710285771781514
-0.49396156075000164	-0.04526418032256466
-0.49390052559375164	-0.05342119490322975
-0.49383949043750164	-0.061553718874131295
-0.49377845528125164	-0.0696758435703179
-0.49371742012500164	-0.077792545544639
-0.49365638496875164	-0.08587897870747715
-0.49359534981250164	-0.09394187659950713
-0.49353431465625164	-0.10199623648597322
-0.49347327950000164	-0.1100178306824107
-0.49341224434375164	-0.11800260359752678
-0.49335120918750164	-0.12597309799705447
-0.49329017403125164	-0.1339112504003764
-0.49322913887500164	-0.14180071177427064
-0.49316810371875164	-0.14966625739680556
-0.49310706856250164	-0.15750029019018089
-0.49304603340625164	-0.16527613446652784
-0.49298499825000164	-0.17301625037626234
-0.49292396309375164	-0.18072709532959913
-0.49286292793750164	-0.18837396098936499
-0.49280189278125164	-0.19596872524277692
-0.49274085762500164	-0.2035333623873224
-0.49267982246875164	-0.21103400494947713
-0.49261878731250164	-0.21846687543756213
-0.49255775215625164	-0.22586486998948155
-0.49249671700000164	-0.23320206861028964
-0.49243568184375164	-0.2404568065810485
-0.49237464668750164	-0.24766669345579923
-0.49231361153125164	-0.25482171726586517
-0.49225257637500164	-0.2618840170707999
-0.49219154121875164	-0.26888628403532117
-0.49213050606250164	-0.2758392900106522
-0.49206947090625164	-0.2826953269677781
-0.49200843575000164	-0.28947228502948885
-0.49194740059375164	-0.2962023276524659
-0.49188636543750164	-0.3028383601938201
-0.49182533028125164	-0.3093754846483969
-0.49176429512500164	-0.315861589759033
-0.49170325996875164	-0.3222622934500009
-0.49164222481250164	-0.32854724084887976
-0.49158118965625164	-0.3347694369393186
-0.49152015450000164	-0.340917562510673
-0.49145911934375164	-0.34693945426095735
-0.49139808418750164	-0.352879998425389
-0.49133704903125164	-0.3587570526799538
-0.49127601387500164	-0.3645061977226495
-0.49121497871875164	-0.3701502820880962
-0.49115394356250164	-0.37573590921241345
-0.49109290840625164	-0.38120194202679014
-0.49103187325000164	-0.3865390947367112
-0.49097083809375164	-0.391813059901613
-0.49090980293750164	-0.3969828871509741
-0.49084876778125164	-0.4020058136298069
-0.49078773262500164	-0.40695036710010635
-0.49072669746875164	-0.411808249517424
-0.49066566231250164	-0.4165110916478482
-0.49060462715625164	-0.4211119400258471
-0.49054359200000164	-0.4256398252341814
-0.49048255684375164	-0.43001650012709475
-0.49042152168750164	-0.4342639766610138
-0.49036048653125164	-0.43844331962542504
-0.49029945137500164	-0.44248609145174395
-0.49023841621875164	-0.4463750814921805
-0.49017738106250164	-0.4501886246543894
-0.49011634590625164	-0.4538862641099893
-0.49005531075000164	-0.4574141198460843
-0.48999427559375164	-0.46084782800672214
-0.48993324043750164	-0.4641862724342827
-0.48987220528125164	-0.4673515982018246
-0.48981117012500164	-0.4703964667645202
-0.48975013496875164	-0.4733597027814615
-0.48968909981250164	-0.4761594879911133
-0.48962806465625164	-0.47881177618733267
-0.48956702950000164	-0.48138475085935906
-0.48950599434375164	-0.48381316793646567
-0.48944495918750164	-0.48607262189217015
-0.48938392403125164	-0.4882426764089633
-0.48932288887500164	-0.49029054144386774
-0.48926185371875164	-0.4921587134554667
-0.48920081856250164	-0.4939176960449832
-0.48913978340625164	-0.49557385199799814
-0.48907874825000164	-0.4970522405801011
-0.48901771309375164	-0.49839707961187735
-0.48895667793750164	-0.49964982821375475
-0.48889564278125164	-0.5007375755663467
-0.48883460762500164	-0.5016693987747003
-0.48877357246875164	-0.5025090508084323
-0.48871253731250164	-0.5032026496937706
-0.48865150215625164	-0.5037248951303924
-0.48859046700000164	-0.5041450748430996
-0.48852943184375164	-0.504439154259638
-0.48846839668750164	-0.5045561939880759
-0.48840736153125164	-0.5045544786997809
-0.48834632637500164	-0.5044426576172432
-0.48828529121875164	-0.5041582580303261
-0.48822425606250164	-0.5037362667723799
-0.48816322090625164	-0.503212786122186
-0.48810218575000164	-0.5025291278007463
-0.48804115059375164	-0.5016915149842112
-0.48798011543750164	-0.500752565833772
-0.48791908028125164	-0.4996701614490925
-0.48785804512500164	-0.49842356586014464
-0.48779700996875164	-0.4970684390714244
-0.48773597481250164	-0.4955865779836955
-0.48767493965625164	-0.4939379215291578
-0.48761390450000164	-0.49216900184339246
-0.48755286934375164	-0.4902870044092767
-0.48749183418750164	-0.488243279836738
-0.48743079903125164	-0.48606615764323685
-0.48736976387500164	-0.4837840169707443
-0.48730872871875164	-0.4813511037906155
-0.48724769356250164	-0.47877355146916034
-0.48718665840625164	-0.4760929399027016
-0.48712562325000164	-0.4732761711998635
-0.48706458809375164	-0.47030798721946554
-0.48700355293750164	-0.4672326943294554
-0.48694251778125164	-0.46403606835648054
-0.48688148262500164	-0.4606874921778322
-0.48682044746875164	-0.4572244153521865
-0.48675941231250164	-0.45365268513879703
-0.48669837715625164	-0.4499343619380931
-0.48663734200000164	-0.44609258235665444
-0.48657630684375164	-0.4421505137870486
-0.48651527168750164	-0.4380723697179494
-0.48645423653125164	-0.43386319843906507
-0.48639320137500164	-0.4295569323628984
-0.48633216621875164	-0.4251284258068333
-0.48627113106250164	-0.42056531134888503
-0.48621009590625164	-0.4159031739079119
-0.48614906075000164	-0.4111325699108394
-0.48608802559375164	-0.40622915425747697
-0.48602699043750164	-0.4012221424415145
-0.48596595528125164	-0.39611843210791997
-0.48590492012500164	-0.3908888027231581
-0.48584388496875164	-0.38554989603680095
-0.48578284981250164	-0.3801216893157192
-0.48572181465625164	-0.37457855834666315
-0.48566077950000164	-0.36892303743190374
-0.48559974434375164	-0.36318179080850926
-0.48553870918750164	-0.3573381695813052
-0.48547767403125164	-0.35138205949176626
-0.48541663887500164	-0.34533999960430173
-0.48535560371875164	-0.33920759101139664
-0.48529456856250164	-0.3329670430454909
-0.48523353340625164	-0.3266391482621686
-0.48517249825000164	-0.3202312508233543
-0.48511146309375164	-0.3137231530201034
-0.48505042793750164	-0.30712570467704026
-0.48498939278125164	-0.3004550595963757
-0.48492835762500164	-0.29369502350009347
-0.48486732246875164	-0.2868457957828513
-0.48480628731250164	-0.27992674582108595
-0.48474525215625164	-0.272929836351131
-0.48468421700000164	-0.26584777479276117
-0.48462318184375164	-0.25869784806938273
-0.48456214668750164	-0.2514799589606364
-0.48450111153125164	-0.24418298732652927
-0.48444007637500164	-0.23681949190023246
-0.48437904121875164	-0.2293962149711215
-0.48431800606250164	-0.2219019379926372
-0.48425697090625164	-0.2143433593625682
-0.48419593575000164	-0.20673191640739108
-0.48413490059375164	-0.19905914684913992
-0.48407386543750164	-0.19132547037220785
-0.48401283028125164	-0.1835438492380262
-0.48395179512500164	-0.17571084693224479
-0.48389075996875164	-0.16782218532892135
-0.48382972481250164	-0.15988891160488158
-0.48376868965625164	-0.15191280074086422
-0.48370765450000164	-0.14388793918146714
-0.48364661934375164	-0.13582219911390123
-0.48358558418750164	-0.12772194948227777
-0.48352454903125164	-0.11958209172805215
-0.48346351387500164	-0.11140570024325129
-0.48340247871875164	-0.103200767867156
-0.48334144356250164	-0.0949650569909148
-0.48328040840625164	-0.08669819141706454
-0.48321937325000164	-0.07840763442897473
-0.48315833809375164	-0.0700946264344223
-0.48309730293750164	-0.06175747291513241
-0.48303626778125164	-0.05340203021208653
-0.48297523262500164	-0.04503231061875867
-0.48291419746875164	-0.03664651319967761
-0.48285316231250164	-0.02824797859145225
-0.48279212715625164	-0.019842038499199185
-0.48273109200000164	-0.01142743692688744
-0.48267005684375164	-0.0030050537732204275
-0.48260902168750164	0.005418041623029057
-0.48254798653125164	0.013840026385672891
-0.48248695137500164	0.02226305248388145
-0.48242591621875164	0.03068234110157903
-0.48236488106250164	0.039093067879987474
-0.48230384590625164	0.04749711967711592
-0.48224281075000164	0.05589164184688396
-0.48218177559375164	0.06426965200329832
-0.48212074043750164	0.07263237776900787
-0.48205970528125164	0.08098042687274037
-0.48199867012500164	0.08930618893365826
-0.48193763496875164	0.09760825011598494
-0.48187659981250164	0.105889355642836
-0.48181556465625164	0.11414253126410892
-0.48175452950000164	0.12236366978099664
-0.48169349434375164	0.1305572159425729
-0.48163245918750164	0.13871778843651214
-0.48157142403125164	0.14683749849021577
-0.48151038887500164	0.15492131854924185
-0.48144935371875164	0.1629682446906754
-0.48138831856250164	0.1709678752084383
-0.48132728340625164	0.17892282658834988
-0.48126624825000164	0.18683602415704642
-0.48120521309375164	0.19469613831727445
-0.48114417793750164	0.20250226939008864
-0.48108314278125164	0.21026150044710207
-0.48102210762500164	0.21796375638473145
-0.48096107246875164	0.2256024369710687
-0.48090003731250164	0.23318658423821026
-0.48083900215625164	0.2407106985581784
-0.48077796700000164	0.2481638902971284
-0.48071693184375164	0.2555545861261905
-0.48065589668750164	0.2628821303536494
-0.48059486153125164	0.2701317933193026
-0.48053382637500164	0.27730946764931685
-0.48047279121875164	0.284421402544915
-0.48041175606250164	0.291451511195671
-0.48035072090625164	0.29839923535223256
-0.48028968575000164	0.3052760824834561
-0.48022865059375164	0.3120686271891561
-0.48016761543750164	0.31876943263447366
-0.48010658028125164	0.32539305169539556
-0.48004554512500164	0.33193162310402613
-0.47998450996875164	0.33837055123339715
-0.47992347481250164	0.3447234573793617
-0.47986243965625164	0.35099040163346845
-0.47980140450000164	0.35715229754015576
-0.47974036934375164	0.36321860075361145
-0.47967933418750164	0.3691976661970051
-0.47961829903125164	0.37506850432906685
-0.47955726387500164	0.3808330216928516
-0.47949622871875164	0.386507156035388
-0.47943519356250164	0.3920724916502484
-0.47937415840625164	0.39752165039202053
-0.47931312325000164	0.4028754926442373
-0.47925208809375164	0.4081221892083541
-0.47919105293750164	0.41324414032257467
-0.47913001778125164	0.41826241270088843
-0.47906898262500164	0.4231757656146022
-0.47900794746875164	0.42795898315913017
-0.47894691231250164	0.43262839716193885
-0.47888587715625164	0.4371951735569057
-0.47882484200000164	0.44163024662049816
-0.47876380684375164	0.44593943080751713
-0.47870277168750164	0.4501453448266822
-0.47864173653125164	0.4542214559689164
-0.47858070137500164	0.4581600528850325
-0.47851966621875164	0.46199210806735386
-0.47845863106250164	0.46570020758560776
-0.47839759590625164	0.46926112137745146
-0.47833656075000164	0.47270712377693985
-0.47827552559375164	0.47603638694428213
-0.47821449043750164	0.47921347542196796
-0.47815345528125164	0.482263568475839
-0.47809242012500164	0.4852031085299497
-0.47803138496875164	0.4879908430479982
-0.47797034981250164	0.4906370880290209
-0.47790931465625164	0.4931758690028715
-0.47784827950000164	0.49556948644636994
-0.47778724434375164	0.49780735432662704
-0.47772620918750164	0.49993502012706575
-0.47766517403125164	0.501928739398787
-0.47760413887500164	0.5037559262513575
-0.47754310371875164	0.5054636088186891
-0.47748206856250164	0.5070505275256905
-0.47742103340625164	0.5084665825277987
-0.47735999825000164	0.5097480169584913
-0.47729896309375164	0.5109202364017714
-0.47723792793750164	0.5119257189400284
-0.47717689278125164	0.512778214477137
-0.47711585762500164	0.5135273614925927
-0.47705482246875164	0.5141222569264803
-0.47699378731250164	0.5145466847280035
-0.47693275215625164	0.5148650472581637
-0.47687171700000164	0.515047847949989
-0.47681068184375164	0.5150485017381772
-0.47674964668750164	0.514930689307575
-0.47668861153125164	0.5146974746605317
-0.47662757637500164	0.514280459455031
-0.47656654121875164	0.5137251021734605
-0.47650550606250164	0.5130703003760315
-0.47644447090625164	0.5122417983095913
-0.47638343575000164	0.5112522963703544
-0.47632240059375164	0.5101698571141495
-0.47626136543750164	0.5089339461770706
-0.47620033028125164	0.5075180135894344
-0.47613929512500164	0.5060038179514584
-0.47607825996875164	0.504362102752884
-0.47601722481250164	0.5025307665334161
-0.47595618965625164	0.5005841868087391
-0.47589515450000164	0.4985348171903608
-0.47583411934375164	0.49629989046118694
-0.47577308418750164	0.4939260367441764
-0.47571204903125164	0.49146586117746593
-0.47565101387500164	0.48883716851220776
-0.47558997871875164	0.4860460441949411
-0.47552894356250164	0.48317294020802876
-0.47546790840625164	0.4801577587249275
-0.47540687325000164	0.4769635832281582
-0.47534583809375164	0.47367826104257965
-0.47528480293750164	0.4702800629414414
-0.47522376778125164	0.46669902428094073
-0.47516273262500164	0.46300765506688046
-0.47510169746875164	0.4592275580006032
-0.47504066231250164	0.45527433330772543
-0.47497962715625164	0.4511876670332812
-0.47491859200000164	0.4470265550700545
-0.47485755684375164	0.44271427493286414
-0.47479652168750164	0.4382487514224172
-0.47473548653125164	0.43370976182948334
-0.47467445137500164	0.42904741485134673
-0.47461341621875164	0.4242213229111496
-0.47455238106250164	0.41931145179027646
-0.47449134590625164	0.41430547467851025
-0.47443031075000164	0.4091375557041215
-0.47436927559375164	0.40386861400014384
-0.47430824043750164	0.3985241203665097
-0.47424720528125164	0.3930314393465074
-0.47418617012500164	0.38742029350618773
-0.47412513496875164	0.381744312337818
-0.47406409981250164	0.37594140569053364
-0.47400306465625164	0.3700067250899944
-0.47394202950000164	0.3640078350112184
-0.47388099434375164	0.35790699109407426
-0.47381995918750164	0.35166958661563774
-0.47375892403125164	0.34536041634597786
-0.47369788887500164	0.3389724126834939
-0.47363685371875164	0.33245268901658914
-0.47357581856250164	0.3258492890953807
-0.47351478340625164	0.3191841997604221
-0.47345374825000164	0.31240082075081865
-0.47339271309375164	0.30552268188852477
-0.47333167793750164	0.2985928133449538
-0.47327064278125164	0.291563330957983
-0.47320960762500164	0.28443121498357443
-0.47314857246875164	0.2772497862301751
-0.47308753731250164	0.26998981507495945
-0.47302650215625164	0.2626255522495381
-0.47296546700000164	0.2552086443421474
-0.47290443184375164	0.24773346253434997
-0.47284339668750164	0.24015952352584957
-0.47278236153125164	0.23252568471916674
-0.47272132637500164	0.22484933805877869
-0.47266029121875164	0.21708677929716264
-0.47259925606250164	0.20925744784648764
-0.47253822090625164	0.20139540919631102
-0.47247718575000164	0.1934639218496478
-0.47241615059375164	0.18546169501900048
-0.47235511543750164	0.17743084432318063
-0.47229408028125164	0.16934882053513853
-0.47223304512500164	0.1611962845466591
-0.47217200996875164	0.153014666348546
-0.47211097481250164	0.144800395397311
-0.47204993965625164	0.13652201076610573
-0.47198890450000164	0.128210475022645
-0.47192786934375164	0.11988073725578552
-0.47186683418750164	0.11149890301507587
-0.47180579903125164	0.1030800566125671
-0.47174476387500164	0.09465234984264465
-0.47168372871875164	0.08618791546530209
-0.47162269356250164	0.07768502455138739
-0.47156165840625164	0.06917805554720394
-0.47150062325000164	0.06065164047571582
-0.47143958809375164	0.05208952727047002
-0.47137855293750164	0.043523570214749514
-0.47131751778125164	0.03495391827337738
-0.47125648262500164	0.026356485089458676
-0.47119544746875164	0.017753750042781187
-0.47113441231250164	0.009159593954967953
-0.47107337715625164	0.00054953968286449
-0.47101234200000164	-0.00806686260335141
-0.47095130684375164	-0.01666681634458448
-0.47089027168750164	-0.025268444722603135
-0.47082923653125164	-0.03387460962357233
-0.47076820137500164	-0.04245988121134096
-0.47070716621875164	-0.051032148936229225
-0.47064613106250164	-0.059603634553203055
-0.47058509590625164	-0.06815280042615188
-0.47052406075000164	-0.07667654406679675
-0.47046302559375164	-0.08519078549883127
-0.47040199043750164	-0.09368189562782425
-0.47034095528125164	-0.10213824147855982
-0.47027992012500164	-0.11057378402348361
