Time	Frequency
-0.5000514973124979	-0.36375164224163936
-0.4999904621562479	-0.3520139608384804
-0.4999294269999979	-0.3401026988605661
-0.4998683918437479	-0.32802340735623636
-0.4998073566874979	-0.3157819886720762
-0.4997463215312479	-0.303384806282712
-0.4996852863749979	-0.2908381457943842
-0.4996242512187479	-0.27814798107174293
-0.4995632160624979	-0.26532050223294196
-0.4995021809062479	-0.2523621866987278
-0.4994411457499979	-0.23927942901341304
-0.4993801105937479	-0.2260787326326602
-0.4993190754374979	-0.21276670269817607
-0.4992580402812479	-0.19934973485329896
-0.4991970051249979	-0.1858344142855263
-0.4991359699687479	-0.17222764869608495
-0.4990749348124979	-0.15853620460819545
-0.4990138996562479	-0.14476677934953208
-0.4989528644999979	-0.1309262504344489
-0.4988918293437479	-0.11702159130297929
-0.4988307941874979	-0.1030596449699899
-0.4987697590312479	-0.08904720850029538
-0.4987087238749979	-0.07499133343621735
-0.4986476887187479	-0.06089912485581586
-0.4985866535624979	-0.0467775432946104
-0.4985256184062479	-0.032633609728502
-0.4984645832499979	-0.01847440896800571
-0.4984035480937479	-0.004306954851613776
-0.4983425129374979	0.009861758577197767
-0.4982814777812479	0.02402469165792429
-0.4982204426249979	0.03817479068481519
-0.4981594074687479	0.05230508024883552
-0.4980983723124979	0.06640845871356002
-0.4980373371562479	0.0804775682509052
-0.4979763019999979	0.09450541509751667
-0.4979152668437479	0.10848533810389092
-0.4978542316874979	0.12241035812676679
-0.4977931965312479	0.13627339178211637
-0.4977321613749979	0.15006745697627763
-0.4976711262187479	0.16378562929003457
-0.4976100910624979	0.1774211760883836
-0.4975490559062479	0.1909673646691508
-0.4974880207499979	0.20441735269858252
-0.4974269855937479	0.21776434653763682
-0.4973659504374979	0.23100162866260826
-0.4973049152812479	0.24412262484678626
-0.4972438801249979	0.2571208802263372
-0.4971828449687479	0.2699898238537064
-0.4971218098124979	0.2827228484901511
-0.4970607746562479	0.2953136758452839
-0.4969997394999979	0.30775619296690954
-0.4969387043437479	0.3200441049441034
-0.4968776691874979	0.3321711115071636
-0.4968166340312479	0.34413107686364625
-0.4967555988749979	0.3559180137816671
-0.4966945637187479	0.367526100291852
-0.4966335285624979	0.3789496104829522
-0.4965724934062479	0.39018282687041317
-0.4965114582499979	0.40122004921744125
-0.4964504230937479	0.4120556518657828
-0.4963893879374979	0.4226842166985623
-0.4963283527812479	0.43310051783282905
-0.4962673176249979	0.4432992967201266
-0.4962062824687479	0.45327533325474717
-0.4961452473124979	0.46302356829622016
-0.4960842121562479	0.47253906550173497
-0.4960231769999979	0.48181713629293194
-0.4959621418437479	0.49085324966893334
-0.4959011066874979	0.49964285468888464
-0.4958400715312479	0.5081814996619788
-0.4957790363749979	0.5164648422657654
-0.4957180012187479	0.5244886618346076
-0.4956569660624979	0.5322489829037658
-0.4955959309062479	0.5397419167921215
-0.4955348957499979	0.546963567166718
-0.4954738605937479	0.5539102677812026
-0.4954128254374979	0.5605786293967925
-0.4953517902812479	0.566965358237069
-0.4952907551249979	0.5730672141857872
-0.4952297199687479	0.5788810783977456
-0.4951686848124979	0.5844040103599942
-0.4951076496562479	0.5896332501878867
-0.4950466144999979	0.5945661761067009
-0.4949855793437479	0.5992002694750168
-0.4949245441874979	0.6035331369280261
-0.4948635090312479	0.6075626169443672
-0.4948024738749979	0.6112867491731623
-0.4947414387187479	0.614703639453059
-0.4946804035624979	0.6178115196456385
-0.4946193684062479	0.6206088171643042
-0.4945583332499979	0.62309410619078
-0.4944972980937479	0.6252661233446648
-0.4944362629374979	0.6271237989617575
-0.4943752277812479	0.6286662107540534
-0.4943141926249979	0.6298925785720019
-0.4942531574687479	0.6308022788011726
-0.4941921223124979	0.6313948237584056
-0.4941310871562479	0.6316699084208761
-0.4940700519999979	0.6316274059574893
-0.4940090168437479	0.6312673242497439
-0.4939479816874979	0.6305898424507796
-0.4938869465312479	0.6295953169003444
-0.4938259113749979	0.6282842359647001
-0.4937648762187479	0.6266572162193901
-0.4937038410624979	0.6247150969694223
-0.4936428059062479	0.6224589216149644
-0.4935817707499979	0.6198898221901268
-0.4935207355937479	0.6170090939321494
-0.4934597004374979	0.6138182106106459
-0.4933986652812479	0.6103187150486116
-0.4933376301249979	0.6065123209308645
-0.4932765949687479	0.6024010278038912
-0.4932155598124979	0.5979869702792854
-0.4931545246562479	0.5932723387516616
-0.4930934894999979	0.5882595078930316
-0.4930324543437479	0.5829510223907872
-0.4929714191874979	0.5773495587051262
-0.4929103840312479	0.5714579982521147
-0.4928493488749979	0.5652793247537806
-0.4927883137187479	0.5588165896241868
-0.4927272785624979	0.5520731024874032
-0.4926662434062479	0.5450523790143275
-0.4926052082499979	0.5377579644526804
-0.4925441730937479	0.5301935316345522
-0.4924831379374979	0.5223629091148164
-0.4924221027812479	0.5142699436203677
-0.4923610676249979	0.5059187016472737
-0.4923000324687479	0.49731359958332744
-0.4922389973124979	0.4884591196644601
-0.4921779621562479	0.47935968186080724
-0.4921169269999979	0.47001980055425335
-0.4920558918437479	0.4604442257821365
-0.4919948566874979	0.4506378813147233
-0.4919338215312479	0.44060579920845105
-0.4918727863749979	0.43035304439733857
-0.4918117512187479	0.4198847722273115
-0.4917507160624979	0.4092064266023233
-0.4916896809062479	0.3983234422935127
-0.4916286457499979	0.3872411442273103
-0.4915676105937479	0.37596515336901887
-0.4915065754374979	0.36450134643801885
-0.4914455402812479	0.3528556714828593
-0.4913845051249979	0.34103409077192426
-0.4913234699687479	0.32904252225471453
-0.4912624348124979	0.3168870044717614
-0.4912013996562479	0.3045737396139433
-0.4911403644999979	0.29210904452094955
-0.4910793293437479	0.2794993664629557
-0.4910182941874979	0.2667511693292286
-0.4909572590312479	0.2538708772326513
-0.4908962238749979	0.24086488287578983
-0.4908351887187479	0.22773971127825016
-0.4907741535624979	0.21450226169557549
-0.4907131184062479	0.20115955953556552
-0.4906520832499979	0.18771831683809084
-0.4905910480937479	0.174185153823861
-0.4905300129374979	0.1605670683442392
-0.4904689777812479	0.14687122032004632
-0.4904079426249979	0.1331045486944572
-0.4903469074687479	0.11927396467849022
-0.4902858723124979	0.1053865782442403
-0.4902248371562479	0.09144950066470482
-0.4901638019999979	0.0774697256708883
-0.4901027668437479	0.06345434984741444
-0.4900417316874979	0.04941063982910594
-0.4899806965312479	0.035345897058248234
-0.4899196613749979	0.021267422542352653
-0.4898586262187479	0.007182439845601073
-0.4897975910624979	-0.0069019037291083805
-0.4897365559062479	-0.020978457417044696
-0.4896755207499979	-0.035040116495162844
-0.4896144855937479	-0.049079668401985174
-0.4895534504374979	-0.06308972209144605
-0.4894924152812479	-0.07706310192322315
-0.4894313801249979	-0.0909928522885649
-0.4893703449687479	-0.10487182076930425
-0.4893093098124979	-0.11869273376529817
-0.4892482746562479	-0.1324484730870063
-0.4891872394999979	-0.14613202151490826
-0.4891262043437479	-0.1597362938743371
-0.4890651691874979	-0.17325429837454617
-0.4890041340312479	-0.18667923249618487
-0.4889430988749979	-0.20000414243723152
-0.4888820637187479	-0.21322200165240168
-0.4888210285624979	-0.22632603382150046
-0.4887599934062479	-0.2393096655788804
-0.4886989582499979	-0.2521663220582187
-0.4886379230937479	-0.2648892676787224
-0.4885768879374979	-0.27747177809113305
-0.4885158527812479	-0.2899074235294392
-0.4884548176249979	-0.30218995387414865
-0.4883937824687479	-0.31431298805668084
-0.4883327473124979	-0.3262701142327887
-0.4882717121562479	-0.33805517836347515
-0.4882106769999979	-0.34966217033917874
-0.4881496418437479	-0.36108512526507003
-0.4880886066874979	-0.3723182169613502
-0.4880275715312479	-0.38335560514973066
-0.4879665363749979	-0.394191478855009
-0.4879055012187479	-0.40482025924877574
-0.4878444660624979	-0.41523641588688487
-0.4877834309062479	-0.42543449041642084
-0.4877223957499979	-0.43540931799588073
-0.4876613605937479	-0.44515585607690933
-0.4876003254374979	-0.4546689575177799
-0.4875392902812479	-0.4639435280208426
-0.4874782551249979	-0.47297481723557794
-0.4874172199687479	-0.48175826585260434
-0.4873561848124979	-0.490289254585156
-0.4872951496562479	-0.4985632563277983
-0.4872341144999979	-0.5065759638103553
-0.4871730793437479	-0.5143232476638303
-0.4871120441874979	-0.5218010900326225
-0.4870510090312479	-0.5290055572081346
-0.4869899738749979	-0.5359328967407291
-0.4869289387187479	-0.5425795232464339
-0.4868679035624979	-0.5489419110336918
-0.4868068684062479	-0.5550166922757582
-0.4867458332499979	-0.5608007206901304
-0.4866847980937479	-0.5662909569816422
-0.4866237629374979	-0.5714844849995119
-0.4865627277812479	-0.5763785867316394
-0.4865016926249979	-0.5809707082706255
-0.4864406574687479	-0.5852584211656047
-0.4863796223124979	-0.5892394404977429
-0.4863185871562479	-0.5929116276554617
-0.4862575519999979	-0.5962729818040303
-0.4861965168437479	-0.5993217081883164
-0.4861354816874979	-0.6020561998108963
-0.4860744465312479	-0.6044749750538335
-0.4860134113749979	-0.606576708070771
-0.4859523762187479	-0.608360237300664
-0.4858913410624979	-0.6098245976978411
-0.4858303059062479	-0.610968979465054
-0.4857692707499979	-0.6117926694876211
-0.4857082355937479	-0.612295171350206
-0.4856472004374979	-0.6124761992052892
-0.4855861652812479	-0.6123355516965292
-0.4855251301249979	-0.6118731993177462
-0.4854640949687479	-0.6110893360152806
-0.4854030598124979	-0.6099842721618445
-0.4853420246562479	-0.6085584847304519
-0.4852809894999979	-0.6068126561424033
-0.4852199543437479	-0.6047476105308407
-0.4851589191874979	-0.602364356000462
-0.4850978840312479	-0.5996640650925756
-0.4850368488749979	-0.5966480159630229
-0.4849758137187479	-0.5933176422304544
-0.4849147785624979	-0.5896745808404752
-0.4848537434062479	-0.5857206884672582
-0.4847927082499979	-0.5814579893519944
-0.4847316730937479	-0.5768885734444444
-0.4846706379374979	-0.5720146266105648
-0.4846096027812479	-0.5668385858986653
-0.4845485676249979	-0.5613631531324206
-0.4844875324687479	-0.5555911163477942
-0.4844264973124979	-0.5495253295674151
-0.4843654621562479	-0.5431688276773073
-0.4843044269999979	-0.536524761395534
-0.4842433918437479	-0.5295964345077653
-0.4841823566874979	-0.522387476874063
-0.4841213215312479	-0.5149016715353407
-0.4840602863749979	-0.5071427406183899
-0.4839992512187479	-0.4991144910733298
-0.4839382160624979	-0.49082097285669585
-0.4838771809062479	-0.4822664675618802
-0.4838161457499979	-0.47345539569983114
-0.4837551105937479	-0.46439226547306206
-0.4836940754374979	-0.4550817213959227
-0.4836330402812479	-0.4455284767538008
-0.4835720051249979	-0.4357373103774972
-0.4835109699687479	-0.42571319653613215
-0.4834499348124979	-0.41546124614793617
-0.4833888996562479	-0.4049867163787011
-0.4833278644999979	-0.39429508514722966
-0.4832668293437479	-0.3833919606771618
-0.4832057941874979	-0.3722829085762706
-0.4831447590312479	-0.36097337101003246
-0.4830837238749979	-0.3494690196973415
-0.4830226887187479	-0.3377759626941189
-0.4829616535624979	-0.3259003570717774
-0.4829006184062479	-0.313848226463481
-0.4828395832499979	-0.3016256432885968
-0.4827785480937479	-0.28923888924991004
-0.4827175129374979	-0.27669440658883737
-0.4826564777812479	-0.2639986442152768
-0.4825954426249979	-0.25115810636744257
-0.4825344074687479	-0.2381793942207272
-0.4824733723124979	-0.2250691936656562
-0.4824123371562479	-0.2118343164086117
-0.4823513019999979	-0.19848164564710855
-0.4822902668437479	-0.18501803974625913
-0.4822292316874979	-0.17145036310615622
-0.4821681965312479	-0.15778561190843995
-0.4821071613749979	-0.1440308481474813
-0.4820461262187479	-0.13019314285059858
-0.4819850910624979	-0.11627971754992099
-0.4819240559062479	-0.10229784743383633
-0.4818630207499979	-0.08825469650870593
-0.4818019855937479	-0.0741574502272714
-0.4817409504374979	-0.06001347026778028
-0.4816799152812479	-0.045830200930433176
-0.4816188801249979	-0.031615005308256006
-0.4815578449687479	-0.017375170077996153
-0.4814968098124979	-0.0031179740407590814
-0.4814357746562479	0.011149232042993715
-0.4813747394999979	0.025419006888597908
-0.4813137043437479	0.03968383867729567
-0.4812526691874979	0.05393628608060301
-0.4811916340312479	0.06816906573662568
-0.4811305988749979	0.08237466098930384
-0.4810695637187479	0.09654543181262257
-0.4810085285624979	0.11067418254165699
-0.4809474934062479	0.12475382653267948
-0.4808864582499979	0.13877696407473472
-0.4808254230937479	0.1527361633063791
-0.4807643879374979	0.16662414093695777
-0.4807033527812479	0.1804336619457699
-0.4806423176249979	0.1941575072806712
-0.4805812824687479	0.20778852270613962
-0.4805202473124979	0.22131960029844797
-0.4804592121562479	0.23474364889185392
-0.4803981769999979	0.24805360656601314
-0.4803371418437479	0.26124244498604965
-0.4802761066874979	0.2743032997636212
-0.4802150715312479	0.2872294842540307
-0.4801540363749979	0.3000142390455112
-0.4800930012187479	0.31265068716078925
-0.4800319660624979	0.32513211451410634
-0.4799709309062479	0.3374520883682545
-0.4799098957499979	0.349604187050661
-0.4798488605937479	0.3615819043846401
-0.4797878254374979	0.3733788490108888
-0.4797267902812479	0.3849888708231174
-0.4796657551249979	0.39640608529558596
-0.4796047199687479	0.4076245426897314
-0.4795436848124979	0.4186380308001328
-0.4794826496562479	0.4294405545897372
-0.4794216144999979	0.44002653188390173
-0.4793605793437479	0.4503904576819979
-0.4792995441874979	0.46052680755125475
-0.4792385090312479	0.470430183336999
-0.4791774738749979	0.4800954008439835
-0.4791164387187479	0.4895174155941432
-0.4790554035624979	0.49869114280988097
-0.4789943684062479	0.5076114820503829
-0.4789333332499979	0.5162735902298461
-0.4788722980937479	0.5246729855448449
-0.4788112629374979	0.5328053407670302
-0.4787502277812479	0.5406662909561888
-0.4786891926249979	0.5482514776722156
-0.4786281574687479	0.5555567524428664
-0.4785671223124979	0.5625782782328405
-0.4785060871562479	0.569312373335948
-0.4784450519999979	0.5757553445196705
-0.4783840168437479	0.5819035687429926
-0.4783229816874979	0.5877536132087042
-0.4782619465312479	0.5933023036907185
-0.4782009113749979	0.5985467233612293
-0.4781398762187479	0.6034840313340185
-0.4780788410624979	0.6081114759782575
-0.4780178059062479	0.6124264859617877
-0.4779567707499979	0.6164266066805157
-0.4778957355937479	0.6201095859674959
-0.4778347004374979	0.6234733733152368
-0.4777736652812479	0.6265160337177397
-0.4777126301249979	0.6292358133456126
-0.4776515949687479	0.6316311213350723
-0.4775905598124979	0.6337005178927093
-0.4775295246562479	0.6354427741954479
-0.4774684894999979	0.6368568177092255
-0.4774074543437479	0.6379417215362083
-0.4773464191874979	0.6386967504272689
-0.4772853840312479	0.6391213290813071
-0.4772243488749979	0.6392150443819409
-0.4771633137187479	0.6389776676240777
-0.4771022785624979	0.638409126073517
-0.4770412434062479	0.637509518884607
-0.4769802082499979	0.6362791651868062
-0.4769191730937479	0.6347185537270685
-0.4768581379374979	0.6328282900031266
-0.4767971027812479	0.6306091383730308
-0.4767360676249979	0.6280620371844988
-0.4766750324687479	0.6251881195188571
-0.4766139973124979	0.6219887446624252
-0.4765529621562479	0.6184654045440048
-0.4764919269999979	0.6146196734431834
-0.4764308918437479	0.6104533309633956
-0.4763698566874979	0.6059684223705443
-0.4763088215312479	0.6011671451069206
-0.4762477863749979	0.5960517939315185
-0.4761867512187479	0.5906248199187731
-0.4761257160624979	0.5848888371639862
-0.4760646809062479	0.578846649493979
-0.4760036457499979	0.5725012353915956
-0.4759426105937479	0.5658556709812596
-0.4758815754374979	0.5589131865353865
-0.4758205402812479	0.551677224020894
-0.4757595051249979	0.5441514286706982
-0.4756984699687479	0.5363395901262692
-0.4756374348124979	0.5282455419991912
-0.4755763996562479	0.5198732386554751
-0.4755153644999979	0.5112268862925916
-0.4754543293437479	0.5023108698648376
-0.4753932941874979	0.49312958781581695
-0.4753322590312479	0.4836875460152819
-0.4752712238749979	0.47398962515176735
-0.4752101887187479	0.4640408624805681
-0.4751491535624979	0.4538461932626911
-0.4750881184062479	0.4434106720572237
-0.4750270832499979	0.4327394614099665
-0.4749660480937479	0.42183776185513616
-0.4749050129374979	0.41071111282913736
-0.4748439777812479	0.39936546840151166
-0.4747829426249979	0.38780681189006366
-0.4747219074687479	0.3760408655520217
-0.4746608723124979	0.36407328144418755
-0.4745998371562479	0.35191007572534944
-0.4745388019999979	0.3395576342244129
-0.4744777668437479	0.3270222937511468
-0.4744167316874979	0.3143103284044167
-0.4743556965312479	0.301428205343254
-0.4742946613749979	0.2883826031087335
-0.4742336262187479	0.27518025059733126
-0.4741725910624979	0.2618277211234022
-0.4741115559062479	0.2483315691268699
-0.4740505207499979	0.23469878067571168
-0.4739894855937479	0.2209367058663256
-0.4739284504374979	0.2070524867434729
-0.4738674152812479	0.19305300427683333
-0.4738063801249979	0.178945240396566
-0.4737453449687479	0.16473640099348355
-0.4736843098124979	0.15043387882648235
-0.4736232746562479	0.1360451387342309
-0.4735622394999979	0.12157762319972645
-0.4735012043437479	0.10703874250931388
-0.4734401691874979	0.09243583247505607
-0.4733791340312479	0.07777624255285324
-0.4733180988749979	0.06306752825156214
-0.4732570637187479	0.04831741597492688
-0.4731960285624979	0.033533607662300124
-0.4731349934062479	0.018723637571101733
-0.4730739582499979	0.0038951044122381676
-0.4730129230937479	-0.010944122965799451
-0.4729518879374979	-0.02578640045697009
-0.4728908527812479	-0.04062441413827233
-0.4728298176249979	-0.05545061755000539
-0.4727687824687479	-0.07025716105561994
-0.4727077473124979	-0.08503621776509668
-0.4726467121562479	-0.09978013679845746
-0.4725856769999979	-0.11448135879441952
-0.4725246418437479	-0.12913236234962058
-0.4724636066874979	-0.14372561968509345
-0.4724025715312479	-0.15825352339034668
-0.4723415363749979	-0.17270845040653898
-0.4722805012187479	-0.18708277135658266
-0.4722194660624979	-0.20136905255999593
-0.4721584309062479	-0.2155601343473779
-0.4720973957499979	-0.22964870735028073
-0.4720363605937479	-0.24362734594169688
-0.4719753254374979	-0.2574886969742038
-0.4719142902812479	-0.2712254325284907
-0.4718532551249979	-0.2848305621936826
-0.4717922199687479	-0.2982972767831357
-0.4717311848124979	-0.3116184140193316
-0.4716701496562479	-0.3247867684406712
-0.4716091144999979	-0.33779550295030475
-0.4715480793437479	-0.3506379105694971
-0.4714870441874979	-0.36330728541356727
-0.4714260090312479	-0.37579703446243845
-0.4713649738749979	-0.3881006762642334
-0.4713039387187479	-0.4002118999133291
-0.4712429035624979	-0.41212448680795566
-0.4711818684062479	-0.42383207035643994
-0.4711208332499979	-0.4353282826487107
-0.4710597980937479	-0.4466070867510569
-0.4709987629374979	-0.4576627311226687
-0.4709377277812479	-0.4684894655925042
-0.4708766926249979	-0.4790815330795596
-0.4708156574687479	-0.48943340418480347
-0.4707546223124979	-0.4995397301273985
-0.4706935871562479	-0.5093951659014033
-0.4706325519999979	-0.5189944361969526
-0.4705715168437479	-0.5283324757956829
-0.4705104816874979	-0.5374044353683534
-0.4704494465312479	-0.5462055561515435
-0.4703884113749979	-0.5547311543959194
-0.4703273762187479	-0.5629767100463979
-0.4702663410624979	-0.5709378925293247
-0.4702053059062479	-0.5786105009625387
-0.4701442707499979	-0.5859904113065185
-0.4700832355937479	-0.5930736818507863
-0.4700222004374979	-0.5998565645904744
-0.4699611652812479	-0.6063354722774157
-0.4699001301249979	-0.6125070374318571
-0.4698390949687479	-0.6183679817895814
-0.4697780598124979	-0.623915082280439
-0.4697170246562479	-0.6291453478360396
-0.4696559894999979	-0.6340559951652357
-0.4695949543437479	-0.6386443527823776
-0.4695339191874979	-0.6429079228782695
-0.4694728840312479	-0.6468444346492491
