Time	Frequency
-0.500013350968743	0.3921322289920976
-0.499952315812493	0.401862198572413
-0.499891280656243	0.41137204194742577
-0.499830245499993	0.42072751038432316
-0.499769210343743	0.42990589185030187
-0.499708175187493	0.43883610756038316
-0.499647140031243	0.4475464650641574
-0.499586104874993	0.45609259909407274
-0.499525069718743	0.46442503848843647
-0.499464034562493	0.4724899183814362
-0.499402999406243	0.48033948835002804
-0.499341964249993	0.4880077826671143
-0.499280929093743	0.49542736081758626
-0.499219893937493	0.5025708357021601
-0.499158858781243	0.5095030821722564
-0.499097823624993	0.5162297508943148
-0.499036788468743	0.5226782227925987
-0.498975753312493	0.5288514302998544
-0.498914718156243	0.5348134775609096
-0.498853682999993	0.540541243545423
-0.498792647843743	0.5459705867655602
-0.498731612687493	0.5511319628961554
-0.498670577531243	0.5560757756327043
-0.498609542374993	0.5607559051324801
-0.498548507218743	0.5651279754484937
-0.498487472062493	0.5692416339958045
-0.498426436906243	0.5731246098902331
-0.498365401749993	0.5767182583845983
-0.498304366593743	0.5800044157716098
-0.498243331437493	0.5830400648113699
-0.498182296281243	0.5858267055961841
-0.498121261124993	0.5883056321272666
-0.498060225968743	0.5904853696629034
-0.497999190812493	0.5924180074332337
-0.497938155656243	0.5940813779288405
-0.497877120499993	0.5954281015798402
-0.497816085343743	0.59648828252006
-0.497755050187493	0.5972992790970951
-0.497694015031243	0.5978224514399938
-0.497632979874993	0.598029548817936
-0.497571944718743	0.5979634591278896
-0.497510909562493	0.5976413009494371
-0.497449874406243	0.5970179116108053
-0.497388839249993	0.5960873209473972
-0.497327804093743	0.594894742983215
-0.497266768937493	0.593436347718839
-0.497205733781243	0.591670655097539
-0.497144698624993	0.5896122229054903
-0.497083663468743	0.587299222736792
-0.497022628312493	0.5847108664404642
-0.496961593156243	0.581817543418731
-0.496900557999993	0.5786486040899529
-0.496839522843743	0.5752285168043496
-0.496778487687493	0.5715265057339582
-0.496717452531243	0.5675296307514607
-0.496656417374993	0.563274189161232
-0.496595382218743	0.5587680881167647
-0.496534347062493	0.5539787869331122
-0.496473311906243	0.5489108402255405
-0.496412276749993	0.5435993332187257
-0.496351241593743	0.5380366821778367
-0.496290206437493	0.5321961861624894
-0.496229171281243	0.5260971741000897
-0.496168136124993	0.5197668579345509
-0.496107100968743	0.5131862631568561
-0.496046065812493	0.5063398969830346
-0.495985030656243	0.4992564605187559
-0.495923995499993	0.49195120430746675
-0.495862960343743	0.48440005684931237
-0.495801925187493	0.4766014098193283
-0.495740890031243	0.46858652992419175
-0.495679854874993	0.4603574188450431
-0.495618819718743	0.45189156521967927
-0.495557784562493	0.4432010056829136
-0.495496749406243	0.4343134839839509
-0.495435714249993	0.42521950505290973
-0.495374679093743	0.4159033799487595
-0.495313643937493	0.4063874257422766
-0.495252608781243	0.39669129450820667
-0.495191573624993	0.38679848290894175
-0.495130538468743	0.3767037345641513
-0.495069503312493	0.3664345599301541
-0.495008468156243	0.35600006150882274
-0.494947432999993	0.3453819326348104
-0.494886397843743	0.3345863264494515
-0.494825362687493	0.3236404946281958
-0.494764327531243	0.31254309653622186
-0.494703292374993	0.3012791506091765
-0.494642257218743	0.2898651422297209
-0.494581222062493	0.27832371301113207
-0.494520186906243	0.2666452253329263
-0.494459151749993	0.25482167142878426
-0.494398116593743	0.24287653318227262
-0.494337081437493	0.23082448889007356
-0.494276046281243	0.21865147298660798
-0.494215011124993	0.20635881858515182
-0.494153975968743	0.19397256803727675
-0.494092940812493	0.1814980598955188
-0.494031905656243	0.16892141904319055
-0.493970870499993	0.1562538184820747
-0.493909835343743	0.14351960317647988
-0.493848800187493	0.13071538538065433
-0.493787765031243	0.11783126302752132
-0.493726729874993	0.10488616704786906
-0.493665694718743	0.09189860097383443
-0.493604659562493	0.0788588773327377
-0.493543624406243	0.06576488807827167
-0.493482589249993	0.05264080924762602
-0.493421554093743	0.039496874369602836
-0.493360518937493	0.02632040806165433
-0.493299483781243	0.01311782373587423
-0.493238448624993	-8.62207316752534e-05
-0.493177413468743	-0.013289891354439337
-0.493116378312493	-0.026503928070488805
-0.493055343156243	-0.03971361944700584
-0.492994307999993	-0.0528977154911681
-0.492933272843743	-0.06606183468916808
-0.492872237687493	-0.07921200147227925
-0.492811202531243	-0.09232748737136234
-0.492750167374993	-0.10539338423456678
-0.492689132218743	-0.1184199180930839
-0.492628097062493	-0.1314054743007984
-0.492567061906243	-0.14432627533627443
-0.492506026749993	-0.15717585712214258
-0.492444991593743	-0.16996585738026257
-0.492383956437493	-0.1826862680222686
-0.492322921281243	-0.19531423514483776
-0.492261886124993	-0.20785173705090643
-0.492200850968743	-0.22030774731068553
-0.492139815812493	-0.23266476126519867
-0.492078780656243	-0.24490456930674834
-0.492017745499993	-0.25703571574720874
-0.491956710343743	-0.26906126953614645
-0.491895675187493	-0.28095899416993053
-0.491834640031243	-0.29271840257852355
-0.491773604874993	-0.30435173608534916
-0.491712569718743	-0.31585397130209086
-0.491651534562493	-0.32720139099832496
-0.491590499406243	-0.3383923213162156
-0.491529464249993	-0.34943882571003243
-0.491468429093743	-0.36032762374966903
-0.491407393937493	-0.37103783394438794
-0.491346358781243	-0.3815760881783249
-0.491285323624993	-0.3919502043739407
-0.491224288468743	-0.40214017456484685
-0.491163253312493	-0.41213186574588007
-0.491102218156243	-0.4219380653422654
-0.491041182999993	-0.43155906696302504
-0.490980147843743	-0.4409710493244707
-0.490919112687493	-0.4501690319286858
-0.490858077531243	-0.4591681812513927
-0.490797042374993	-0.4679597919259351
-0.490736007218743	-0.4765206826311658
-0.490674972062493	-0.4848557305703954
-0.490613936906243	-0.4929779324730605
-0.490552901749993	-0.5008699393700651
-0.490491866593743	-0.5085138190100948
-0.490430831437493	-0.5159230855144575
-0.490369796281243	-0.5231044544902125
-0.490308761124993	-0.5300342638443518
-0.490247725968743	-0.536703303335071
-0.490186690812493	-0.5431302595208507
-0.490125655656243	-0.5493126236173229
-0.490064620499993	-0.5552247334993264
-0.490003585343743	-0.5608685792691125
-0.489942550187493	-0.5662634664868406
-0.489881515031243	-0.5713962589125295
-0.489820479874993	-0.5762441394128799
-0.489759444718743	-0.5808203822232164
-0.489698409562493	-0.5851397888438262
-0.489637374406243	-0.589179858436807
-0.489576339249993	-0.5929258457464429
-0.489515304093743	-0.5963999756934788
-0.489454268937493	-0.5996078417826834
-0.489393233781243	-0.6025210494326888
-0.489332198624993	-0.6051368512107069
-0.489271163468743	-0.6074818981807452
-0.489210128312493	-0.6095495445916915
-0.489149093156243	-0.6113108677274922
-0.489088057999993	-0.6127771197268139
-0.489027022843743	-0.6139734793585538
-0.488965987687493	-0.6148803847527835
-0.488904952531243	-0.6154747135220794
-0.488843917374993	-0.6157810736060644
-0.488782882218743	-0.6158167962528394
-0.488721847062493	-0.6155514614051538
-0.488660811906243	-0.6149737827492474
-0.488599776749993	-0.614118162013609
-0.488538741593743	-0.6129886540579401
-0.488477706437493	-0.6115489326907341
-0.488416671281243	-0.609804114955511
-0.488355636124993	-0.6077923079887275
-0.488294600968743	-0.6055009287387028
-0.488233565812493	-0.6028948921553088
-0.488172530656243	-0.5999976511015517
-0.488111495499993	-0.5968429349911607
-0.488050460343743	-0.5934012064078722
-0.487989425187493	-0.5896471576379504
-0.487928390031243	-0.5856209494607639
-0.487867354874993	-0.5813435201109038
-0.487806319718743	-0.5767721100555864
-0.487745284562493	-0.5718990011702692
-0.487684249406243	-0.5667752568133233
-0.487623214249993	-0.5614021424447336
-0.487562179093743	-0.5557312745049121
-0.487501143937493	-0.5497779267118377
-0.487440108781243	-0.5435950029893963
-0.487379073624993	-0.537160704448197
-0.487318038468743	-0.5304310595242151
-0.487257003312493	-0.5234452047739278
-0.487195968156243	-0.5162471191821604
-0.487134932999993	-0.5087935965052235
-0.487073897843743	-0.5010560902240161
-0.487012862687493	-0.49309352773413173
-0.486951827531243	-0.484930420830254
-0.486890792374993	-0.4765084951361596
-0.486829757218743	-0.4678236622181185
-0.486768722062493	-0.4589457945897001
-0.486707686906243	-0.4498728724489763
-0.486646651749993	-0.4405425915228809
-0.486585616593743	-0.43098000890680904
-0.486524581437493	-0.42125335973008393
-0.486463546281243	-0.4113321243061633
-0.486402511124993	-0.40116318757853403
-0.486341475968743	-0.39079953968562603
-0.486280440812493	-0.38029447057190185
-0.486219405656243	-0.36959319587813855
-0.486158370499993	-0.3586641911325728
-0.486097335343743	-0.34758097878732896
-0.486036300187493	-0.33637116029709013
-0.485975265031243	-0.3249660888444087
-0.485914229874993	-0.31336420087743966
-0.485853194718743	-0.3016466848240121
-0.485792159562493	-0.28980975624239985
-0.485731124406243	-0.27778496222620236
-0.485670089249993	-0.2656029676303901
-0.485609054093743	-0.25333806558324107
-0.485548018937493	-0.24095653860326083
-0.485486983781243	-0.22840439864587453
-0.485425948624993	-0.21573940594559204
-0.485364913468743	-0.2030156976703885
-0.485303878312493	-0.19017757854372272
-0.485242843156243	-0.1771965771302066
-0.485181807999993	-0.164147153510149
-0.485120772843743	-0.15105500236034547
-0.485059737687493	-0.13785481833353533
-0.484998702531243	-0.12454868599953384
-0.484937667374993	-0.11121370153114991
-0.484876632218743	-0.09784512057856391
-0.484815597062493	-0.084382589138948
-0.484754561906243	-0.07085768851202454
-0.484693526749993	-0.05733632190076466
-0.484632491593743	-0.04378731210440248
-0.484571456437493	-0.03016721754420981
-0.484510421281243	-0.016529685417265582
-0.484449386124993	-0.002919188888946444
-0.484388350968743	0.010711684285247424
-0.484327315812493	0.024381304210826793
-0.484266280656243	0.03802573723091892
-0.484205245499993	0.05162725701308566
-0.484144210343743	0.06523734774875946
-0.484083175187493	0.0788477083977369
-0.484022140031243	0.09239657145007417
-0.483961104874993	0.10589149924487608
-0.483900069718743	0.11937607176755699
-0.483839034562493	0.13281918420877684
-0.483777999406243	0.1461719279088539
-0.483716964249993	0.1594612909556289
-0.483655929093743	0.17271431929267198
-0.483594893937493	0.1858853197941328
-0.483533858781243	0.19894513994140728
-0.483472823624993	0.21193051913454
-0.483411788468743	0.22484716522305934
-0.483350753312493	0.2376447290541059
-0.483289718156243	0.25031570245658047
-0.483228682999993	0.2628968515284011
-0.483167647843743	0.2753739515579052
-0.483106612687493	0.28770211154092173
-0.483045577531243	0.29989232840350166
-0.482984542374993	0.3119720922235595
-0.482923507218743	0.32391155325671817
-0.482862472062493	0.33567854927180124
-0.482801436906243	0.3472967740495376
-0.482740401749993	0.35877926379851005
-0.482679366593743	0.3700880152832738
-0.482618331437493	0.3812074096357354
-0.482557296281243	0.39216576442684686
-0.482496261124993	0.40295960484360815
-0.482435225968743	0.4135507750826975
-0.482374190812493	0.423940278872771
-0.482313155656243	0.4341537340587867
-0.482252120499993	0.4441732569572939
-0.482191085343743	0.453967467190235
-0.482130050187493	0.4635503339517872
-0.482069015031243	0.47293834876841084
-0.482007979874993	0.4821039091458794
-0.481946944718743	0.49102775182575004
-0.481885909562493	0.4997314552799189
-0.481824874406243	0.5082190286047066
-0.481763839249993	0.5164593551964345
-0.481702804093743	0.5244469056916586
-0.481641768937493	0.5322043533378741
-0.481580733781243	0.5397230831044453
-0.481519698624993	0.5469747935148118
-0.481458663468743	0.5539665808247299
-0.481397628312493	0.5607165820862423
-0.481336593156243	0.5672060491269725
-0.481275557999993	0.5734143984113798
-0.481214522843743	0.579357727057353
-0.481153487687493	0.585045647380627
-0.481092452531243	0.5904538790415992
-0.481031417374993	0.5955726427770276
-0.480970382218743	0.6004219814347768
-0.480909347062493	0.6050010553443812
-0.480848311906243	0.6092851774796607
-0.480787276749993	0.6132760809886048
-0.480726241593743	0.6169929328149641
-0.480665206437493	0.6204251117531822
-0.480604171281243	0.6235521278447239
-0.480543136124993	0.6263853583653064
-0.480482100968743	0.6289387695383085
-0.480421065812493	0.6311948013595907
-0.480360030656243	0.633141007895283
-0.480298995499993	0.634794945020679
-0.480237960343743	0.6361624325344761
-0.480176925187493	0.6372229102394874
-0.480115890031243	0.6379738907042447
-0.480054854874993	0.6384349066809926
-0.479993819718743	0.6386027906758092
-0.479932784562493	0.6384583515115132
-0.479871749406243	0.6380089271486148
-0.479810714249993	0.6372716853205579
-0.479749679093743	0.6362355438074341
-0.479688643937493	0.6348867353493222
-0.479627608781243	0.6332403932940914
-0.479566573624993	0.6313078108483993
-0.479505538468743	0.6290729538081924
-0.479444503312493	0.6265302984418096
-0.479383468156243	0.6236991324705146
-0.479322432999993	0.6205828720948063
-0.479261397843743	0.6171644614716197
-0.479200362687493	0.6134476797520757
-0.479139327531243	0.6094520417057877
-0.479078292374993	0.6051729812316063
-0.479017257218743	0.6005962144180907
-0.478956222062493	0.5957339725744688
-0.478895186906243	0.5906022007339649
-0.478834151749993	0.5851899134309141
-0.478773116593743	0.5794892145550256
-0.478712081437493	0.5735186388850486
-0.478651046281243	0.5672875495753746
-0.478590011124993	0.5607813848642446
-0.478528975968743	0.5540007885490059
-0.478467940812493	0.5469669450606766
-0.478406905656243	0.5396811461695521
-0.478345870499993	0.532129144603428
-0.478284835343743	0.5243206829035661
-0.478223800187493	0.5162757182789591
-0.478162765031243	0.5079879859392645
-0.478101729874993	0.4994474378011449
-0.478040694718743	0.49067143771289046
-0.477979659562493	0.48167483864069666
-0.477918624406243	0.4724458961336372
-0.477857589249993	0.4629821024100882
-0.477796554093743	0.4533057150187424
-0.477735518937493	0.4434239083117935
-0.477674483781243	0.43332276311878604
-0.477613448624993	0.4230088885794237
-0.477552413468743	0.4125053802130682
-0.477491378312493	0.40181081283529274
-0.477430343156243	0.3909133764174004
-0.477369307999993	0.3798289527645313
-0.477308272843743	0.3685774112942505
-0.477247237687493	0.3571496318806048
-0.477186202531243	0.34553960306723785
-0.477125167374993	0.33377016172899987
-0.477064132218743	0.32185424279553054
-0.477003097062493	0.3097782942885685
-0.476942061906243	0.2975455203441794
-0.476881026749993	0.28518191195628606
-0.476819991593743	0.27269076392090447
-0.476758956437493	0.2600578390048848
-0.476697921281243	0.2472966678005782
-0.476636886124993	0.2344321773768901
-0.476575850968743	0.22145824770524236
-0.476514815812493	0.20836478536765332
-0.476453780656243	0.19517464273444324
-0.476392745499993	0.18190691273271303
-0.476331710343743	0.168547865007186
-0.476270675187493	0.15509546604141966
-0.476209640031243	0.14157851950587386
-0.476148604874993	0.12800653439495216
-0.476087569718743	0.11436224413691036
-0.476026534562493	0.10065499203176083
-0.475965499406243	0.08691530437465322
-0.475904464249993	0.07314098198462587
-0.475843429093743	0.059315885651079925
-0.475782393937493	0.04546111617944714
-0.475721358781243	0.03160323334307228
-0.475660323624993	0.01772910594627153
-0.475599288468743	0.0038295764599099373
-0.475538253312493	-0.010064410556405416
-0.475477218156243	-0.023935601911642186
-0.475416182999993	-0.03780504495401342
-0.475355147843743	-0.051670521771326756
-0.475294112687493	-0.0654955826883997
-0.475233077531243	-0.07927609837753749
-0.475172042374993	-0.09303591097802079
-0.475111007218743	-0.10675861283228676
-0.475049972062493	-0.12040826389000071
-0.474988936906243	-0.13399547330580294
-0.474927901749993	-0.14754009507121188
-0.474866866593743	-0.16101127623484293
-0.474805831437493	-0.1743807014544765
-0.474744796281243	-0.18767273796514694
-0.474683761124993	-0.20089686466261203
-0.474622725968743	-0.2140107829457849
-0.474561690812493	-0.22699981739194813
-0.474500655656243	-0.23989723190909773
-0.474439620499993	-0.2526963175703712
-0.474378585343743	-0.2653495352207535
-0.474317550187493	-0.2778608960630939
-0.474256515031243	-0.2902654393035565
-0.474195479874993	-0.3025372084392852
-0.474134444718743	-0.3146319513458285
-0.474073409562493	-0.3265735481583837
-0.474012374406243	-0.33838950565360004
-0.473951339249993	-0.3500353907108689
-0.473890304093743	-0.36147961685399194
-0.473829268937493	-0.3727630238020507
-0.473768233781243	-0.3838966068861457
-0.473707198624993	-0.39482269896162897
-0.473646163468743	-0.4055307953327956
-0.473585128312493	-0.41607169653057485
-0.473524093156243	-0.42643318718528483
-0.473463057999993	-0.43655339894037
-0.473402022843743	-0.44644755767806593
-0.473340987687493	-0.4561655937324001
-0.473279952531243	-0.4656696185789638
-0.473218917374993	-0.4749053830337959
-0.473157882218743	-0.4839138250513851
-0.473096847062493	-0.4927321012214303
-0.473035811906243	-0.5012996834092196
-0.472974776749993	-0.5095817419685008
-0.472913741593743	-0.5176392442175758
-0.472852706437493	-0.5254858343777601
-0.472791671281243	-0.5330467713229017
-0.472730636124993	-0.5403156361643187
-0.472669600968743	-0.5473624615928624
-0.472608565812493	-0.5541707777969185
-0.472547530656243	-0.5606646345943248
-0.472486495499993	-0.5668697331396467
-0.472425460343743	-0.5728509823289863
-0.472364425187493	-0.5785614890649289
-0.472303390031243	-0.5839387190313093
-0.472242354874993	-0.5890374249616547
-0.472181319718743	-0.5939034751049079
-0.472120284562493	-0.5984662012159222
-0.472059249406243	-0.6026890561827927
-0.471998214249993	-0.6066460527641472
-0.471937179093743	-0.6103536221719073
-0.471876143937493	-0.6137296379367654
-0.471815108781243	-0.616770936107227
-0.471754073624993	-0.6195565580210183
-0.471693038468743	-0.6220696254608994
-0.471632003312493	-0.6242319895699217
-0.471570968156243	-0.6260741670966893
-0.471509932999993	-0.6276647915095537
-0.471448897843743	-0.6289571161931785
-0.471387862687493	-0.6298915066765425
-0.471326827531243	-0.6305252512338567
-0.471265792374993	-0.6309037995156087
-0.471204757218743	-0.6309604681844672
-0.471143722062493	-0.6306643686959653
-0.471082686906243	-0.6300871393943165
-0.471021651749993	-0.6292438982951368
-0.470960616593743	-0.6280621107071493
-0.470899581437493	-0.6265434428006595
-0.470838546281243	-0.6247592828516321
-0.470777511124993	-0.6226941747458632
-0.470716475968743	-0.6202840230000237
-0.470655440812493	-0.6175597730875835
-0.470594405656243	-0.6145791219975197
-0.470533370499993	-0.6113023829724492
-0.470472335343743	-0.6076856631121286
-0.470411300187493	-0.6037802552287767
-0.470350265031243	-0.599620941311168
-0.470289229874993	-0.595154791478777
-0.470228194718743	-0.5903643496523161
-0.470167159562493	-0.5853089641989164
-0.470106124406243	-0.5799972542937245
-0.470045089249993	-0.5743756677161965
-0.469984054093743	-0.5684534642019625
-0.469923018937493	-0.5622857750624753
-0.469861983781243	-0.5558575044751832
-0.469800948624993	-0.5491257052966686
-0.469739913468743	-0.5421213274602626
-0.469678878312493	-0.5348855428513325
-0.469617843156243	-0.5273866943327092
-0.469556807999993	-0.5196002477795919
-0.469495772843743	-0.5115700926105146
-0.469434737687493	-0.5033178826123185
-0.469373702531243	-0.4948050819655177
-0.469312667374993	-0.48602852752566356
-0.469251632218743	-0.47703484257096945
-0.469190597062493	-0.4678255849554465
-0.469129561906243	-0.45836527480061035
-0.469068526749993	-0.44867041281342124
-0.469007491593743	-0.43878115277509944
-0.468946456437493	-0.42868253683584145
-0.468885421281243	-0.418350094719416
-0.468824386124993	-0.4078147440013656
-0.468763350968743	-0.39710368260179224
-0.468702315812493	-0.38619199414688743
-0.468641280656243	-0.37507096093233616
