Time	Frequency
-0.5000516428437507	0.4937954893854358
-0.4999906076875007	0.4937816195525529
-0.4999295725312507	0.4936321461378265
-0.4998685373750007	0.4933508899243155
-0.4998075022187507	0.49294692601078255
-0.4997464670625007	0.4924096293313545
-0.4996854319062507	0.4917393167249148
-0.4996243967500007	0.49094573342991815
-0.4995633615937507	0.490021184353103
-0.4995023264375007	0.4889633775871982
-0.4994412912812507	0.4877817400739977
-0.4993802561250007	0.48647142012748484
-0.4993192209687507	0.48502842651783523
-0.4992581858125007	0.4834612545362525
-0.4991971506562507	0.48176757987994806
-0.4991361155000007	0.47994253133963427
-0.4990750803437507	0.4779934068621462
-0.4990140451875007	0.47591993920986975
-0.4989530100312507	0.4737168583924084
-0.4988919748750007	0.47139010708971385
-0.4988309397187507	0.46894108645518623
-0.4987699045625007	0.4663647037065072
-0.4987088694062507	0.4636657198599617
-0.4986478342500007	0.46084669044840315
-0.4985867990937507	0.4579027330013209
-0.4985257639375007	0.4548375979709274
-0.4984647287812507	0.4516548944688745
-0.4984036936250007	0.4483500088031985
-0.4983426584687507	0.44492561263064845
-0.4982816233125007	0.4413862371033796
-0.4982205881562507	0.43772777535780855
-0.4981595530000007	0.43395196363008537
-0.4980985178437507	0.4300641534612322
-0.4980374826875007	0.426060705712432
-0.4979764475312507	0.42194220319140596
-0.4979154123750007	0.41771469891708835
-0.4978543772187507	0.4133753453583346
-0.4977933420625007	0.4089236014159753
-0.4977323069062507	0.40436597607617114
-0.4976712717500007	0.39970056141035604
-0.4976102365937507	0.39492582374188906
-0.4975492014375007	0.3900487008749337
-0.4974881662812507	0.38506824957805147
-0.4974271311250007	0.3799816219515046
-0.4973660959687507	0.3747960678227411
-0.4973050608125007	0.3695121659992624
-0.4972440256562507	0.3641257072874399
-0.4971829905000007	0.35864362749061285
-0.4971219553437507	0.35306826268256364
-0.4970609201875007	0.3473944401549055
-0.4969998850312507	0.3416285548964808
-0.4969388498750007	0.3357748255829337
-0.4968778147187507	0.3298271206528711
-0.4968167795625007	0.323790694117936
-0.4967557444062507	0.3176719719537628
-0.4966947092500007	0.31146453375019567
-0.4966336740937507	0.3051719063428288
-0.4965726389375007	0.2988024011740746
-0.4965116037812507	0.29234981057358284
-0.4964505686250007	0.28581560238355413
-0.4963895334687507	0.27920979403458257
-0.4963284983125007	0.27252714780759923
-0.4962674631562507	0.26576694784206883
-0.4962064280000007	0.2589404919599948
-0.4961453928437507	0.25204382989253127
-0.4960843576875007	0.24507358699376453
-0.4960233225312507	0.23804184328390104
-0.4959622873750007	0.23094696930625225
-0.4959012522187507	0.22378341665626286
-0.4958402170625007	0.21656327678401657
-0.4957791819062507	0.2092871049089863
-0.4957181467500007	0.201947119963671
-0.4956571115937507	0.19455514006587707
-0.4955960764375007	0.18711472860014158
-0.4955350412812507	0.17961611955233567
-0.4954740061250007	0.17206973862824146
-0.4954129709687507	0.16448232780539465
-0.4953519358125007	0.15684283721382045
-0.4952909006562507	0.14915972764852012
-0.4952298655000007	0.14144313706874423
-0.4951688303437507	0.13368138735635735
-0.4951077951875007	0.12587992173002266
-0.4950467600312507	0.1180518858374654
-0.4949857248750007	0.1101861564262195
-0.4949246897187507	0.10228510081348739
-0.4948636545625007	0.09436432959528926
-0.4948026194062507	0.08641348112720322
-0.4947415842500007	0.0784313820194701
-0.4946805490937507	0.07043613958948265
-0.4946195139375007	0.0624191174520434
-0.4945584787812507	0.05437501466682789
-0.4944974436250007	0.04632391938193925
-0.4944364084687507	0.03826021394235895
-0.4943753733125007	0.03017408795989264
-0.4943143381562507	0.022086035550155023
-0.4942533030000007	0.013994348064205828
-0.4941922678437507	0.005885505370497115
-0.4941312326875007	-0.0022204002893513866
-0.4940701975312507	-0.01032082472463032
-0.4940091623750007	-0.0184328904027095
-0.4939481272187507	-0.026537714198936323
-0.4938870920625007	-0.03462755501578082
-0.4938260569062507	-0.042722707537772145
-0.4937650217500007	-0.050807093169886394
-0.4937039865937507	-0.058867431655573184
-0.4936429514375007	-0.06692612882830912
-0.4935819162812507	-0.0749710321029183
-0.4935208811250007	-0.0829830464168751
-0.4934598459687507	-0.09098546591148343
-0.4933988108125007	-0.09897139978321531
-0.4933377756562507	-0.10691626949199756
-0.4932767405000007	-0.11484290520103334
-0.4932157053437507	-0.12275074720147677
-0.4931546701875007	-0.13061016604825215
-0.4930936350312507	-0.1384417896122986
-0.4930325998750007	-0.14625221272166927
-0.4929715647187507	-0.15400761286868234
-0.4929105295625007	-0.16172480590420676
-0.4928494944062507	-0.16941857957318052
-0.4927884592500007	-0.17705241767305444
-0.4927274240937507	-0.1846370701562693
-0.4926663889375007	-0.1921952467846748
-0.4926053537812507	-0.19968948537346606
-0.4925443186250007	-0.2071229674522363
-0.4924832834687507	-0.214526421833497
-0.4924222483125007	-0.22186378307334
-0.4923612131562507	-0.2291286674007808
-0.4923001780000007	-0.2363585513614496
-0.4922391428437507	-0.24352157797728385
-0.4921781076875007	-0.25060102561437586
-0.4921170725312507	-0.2576393894280732
-0.4920560373750007	-0.2646112431618955
-0.4919950022187507	-0.2714887265979632
-0.4919339670625007	-0.27831735467728347
-0.4918729319062507	-0.28508111044002826
-0.4918118967500007	-0.2917409508232677
-0.4917508615937507	-0.2983422644761702
-0.4916898264375007	-0.30488114453680887
-0.4916287912812507	-0.31130856856469036
-0.4915677561250007	-0.3176661128778971
-0.4915067209687507	-0.32396384201428274
-0.4914456858125007	-0.3301448025930683
-0.4913846506562507	-0.3362426390534845
-0.4913236155000007	-0.3422823780619313
-0.4912625803437507	-0.3482027150423319
-0.4912015451875007	-0.35402592313157927
-0.4911405100312507	-0.35979196222670584
-0.4910794748750007	-0.36543911861859807
-0.4910184397187507	-0.37097430904089945
-0.4909574045625007	-0.3764505167515898
-0.4908963694062507	-0.38181094579566655
-0.4908353342500007	-0.38704536060005235
-0.4907742990937507	-0.3922168001489992
-0.4907132639375007	-0.39727820609801
-0.4906522287812507	-0.4022008199943884
-0.4905911936250007	-0.4070530932365353
-0.4905301584687507	-0.41180271355315906
-0.4904691233125007	-0.4164034165893264
-0.4904080881562507	-0.42092330965881497
-0.4903470530000007	-0.4253483922204701
-0.4902860178437507	-0.4296178099889343
-0.4902249826875007	-0.4337934651797631
-0.4901639475312507	-0.43788169619283407
-0.4901029123750007	-0.44181137004015447
-0.4900418772187507	-0.4456323848182137
-0.4899808420625007	-0.44937169984828235
-0.4899198069062507	-0.4529537392800881
-0.4898587717500007	-0.45641139013378224
-0.4897977365937507	-0.4597901601798488
-0.4897367014375007	-0.4630166606896106
-0.4896756662812507	-0.46610365781720425
-0.4896146311250007	-0.4691112377131732
-0.4895535959687507	-0.4719746021848654
-0.4894925608125007	-0.47468519241259477
-0.4894315256562507	-0.4773121079263719
-0.4893704905000007	-0.4798047114654359
-0.4893094553437507	-0.48213421500962333
-0.4892484201875007	-0.4843724608578396
-0.4891873850312507	-0.48648712805223937
-0.4891263498750007	-0.4884320882789028
-0.4890653147187507	-0.4902751126384153
-0.4890042795625007	-0.4920045043878199
-0.4889432444062507	-0.4935619155294178
-0.4888822092500007	-0.49500505190002725
-0.4888211740937507	-0.4963426745623576
-0.4887601389375007	-0.4975101383647379
-0.4886991037812507	-0.498550378614232
-0.4886380686250007	-0.4994904566801617
-0.4885770334687507	-0.5002658130396404
-0.4885159983125007	-0.5009017467927689
-0.4884549631562507	-0.5014396466777589
-0.4883939280000007	-0.5018209457461503
-0.4883328928437507	-0.5020525004828442
-0.4882718576875007	-0.5021849345717964
-0.4882108225312507	-0.5021705065425928
-0.4881497873750007	-0.5019987461833015
-0.4880887522187507	-0.501723902491904
-0.4880277170625007	-0.5013124425994591
-0.4879666819062507	-0.5007394104407186
-0.4879056467500007	-0.5000571227370966
-0.4878446115937507	-0.4992477840511958
-0.4877835764375007	-0.4982761233783
-0.4877225412812507	-0.4971878730230067
-0.4876615061250007	-0.495980680193634
-0.4876004709687507	-0.4946136373311985
-0.4875394358125007	-0.4931223895564074
-0.4874784006562507	-0.4915181768977077
-0.4874173655000007	-0.48975932150476814
-0.4873563303437507	-0.487869498865759
-0.4872952951875007	-0.4858703795087856
-0.4872342600312507	-0.48372367042775377
-0.4871732248750007	-0.48144081150311174
-0.4871121897187507	-0.4790502396110565
-0.4870511545625007	-0.4765201901846271
-0.4869901194062507	-0.473850816781186
-0.4869290842500007	-0.4710735356266759
-0.4868680490937507	-0.46816518202252017
-0.4868070139375007	-0.4651166598781059
-0.4867459787812507	-0.4619588585724751
-0.4866849436250007	-0.45867798556611483
-0.4866239084687507	-0.4552583221552614
-0.4865628733125007	-0.45172739517126187
-0.4865018381562507	-0.44808053572848006
-0.4864408030000007	-0.4442983853859157
-0.4863797678437507	-0.4404031054472816
-0.4863187326875007	-0.4363978355142976
-0.4862576975312507	-0.43226236928057327
-0.4861966623750007	-0.4280125234188192
-0.4861356272187507	-0.42365737683318994
-0.4860745920625007	-0.41917825044830737
-0.4860135569062507	-0.4145846178838562
-0.4859525217500007	-0.4098893122286679
-0.4858914865937507	-0.4050767157820715
-0.4858304514375007	-0.4001507678584005
-0.4857694162812507	-0.3951262585164865
-0.4857083811250007	-0.38999140656432435
-0.4856473459687507	-0.38474533459704685
-0.4855863108125007	-0.37940305246294115
-0.4855252756562507	-0.373957362803828
-0.4854642405000007	-0.36840423044692494
-0.4854032053437507	-0.3627573779068376
-0.4853421701875007	-0.35701354549714726
-0.4852811350312507	-0.35116674563471384
-0.4852200998750007	-0.3452286555709133
-0.4851590647187507	-0.33919950576072094
-0.4850980295625007	-0.3330728831386418
-0.4850369944062507	-0.326858307296848
-0.4849759592500007	-0.32055843897867575
-0.4849149240937507	-0.31416682288764763
-0.4848538889375007	-0.30769070063257603
-0.4847928537812507	-0.30113462595745744
-0.4847318186250007	-0.29449293031844076
-0.4846707834687507	-0.2877709606043599
-0.4846097483125007	-0.280974503538188
-0.4845487131562507	-0.2740987799728533
-0.4844876780000007	-0.2671473229278175
-0.4844266428437507	-0.26012652537404785
-0.4843656076875007	-0.25303272432317714
-0.4843045725312507	-0.24586834593290816
-0.4842435373750007	-0.2386402939324659
-0.4841825022187507	-0.23134582461741549
-0.4841214670625007	-0.22398621169885938
-0.4840604319062507	-0.2165685175460258
-0.4839993967500007	-0.2090906745333171
-0.4839383615937507	-0.2015528309289946
-0.4838773264375007	-0.19396253985891804
-0.4838162912812507	-0.1863191617121945
-0.4837552561250007	-0.17862192065823188
-0.4836942209687507	-0.17087809156853745
-0.4836331858125007	-0.1630879125906776
-0.4835721506562507	-0.15524976792386858
-0.4835111155000007	-0.14737080766354074
-0.4834500803437507	-0.1394523642312033
-0.4833890451875007	-0.13149206271774694
-0.4833280100312507	-0.12349676790271871
-0.4832669748750007	-0.11546909084074476
-0.4832059397187507	-0.10740606497937259
-0.4831449045625007	-0.09931409460103115
-0.4830838694062507	-0.09119698428424296
-0.4830228342500007	-0.08305085240669327
-0.4829617990937507	-0.07488134585856661
-0.4829007639375007	-0.06669405554045833
-0.4828397287812507	-0.05848466836876724
-0.4827786936250007	-0.0502575798234512
-0.4827176584687507	-0.04202004573643166
-0.4826566233125007	-0.03376760335877336
-0.4825955881562507	-0.025502917467634407
-0.4825345530000007	-0.017234832442322823
-0.4824735178437507	-0.008959368647982966
-0.4824124826875007	-0.0006771821315169629
-0.4823514475312507	0.007601577337599967
-0.4822904123750007	0.01587983303858011
-0.4822293772187507	0.024159163337288146
-0.4821683420625007	0.03242861391675961
-0.4821073069062507	0.04068943127714211
-0.4820462717500007	0.04894536361864761
-0.4819852365937507	0.05718543864065445
-0.4819242014375007	0.06540897146984821
-0.4818631662812507	0.07362151369917921
-0.4818021311250007	0.08181225891356296
-0.4817410959687507	0.08997817278230182
-0.4816800608125007	0.0981268261246017
-0.4816190256562507	0.10624857004398894
-0.4815579905000007	0.11433743587700045
-0.4814969553437507	0.12240203100286616
-0.4814359201875007	0.1304345889741844
-0.4813748850312507	0.1384266135841193
-0.4813138498750007	0.14638729125306252
-0.4812528147187507	0.15431110333640555
-0.4811917795625007	0.16218699363442063
-0.4811307444062507	0.17002418738990374
-0.4810697092500007	0.17781990374272133
-0.4810086740937507	0.18556050193622453
-0.4809476389375007	0.1932545161337278
-0.4808866037812507	0.20090276851416447
-0.4808255686250007	0.20848969436577458
-0.4807645334687507	0.21602182619664392
-0.4807034983125007	0.2235033693937959
-0.4806424631562507	0.2309177933655217
-0.4805814280000007	0.2382693924849204
-0.4805203928437507	0.24556583327501505
-0.4804593576875007	0.25279005097794216
-0.4803983225312507	0.25994319811000544
-0.4803372873750007	0.26703622221830525
-0.4802762522187507	0.2740524371913013
-0.4802152170625007	0.2809894732964811
-0.4801541819062507	0.2878613289929203
-0.4800931467500007	0.29465238035964714
-0.4800321115937507	0.3013560491366675
-0.4799710764375007	0.30798919130510194
-0.4799100412812507	0.3145387300511095
-0.4798490061250007	0.3209932779140901
-0.4797879709687507	0.32737106539155414
-0.4797269358125007	0.33366253689572456
-0.4796659006562507	0.3398519840127873
-0.4796048655000007	0.3459583337502588
-0.4795438303437507	0.35197622295222586
-0.4794827951875007	0.357885495559458
-0.4794217600312507	0.3637047799527813
-0.4793607248750007	0.369433981501556
-0.4792996897187507	0.3750488752688826
-0.4792386545625007	0.38056644008380264
-0.4791776194062507	0.38599263213466795
-0.4791165842500007	0.3912997751724963
-0.4790555490937507	0.3965015414598303
-0.4789945139375007	0.40161053480359166
-0.4789334787812507	0.4065970887113668
-0.4788724436250007	0.41147014195899195
-0.4788114084687507	0.4162487684390074
-0.4787503733125007	0.42090259787970963
-0.4786893381562507	0.4254346709075086
-0.4786283030000007	0.4298705187098489
-0.4785672678437507	0.43418057808437205
-0.4785062326875007	0.43836040358666123
-0.4784451975312507	0.4424413934880881
-0.4783841623750007	0.4463970322110363
-0.4783231272187507	0.4502144911035732
-0.4782620920625007	0.45392982557341366
-0.4782010569062507	0.4575215130963485
-0.4781400217500007	0.460967452671581
-0.4780789865937507	0.4643066701639441
-0.4780179514375007	0.4675251384266918
-0.4779569162812507	0.47059150830307783
-0.4778958811250007	0.4735454480258923
-0.4778348459687507	0.4763824394901315
-0.4777738108125007	0.47906236116252954
-0.4777127756562507	0.481622807947
-0.4776517405000007	0.4840706055446001
-0.4775907053437507	0.4863581063695922
-0.4775296701875007	0.4885177705232995
-0.4774686350312507	0.49056930440793434
-0.4774075998750007	0.4924597526940492
-0.4773465647187507	0.4942128450988141
-0.4772855295625007	0.49586158148056153
-0.4772244944062507	0.4973509816327387
-0.4771634592500007	0.4986929445291306
-0.4771024240937507	0.49993319338838216
-0.4770413889375007	0.5010185570744684
-0.4769803537812507	0.501946304027704
-0.4769193186250007	0.5027731007818284
-0.4768582834687507	0.5034520760145799
-0.4767972483125007	0.5039639566887795
-0.4767362131562507	0.5043732233513866
-0.4766751780000007	0.5046440383553304
-0.4766141428437507	0.5047399757841994
-0.4765531076875007	0.5047287921149141
-0.4764920725312507	0.504590015129063
-0.4764310373750007	0.5042712343053156
-0.4763700022187507	0.5038380803755841
-0.4763089670625007	0.5032887693772637
-0.4762479319062507	0.5025577328772262
-0.4761868967500007	0.501702541452346
-0.4761258615937507	0.5007419883685365
-0.4760648264375007	0.49960206972521676
-0.4760037912812507	0.4983266223612821
-0.4759427561250007	0.4969547734517855
-0.4758817209687507	0.49541003546222456
-0.4758206858125007	0.49371787759940355
-0.4757596506562507	0.4919354338999925
-0.4756986155000007	0.4899903593077248
-0.4756375803437507	0.4878867385935065
-0.4755765451875007	0.48569542743934047
-0.4755155100312507	0.483354784299087
-0.4754544748750007	0.4808464664727416
-0.4753934397187507	0.47824913561360455
-0.4753324045625007	0.47551777592894323
-0.4752713694062507	0.4726130528104847
-0.4752103342500007	0.4696143958593842
-0.4751492990937507	0.46649749918935474
-0.4750882639375007	0.46320563745793586
-0.4750272287812507	0.4598119033152529
-0.4749661936250007	0.456314772488238
-0.4749051584687507	0.45264565605285534
-0.4748441233125007	0.44886492841322717
-0.4747830881562507	0.44499351146814053
-0.4747220530000007	0.4409576062528078
-0.4746610178437507	0.4367997920787035
-0.4745999826875007	0.4325607108474224
-0.4745389475312507	0.42816856551290794
-0.4744779123750007	0.42364523882536304
-0.4744168772187507	0.41904633415922804
-0.4743558420625007	0.41430866519389914
-0.4742948069062507	0.4094328033694908
-0.4742337717500007	0.40448322681096827
-0.4741727365937507	0.39941071900071395
-0.4741117014375007	0.3941962621262438
-0.4740506662812507	0.3889066279090514
-0.4739896311250007	0.38351008095557415
-0.4739285959687507	0.3779716639320351
-0.4738675608125007	0.3723542113609005
-0.4738065256562507	0.36664494435589245
-0.4737454905000007	0.36079788716257744
-0.4736844553437507	0.3548664358119473
-0.4736234201875007	0.34885612882094547
-0.4735623850312507	0.3427159023308606
-0.4735013498750007	0.33648586689897475
-0.4734403147187507	0.33018707204152425
-0.4733792795625007	0.3237689216991451
-0.4733182444062507	0.31725650130306204
-0.4732572092500007	0.3106827848626058
-0.4731961740937507	0.30400253628368745
-0.4731351389375007	0.29722535425048763
-0.4730741037812507	0.2903913456809293
-0.4730130686250007	0.2834646241492484
-0.4729520334687507	0.276440977521219
-0.4728909983125007	0.26936258460309154
-0.4728299631562507	0.2622049649350998
-0.4727689280000007	0.2549531528787611
-0.4727078928437507	0.24764743462203015
-0.4726468576875007	0.2402753907536904
-0.4725858225312507	0.23281454668401932
-0.4725247873750007	0.22529976650366598
-0.4724637522187507	0.21772993836417842
-0.4724027170625007	0.21007875302724902
-0.4723416819062507	0.20237350097074744
-0.4722806467500007	0.19462286579967414
-0.4722196115937507	0.18680045630401723
-0.4721585764375007	0.17892488514854027
-0.4720975412812507	0.171011800485525
-0.4720365061250007	0.163037363571986
-0.4719754709687507	0.1550115856011306
-0.4719144358125007	0.14695454226765758
-0.4718534006562507	0.13884728383084324
-0.4717923655000007	0.13069217222257065
-0.4717313303437507	0.1225106470176839
-0.4716702951875007	0.11428968996745978
-0.4716092600312507	0.10602603183551437
-0.4715482248750007	0.09774022072708725
-0.4714871897187507	0.08942488724045533
-0.4714261545625007	0.08107300136908502
-0.4713651194062507	0.0727032745347785
-0.4713040842500007	0.06431396670890355
-0.4712430490937507	0.05589565114610488
-0.4711820139375007	0.04746332603978241
-0.4711209787812507	0.03901968918097718
-0.4710599436250007	0.030555028639392242
-0.4709989084687507	0.02208082474127818
-0.4709378733125007	0.013603240190557928
-0.4708768381562507	0.005113461563489009
-0.4708158030000007	-0.003380645050136972
-0.4707547678437507	-0.011871093947721236
-0.4706937326875007	-0.020365275001133002
-0.4706326975312507	-0.028858229209438726
-0.4705716623750007	-0.037340776580405535
-0.4705106272187507	-0.045818468622688645
-0.4704495920625007	-0.0542889583771991
-0.4703885569062507	-0.06274280776769442
-0.4703275217500007	-0.07118339020605843
-0.4702664865937507	-0.07961012060035565
-0.4702054514375007	-0.08801414403664022
-0.4701444162812507	-0.0963970577158789
-0.4700833811250007	-0.10475911092349717
-0.4700223459687507	-0.11309202403560854
-0.4699613108125007	-0.12139625892906981
-0.4699002756562507	-0.12967287947052297
-0.4698392405000007	-0.1379140496641744
-0.4697782053437507	-0.146119101315708
-0.4697171701875007	-0.15428979258911302
-0.4696561350312507	-0.16241868054974634
-0.4695950998750007	-0.1705039137481016
