Time	Frequency
-0.5000371496875005	0.5145020078309194
-0.49997611453125046	0.5164596281617891
-0.49991507937500046	0.5182571865593096
-0.49985404421875046	0.5198943389038632
-0.49979300906250046	0.5213700103453938
-0.49973197390625046	0.5226843335363359
-0.49967093875000046	0.5238362887520577
-0.49960990359375046	0.5248259376292524
-0.49954886843750046	0.5256526069630727
-0.49948783328125046	0.5263159101193366
-0.49942679812500046	0.5268159805936928
-0.49936576296875046	0.5271520809593144
-0.49930472781250046	0.5273247254835522
-0.49924369265625046	0.5273331431081457
-0.49918265750000046	0.5271776790302406
-0.49912162234375046	0.5268581655526363
-0.49906058718750046	0.5263746396525232
-0.49899955203125046	0.5257275436500445
-0.49893851687500046	0.5249163437818283
-0.49887748171875046	0.5239420103867258
-0.49881644656250046	0.5228041640220246
-0.49875541140625046	0.5215035201809262
-0.49869437625000046	0.5200401910190736
-0.49863334109375046	0.518414490786237
-0.49857230593750046	0.5166273764431489
-0.49851127078125046	0.5146785678055927
-0.49845023562500046	0.5125694203659521
-0.49838920046875046	0.510299825749632
-0.49832816531250046	0.5078709809219351
-0.49826713015625046	0.5052835303705838
-0.49820609500000046	0.5025378621082361
-0.49814505984375046	0.4996353564540757
-0.49808402468750046	0.49657600011147185
-0.49802298953125046	0.49336155153350447
-0.49796195437500046	0.4899923661671182
-0.49790091921875046	0.48646981083717894
-0.49783988406250046	0.4827948280082301
-0.49777884890625046	0.47896815376527857
-0.49771781375000046	0.47499170799531804
-0.49765677859375046	0.47086576935604424
-0.49759574343750046	0.46659247788912006
-0.49753470828125046	0.4621723939514214
-0.49747367312500046	0.45760703050263535
-0.49741263796875046	0.4528979731912406
-0.49735160281250046	0.4480462441783389
-0.49729056765625046	0.44305404377148544
-0.49722953250000046	0.43792194237715476
-0.49716849734375046	0.43265241141915894
-0.49710746218750046	0.42724628170470896
-0.49704642703125046	0.42170530607393275
-0.49698539187500046	0.41603147967410625
-0.49692435671875046	0.410225957795839
-0.49686332156250046	0.4042914706286733
-0.49680228640625046	0.3982289376849858
-0.49674125125000046	0.392040905525412
-0.49668021609375046	0.3857285994185942
-0.49661918093750046	0.3792943260578822
-0.49655814578125046	0.37274037956832407
-0.49649711062500046	0.366067705276086
-0.49643607546875046	0.3592792770945488
-0.49637504031250046	0.35237627198545063
-0.49631400515625046	0.3453617869130957
-0.49625297000000046	0.33823752022567705
-0.49619193484375046	0.3310055847585873
-0.49613089968750046	0.3236686785044828
-0.49606986453125046	0.3162282409421248
-0.49600882937500046	0.3086876457772885
-0.49594779421875046	0.30104788441857805
-0.49588675906250046	0.2933121519669216
-0.49582572390625046	0.28548283403147817
-0.49576468875000046	0.2775619211366838
-0.49570365359375046	0.26955221550118863
-0.49564261843750046	0.26145529027719977
-0.49558158328125046	0.253275059961567
-0.49552054812500046	0.24501315122590395
-0.49545951296875046	0.23667260902426554
-0.49539847781250046	0.22825581968708528
-0.49533744265625046	0.21976497141255733
-0.49527640750000046	0.21120331375715273
-0.49521537234375046	0.20257249448589307
-0.49515433718750046	0.19387649126814077
-0.49509330203125046	0.18511693476712668
-0.49503226687500046	0.17629699548195396
-0.49497123171875046	0.16741950049199447
-0.49491019656250046	0.1584865358060474
-0.49484916140625046	0.14950204585238042
-0.49478812625000046	0.14046791905589623
-0.49472709109375046	0.13138769753789398
-0.49466605593750046	0.12226309313007593
-0.49460502078125046	0.11309732775148149
-0.49454398562500046	0.1038936220860974
-0.49448295046875046	0.09465422390871744
-0.49442191531250046	0.0853833237324654
-0.49436088015625046	0.07608254452865115
-0.49429984500000046	0.0667554236221252
-0.49423880984375046	0.05740423969697198
-0.49417777468750046	0.04803179991963779
-0.49411673953125046	0.03864169483266319
-0.49405570437500046	0.029236316425990852
-0.49399466921875046	0.01981966237948592
-0.49393363406250046	0.010393563370777901
-0.49387259890625046	0.000961380963638629
-0.49381156375000046	-0.008474294248204275
-0.49375052859375046	-0.017910531230553046
-0.49368949343750046	-0.027343636468427863
-0.49362845828125046	-0.03677157395795954
-0.49356742312500046	-0.04619045729116194
-0.49350638796875046	-0.05559800550706181
-0.49344535281250046	-0.06499139961031128
-0.49338431765625046	-0.07436802520184072
-0.49332328250000046	-0.08372453832145683
-0.49326224734375046	-0.09305679752011731
-0.49320121218750046	-0.10236295273268614
-0.49314017703125046	-0.11164002138783516
-0.49307914187500046	-0.12088552820372048
-0.49301810671875046	-0.13009633131185738
-0.49295707156250046	-0.13926966478230088
-0.49289603640625046	-0.14840263189829112
-0.49283500125000046	-0.1574914761331758
-0.49277396609375046	-0.16653403705697364
-0.49271293093750046	-0.17552760995093872
-0.49265189578125046	-0.18446959663586407
-0.49259086062500046	-0.19335638673915187
-0.49252982546875046	-0.20218523720323398
-0.49246879031250046	-0.21095416190754412
-0.49240775515625046	-0.21966018408116353
-0.49234672000000046	-0.2283006032981616
-0.49228568484375046	-0.2368722397183897
-0.49222464968750046	-0.24537259062201966
-0.49216361453125046	-0.25379873578487816
-0.49210257937500046	-0.2621482330649251
-0.49204154421875046	-0.27041875930318593
-0.49198050906250046	-0.2786075611018002
-0.49191947390625046	-0.28671214499570197
-0.49185843875000046	-0.29472949849049274
-0.49179740359375046	-0.3026572376408999
-0.49173636843750046	-0.310492784086356
-0.49167533328125046	-0.318234250344441
-0.49161429812500046	-0.32587885734318495
-0.49155326296875046	-0.3334236002483073
-0.49149222781250046	-0.3408667774155375
-0.49143119265625046	-0.3482060338476514
-0.49137015750000046	-0.35543912274536915
-0.49130912234375046	-0.36256320224831584
-0.49124808718750046	-0.3695761484708107
-0.49118705203125046	-0.37647580169732897
-0.49112601687500046	-0.3832600755612225
-0.49106498171875046	-0.3899270295511926
-0.49100394656250046	-0.3964740445301148
-0.49094291140625046	-0.4028994829728765
-0.49088187625000046	-0.4092009222525223
-0.49082084109375046	-0.41537663038571443
-0.49075980593750046	-0.42142460849875063
-0.49069877078125046	-0.4273427282678225
-0.49063773562500046	-0.4331294073697074
-0.49057670046875046	-0.4387822758869067
-0.49051566531250046	-0.44430001996562796
-0.49045463015625046	-0.4496806294969365
-0.49039359500000046	-0.45492256183448804
-0.49033255984375046	-0.4600240390497566
-0.49027152468750046	-0.46498323026540506
-0.49021048953125046	-0.4697989393819788
-0.49014945437500046	-0.47446915137587825
-0.49008841921875046	-0.4789928114868821
-0.49002738406250046	-0.483368091041678
-0.48996634890625046	-0.48759381062592494
-0.48990531375000046	-0.4916685850823663
-0.48984427859375046	-0.4955908176486162
-0.48978324343750046	-0.49935966320681835
-0.48972220828125046	-0.5029733907554477
-0.48966117312500046	-0.5064313817834976
-0.48960013796875046	-0.5097321751483473
-0.48953910281250046	-0.5128747589856818
-0.48947806765625046	-0.5158580759463481
-0.48941703250000046	-0.5186808783585093
-0.48935599734375046	-0.5213428216698794
-0.48929496218750046	-0.5238424618155473
-0.48923392703125046	-0.5261794183800567
-0.48917289187500046	-0.5283526644279662
-0.48911185671875046	-0.5303615391332019
-0.48905082156250046	-0.5322054149456208
-0.48898978640625046	-0.5338833129341898
-0.48892875125000046	-0.5353951997605145
-0.48886771609375046	-0.536740032480576
-0.48880668093750046	-0.5379177621353497
-0.48874564578125046	-0.5389277294794133
-0.48868461062500046	-0.5397696245038629
-0.48862357546875046	-0.5404432812220616
-0.48856254031250046	-0.5409480752790002
-0.48850150515625046	-0.5412843023119737
-0.48844047000000046	-0.5414513024287838
-0.48837943484375046	-0.5414493722239347
-0.48831839968750046	-0.5412781822973058
-0.48825736453125046	-0.5409378092344622
-0.48819632937500046	-0.540428591019952
-0.48813529421875046	-0.5397501591405889
-0.48807425906250046	-0.5389031062777818
-0.48801322390625046	-0.5378872213662091
-0.48795218875000046	-0.5367032050995011
-0.48789115359375046	-0.5353511788724951
-0.48783011843750046	-0.5338314748045266
-0.48776908328125046	-0.5321446797891857
-0.48770804812500046	-0.5302909095779422
-0.48764701296875046	-0.5282712937108248
-0.48758597781250046	-0.5260859271626633
-0.48752494265625046	-0.5237357394211911
-0.48746390750000046	-0.5212212424046407
-0.48740287234375046	-0.5185431331245803
-0.48734183718750046	-0.5157024223456587
-0.48728080203125046	-0.5126996925313967
-0.48721976687500046	-0.5095363094477988
-0.48715873171875046	-0.5062125995897339
-0.48709769656250046	-0.5027300092243581
-0.48703666140625046	-0.4990894346088824
-0.48697562625000046	-0.49529190526970607
-0.48691459109375046	-0.491338843447696
-0.48685355593750046	-0.48723101085100684
-0.48679252078125046	-0.48297018459104596
-0.48673148562500046	-0.478557246153576
-0.48667045046875046	-0.47399392460386275
-0.48660941531250046	-0.46928126152589045
-0.48654838015625046	-0.464420571872606
-0.48648734500000046	-0.45941372118944346
-0.48642630984375046	-0.45426192404960647
-0.48636527468750046	-0.4489673497877582
-0.48630423953125046	-0.4435309969330246
-0.48624320437500046	-0.43795491338893167
-0.48618216921875046	-0.4322405852043509
-0.48612113406250046	-0.42638972759235805
-0.48606009890625046	-0.4204046189319273
-0.48599906375000046	-0.4142864927426264
-0.48593802859375046	-0.4080377434266902
-0.48587699343750046	-0.40165982139565876
-0.48581595828125046	-0.39515515814237767
-0.48575492312500046	-0.38852551579870076
-0.48569388796875046	-0.3817727401189316
-0.48563285281250046	-0.374899438155772
-0.48557181765625046	-0.3679073201897928
-0.48551078250000046	-0.36079924049823786
-0.48544974734375046	-0.35357666167552054
-0.48538871218750046	-0.3462420286177169
-0.48532767703125046	-0.33879748480082766
-0.48526664187500046	-0.33124540693453164
-0.48520560671875046	-0.3235890011239477
-0.48514457156250046	-0.31582973919947216
-0.48508353640625046	-0.3079700171765217
-0.48502250125000046	-0.30001192637709656
-0.48496146609375046	-0.29195899587783186
-0.48490043093750046	-0.2838136217467381
-0.48483939578125046	-0.27557773158221693
-0.48477836062500046	-0.26725432323421694
-0.48471732546875046	-0.2588455688740582
-0.48465629031250046	-0.2503549555824077
-0.48459525515625046	-0.24178423984638442
-0.48453422000000046	-0.23313629297872435
-0.48447318484375046	-0.22441397186968617
-0.48441214968750046	-0.21561994632784137
-0.48435111453125046	-0.20675745072512614
-0.48429007937500046	-0.1978284396173104
-0.48422904421875046	-0.18883669927942187
-0.48416800906250046	-0.17978408318487085
-0.48410697390625046	-0.17067377147436863
-0.48404593875000046	-0.1615091475003604
-0.48398490359375046	-0.1522924203193295
-0.48392386843750046	-0.14302676492020966
-0.48386283328125046	-0.13371443066909572
-0.48380179812500046	-0.12435965026619411
-0.48374076296875046	-0.11496475848557756
-0.48367972781250046	-0.10553268544865588
-0.48361869265625046	-0.0960663320269236
-0.48355765750000046	-0.0865681662556122
-0.48349662234375046	-0.07704247287378964
-0.48343558718750046	-0.0674914016992881
-0.48337455203125046	-0.05791827814672423
-0.48331351687500046	-0.04832537284065276
-0.48325248171875046	-0.03871617831753289
-0.48319144656250046	-0.029094259417760674
-0.48313041140625046	-0.019462173540374
-0.48306937625000046	-0.009823713944348987
-0.48300834109375046	-0.0001804935840455457
-0.48294730593750046	0.009463411206997415
-0.48288627078125046	0.019105136810749136
-0.48282523562500046	0.028741791875356793
-0.48276420046875046	0.03836997856514667
-0.48270316531250046	0.04798727757615984
-0.48264213015625046	0.057589807629811314
-0.48258109500000046	0.06717565102115503
-0.48252005984375046	0.07674057102994927
-0.48245902468750046	0.08628192937174774
-0.48239798953125046	0.09579696476532362
-0.48233695437500046	0.10528196401193247
-0.48227591921875046	0.11473501317452973
-0.48221488406250046	0.12415227223134233
-0.48215384890625046	0.13353149472441703
-0.48209281375000046	0.14286860071310156
-0.48203177859375046	0.1521611574540155
-0.48197074343750046	0.16140655791998998
-0.48190970828125046	0.17060105246154603
-0.48184867312500046	0.17974309903128613
-0.48178763796875046	0.1888284365776476
-0.48172660281250046	0.19785472003822863
-0.48166556765625046	0.20681852938794962
-0.48160453250000046	0.21571733809919327
-0.48154349734375046	0.22454887266138268
-0.48148246218750046	0.23330943980067637
-0.48142142703125046	0.24199741565038302
-0.48136039187500046	0.2506088032471949
-0.48129935671875046	0.2591414788995964
-0.48123832156250046	0.2675921341366882
-0.48117728640625046	0.27595820139621924
-0.48111625125000046	0.28423776775857795
-0.48105521609375046	0.29242725332177805
-0.48099418093750046	0.30052522820756644
-0.48093314578125046	0.3085276768225604
-0.48087211062500046	0.31643276378903035
-0.48081107546875046	0.3242377218688533
-0.48075004031250046	0.33193983374040653
-0.48068900515625046	0.33953763532069586
-0.48062797000000046	0.34702742411097515
-0.48056693484375046	0.354408063432828
-0.48050589968750046	0.3616761878121837
-0.48044486453125046	0.3688297279827885
-0.48038382937500046	0.3758663393297532
-0.48032279421875046	0.38278334165611044
-0.48026175906250046	0.3895796037519418
-0.48020072390625046	0.39625172442737827
-0.48013968875000046	0.4027985515436604
-0.48007865359375046	0.4092173191511728
-0.48001761843750046	0.4155062727273715
-0.47995658328125046	0.4216635077014093
-0.47989554812500046	0.4276862753770915
-0.47983451296875046	0.4335736862184944
-0.47977347781250046	0.4393227898818253
-0.47971244265625046	0.4449325483850679
-0.47965140750000046	0.4504005547978329
-0.47959037234375046	0.4557250486036635
-0.47952933718750046	0.46090487256686724
-0.47946830203125046	0.46593760857148536
-0.47940726687500046	0.47082253798813556
-0.47934623171875046	0.47555720845404353
-0.47928519656250046	0.48014051339515856
-0.47922416140625046	0.48457066525383136
-0.47916312625000046	0.48884611198120176
-0.47910209109375046	0.49296608723115126
-0.47904105593750046	0.4969285843433312
-0.47898002078125046	0.5007328026804346
-0.47891898562500046	0.5043769292850334
-0.47885795046875046	0.507860270939563
-0.47879691531250046	0.5111815557342164
-0.47873588015625046	0.5143393626088775
-0.47867484500000046	0.5173330340832626
-0.47861380984375046	0.5201611474879363
-0.47855277468750046	0.5228232645522638
-0.47849173953125046	0.5253181320451932
-0.47843070437500046	0.5276451213847105
-0.47836966921875046	0.529803376034259
-0.47830863406250046	0.5317920078747473
-0.47824759890625046	0.5336105505485293
-0.47818656375000046	0.5352581408058515
-0.47812552859375046	0.536734508339913
-0.47806449343750046	0.538038827684396
-0.47800345828125046	0.5391708909046903
-0.47794242312500046	0.5401301492027727
-0.47788138796875046	0.5409162809903174
-0.47782035281250046	0.5415290817384938
-0.47775931765625046	0.5419681036607862
-0.47769828250000046	0.5422333824481281
-0.47763724734375046	0.5423245349165313
-0.47757621218750046	0.5422418762949178
-0.47751517703125046	0.5419850001918912
-0.47745414187500046	0.5415540012623292
-0.47739310671875046	0.540949139839459
-0.47733207156250046	0.5401703993812315
-0.47727103640625046	0.539218224740883
-0.47721000125000046	0.53809253463415
-0.47714896609375046	0.5367940114650857
-0.47708793093750046	0.5353226729268047
-0.47702689578125046	0.533679161756026
-0.47696586062500046	0.5318640295398409
-0.47690482546875046	0.5298775113894757
-0.47684379031250046	0.5277204434893772
-0.47678275515625046	0.5253930759376156
-0.47672172000000046	0.5228966827220736
-0.47666068484375046	0.5202317875725303
-0.47659964968750046	0.5173992639403786
-0.47653861453125046	0.514399875132581
-0.47647757937500046	0.5112343000598835
-0.47641654421875046	0.5079039961824288
-0.47635550906250046	0.5044095412049844
-0.47629447390625046	0.5007524345362953
-0.47623343875000046	0.4969333930757603
-0.47617240359375046	0.4929537001945197
-0.47611136843750046	0.4888148358760019
-0.47605033328125046	0.4845178524345528
-0.47598929812500046	0.4800643560697297
-0.47592826296875046	0.47545520232563027
-0.47586722781250046	0.4706923549688759
-0.47580619265625046	0.46577700891301227
-0.47574515750000046	0.46071082020623055
-0.47568412234375046	0.45549542801894094
-0.47562308718750046	0.45013216748590185
-0.47556205203125046	0.44462327812272157
-0.47550101687500046	0.43896984688889146
-0.47543998171875046	0.43317409784964006
-0.47537894656250046	0.42723764686748866
-0.47531791140625046	0.42116233225095656
-0.47525687625000046	0.41495009794218346
-0.47519584109375046	0.40860265353522374
-0.47513480593750046	0.4021228091645257
-0.47507377078125046	0.3955119657830457
-0.47501273562500046	0.3887724736703017
-0.47495170046875046	0.3819063158205639
-0.47489066531250046	0.37491561776399446
-0.47482963015625046	0.36780268299696733
-0.47476859500000046	0.3605693676244639
-0.47470755984375046	0.35321861228537654
-0.47464652468750046	0.34575224723271164
-0.47458548953125046	0.3381730301229073
-0.47452445437500046	0.33048315135626644
-0.47446341921875046	0.3226849313342933
-0.47440238406250046	0.3147812896279944
-0.47434134890625046	0.30677440703378345
-0.47428031375000046	0.2986670893831784
-0.47421927859375046	0.2904612834533178
-0.47415824343750046	0.2821601646648256
-0.47409720828125046	0.2737662804369841
-0.47403617312500046	0.2652820469482491
-0.47397513796875046	0.2567104587968399
-0.47391410281250046	0.24805393885645624
-0.47385306765625046	0.23931595284841592
-0.47379203250000046	0.23049887100786695
-0.47373099734375046	0.2216055418164585
-0.47366996218750046	0.21263835457378097
-0.47360892703125046	0.20360019346542277
-0.47354789187500046	0.19449465634221436
-0.47348685671875046	0.18532424385416038
-0.47342582156250046	0.1760922390253396
-0.47336478640625046	0.1668011422639067
-0.47330375125000046	0.1574541285048836
-0.47324271609375046	0.14805402813500115
-0.47318168093750046	0.1386039502061941
-0.47312064578125046	0.1291071839729856
-0.47305961062500046	0.11956617822227476
-0.47299857546875046	0.10998470749674302
-0.47293754031250046	0.10036537751836808
-0.47287650515625046	0.09071140200459372
-0.47281547000000046	0.08102592017549347
-0.47275443484375046	0.07131201788229694
-0.47269339968750046	0.06157302363726332
-0.47263236453125046	0.05181158687165953
-0.47257132937500046	0.042031239563253664
-0.47251029421875046	0.032234589063861625
-0.47244925906250046	0.022425570640598514
-0.47238822390625046	0.01260736461862979
-0.47232718875000046	0.002782629681539985
-0.47226615359375046	-0.007045412373387145
-0.47220511843750046	-0.016874085807366816
-0.47214408328125046	-0.026699166758993483
-0.47208304812500046	-0.03651785450193869
-0.47202201296875046	-0.04632692723604872
-0.47196097781250046	-0.05612350492215201
-0.47189994265625046	-0.06590449733220088
-0.47183890750000046	-0.07566619244435327
-0.47177787234375046	-0.08540630498784338
-0.47171683718750046	-0.09512092824254079
-0.47165580203125046	-0.10480700661725458
-0.47159476687500046	-0.11446126077571551
-0.47153373171875046	-0.12408093176613894
-0.47147269656250046	-0.13366299172229631
-0.47141166140625046	-0.14320376508395985
-0.47135062625000046	-0.1527010535466809
-0.47128959109375046	-0.16215105120313206
-0.47122855593750046	-0.17155109905158625
-0.47116752078125046	-0.18089782523847678
-0.47110648562500046	-0.19018800475644798
-0.47104545046875046	-0.1994189091280422
-0.47098441531250046	-0.2085872529121905
-0.47092338015625046	-0.2176909554555909
-0.47086234500000046	-0.22672619880188213
-0.47080130984375046	-0.235690412692641
-0.47074027468750046	-0.24458043799176826
-0.47067923953125046	-0.2533933945161319
-0.47061820437500046	-0.2621267445915463
-0.47055716921875046	-0.2707768325465923
-0.47049613406250046	-0.2793416708601124
-0.47043509890625046	-0.2878179935391692
-0.47037406375000046	-0.2962035635440057
-0.47031302859375046	-0.3044951457270354
