Time	Frequency
-0.5000553120625	-0.14000727611684527
-0.49999427690625	-0.12862979239175745
-0.49993324175	-0.11730816622443181
-0.49987220659375	-0.10589073472222625
-0.4998111714375	-0.09430048067830041
-0.49975013628125	-0.08265509561897459
-0.499689101125	-0.07109593145095383
-0.49962806596875	-0.059584598496681546
-0.4995670308125	-0.047969910248086486
-0.49950599565625	-0.03622102924081913
-0.4994449605	-0.024477713411217395
-0.49938392534375	-0.012846775534925095
-0.4993228901875	-0.0012515940051177515
-0.49926185503125	0.010443490107165537
-0.499200819875	0.02222407003135665
-0.49913978471875	0.03394376210525427
-0.4990787495625	0.04553743857677849
-0.49901771440625	0.0571086587690449
-0.49895667925	0.06876482577066288
-0.49889564409375	0.08045100705979333
-0.4988346089375	0.09202895127289772
-0.49877357378125	0.1034772920768476
-0.498712538625	0.11491275038755515
-0.49865150346875	0.12640639858017605
-0.4985904683125	0.13787305981424758
-0.49852943315625	0.14919549393073422
-0.498468398	0.16039254692100596
-0.49840736284375	0.17158032661623593
-0.4983463276875	0.18279006280837617
-0.49828529253125	0.19391766978931121
-0.498224257375	0.20487580375698047
-0.49816322221875	0.21571618455500588
-0.4981021870625	0.2265418393239716
-0.49804115190625	0.23734629102488497
-0.49798011675	0.24802033819673475
-0.49791908159375	0.2585108547989409
-0.4978580464375	0.26889136240982037
-0.49779701128125	0.27924260869524875
-0.497735976125	0.2895261584760741
-0.49767494096875	0.29963902158341565
-0.4976139058125	0.3095627966992513
-0.49755287065625	0.31938243161856356
-0.4974918355	0.3291506485037778
-0.49743080034375	0.33880459640547833
-0.4973697651875	0.34825693910743544
-0.49730873003125	0.35752044063900207
-0.497247694875	0.36668011693079966
-0.49718665971875	0.3757593802417892
-0.4971256245625	0.3846820026019786
-0.49706458940625	0.3933829857593431
-0.49700355425	0.4018990075402413
-0.49694251909375	0.4103051992818512
-0.4968814839375	0.41859759028198407
-0.49682044878125	0.4266969946718357
-0.496759413625	0.434563803918289
-0.49669837846875	0.4422501248648206
-0.4966373433125	0.4498146276170238
-0.49657630815625	0.45723089872276257
-0.496515273	0.46442508705476504
-0.49645423784375	0.47138247768236163
-0.4963932026875	0.47816278256098244
-0.49633216753125	0.48480487295088054
-0.496271132375	0.49126607541610884
-0.49621009721875	0.4974843910975676
-0.4961490620625	0.5034667255079983
-0.49608802690625	0.5092720769161313
-0.49602699175	0.5149190009992549
-0.49596595659375	0.5203566332422208
-0.4959049214375	0.5255391007203046
-0.49584388628125	0.5304893742990473
-0.495782851125	0.5352592038140107
-0.49572181596875	0.5398489135115748
-0.4956607808125	0.5442065549089957
-0.49559974565625	0.548303687533213
-0.4955387105	0.5521731386709811
-0.49547767534375	0.5558554842946213
-0.4954166401875	0.5593372387378953
-0.49535560503125	0.56257130647277
-0.495294569875	0.5655451616377865
-0.49523353471875	0.5682949526292324
-0.4951724995625	0.5708483770469202
-0.49511146440625	0.5731834795851458
-0.49505042925	0.5752620518560388
-0.49498939409375	0.5770845107271719
-0.4949283589375	0.5786854106860506
-0.49486732378125	0.5800800841268297
-0.494806288625	0.5812430000482951
-0.49474525346875	0.5821467164068995
-0.4946842183125	0.5828005830777638
-0.49462318315625	0.5832337019683842
-0.494562148	0.583451364000907
-0.49450111284375	0.5834294550588315
-0.4944400776875	0.5831512183403488
-0.49437904253125	0.5826300891264095
-0.494318007375	0.5818877250476051
-0.49425697221875	0.5809230113272845
-0.4941959370625	0.5797165928070154
-0.49413490190625	0.5782604224474172
-0.49407386675	0.5765680962261232
-0.49401283159375	0.5746541224961831
-0.4939517964375	0.5725149245316377
-0.49389076128125	0.5701373296112378
-0.493829726125	0.5675187471231999
-0.49376869096875	0.564669999281621
-0.4937076558125	0.5616002447329607
-0.49364662065625	0.5583071736768505
-0.4935855855	0.5547837248991464
-0.49352455034375	0.5510289822903824
-0.4934635151875	0.5470493920139682
-0.49340248003125	0.5428519495918264
-0.493341444875	0.5384385929610817
-0.49328040971875	0.5338063174477188
-0.4932193745625	0.5289520873617993
-0.49315833940625	0.5238785581201589
-0.49309730425	0.5185943153082511
-0.49303626909375	0.5131061881604522
-0.4929752339375	0.5074119455266033
-0.49291419878125	0.5015046994236576
-0.492853163625	0.49538579354024465
-0.49279212846875	0.4890681770231031
-0.4927310933125	0.48256232036131264
-0.49267005815625	0.4758631349774244
-0.492609023	0.46895928279972626
-0.49254798784375	0.46185434303757944
-0.4924869526875	0.4545679475769493
-0.49242591753125	0.44711165091949256
-0.492364882375	0.43947406187391463
-0.49230384721875	0.43164030689319915
-0.4922428120625	0.42361982397516473
-0.49218177690625	0.4154395493403348
-0.49212074175	0.4071086695706952
-0.49205970659375	0.3986073017745793
-0.4919986714375	0.3899200476691405
-0.49193763628125	0.3810661584108966
-0.491876601125	0.3720780136881171
-0.49181556596875	0.3629568068765746
-0.4917545308125	0.3536733950416982
-0.49169349565625	0.3442172142578492
-0.4916324605	0.33462044321382517
-0.49157142534375	0.32491722748976426
-0.4915103901875	0.31509657681421643
-0.49144935503125	0.3051222426088014
-0.491388319875	0.2949935171921629
-0.49132728471875	0.28475500008739296
-0.4912662495625	0.27443652632161775
-0.49120521440625	0.2640119726937336
-0.49114417925	0.2534426142743445
-0.49108314409375	0.2427434393751709
-0.4910221089375	0.23197035735033408
-0.49096107378125	0.22114264514251264
-0.490900038625	0.21021720233137434
-0.49083900346875	0.19915815718817526
-0.4907779683125	0.18799975026096322
-0.49071693315625	0.17680450936693307
-0.490655898	0.16557518497334503
-0.49059486284375	0.1542540157014171
-0.4905338276875	0.14281565743535063
-0.49047279253125	0.13131553761867287
-0.490411757375	0.11981593443158672
-0.49035072221875	0.10829710187309788
-0.4902896870625	0.09669048674985518
-0.49022865190625	0.08498925565765016
-0.49016761675	0.07326923137441146
-0.49010658159375	0.06158347649102334
-0.4900455464375	0.049886841442126725
-0.48998451128125	0.03810810135400115
-0.489923476125	0.02626584491756026
-0.48986244096875	0.014451680960511734
-0.4898014058125	0.0026998827767963566
-0.48974037065625	-0.009060882692998852
-0.4896793355	-0.020895298862863922
-0.48961830034375	-0.03275427038245653
-0.4895572651875	-0.04453778104198966
-0.48949623003125	-0.05623861149524785
-0.489435194875	-0.06795001154548111
-0.48937415971875	-0.07971966475902503
-0.4893131245625	-0.09146734621763272
-0.48925208940625	-0.10309513075267615
-0.48919105425	-0.11462935521768812
-0.48913001909375	-0.12617836953447195
-0.4890689839375	-0.13776283210765788
-0.48900794878125	-0.14927301983609345
-0.488946913625	-0.16062412941941712
-0.48888587846875	-0.17187982094121917
-0.4888248433125	-0.1831534731277281
-0.48876380815625	-0.19442980914058705
-0.488702773	-0.20557650209393175
-0.48864173784375	-0.21653467222214962
-0.4885807026875	-0.22740427923449633
-0.48851966753125	-0.23829065130302102
-0.488458632375	-0.24913750583590094
-0.48839759721875	-0.25980040157221085
-0.4883365620625	-0.2702566491322695
-0.48827552690625	-0.28063678746043724
-0.48821449175	-0.29102455328016236
-0.48815345659375	-0.3013219786733041
-0.4880924214375	-0.3113862137177461
-0.48803138628125	-0.3212384851736469
-0.487970351125	-0.33103017004959767
-0.48790931596875	-0.3408106641190715
-0.4878482808125	-0.3504437995195145
-0.48778724565625	-0.3598033069997661
-0.4877262105	-0.36895805631473494
-0.48766517534375	-0.37806647682909095
-0.4876041401875	-0.38713348243944856
-0.48754310503125	-0.39599440105875816
-0.487482069875	-0.4045543612762005
-0.48742103471875	-0.4129266112487307
-0.4873599995625	-0.42126000987923123
-0.48729896440625	-0.4295105878872215
-0.48723792925	-0.437499900764044
-0.48717689409375	-0.4451763838000947
-0.4871158589375	-0.45268924458503296
-0.48705482378125	-0.4601616413745089
-0.486993788625	-0.46750095558334714
-0.48693275346875	-0.474531351511356
-0.4868717183125	-0.4812520260575649
-0.48681068315625	-0.4878347461003579
-0.486749648	-0.494363411866125
-0.48668861284375	-0.5007045937667719
-0.4866275776875	-0.5067026248469233
-0.48656654253125	-0.5124078707625286
-0.486505507375	-0.517997272866936
-0.48644447221875	-0.5235064794581661
-0.4863834370625	-0.5287739895574631
-0.48632240190625	-0.5336794957945944
-0.48626136675	-0.5383192760244446
-0.48620033159375	-0.5428578637325646
-0.4861392964375	-0.547279823579522
-0.48607826128125	-0.5514120786026373
-0.486017226125	-0.5551802419592894
-0.48595619096875	-0.5587149032328224
-0.4858951558125	-0.5621522849714009
-0.48583412065625	-0.565429858296415
-0.4857730855	-0.5683803168996403
-0.48571205034375	-0.5709794041733871
-0.4856510151875	-0.5733771511335555
-0.48558998003125	-0.5756703723694345
-0.485528944875	-0.5777589077735183
-0.48546790971875	-0.5794968390155845
-0.4854068745625	-0.580908175071648
-0.48534583940625	-0.5821460580414639
-0.48528480425	-0.5832619209330814
-0.48522376909375	-0.5841310920160259
-0.4851627339375	-0.5846411279886338
-0.48510169878125	-0.5848572587003468
-0.485040663625	-0.5849205014562326
-0.48497962846875	-0.584836512208831
-0.4849185933125	-0.5844710464198687
-0.48485755815625	-0.5837528784271129
-0.484796523	-0.5827774110172639
-0.48473548784375	-0.5816604999916318
-0.4846744526875	-0.5803666980521675
-0.48461341753125	-0.5787671382683287
-0.484552382375	-0.5768341283615245
-0.48449134721875	-0.5746797495224796
-0.4844303120625	-0.5723862349926007
-0.48436927690625	-0.5698863440992524
-0.48430824175	-0.5670693299705996
-0.48424720659375	-0.5639478887192322
-0.4841861714375	-0.5606367491261461
-0.48412513628125	-0.5571809848535012
-0.484064101125	-0.5534934122654084
-0.48400306596875	-0.5494902658343274
-0.4839420308125	-0.5452175376115297
-0.48388099565625	-0.5407807947471694
-0.4838199605	-0.5361889389865631
-0.48375892534375	-0.5313467231721184
-0.4836978901875	-0.5262023175634498
-0.48363685503125	-0.5208257376572706
-0.483575819875	-0.5153039591573182
-0.48351478471875	-0.5096143457194845
-0.4834537495625	-0.5036650525210615
-0.48339271440625	-0.49743704174249964
-0.48333167925	-0.4910134342111272
-0.48327064409375	-0.48445644074173505
-0.4832096089375	-0.47771970566467387
-0.48314857378125	-0.47072473597386594
-0.483087538625	-0.46348225447741526
-0.48302650346875	-0.45607717828241934
-0.4829654683125	-0.44854461860167527
-0.48290443315625	-0.4408241730010046
-0.482843398	-0.4328571455157771
-0.48278236284375	-0.4246778910322916
-0.4827213276875	-0.4163643813592073
-0.48266029253125	-0.40792630639311556
-0.482599257375	-0.3992983575116182
-0.48253822221875	-0.3904445581152145
-0.4824771870625	-0.38141540718594763
-0.48241615190625	-0.3722751611230855
-0.48235511675	-0.3630118220436203
-0.48229408159375	-0.3535634065102493
-0.4822330464375	-0.3439167528899896
-0.48217201128125	-0.33413046523730267
-0.482110976125	-0.3242515484191892
-0.48204994096875	-0.31425270773887154
-0.4819889058125	-0.30408168139490366
-0.48192787065625	-0.2937452039383628
-0.4818668355	-0.28330247233911504
-0.48180580034375	-0.2727818832429881
-0.4817447651875	-0.26214705946488487
-0.48168373003125	-0.251359505528072
-0.481622694875	-0.24044112204797874
-0.48156165971875	-0.22944548071565934
-0.4815006245625	-0.21838498958651734
-0.48143958940625	-0.2072220241553474
-0.48137855425	-0.19593280263976334
-0.48131751909375	-0.18454734244790919
-0.4812564839375	-0.17310934833897335
-0.48119544878125	-0.16161886857270472
-0.481134413625	-0.15004170692322855
-0.48107337846875	-0.13836800091222035
-0.4810123433125	-0.1266318854034333
-0.48095130815625	-0.11486605423490096
-0.480890273	-0.10306170885086066
-0.48082923784375	-0.09119133226222516
-0.4807682026875	-0.07925624962990928
-0.48070716753125	-0.06728908228490836
-0.480646132375	-0.05531183844143175
-0.48058509721875	-0.04331288958090876
-0.4805240620625	-0.031273585857023514
-0.48046302690625	-0.019202069333168044
-0.48040199175	-0.007125799578661737
-0.48034095659375	0.004942036614009219
-0.4802799214375	0.017012188609777264
-0.48021888628125	0.029094673088304678
-0.480157851125	0.04117826980127502
-0.48009681596875	0.053241835097623404
-0.4800357808125	0.06527752680592622
-0.47997474565625	0.07729264998031457
-0.4799137105	0.08929109450510753
-0.47985267534375	0.10126249407058407
-0.4797916401875	0.11319172124706976
-0.47973060503125	0.12507243806730398
-0.479669569875	0.13690704570866433
-0.47960853471875	0.14869637673445735
-0.4795474995625	0.16043348564858756
-0.47948646440625	0.17210706456602082
-0.47942542925	0.1837088093021829
-0.47936439409375	0.1952372918663509
-0.4793033589375	0.20669462898547242
-0.47924232378125	0.2180784152291398
-0.479181288625	0.22937774958046406
-0.47912025346875	0.24058010100994534
-0.4790592183125	0.25168222057121137
-0.47899818315625	0.26268976451965376
-0.478937148	0.2736034649830372
-0.47887611284375	0.28441012743686056
-0.4788150776875	0.2950935530424193
-0.47875404253125	0.30565241034568513
-0.478693007375	0.31609795620421377
-0.47863197221875	0.32643127468806055
-0.4785709370625	0.33663292741499373
-0.47850990190625	0.3466838646437588
-0.47844886675	0.35658901181545605
-0.47838783159375	0.366366134340006
-0.4783267964375	0.3760129062527271
-0.47826576128125	0.3855016127966696
-0.478204726125	0.39481328027097107
-0.47814369096875	0.4039621353703937
-0.4780826558125	0.4129707106788853
-0.47802162065625	0.4218292837595255
-0.4779605855	0.4305021288949861
-0.47789955034375	0.4389755699426709
-0.4778385151875	0.4472758158763621
-0.47777748003125	0.4554255992363862
-0.477716444875	0.46340266775872274
-0.47765540971875	0.4711654951417395
-0.4775943745625	0.4787113046323471
-0.47753333940625	0.4860782678872149
-0.47747230425	0.4932841219899876
-0.47741126909375	0.500292182138515
-0.4773502339375	0.5070599060650914
-0.47728919878125	0.5136002459886779
-0.477228163625	0.5199609360882583
-0.47716712846875	0.5261481534722063
-0.4771060933125	0.5321097520278463
-0.47704505815625	0.5378083663351595
-0.476984023	0.5432764288185064
-0.47692298784375	0.5485664081511823
-0.4768619526875	0.5536671460182048
-0.47680091753125	0.5585138554759961
-0.476739882375	0.5630818614044423
-0.47667884721875	0.5674240026308115
-0.4766178120625	0.5715903495143093
-0.47655677690625	0.57554750974568
-0.47649574175	0.5792226465060807
-0.47643470659375	0.5826113345217919
-0.4763736714375	0.5857857196870209
-0.47631263628125	0.5887848346898938
-0.476251601125	0.5915503946599746
-0.47619056596875	0.5940096341408029
-0.4761295308125	0.5961849289413195
-0.47606849565625	0.5981624787524302
-0.4760074605	0.5999611334887754
-0.47594642534375	0.6014985369718158
-0.4758853901875	0.6027116988144037
-0.47582435503125	0.6036538141110337
-0.475763319875	0.6044170485564027
-0.47570228471875	0.6049919007736875
-0.4756412495625	0.6052764576597066
-0.47558021440625	0.6052281722971374
-0.47551917925	0.604931543357729
-0.47545814409375	0.6044740425066116
-0.4753971089375	0.6038121360400727
-0.47533607378125	0.6028324461229905
-0.475275038625	0.6015227878865905
-0.47521400346875	0.5999956902141846
-0.4751529683125	0.5983220214515295
-0.47509193315625	0.596421535918205
-0.475030898	0.5941803389470456
-0.47496986284375	0.591624774751593
-0.4749088276875	0.5888880088928111
-0.47484779253125	0.5860122828437394
-0.474786757375	0.58288261480487
-0.47472572221875	0.5793979962990974
-0.4746646870625	0.5756276722237862
-0.47460365190625	0.571713838519529
-0.47454261675	0.5676599548399389
-0.47448158159375	0.563323012430987
-0.4744205464375	0.5586285672319343
-0.47435951128125	0.5536887277101745
-0.474298476125	0.5486405584780718
-0.47423744096875	0.5434418354055297
-0.4741764058125	0.5379328728620806
-0.47411537065625	0.5320783066456808
-0.4740543355	0.5260274421275069
-0.47399330034375	0.5198966321902188
-0.4739322651875	0.5135959132373085
-0.47387123003125	0.506963758362118
-0.473810194875	0.5000134595861131
-0.47374915971875	0.49292098203092377
-0.4736881245625	0.4857671785741733
-0.47362708940625	0.4784184765433159
-0.47356605425	0.4707283888773423
-0.47350501909375	0.46276201238722525
-0.4734439839375	0.45470613144027555
-0.47338294878125	0.44659515399675337
-0.473321913625	0.43826225021983367
-0.47326087846875	0.4295923588221516
-0.4731998433125	0.4207005783746212
-0.47313880815625	0.4117671524519218
-0.473077773	0.4027734672293297
-0.47301673784375	0.3935340936939189
-0.4729557026875	0.3839786661282931
-0.47289466753125	0.37426285247379315
-0.472833632375	0.36454211625776095
-0.47277259721875	0.3547457564035533
-0.4727115620625	0.3446885238230374
-0.47265052690625	0.3343531478222395
-0.47258949175	0.32392171997570374
-0.47252845659375	0.3135096702307217
-0.4724674214375	0.30300062004001244
-0.47240638628125	0.2922276823919753
-0.472345351125	0.2812284648478985
-0.47228431596875	0.2701936203196521
-0.4722232808125	0.2591886964944648
-0.47216224565625	0.24806540751020462
-0.4721012105	0.2366914031163386
-0.47204017534375	0.22515276171023485
-0.4719791401875	0.21362959763856623
-0.47191810503125	0.20213475547361084
-0.471857069875	0.1905051374612953
-0.47179603471875	0.17865375022546165
-0.4717349995625	0.16670382088957095
-0.47167396440625	0.15480891432468363
-0.47161292925	0.14293239446620054
-0.47155189409375	0.13091350921936257
-0.4714908589375	0.11871552907259565
-0.47142982378125	0.10648429085559494
-0.471368788625	0.09433529286196371
-0.47130775346875	0.082191244658834
-0.4712467183125	0.06990888511053238
-0.47118568315625	0.05749998911108922
-0.471124648	0.045117068563287684
-0.47106361284375	0.0328311540897417
-0.4710025776875	0.020536861753555447
-0.47094154253125	0.008121716908405706
-0.470880507375	-0.004359577155519886
-0.47081947221875	-0.016764147815465945
-0.4707584370625	-0.029067762767358077
-0.47069740190625	-0.04138911029786402
-0.47063636675	-0.05380171674999604
-0.47057533159375	-0.06621909282155262
-0.4705142964375	-0.07852062150406065
-0.47045326128125	-0.09072349957052701
-0.470392226125	-0.10294488846257177
-0.47033119096875	-0.1152175417154422
-0.4702701558125	-0.12743663597687688
-0.47020912065625	-0.13951220862553576
-0.4701480855	-0.15149447465646743
-0.47008705034375	-0.16348707531637202
-0.4700260151875	-0.17548398519974573
-0.46996498003125	-0.18737477910691067
-0.469903944875	-0.19910493395009415
-0.46984290971875	-0.21074768903634766
-0.4697818745625	-0.22238361006508092
-0.46972083940625	-0.23397326256897477
-0.46965980425	-0.24541236529356356
-0.46959876909375	-0.2566815975198819
-0.4695377339375	-0.267865371748161
-0.46947669878125	-0.2790161031047259
-0.469415663625	-0.29007081821853736
-0.46935462846875	-0.3009416182535834
-0.4692935933125	-0.31163975712216496
-0.46923255815625	-0.32224869205391327
-0.469171523	-0.3327913871136866
-0.46911048784375	-0.3431919679101772
-0.4690494526875	-0.35338496917746487
-0.46898841753125	-0.36340526492784
-0.468927382375	-0.37332649899162273
-0.46886634721875	-0.38314456868813473
-0.4688053120625	-0.3927803218295683
-0.46874427690625	-0.40219310825859167
-0.46868324175	-0.4114335167593828
-0.46862220659375	-0.42055949667779874
-0.4685611714375	-0.4295447506210671
-0.46850013628125	-0.4383152048339131
-0.468439101125	-0.4468545560664459
-0.46837806596875	-0.45522024563835123
-0.4683170308125	-0.46345041819073185
-0.46825599565625	-0.4715036266226013
-0.4681949605	-0.47931814807231066
-0.46813392534375	-0.48689842267297323
-0.4680728901875	-0.4943007848841773
-0.46801185503125	-0.5015438824723099
-0.467950819875	-0.5085784364094611
-0.46788978471875	-0.5153580370928456
-0.4678287495625	-0.5219024526086198
-0.46776771440625	-0.5282611463109076
-0.46770667925	-0.5344356227265646
-0.46764564409375	-0.5403760410444081
-0.4675846089375	-0.5460526556404212
-0.46752357378125	-0.5514940543239798
-0.467462538625	-0.5567388304908347
-0.46740150346875	-0.5617758001523173
-0.4673404683125	-0.5665599731769447
-0.46727943315625	-0.5710765372837274
-0.467218398	-0.5753572549782029
-0.46715736284375	-0.5794286956931368
-0.4670963276875	-0.5832717654210694
