Time	Frequency
-0.5000419626874972	0.5626160277733507
-0.49998092753124723	0.5651656376009137
-0.49991989237499723	0.5675390338525362
-0.49985885721874723	0.5696735086191717
-0.49979782206249723	0.5715515450643474
-0.49973678690624723	0.5732380334905708
-0.49967575174999723	0.5747264921082701
-0.49961471659374723	0.575954498369473
-0.49955368143749723	0.5769479228287419
-0.49949264628124723	0.5777575687183618
-0.49943161112499723	0.5783403651047021
-0.49937057596874723	0.5786607307782912
-0.49930954081249723	0.5787718482797725
-0.49924850565624723	0.5786900294405513
-0.49918747049999723	0.5783580380224865
-0.49912643534374723	0.5777792930904395
-0.49906540018749723	0.5770084620487794
-0.49900436503124723	0.5760244136113611
-0.49894332987499723	0.57478186849987
-0.49888229471874723	0.5733173490832437
-0.49882125956249723	0.5716636528227095
-0.49876022440624723	0.5697756723286399
-0.49869918924999723	0.5676380876548123
-0.49863815409374723	0.5653013499300898
-0.49857711893749723	0.5627653550423994
-0.49851608378124723	0.5599834034646681
-0.49845504862499723	0.5569734945250664
-0.49839401346874723	0.5537773249451244
-0.49833297831249723	0.550366216009361
-0.49827194315624723	0.5467121202625395
-0.49821090799999723	0.5428550438124922
-0.49814987284374723	0.5388120813564535
-0.49808883768749723	0.5345424857226708
-0.49802780253124723	0.5300470099412873
-0.49796676737499723	0.5253685197212337
-0.49790573221874723	0.520495921285706
-0.49784469706249723	0.5153956083617615
-0.49778366190624723	0.5100938305436101
-0.49772262674999723	0.5046189409762496
-0.49766159159374723	0.49894094179129356
-0.49760055643749723	0.49304731534551827
-0.49753952128124723	0.48697623370993187
-0.49747848612499723	0.48073235542417914
-0.49741745096874723	0.47428280540192314
-0.49735641581249723	0.46763960643246133
-0.49729538065624723	0.46083610288643206
-0.49723434549999723	0.45385557080384487
-0.49717331034374723	0.44667771628901426
-0.49711227518749723	0.4393317197866455
-0.49705124003124723	0.43183369744621025
-0.49699020487499723	0.42415665636544747
-0.49692916971874723	0.4163008843997654
-0.49686813456249723	0.40829924651236277
-0.49680709940624723	0.4001474848720549
-0.49674606424999723	0.3918225679307279
-0.49668502909374723	0.38334372242612136
-0.49662399393749723	0.37473408874098335
-0.49656295878124723	0.36597487878550955
-0.49650192362499723	0.3570580054766677
-0.49644088846874723	0.3480123479878431
-0.49637985331249723	0.33884390391827435
-0.49631881815624723	0.32953091042558746
-0.49625778299999723	0.3200832530952415
-0.49619674784374723	0.3105268482883107
-0.49613571268749723	0.3008518733021158
-0.49607467753124723	0.29104555403362303
-0.49601364237499723	0.2811305448621253
-0.49595260721874723	0.27112005749085183
-0.49589157206249723	0.26099655605810773
-0.49583053690624723	0.2507625334159768
-0.49576950174999723	0.2404434034675164
-0.49570846659374723	0.23003728817461078
-0.49564743143749723	0.21952958300923642
-0.49558639628124723	0.20893661312530676
-0.49552536112499723	0.19827639005176603
-0.49546432596874723	0.18753647319930766
-0.49540329081249723	0.17671353231375211
-0.49534225565624723	0.16583052693630837
-0.49528122049999723	0.15489241911869572
-0.49522018534374723	0.14388530761650198
-0.49515915018749723	0.13281943827943424
-0.49509811503124723	0.12171463015216352
-0.49503707987499723	0.11056390829762583
-0.49497604471874723	0.0993606729588886
-0.49491500956249723	0.08812429301772819
-0.49485397440624723	0.07686461355112102
-0.49479293924999723	0.06556979507606557
-0.49473190409374723	0.05424500885723653
-0.49467086893749723	0.042910160596432906
-0.49460983378124723	0.031563263542514854
-0.49454879862499723	0.020196069373473808
-0.49448776346874723	0.008823894135686822
-0.49442672831249723	-0.002540314097859188
-0.49436569315624723	-0.013905371149521248
-0.49430465799999723	-0.025269810445622508
-0.49424362284374723	-0.03661513428404923
-0.49418258768749723	-0.04793945626737902
-0.49412155253124723	-0.05925122643824483
-0.49406051737499723	-0.07053854223775083
-0.49399948221874723	-0.08178689824844447
-0.49393844706249723	-0.0930027086826321
-0.49387741190624723	-0.10418710075656128
-0.49381637674999723	-0.11532287442800063
-0.49375534159374723	-0.12640526083151138
-0.49369430643749723	-0.13744274942082524
-0.49363327128124723	-0.14842625283162647
-0.49357223612499723	-0.15934031137186816
-0.49351120096874723	-0.17018943547562074
-0.49345016581249723	-0.18097682915203134
-0.49338913065624723	-0.1916865577385816
-0.49332809549999723	-0.20231167869470892
-0.49326706034374723	-0.21286081931251252
-0.49320602518749723	-0.2233272888373182
-0.49314499003124723	-0.2336947781644685
-0.49308395487499723	-0.24396638432258536
-0.49302291971874723	-0.25414743407477675
-0.49296188456249723	-0.26422281529741937
-0.49290084940624723	-0.2741833205303645
-0.49283981424999723	-0.2840383982881821
-0.49277877909374723	-0.2937842145897279
-0.49271774393749723	-0.30340312481936105
-0.49265670878124723	-0.3128966209259578
-0.49259567362499723	-0.3222728735283606
-0.49253463846874723	-0.3315177570649902
-0.49247360331249723	-0.3406191642714165
-0.49241256815624723	-0.34958755304045447
-0.49235153299999723	-0.35842274915471933
-0.49229049784374723	-0.3671052702988699
-0.49222946268749723	-0.37563419391308067
-0.49216842753124723	-0.38402180572933964
-0.49210739237499723	-0.39225604195667874
-0.49204635721874723	-0.4003203697286201
-0.49198532206249723	-0.40822564677884626
-0.49192428690624723	-0.41597723406737713
-0.49186325174999723	-0.4235539894573392
-0.49180221659374723	-0.4309506824128349
-0.49174118143749723	-0.43818408832075206
-0.49168014628124723	-0.4452461623665175
-0.49161911112499723	-0.4521152599779135
-0.49155807596874723	-0.4588011713529896
-0.49149704081249723	-0.46531632546910184
-0.49143600565624723	-0.4716390557908994
-0.49137497049999723	-0.4777577681341322
-0.49131393534374723	-0.48369337359740017
-0.49125290018749723	-0.4894443332855025
-0.49119186503124723	-0.4949833322897315
-0.49113082987499723	-0.5003166003216373
-0.49106979471874723	-0.5054653632140984
-0.49100875956249723	-0.5104097964744035
-0.49094772440624723	-0.5151295069339877
-0.49088668924999723	-0.5196481367105712
-0.49082565409374723	-0.5239739117548339
-0.49076461893749723	-0.5280741520307689
-0.49070358378124723	-0.5319477954702997
-0.49064254862499723	-0.5356258778344029
-0.49058151346874723	-0.5390943337582416
-0.49052047831249723	-0.5423216337215012
-0.49045944315624723	-0.5453306613851072
-0.49039840799999723	-0.5481433203158087
-0.49033737284374723	-0.5507243403419183
-0.49027633768749723	-0.5530603595020378
-0.49021530253124723	-0.5551909796191372
-0.49015426737499723	-0.5571136493476824
-0.49009323221874723	-0.5587850366350684
-0.49003219706249723	-0.560221447000496
-0.48997116190624723	-0.5614612178147418
-0.48991012674999723	-0.5624717602996029
-0.48984909159374723	-0.5632227563844491
-0.48978805643749723	-0.563758421660175
-0.48972702128124723	-0.564094201882178
-0.48966598612499723	-0.564177150568365
-0.48960495096874723	-0.5640092214953463
-0.48954391581249723	-0.563645378522867
-0.48948288065624723	-0.5630641610855684
-0.48942184549999723	-0.5622153632061658
-0.48936081034374723	-0.5611395659760209
-0.48929977518749723	-0.5598759908468409
-0.48923874003124723	-0.5583691792631543
-0.48917770487499723	-0.556598361564789
-0.48911666971874723	-0.5546301498130372
-0.48905563456249723	-0.5524646971950177
-0.48899459940624723	-0.5500339990539043
-0.48893356424999723	-0.5473632054366122
-0.48887252909374723	-0.5445167562031367
-0.48881149393749723	-0.5414488108824731
-0.48875045878124723	-0.5381104781011601
-0.48868942362499723	-0.5345686116997974
-0.48862838846874723	-0.5308542520172025
-0.48856735331249723	-0.5268910523676005
-0.48850631815624723	-0.5226760647310953
-0.48844528299999723	-0.5182924424169368
-0.48838424784374723	-0.5137190156100567
-0.48832321268749723	-0.5088814459093113
-0.48826217753124723	-0.5038305045158369
-0.48820114237499723	-0.4986298007863661
-0.48814010721874723	-0.4932108929495604
-0.48807907206249723	-0.4875362776989943
-0.48801803690624723	-0.4816928832000723
-0.48795700174999723	-0.4756952528460755
-0.48789596659374723	-0.4694558271074442
-0.48783493143749723	-0.4629941455976487
-0.48777389628124723	-0.4563977883555469
-0.48771286112499723	-0.4496242239367973
-0.48765182596874723	-0.44260544595650514
-0.48759079081249723	-0.4354125003969454
-0.48752975565624723	-0.42809640801042853
-0.48746872049999723	-0.420576052948014
-0.48740768534374723	-0.4128339609013267
-0.48734665018749723	-0.40496346127176697
-0.48728561503124723	-0.39695829954967615
-0.48722457987499723	-0.388735065734861
-0.48716354471874723	-0.38033449088784893
-0.48710250956249723	-0.37183307196056936
-0.48704147440624723	-0.3631731687111272
-0.48698043924999723	-0.3543061335485733
-0.48691940409374723	-0.3453126228257188
-0.48685836893749723	-0.3362220376123357
-0.48679733378124723	-0.32695378572807154
-0.48673629862499723	-0.31751377002229564
-0.48667526346874723	-0.3079870639880836
-0.48661422831249723	-0.2983482969814095
-0.48655319315624723	-0.28853170143857637
-0.48649215799999723	-0.2785928486368432
-0.48643112284374723	-0.26858641481509343
-0.48637008768749723	-0.2584490604810585
-0.48630905253124723	-0.24815754503486606
-0.48624801737499723	-0.23779031432246242
-0.48618698221874723	-0.22735323128871582
-0.48612594706249723	-0.21677771675980867
-0.48606491190624723	-0.20609066140794163
-0.48600387674999723	-0.19535935401442786
-0.48594284159374723	-0.18454487597392324
-0.48588180643749723	-0.17360470808718395
-0.48582077128124723	-0.16260068631097396
-0.48575973612499723	-0.15156330424890183
-0.48569870096874723	-0.14043244175930272
-0.48563766581249723	-0.1292088876478604
-0.48557663065624723	-0.11796100665102556
-0.48551559549999723	-0.10667543027578798
-0.48545456034374723	-0.09530064638349571
-0.48539352518749723	-0.08387711032591931
-0.48533249003124723	-0.07245143871608441
-0.48527145487499723	-0.060979306224606025
-0.48521041971874723	-0.049441081568141754
-0.48514938456249723	-0.03789694361311618
-0.48508834940624723	-0.026356298097160436
-0.48502731424999723	-0.014768152104007575
-0.48496627909374723	-0.0031510694622491524
-0.48490524393749723	0.008440881971458142
-0.48484420878124723	0.020032919406320134
-0.48478317362499723	0.0316584170861304
-0.48472213846874723	0.04327134481444894
-0.48466110331249723	0.05484415465060873
-0.48460006815624723	0.06641985100017488
-0.48453903299999723	0.07800002947293375
-0.48447799784374723	0.08953186394212391
-0.48441696268749723	0.1010206317616191
-0.48435592753124723	0.1125048776830498
-0.48429489237499723	0.12395608490491723
-0.48423385721874723	0.13533603443408576
-0.48417282206249723	0.14667445969323384
-0.48411178690624723	0.1579878352432458
-0.48405075174999723	0.16923151604278625
-0.48398971659374723	0.18039398554640523
-0.48392868143749723	0.19151171217543217
-0.48386764628124723	0.20257330925259007
-0.48380661112499723	0.21353708810493227
-0.48374557596874723	0.22441777328119758
-0.48368454081249723	0.23524064532461025
-0.48362350565624723	0.2459729983620839
-0.48356247049999723	0.2565911399072501
-0.48350143534374723	0.2671242795476782
-0.48344040018749723	0.2775756081847723
-0.48337936503124723	0.2879063558369158
-0.48331832987499723	0.298116890988343
-0.48325729471874723	0.3082348806273854
-0.48319625956249723	0.3182411226990757
-0.48313522440624723	0.3281057842032078
-0.48307418924999723	0.3378478955849709
-0.48301315409374723	0.3474806635054144
-0.48295211893749723	0.3569724133443356
-0.48289108378124723	0.36631215919843724
-0.48283004862499723	0.37552509151809227
-0.48276901346874723	0.3846044062870833
-0.48270797831249723	0.39351958592931446
-0.48264694315624723	0.40227916790555573
-0.48258590799999723	0.4109012664149455
-0.48252487284374723	0.4193630615722186
-0.48246383768749723	0.4276466518915025
-0.48240280253124723	0.43577223786098945
-0.48234176737499723	0.4437424560199309
-0.48228073221874723	0.4515293442681958
-0.48221969706249723	0.4591323583708132
-0.48215866190624723	0.46657103175855846
-0.48209762674999723	0.4738318914865273
-0.48203659159374723	0.4808939143526977
-0.48197555643749723	0.48777060497367003
-0.48191452128124723	0.4944707550868208
-0.48185348612499723	0.5009715791338311
-0.48179245096874723	0.5072660211300511
-0.48173141581249723	0.5133723108638211
-0.48167038065624723	0.5192848876366812
-0.48160934549999723	0.5249821951496062
-0.48154831034374723	0.5304714410063341
-0.48148727518749723	0.5357654148506672
-0.48142624003124723	0.5408473437919765
-0.48136520487499723	0.5457056902286149
-0.48130416971874723	0.5503558057505372
-0.48124313456249723	0.5547986267450065
-0.48118209940624723	0.5590144049164316
-0.48112106424999723	0.5630048476215189
-0.48106002909374723	0.5667842129717207
-0.48099899393749723	0.5703417882031228
-0.48093795878124723	0.5736639207523568
-0.48087692362499723	0.5767623238642061
-0.48081588846874723	0.5796425404226928
-0.48075485331249723	0.5822880778611197
-0.48069381815624723	0.5846966966423811
-0.48063278299999723	0.5868824451065011
-0.48057174784374723	0.5888398092177485
-0.48051071268749723	0.5905549311917375
-0.48044967753124723	0.5920361502809174
-0.48038864237499723	0.5932918474549519
-0.48032760721874723	0.5943091450338415
-0.48026657206249723	0.5950833523381629
-0.48020553690624723	0.5956275357010067
-0.48014450174999723	0.595940240337904
-0.48008346659374723	0.5960084640020925
-0.48002243143749723	0.595838088167479
-0.47996139628124723	0.595439240413313
-0.47990036112499723	0.5948020492992752
-0.47983932596874723	0.5939204859748789
-0.47977829081249723	0.5928070196649041
-0.47971725565624723	0.5914633038793904
-0.47965622049999723	0.5898770874225755
-0.47959518534374723	0.588052512902945
-0.47953415018749723	0.5860013148463998
-0.47947311503124723	0.5837161309782067
-0.47941207987499723	0.5811898575132309
-0.47935104471874723	0.5784347099121893
-0.47929000956249723	0.5754551777155703
-0.47922897440624723	0.572239503284123
-0.47916793924999723	0.5687903522025518
-0.47910690409374723	0.5651213054304869
-0.47904586893749723	0.5612272080507518
-0.47898483378124723	0.5570995709114566
-0.47892379862499723	0.5527506928221326
-0.47886276346874723	0.5481882063418897
-0.47880172831249723	0.543400315599253
-0.47874069315624723	0.5383878645345511
-0.47867965799999723	0.5331670218205562
-0.47861862284374723	0.5277351128857908
-0.47855758768749723	0.5220811629796146
-0.47849655253124723	0.5162173100645729
-0.47843551737499723	0.5101556632039589
-0.47837448221874723	0.5038843436059172
-0.47831344706249723	0.497400856490543
-0.47825241190624723	0.4907244021831321
-0.47819137674999723	0.4838561966675742
-0.47813034159374723	0.4767817588159051
-0.47806930643749723	0.46951171718641654
-0.47800827128124723	0.4620639405040178
-0.47794723612499723	0.4544274456094964
-0.47788620096874723	0.4465946711586833
-0.47782516581249723	0.43858714622588296
-0.47776413065624723	0.4304119748578533
-0.47770309549999723	0.42205128747647846
-0.47764206034374723	0.41351207333525153
-0.47758102518749723	0.4048185869893619
-0.47751999003124723	0.39596248078805224
-0.47745895487499723	0.3869293955272098
-0.47739791971874723	0.37774180204457614
-0.47733688456249723	0.36841502000038795
-0.47727584940624723	0.3589282739891801
-0.47721481424999723	0.3492820276290025
-0.47715377909374723	0.33950737259762387
-0.47709274393749723	0.32960152416152094
-0.47703170878124723	0.3195416352289293
-0.47697067362499723	0.3093484040391063
-0.47690963846874723	0.29904802724722956
-0.47684860331249723	0.28861861818893153
-0.47678756815624723	0.27805034151084485
-0.47672653299999723	0.2673801599711439
-0.47666549784374723	0.2566150922163195
-0.47660446268749723	0.2457233628817459
-0.47654342753124723	0.23471930589597004
-0.47648239237499723	0.2236419791983197
-0.47642135721874723	0.2124725627893652
-0.47636032206249723	0.20118689443227647
-0.47629928690624723	0.18982436557169224
-0.47623825174999723	0.17840726401366028
-0.47617721659374723	0.16689664342310148
-0.47611618143749723	0.15529387293301328
-0.47605514628124723	0.14365084886954654
-0.47599411112499723	0.13195847181707399
-0.47593307596874723	0.12017596463478553
-0.47587204081249723	0.10833883729887707
-0.47581100565624723	0.09648911514959016
-0.47574997049999723	0.08458558185942824
-0.47568893534374723	0.07260964390676752
-0.47562790018749723	0.060622902804777855
-0.47556686503124723	0.048634778821781646
-0.47550582987499723	0.036588325844576025
-0.47544479471874723	0.024504954277656466
-0.47538375956249723	0.01244868825896642
-0.47532272440624723	0.0003863496023877415
-0.47526168924999723	-0.011726211153070055
-0.47520065409374723	-0.023827419489447162
-0.47513961893749723	-0.03588082312253508
-0.47507858378124723	-0.047951927923760296
-0.47501754862499723	-0.06004481982654446
-0.47495651346874723	-0.07207818034840263
-0.47489547831249723	-0.08406397948617939
-0.47483444315624723	-0.09607132164870477
-0.47477340799999723	-0.10805290928371675
-0.47471237284374723	-0.1199415877959003
-0.47465133768749723	-0.13179757890441648
-0.47459030253124723	-0.14365886828035368
-0.47452926737499723	-0.15543948113066336
-0.47446823221874723	-0.16711792696311795
-0.47440719706249723	-0.17877866778922993
-0.47434616190624723	-0.1904045146201463
-0.47428512674999723	-0.20190349083487952
-0.47422409159374723	-0.21331254521223916
-0.47416305643749723	-0.22470238721602248
-0.47410202128124723	-0.2360013671471503
-0.47404098612499723	-0.24715058272084753
-0.47397995096874723	-0.25823139720924926
-0.47391891581249723	-0.26926635601986815
-0.47385788065624723	-0.2801557785610116
-0.47379684549999723	-0.2908992161984712
-0.47373581034374723	-0.30158653501752586
-0.47367477518749723	-0.3121785619229789
-0.47361374003124723	-0.3225881605023614
-0.47355270487499723	-0.33287306076292855
-0.47349166971874723	-0.3430915323882491
-0.47343063456249723	-0.35315755603667814
-0.47336959940624723	-0.36303183487659874
-0.47330856424999723	-0.3728029084579263
-0.47324752909374723	-0.3824714613132386
-0.47318649393749723	-0.39194089178377817
-0.47312545878124723	-0.4012332009419855
-0.47306442362499723	-0.4104273188517507
-0.47300338846874723	-0.4194669336324241
-0.47294235331249723	-0.42828441478960066
-0.47288131815624723	-0.43694871612378017
-0.47282028299999723	-0.4454952483565916
-0.47275924784374723	-0.4538370591632623
-0.47269821268749723	-0.46196016475479784
-0.47263717753124723	-0.46994589007495485
-0.47257614237499723	-0.4777733496006762
-0.47251510721874723	-0.48536302575207213
-0.47245407206249723	-0.49275433498382815
-0.47239303690624723	-0.5000042724791711
-0.47233200174999723	-0.5070486425844177
-0.47227096659374723	-0.513846758273801
-0.47220993143749723	-0.5204679121432831
-0.47214889628124723	-0.5269220449269428
-0.47208786112499723	-0.5331323995484802
-0.47202682596874723	-0.5391089095588835
-0.47196579081249723	-0.544916745009474
-0.47190475565624723	-0.5505188125598329
-0.47184372049999723	-0.5558589712597095
-0.47178268534374723	-0.5609867359371538
-0.47172165018749723	-0.5659348525072667
-0.47166061503124723	-0.5706395077804566
-0.47159957987499723	-0.575085696968211
-0.47153854471874723	-0.579335785124528
-0.47147750956249723	-0.5833791460013706
-0.47141647440624723	-0.5871549422346286
-0.47135543924999723	-0.5906900350604252
-0.47129440409374723	-0.5940306944574957
-0.47123336893749723	-0.5971320033042697
-0.47117233378124723	-0.5999609978663637
-0.47111129862499723	-0.6025692510185872
-0.47105026346874723	-0.6049687460273807
-0.47098922831249723	-0.6071030117985298
-0.47092819315624723	-0.6089769302065244
-0.47086715799999723	-0.6106414325914976
-0.47080612284374723	-0.6120730039898872
-0.47074508768749723	-0.6132285939554875
-0.47068405253124723	-0.614143824747454
-0.47062301737499723	-0.6148472549242648
-0.47056198221874723	-0.6152940381050787
-0.47050094706249723	-0.6154707821830879
-0.47043991190624723	-0.6154247049063895
-0.47037887674999723	-0.6151527303388532
-0.47031784159374723	-0.6146102516535308
