Time	Frequency
-0.5000438682812494	0.4952130656260868
-0.49998283312499936	0.49678515149578717
-0.49992179796874936	0.4982233842589033
-0.49986076281249936	0.4995180715037768
-0.49979972765624936	0.5006754871399514
-0.49973869249999936	0.5016952422195591
-0.49967765734374936	0.5025711229244055
-0.49961662218749936	0.5033104847057985
-0.49955558703124936	0.5039083929323563
-0.49949455187499936	0.5043637458492809
-0.49943351671874936	0.5046820788071278
-0.49937248156249936	0.5048563015170537
-0.49931144640624936	0.5048902515368163
-0.49925041124999936	0.5047853666177522
-0.49918937609374936	0.5045355379744733
-0.49912834093749936	0.5041479808069808
-0.49906730578124936	0.5036190510370362
-0.49900627062499936	0.5029461347874263
-0.49894523546874936	0.5021374396036835
-0.49888420031249936	0.5011851992049964
-0.49882316515624936	0.5000914669145602
-0.49876212999999936	0.49886240403431803
-0.49870109484374936	0.49748853001427074
-0.49864005968749936	0.4959769820761027
-0.49857902453124936	0.4943297883165283
-0.49851798937499936	0.49253806377829673
-0.49845695421874936	0.4906122567058892
-0.49839591906249936	0.4885497318980091
-0.49833488390624936	0.4863449830353124
-0.49827384874999936	0.48400927253218573
-0.49821281359374936	0.4815358910912474
-0.49815177843749936	0.47892407807308285
-0.49809074328124936	0.47618337980743886
-0.49802970812499936	0.47330500403811615
-0.49796867296874936	0.47029277525938956
-0.49790763781249936	0.4671527293096804
-0.49784660265624936	0.46387679722045017
-0.49778556749999936	0.46047192477356114
-0.49772453234374936	0.45693953852157276
-0.49766349718749936	0.45327430244822325
-0.49760246203124936	0.44948451401481987
-0.49754142687499936	0.44556810921426454
-0.49748039171874936	0.44152336940634673
-0.49741935656249936	0.43735724259536185
-0.49735832140624936	0.4330661146322726
-0.49729728624999936	0.42865220128094855
-0.49723625109374936	0.42411960266083176
-0.49717521593749936	0.4194649845242811
-0.49711418078124936	0.41469274858780436
-0.49705314562499936	0.4098036092273642
-0.49699211046874936	0.40479694158903495
-0.49693107531249936	0.3996780827942979
-0.49687004015624936	0.394444915177744
-0.49680900499999936	0.38909961121396236
-0.49674796984374936	0.38364600894629475
-0.49668693468749936	0.3780810888020162
-0.49662589953124936	0.3724102550330699
-0.49656486437499936	0.3666347949559076
-0.49650382921874936	0.3607527475194659
-0.49644279406249936	0.3547711570236262
-0.49638175890624936	0.3486876746593724
-0.49632072374999936	0.34250293650852764
-0.49625968859374936	0.3362245898178852
-0.49619865343749936	0.32984810273011
-0.49613761828124936	0.32337713593144957
-0.49607658312499936	0.3168173643309667
-0.49601554796874936	0.3101636350758794
-0.49595451281249936	0.30342253802053837
-0.49589347765624936	0.29659676451408873
-0.49583244249999936	0.28968269436279837
-0.49577140734374936	0.2826887321915895
-0.49571037218749936	0.27561419597707215
-0.49564933703124936	0.2684578969446571
-0.49558830187499936	0.2612276428410153
-0.49552726671874936	0.2539203273669112
-0.49546623156249936	0.24653917865969052
-0.49540519640624936	0.23909128644387165
-0.49534416124999936	0.2315719992167431
-0.49528312609374936	0.22398571844956233
-0.49522209093749936	0.21633667517600638
-0.49516105578124936	0.20862244199557242
-0.49510002062499936	0.2008496371806618
-0.49503898546874936	0.19301926102820793
-0.49497795031249936	0.18513063314346362
-0.49491691515624936	0.1771907062853612
-0.49485587999999936	0.16919890642804988
-0.49479484484374936	0.161156539466891
-0.49473380968749936	0.15306827366225967
-0.49467277453124936	0.1449338146436433
-0.49461173937499936	0.13675810104479733
-0.49455070421874936	0.12854273411877287
-0.49448966906249936	0.12028694795876466
-0.49442863390624936	0.11199718768546083
-0.49436759874999936	0.10367404109649277
-0.49430656359374936	0.09531923676924099
-0.49424552843749936	0.08693758762825318
-0.49418449328124936	0.07852729318911345
-0.49412345812499936	0.07009364458420418
-0.49406242296874936	0.061640534761493185
-0.49400138781249936	0.053165356206337534
-0.49394035265624936	0.04467450247168448
-0.49387931749999936	0.03616963664364507
-0.49381828234374936	0.02765060081802634
-0.49375724718749936	0.019124624743005556
-0.49369621203124936	0.010590653019286207
-0.49363517687499936	0.002050848757148497
-0.49357414171874936	-0.0064894762674388125
-0.49351310656249936	-0.015033098123257357
-0.49345207140624936	-0.023573550071778394
-0.49339103624999936	-0.03210665519780144
-0.49333000109374936	-0.04063548491872127
-0.49326896593749936	-0.049152616018636915
-0.49320793078124936	-0.05765736212583282
-0.49314689562499936	-0.06615095717737644
-0.49308586046874936	-0.07462544822317661
-0.49302482531249936	-0.083082159176506
-0.49296379015624936	-0.0915181878540183
-0.49290275499999936	-0.09992682875467786
-0.49284171984374936	-0.10831193900080206
-0.49278068468749936	-0.11666808149494816
-0.49271964953124936	-0.12499092086515004
-0.49265861437499936	-0.13328370114942656
-0.49259757921874936	-0.14153904802203468
-0.49253654406249936	-0.14975595244481185
-0.49247550890624936	-0.1579351793025535
-0.49241447374999936	-0.16606870980472263
-0.49235343859374936	-0.17415831801930123
-0.49229240343749936	-0.18220167487272435
-0.49223136828124936	-0.1901928903184339
-0.49217033312499936	-0.19813538573388179
-0.49210929796874936	-0.20602268073518912
-0.49204826281249936	-0.21385131176320088
-0.49198722765624936	-0.22162473155571213
-0.49192619249999936	-0.22933508151064416
-0.49186515734374936	-0.2369828047286519
-0.49180412218749936	-0.24456838115172536
-0.49174308703124936	-0.2520828852812314
-0.49168205187499936	-0.2595296310379155
-0.49162101671874936	-0.2669056930920421
-0.49155998156249936	-0.2742048312591138
-0.49149894640624936	-0.281432319319466
-0.49143791124999936	-0.2885804831714816
-0.49137687609374936	-0.29564594864093613
-0.49131584093749936	-0.30263394719306774
-0.49125480578124936	-0.30953523243753694
-0.49119377062499936	-0.3163509699381077
-0.49113273546874936	-0.323082399806765
-0.49107170031249936	-0.32971917789103633
-0.49101066515624936	-0.33626678973118496
-0.49094962999999936	-0.3427224578638549
-0.49088859484374936	-0.3490781166620374
-0.49082755968749936	-0.35534111651685
-0.49076652453124936	-0.3615040850128639
-0.49070548937499936	-0.3675634886113078
-0.49064445421874936	-0.3735255212088105
-0.49058341906249936	-0.37937930500170125
-0.49052238390624936	-0.3851268445630459
-0.49046134874999936	-0.39077137417516594
-0.49040031359374936	-0.39630159527682074
-0.49033927843749936	-0.40172345007791843
-0.49027824328124936	-0.4070350456897596
-0.49021720812499936	-0.4122277296208189
-0.49015617296874936	-0.41730949637529674
-0.49009513781249936	-0.422273490081324
-0.49003410265624936	-0.42711597729158046
-0.48997306749999936	-0.43184420760333997
-0.48991203234374936	-0.4364474349474864
-0.48985099718749936	-0.440927704401937
-0.48978996203124936	-0.4452892147140324
-0.48972892687499936	-0.4495197463314381
-0.48966789171874936	-0.4536266187110798
-0.48960685656249936	-0.45760927431803955
-0.48954582140624936	-0.4614570483406681
-0.48948478624999936	-0.4651800815163401
-0.48942375109374936	-0.4687717785639761
-0.48936271593749936	-0.47222681352172485
-0.48930168078124936	-0.47555611738433246
-0.48924064562499936	-0.47874752788576097
-0.48917961046874936	-0.4818021744524294
-0.48911857531249936	-0.48472783507447453
-0.48905754015624936	-0.4875099247064212
-0.48899650499999936	-0.4901567367933287
-0.48893546984374936	-0.49266972637597545
-0.48887443468749936	-0.49503579827945
-0.48881339953124936	-0.49726822609772686
-0.48875236437499936	-0.499360606424507
-0.48869132921874936	-0.5013054132389877
-0.48863029406249936	-0.5031171072201478
-0.48856925890624936	-0.5047825253322118
-0.48850822374999936	-0.5063019548517039
-0.48844718859374936	-0.5076866038960858
-0.48838615343749936	-0.5089201999390625
-0.48832511828124936	-0.5100110969136494
-0.48826408312499936	-0.5109637154641364
-0.48820304796874936	-0.5117626586575511
-0.48814201281249936	-0.5124222774450914
-0.48808097765624936	-0.5129389290855241
-0.48801994249999936	-0.5133017080050795
-0.48795890734374936	-0.5135275202804667
-0.48789787218749936	-0.5136056278156934
-0.48783683703124936	-0.5135323525294069
-0.48777580187499936	-0.5133229550555142
-0.48771476671874936	-0.5129614584997747
-0.48765373156249936	-0.5124527196247282
-0.48759269640624936	-0.5118070875045808
-0.48753166124999936	-0.5110068078213265
-0.48747062609374936	-0.5100645476418406
-0.48740959093749936	-0.5089827042509714
-0.48734855578124936	-0.5077458315350374
-0.48728752062499936	-0.5063722188182564
-0.48722648546874936	-0.5048554015470951
-0.48716545031249936	-0.5031861161237894
-0.48710441515624936	-0.5013838971223635
-0.48704337999999936	-0.4994346352604762
-0.48698234484374936	-0.49733815579883417
-0.48692130968749936	-0.49511058385195467
-0.48686027453124936	-0.4927333481721659
-0.48679923937499936	-0.4902155654423567
-0.48673820421874936	-0.4875665007478365
-0.48667716906249936	-0.48476796582165377
-0.48661613390624936	-0.4818356506737066
-0.48655509874999936	-0.47876995796862115
-0.48649406359374936	-0.4755577447974322
-0.48643302843749936	-0.4722177659975361
-0.48637199328124936	-0.46874244368110174
-0.48631095812499936	-0.4651257463437971
-0.48624992296874936	-0.4613849292034967
-0.48618888781249936	-0.457507803321604
-0.48612785265624936	-0.45349651041693523
-0.48606681749999936	-0.4493637289285008
-0.48600578234374936	-0.4450957211874779
-0.48594474718749936	-0.44070014960390314
-0.48588371203124936	-0.43618346976982536
-0.48582267687499936	-0.43153510719377763
-0.48576164171874936	-0.4267662466107006
-0.48570060656249936	-0.42187684741347853
-0.48563957140624936	-0.41686119799772076
-0.48557853624999936	-0.41173040387087945
-0.48551750109374936	-0.4064797348763283
-0.48545646593749936	-0.40110963199154925
-0.48539543078124936	-0.39562863026878264
-0.48533439562499936	-0.3900304461352627
-0.48527336046874936	-0.3843205208797245
-0.48521232531249936	-0.37850233994881344
-0.48515129015624936	-0.372571115955108
-0.48509025499999936	-0.3665351275732653
-0.48502921984374936	-0.36039294121440163
-0.48496818468749936	-0.3541443181030551
-0.48490714953124936	-0.34779747488073065
-0.48484611437499936	-0.3413471126805809
-0.48478507921874936	-0.33479807702078407
-0.48472404406249936	-0.32815534627002324
-0.48466300890624936	-0.3214124425270233
-0.48460197374999936	-0.3145794045615454
-0.48454093859374936	-0.3076569965109005
-0.48447990343749936	-0.30064030179284684
-0.48441886828124936	-0.29354113248344865
-0.48435783312499936	-0.2863548795367605
-0.48429679796874936	-0.279081518246723
-0.48423576281249936	-0.27173344671392485
-0.48417472765624936	-0.2643022005743792
-0.48411369249999936	-0.2567924128943241
-0.48405265734374936	-0.24921365748557833
-0.48399162218749936	-0.24155651945251905
-0.48393058703124936	-0.2338297947554169
-0.48386955187499936	-0.22603792568641898
-0.48380851671874936	-0.2181734719934126
-0.48374748156249936	-0.21024883202802158
-0.48368644640624936	-0.20226398966930567
-0.48362541124999936	-0.19421466953075275
-0.48356437609374936	-0.18611266120872935
-0.48350334093749936	-0.17795438427359853
-0.48344230578124936	-0.16974056136445942
-0.48338127062499936	-0.1614807441339446
-0.48332023546874936	-0.1531697017097145
-0.48325920031249936	-0.14481219692145128
-0.48319816515624936	-0.13641465359271746
-0.48313712999999936	-0.1279733384923453
-0.48307609484374936	-0.11949491577515271
-0.48301505968749936	-0.11098125295942686
-0.48295402453124936	-0.10243125071929307
-0.48289298937499936	-0.09385194327271296
-0.48283195421874936	-0.08524300918765802
-0.48277091906249936	-0.07660704040875999
-0.48270988390624936	-0.06794865822983785
-0.48264884874999936	-0.05926648058749599
-0.48258781359374936	-0.05056664032749828
-0.48252677843749936	-0.041851247362733095
-0.48246574328124936	-0.03311983914203978
-0.48240470812499936	-0.024379195897019368
-0.48234367296874936	-0.015628030662683524
-0.48228263781249936	-0.006868820827624656
-0.48222160265624936	0.0018919327207922805
-0.48216056749999936	0.010656986456559133
-0.48209953234374936	0.019419943903163157
-0.48203849718749936	0.028176915552314052
-0.48197746203124936	0.036931948018917624
-0.48191642687499936	0.04567632767936764
-0.48185539171874936	0.05440885648399434
-0.48179435656249936	0.06313159917511464
-0.48173332140624936	0.07183500967797002
-0.48167228624999936	0.080521060506847
-0.48161125109374936	0.08918862980286316
-0.48155021593749936	0.09782898302050538
-0.48148918078124936	0.10644585862517632
-0.48142814562499936	0.11503458047580195
-0.48136711046874936	0.12358920547128262
-0.48130607531249936	0.13211421379942742
-0.48124504015624936	0.14060262818282326
-0.48118400499999936	0.14905158953913106
-0.48112296984374936	0.1574633192902307
-0.48106193468749936	0.16582926083697283
-0.48100089953124936	0.1741496155277792
-0.48093986437499936	0.18242429530408566
-0.48087882921874936	0.1906457976453722
-0.48081779406249936	0.19881645315929194
-0.48075675890624936	0.20693360392342516
-0.48069572374999936	0.21499153784196276
-0.48063468859374936	0.22299185645242275
-0.48057365343749936	0.2309291248917842
-0.48051261828124936	0.2388007322521394
-0.48045158312499936	0.24660808496309267
-0.48039054796874936	0.2543456779556327
-0.48032951281249936	0.26201289670553496
-0.48026847765624936	0.26960796436325546
-0.48020744249999936	0.2771260232190319
-0.48014640734374936	0.28456793008061027
-0.48008537218749936	0.2919292442347732
-0.48002433703124936	0.2992076898163752
-0.47996330187499936	0.3064048564278699
-0.47990226671874936	0.31351446980971753
-0.47984123156249936	0.32053609192483046
-0.47978019640624936	0.32746923921269183
-0.47971916124999936	0.33430751404012077
-0.47965812609374936	0.34105319747742185
-0.47959709093749936	0.34770369072006224
-0.47953605578124936	0.3542539311574329
-0.47947502062499936	0.36070668287327207
-0.47941398546874936	0.36705666189577585
-0.47935295031249936	0.37330179338005737
-0.47929191515624936	0.37944415872329346
-0.47923087999999936	0.3854768650508054
-0.47916984484374936	0.3914010975380043
-0.47910880968749936	0.39721659046118657
-0.47904777453124936	0.4029162260758019
-0.47898673937499936	0.4085038511875414
-0.47892570421874936	0.41397678411703603
-0.47886466906249936	0.419329523370159
-0.47880363390624936	0.4245659065761293
-0.47874259874999936	0.4296804595195724
-0.47868156359374936	0.43467175610895403
-0.47862052843749936	0.43954317012233685
-0.47855949328124936	0.44428705807209096
-0.47849845812499936	0.44890468363138064
-0.47843742296874936	0.45339706900098636
-0.47837638781249936	0.4577572246501142
-0.47831535265624936	0.46198887429583946
-0.47825431749999936	0.46608979325755456
-0.47819328234374936	0.470055270053512
-0.47813224718749936	0.4738897004963077
-0.47807121203124936	0.47758790547017244
-0.47801017687499936	0.4811487445397492
-0.47794914171874936	0.4845753421102572
-0.47788810656249936	0.4878607918010651
-0.47782707140624936	0.49100779232919345
-0.47776603624999936	0.4940168179913461
-0.47770500109374936	0.4968810431568294
-0.47764396593749936	0.4996056167638434
-0.47758293078124936	0.5021877965370202
-0.47752189562499936	0.5046236171357142
-0.47746086046874936	0.5069188454658807
-0.47739982531249936	0.5090671050365572
-0.47733879015624936	0.5110683479705328
-0.47727775499999936	0.5129270838390044
-0.47721671984374936	0.5146352107251163
-0.47715568468749936	0.5161969090535475
-0.47709464953124936	0.5176133109140933
-0.47703361437499936	0.5188768465818276
-0.47697257921874936	0.5199948507796709
-0.47691154406249936	0.5209640516145019
-0.47685050890624936	0.5217799476604269
-0.47678947374999936	0.5224508890826313
-0.47672843859374936	0.5229695774400427
-0.47666740343749936	0.5233361916208381
-0.47660636828124936	0.523557299643899
-0.47654533312499936	0.5236236051757532
-0.47648429796874936	0.5235402901927876
-0.47642326281249936	0.5233096897868998
-0.47636222765624936	0.5229233343946847
-0.47630119249999936	0.5223901130976947
-0.47624015734374936	0.5217072396959582
-0.47617912218749936	0.5208697249921262
-0.47611808703124936	0.5198873393844722
-0.47605705187499936	0.5187530083959709
-0.47599601671874936	0.517467074291345
-0.47593498156249936	0.5160371673972012
-0.47587394640624936	0.514453801904246
-0.47581291124999936	0.5127228308374518
-0.47575187609374936	0.5108477670577661
-0.47569084093749936	0.5088195711162861
-0.47562980578124936	0.5066481127290803
-0.47556877062499936	0.5043314325070265
-0.47550773546874936	0.5018638510056335
-0.47544670031249936	0.49925720627946457
-0.47538566515624936	0.4965041076581322
-0.47532462999999936	0.49360406912419597
-0.47526359484374936	0.49056778991819794
-0.47520255968749936	0.4873845092766716
-0.47514152453124936	0.48406034423081223
-0.47508048937499936	0.48060123379397024
-0.47501945421874936	0.4769956672324684
-0.47495841906249936	0.47325615676948907
-0.47489738390624936	0.46938196783064273
-0.47483634874999936	0.4653642932447551
-0.47477531359374936	0.46121867911424025
-0.47471427843749936	0.45693731914353686
-0.47465324328124936	0.4525183594406567
-0.47459220812499936	0.4479766868659045
-0.47453117296874936	0.4432993189267501
-0.47447013781249936	0.4384923928344092
-0.47440910265624936	0.43356490892680755
-0.47434806749999936	0.42850260196612566
-0.47428703234374936	0.4233196402030037
-0.47422599718749936	0.41801734767961407
-0.47416496203124936	0.41258465831080854
-0.47410392687499936	0.4070397222024616
-0.47404289171874936	0.401375433304374
-0.47398185656249936	0.39558717603794097
-0.47392082140624936	0.38969261032900476
-0.47385978624999936	0.3836788880043062
-0.47379875109374936	0.37755093057398226
-0.47373771593749936	0.371322594111181
-0.47367668078124936	0.3649771368425001
-0.47361564562499936	0.35852621389203176
-0.47355461046874936	0.35197665784893173
-0.47349357531249936	0.3453141086940565
-0.47343254015624936	0.33855706857469214
-0.47337150499999936	0.33170337076114176
-0.47331046984374936	0.3247430224816467
-0.47324943468749936	0.3176969890973674
-0.47318839953124936	0.31055486353360356
-0.47312736437499936	0.3033155199463487
-0.47306632921874936	0.2959985835908352
-0.47300529406249936	0.28858683495566284
-0.47294425890624936	0.2810881471291526
-0.47288322374999936	0.2735163584976255
-0.47282218859374936	0.26585349285511845
-0.47276115343749936	0.258116571282436
-0.47270011828124936	0.2503094125048875
-0.47263908312499936	0.24241681626487194
-0.47257804796874936	0.23446140792243367
-0.47251701281249936	0.22643698125057177
-0.47245597765624936	0.2183354388670944
-0.47239494249999936	0.21018047078980198
-0.47233390734374936	0.20195914208764623
-0.47227287218749936	0.1936725481289883
-0.47221183703124936	0.18533910408637402
-0.47215080187499936	0.17694211979060265
-0.47208976671874936	0.16849192337129112
-0.47202873156249936	0.159999971093539
-0.47196769640624936	0.15145048425608176
-0.47190666124999936	0.14285911476872187
-0.47184562609374936	0.13422887621878507
-0.47178459093749936	0.12554897732582118
-0.47172355578124936	0.11683785735939059
-0.47166252062499936	0.10809210953736578
-0.47160148546874936	0.0993068839216669
-0.47154045031249936	0.0904981470826737
-0.47147941515624936	0.08165878676501999
-0.47141837999999936	0.0727913454269533
-0.47135734484374936	0.06390706016840446
-0.47129630968749936	0.05499788053280834
-0.47123527453124936	0.046071695090871854
-0.47117423937499936	0.03713383926423457
-0.47111320421874936	0.028179029338201097
-0.47105216906249936	0.019217440655463647
-0.47099113390624936	0.010248229328064328
-0.47093009874999936	0.0012710437162329377
-0.47086906359374936	-0.007703864450513879
-0.47080802843749936	-0.016680063521091783
-0.47074699328124936	-0.025653290933959433
-0.47068595812499936	-0.03461836144309132
-0.47062492296874936	-0.04357877058988358
-0.47056388781249936	-0.052525210896890356
-0.47050285265624936	-0.061458285889604565
-0.47044181749999936	-0.07037908075280164
-0.47038078234374936	-0.07927594364693231
-0.47031974718749936	-0.08815402363715012
