Time	Frequency
-0.5000190722812512	-0.4341431374827418
-0.4999580371250012	-0.43047528447876127
-0.4998970019687512	-0.42669210292854554
-0.4998359668125012	-0.42279469100766887
-0.4997749316562512	-0.4187848450592932
-0.4997138965000012	-0.4146623478687934
-0.4996528613437512	-0.41042961180784293
-0.4995918261875012	-0.406086400844009
-0.4995307910312512	-0.40163466742426157
-0.4994697558750012	-0.3970754446439049
-0.4994087207187512	-0.39240947112690994
-0.4993476855625012	-0.3876387917167371
-0.4992866504062512	-0.38276349635294166
-0.4992256152500012	-0.3777860368211916
-0.4991645800937512	-0.37270688507944544
-0.4991035449375012	-0.36752759747673136
-0.4990425097812512	-0.3622498173415047
-0.4989814746250012	-0.35687434221375675
-0.4989204394687512	-0.351403461310301
-0.4988594043125012	-0.3458375834044992
-0.4987983691562512	-0.3401787603381197
-0.4987373340000012	-0.33442812783951664
-0.4986762988437512	-0.3285870992480455
-0.4986152636875012	-0.322657733183628
-0.4985542285312512	-0.3166410673709204
-0.4984931933750012	-0.31053942381929417
-0.4984321582187512	-0.30435370229924896
-0.4983711230625012	-0.29808564545037075
-0.4983100879062512	-0.2917370539352495
-0.4982490527500012	-0.28530925617688596
-0.4981880175937512	-0.278804266260515
-0.4981269824375012	-0.27222341031459807
-0.4980659472812512	-0.26556897591573003
-0.4980049121250012	-0.2588424644829037
-0.4979438769687512	-0.2520454847198396
-0.4978828418125012	-0.24518007293558902
-0.4978218066562512	-0.23824760164438197
-0.4977607715000012	-0.23125036767641063
-0.4976997363437512	-0.2241900480215166
-0.4976387011875012	-0.21706849302897094
-0.4975776660312512	-0.20988747599007232
-0.4975166308750012	-0.2026487743557707
-0.4974555957187512	-0.19535476461342238
-0.4973945605625012	-0.18800703488180762
-0.4973335254062512	-0.18060763544256206
-0.4972724902500012	-0.17315837695075986
-0.4972114550937512	-0.16566133261668717
-0.4971504199375012	-0.1581185348636358
-0.4970893847812512	-0.15053180060241575
-0.4970283496250012	-0.14290338357586577
-0.4969673144687512	-0.13523485329258958
-0.4969062793125012	-0.12752842360261812
-0.4968452441562512	-0.1197864520439665
-0.4967842090000012	-0.11201098016915895
-0.4967231738437512	-0.10420382341616195
-0.4966621386875012	-0.09636687525428353
-0.4966011035312512	-0.0885025301252505
-0.4965400683750012	-0.08061280384965061
-0.4964790332187512	-0.07269969367827302
-0.4964179980625012	-0.06476534904773454
-0.4963569629062512	-0.056811780041214746
-0.4962959277500012	-0.04884112569568752
-0.4962348925937512	-0.04085560847170698
-0.4961738574375012	-0.032857413979454894
-0.4961128222812512	-0.024848638614885597
-0.4960517871250012	-0.016831183244259234
-0.4959907519687512	-0.008807392870293026
-0.4959297168125012	-0.0007794622042471157
-0.4958686816562512	0.007250574484638755
-0.4958076465000012	0.015280778837234103
-0.4957466113437512	0.023308970689554915
-0.4956855761875012	0.03133277350583403
-0.4956245410312512	0.03935017979910318
-0.4955635058750012	0.04735889749363291
-0.4955024707187512	0.055357014924633054
-0.4954414355625012	0.0633422459803409
-0.4953804004062512	0.07131242233166259
-0.4953193652500012	0.07926550066646085
-0.4952583300937512	0.08719935154548797
-0.4951972949375012	0.0951120447755886
-0.4951362597812512	0.10300135812951924
-0.4950752246250012	0.11086520963945827
-0.4950141894687512	0.11870122119667573
-0.4949531543125012	0.12650731802560647
-0.4948921191562512	0.13428146548806907
-0.4948310840000012	0.14202168730069106
-0.4947700488437512	0.14972604650955432
-0.4947090136875012	0.15739253087412033
-0.4946479785312512	0.1650189025864353
-0.4945869433750012	0.17260293710655147
-0.4945259082187512	0.18014264383685796
-0.4944648730625012	0.18763613695355824
-0.4944038379062512	0.19508160139078842
-0.4943428027500012	0.20247671777687068
-0.4942817675937512	0.20981947625202865
-0.4942207324375012	0.2171078646162216
-0.4941596972812512	0.2243402356305455
-0.4940986621250012	0.23151451063291076
-0.4940376269687512	0.23862866218321574
-0.4939765918125012	0.24568093318696949
-0.4939155566562512	0.2526693928268191
-0.4938545215000012	0.25959215731433494
-0.4937934863437512	0.26644707714849103
-0.4937324511875012	0.2732325841907281
-0.4936714160312512	0.2799465934898484
-0.4936103808750012	0.286587459633351
-0.4935493457187512	0.2931533615374985
-0.4934883105625012	0.29964268283982143
-0.4934272754062512	0.3060536730396138
-0.4933662402500012	0.31238431128612243
-0.4933052050937512	0.31863307270431407
-0.4932441699375012	0.32479807318391296
-0.4931831347812512	0.33087791074870454
-0.4931220996250012	0.3368707296948868
-0.4930610644687512	0.3427750184381868
-0.4930000293125012	0.3485890886792969
-0.4929389941562512	0.35431136305640365
-0.4928779590000012	0.35994019345052214
-0.4928169238437512	0.36547416795952387
-0.4927558886875012	0.37091192360205316
-0.4926948535312512	0.37625175510684217
-0.4926338183750012	0.38149226189787294
-0.4925727832187512	0.38663195387846944
-0.4925117480625012	0.3916696637457466
-0.4924507129062512	0.3966036992158432
-0.4923896777500012	0.4014328398198215
-0.4923286425937512	0.4061555465609874
-0.4922676074375012	0.41077087234078624
-0.4922065722812512	0.41527734179630216
-0.4921455371250012	0.4196738982027296
-0.4920845019687512	0.423959273892109
-0.4920234668125012	0.42813203793652366
-0.4919624316562512	0.4321913772842322
-0.4919013965000012	0.4361356383399912
-0.4918403613437512	0.4399645003718221
-0.4917793261875012	0.4436760753507339
-0.4917182910312512	0.4472700392134055
-0.4916572558750012	0.4507449536578526
-0.4915962207187512	0.45410008049473666
-0.4915351855625012	0.45733447326019105
-0.4914741504062512	0.46044666019438757
-0.4914131152500012	0.46343686590584704
-0.4913520800937512	0.4663030786617093
-0.4912910449375012	0.4690456173383335
-0.4912300097812512	0.4716625134888062
-0.4911689746250012	0.4741539889913025
-0.4911079394687512	0.4765188906896158
-0.4910469043125012	0.4787564190218176
-0.4909858691562512	0.48086658090081236
-0.4909248340000012	0.48284768434726916
-0.4908637988437512	0.4847005320306564
-0.4908027636875012	0.4864231167301578
-0.4907417285312512	0.4880163215346219
-0.4906806933750012	0.4894784712819216
-0.4906196582187512	0.4908099818963179
-0.4905586230625012	0.4920100711665245
-0.4904975879062512	0.4930781893157827
-0.4904365527500012	0.49401473123518336
-0.4903755175937512	0.4948181381374751
-0.4903144824375012	0.495489943017786
-0.4902534472812512	0.4960277921448181
-0.4901924121250012	0.49643370898181055
-0.4901313769687512	0.49670551138176194
-0.4900703418125012	0.49684444264619876
-0.4900093066562512	0.49685018703719325
-0.4899482715000012	0.49672154214656744
-0.4898872363437512	0.49646099467230714
-0.4898262011875012	0.49606506152507
-0.4897651660312512	0.49553765183858994
-0.4897041308750012	0.4948755334748523
-0.4896430957187512	0.49408086210788776
-0.4895820605625012	0.4931535998823289
-0.4895210254062512	0.4920921219450804
-0.4894599902500012	0.4909002059001444
-0.4893989550937512	0.48957364542540144
-0.4893379199375012	0.488117119332877
-0.4892768847812512	0.48652778690906096
-0.4892158496250012	0.4848072863943096
-0.4891548144687512	0.4829569637445284
-0.4890937793125012	0.4809743757582692
-0.4890327441562512	0.4788641194940552
-0.4889717090000012	0.4766223571890758
-0.4889106738437512	0.4742532019034151
-0.4888496386875012	0.47175541145699745
-0.4887886035312512	0.4691292627625903
-0.4887275683750012	0.4663777700323678
-0.4886665332187512	0.4634979113462942
-0.4886054980625012	0.4604945896005023
-0.4885444629062512	0.45736493756724483
-0.4884834277500012	0.4541117355299282
-0.4884223925937512	0.4507360305565108
-0.4883613574375012	0.44723653277099296
-0.4883003222812512	0.44361770209107393
-0.4882392871250012	0.4398763104767321
-0.4881782519687512	0.4360169002559764
-0.4881172168125012	0.4320383105841282
-0.4880561816562512	0.42794165375680665
-0.4879951465000012	0.4237301319502036
-0.4879341113437512	0.4194012853108589
-0.4878730761875012	0.4149601554773611
-0.4878120410312512	0.41040425547497117
-0.4877510058750012	0.4057371247331777
-0.4876899707187512	0.40095980904028306
-0.4876289355625012	0.3960718525455512
-0.4875679004062512	0.39107749971680167
-0.4875068652500012	0.38597419309145004
-0.4874458300937512	0.3807667720381335
-0.4873847949375012	0.3754545144270489
-0.4873237597812512	0.3700392686831096
-0.4872627246250012	0.36452367053370505
-0.4872016894687512	0.35890661158332665
-0.4871406543125012	0.353192674582736
-0.4870796191562512	0.3473804645856202
-0.4870185840000012	0.3414735045607127
-0.4869575488437512	0.335472688423358
-0.4868965136875012	0.32937883603180557
-0.4868354785312512	0.32319546767020096
-0.4867744433750012	0.316921529513608
-0.4867134082187512	0.3105612853549939
-0.4866523730625012	0.30411469700928667
-0.4865913379062512	0.29758422132454915
-0.4865303027500012	0.29097206348231
-0.4864692675937512	0.2842780945390694
-0.4864082324375012	0.2775064316059974
-0.4863471972812512	0.2706566380295907
-0.4862861621250012	0.26373220304722844
-0.4862251269687512	0.25673455506293646
-0.4861640918125012	0.2496649138477568
-0.4861030566562512	0.24252648498304155
-0.4860420215000012	0.23531917487689788
-0.4859809863437512	0.2280469534238296
-0.4859199511875012	0.22071037928796408
-0.4858589160312512	0.21331172549784946
-0.4857978808750012	0.2058533254436191
-0.4857368457187512	0.19833620469662805
-0.4856758105625012	0.1907640508769128
-0.4856147754062512	0.18313713848562996
-0.4855537402500012	0.17545881693786364
-0.4854927050937512	0.16773040606434922
-0.4854316699375012	0.15995370076429927
-0.4853706347812512	0.15213188212852502
-0.4853095996250012	0.1442656868710075
-0.4852485644687512	0.13635857556641134
-0.4851875293125012	0.1284114472259274
-0.4851264941562512	0.12042698788082536
-0.4850654590000012	0.11240745934048045
-0.4850044238437512	0.10435435078892713
-0.4849433886875012	0.0962708935220068
-0.4848823535312512	0.08815824263637333
-0.4848213183750012	0.08001952530962518
-0.4847602832187512	0.07185613127322694
-0.4846992480625012	0.06367030391944499
-0.4846382129062512	0.055464609788432435
-0.4845771777500012	0.04724059507903238
-0.4845161425937512	0.03900157721559223
-0.4844551074375012	0.03074881246146321
-0.4843940722812512	0.022484985325498603
-0.4843330371250012	0.01421221289890046
-0.4842720019687512	0.005932441320773207
-0.4842109668125012	-0.002351609674448714
-0.4841499316562512	-0.010638395110641049
-0.4840888965000012	-0.01892496815420373
-0.4840278613437512	-0.027209424511349337
-0.4839668261875012	-0.035489442072259215
-0.4839057910312512	-0.04376274675724621
-0.4838447558750012	-0.0520275207550184
-0.4837837207187512	-0.06028103684907923
-0.4837226855625012	-0.06852146802996371
-0.4836616504062512	-0.07674614263820714
-0.4836006152500012	-0.08495294859759821
-0.4835395800937512	-0.09314006202358688
-0.4834785449375012	-0.10130499832036392
-0.4834175097812512	-0.10944570400884689
-0.4833564746250012	-0.11755953921964135
-0.4832954394687512	-0.1256447026513961
-0.4832344043125012	-0.13369901068963794
-0.4831733691562512	-0.1417199689723515
-0.4831123340000012	-0.14970564458465863
-0.4830512988437512	-0.15765383020811022
-0.4829902636875012	-0.1655626954237124
-0.4829292285312512	-0.17342966991411315
-0.4828681933750012	-0.18125258318295784
-0.4828071582187512	-0.18902941177623026
-0.4827461230625012	-0.19675812773975487
-0.4826850879062512	-0.2044368042656927
-0.4826240527500012	-0.2120628949346462
-0.4825630175937512	-0.21963467580823495
-0.4825019824375012	-0.2271501221844329
-0.4824409472812512	-0.23460700014425373
-0.4823799121250012	-0.24200324472863974
-0.4823188769687512	-0.2493368601934396
-0.4822578418125012	-0.2566060054587202
-0.4821968066562512	-0.26380856453006307
-0.4821357715000012	-0.2709426486926272
-0.4820747363437512	-0.2780063581536285
-0.4820137011875012	-0.2849976541642772
-0.4819526660312512	-0.291914615016875
-0.4818916308750012	-0.298755338174561
-0.4818305957187512	-0.3055180159965948
-0.4817695605625012	-0.3122008396406166
-0.4817085254062512	-0.31880188833754336
-0.4816474902500012	-0.3253194903669954
-0.4815864550937512	-0.3317517041550822
-0.4815254199375012	-0.3380967966640116
-0.4814643847812512	-0.34435304518758747
-0.4814033496250012	-0.3505186909848694
-0.4813423144687512	-0.35659209931232205
-0.4812812793125012	-0.36257152715678015
-0.4812202441562512	-0.36845549782747555
-0.4811592090000012	-0.37424219909798506
-0.4810981738437512	-0.3799301817887962
-0.4810371386875012	-0.38551777538569676
-0.4809761035312512	-0.39100344504212664
-0.4809150683750012	-0.3963857717258592
-0.4808540332187512	-0.4016631437475844
-0.4807929980625012	-0.4068342196697009
-0.4807319629062512	-0.4118974535322125
-0.4806709277500012	-0.41685151726988334
-0.4806098925937512	-0.4216949064251158
-0.4805488574375012	-0.4264263768263504
-0.4804878222812512	-0.4310446300030568
-0.4804267871250012	-0.43554836588583407
-0.4803657519687512	-0.4399363834207784
-0.4803047168125012	-0.44420748925513437
-0.4802436816562512	-0.4483604036326548
-0.4801826465000012	-0.45239393411770434
-0.4801216113437512	-0.4563069759837003
-0.4800605761875012	-0.4600983154058279
-0.4799995410312512	-0.4637670637146056
-0.4799385058750012	-0.46731209959673126
-0.4798774707187512	-0.4707325655763791
-0.4798164355625012	-0.47402737355030206
-0.4797554004062512	-0.47719566778743816
-0.4796943652500012	-0.4802364550392797
-0.4796333300937512	-0.4831489104648203
-0.4795722949375012	-0.4859322920661129
-0.4795112597812512	-0.488585634779657
-0.4794502246250012	-0.4911083093734436
-0.4793891894687512	-0.4934993920349429
-0.4793281543125012	-0.49575849399183947
-0.4792671191562512	-0.49788474422402595
-0.4792060840000012	-0.4998776969819678
-0.4791450488437512	-0.5017366659853637
-0.4790840136875012	-0.5034610877845109
-0.4790229785312512	-0.5050505524222656
-0.4789619433750012	-0.5065043835279462
-0.4789009082187512	-0.5078223938259312
-0.4788398730625012	-0.5090039498382308
-0.4787788379062512	-0.5100489093468504
-0.4787178027500012	-0.510956763687273
-0.4786567675937512	-0.5117273588461329
-0.4785957324375012	-0.5123603793363856
-0.4785346972812512	-0.5128556312537725
-0.4784736621250012	-0.513212912418035
-0.4784126269687512	-0.5134320576754441
-0.4783515918125012	-0.5135130885858663
-0.4782905566562512	-0.5134558104508381
-0.4782295215000012	-0.5132603069718924
-0.4781684863437512	-0.512926435849247
-0.4781074511875012	-0.5124544447728663
-0.4780464160312512	-0.5118441975627156
-0.4779853808750012	-0.5110960223524263
-0.4779243457187512	-0.5102098541470241
-0.4778633105625012	-0.5091861708617115
-0.4778022754062512	-0.5080249862931695
-0.4777412402500012	-0.5067266834112081
-0.4776802050937512	-0.5052915938065808
-0.4776191699375012	-0.5037198577515098
-0.4775581347812512	-0.5020123209540186
-0.4774970996250012	-0.5001687365787699
-0.4774360644687512	-0.49819030078246007
-0.4773750293125012	-0.4960767453349557
-0.4773139941562512	-0.49382928053371783
-0.4772529590000012	-0.49144802409313176
-0.4771919238437512	-0.4889337975039169
-0.4771308886875012	-0.48628750215318134
-0.4770698535312512	-0.4835089574945493
-0.4770088183750012	-0.4805999738926365
-0.4769477832187512	-0.47756014111199757
-0.4768867480625012	-0.4743915590887287
-0.4768257129062512	-0.4710939489835673
-0.4767646777500012	-0.46766890081371376
-0.4767036425937512	-0.4641169041947813
-0.4766426074375012	-0.4604385692834464
-0.4765815722812512	-0.45663578432888047
-0.4765205371250012	-0.4527083295572884
-0.4764595019687512	-0.4486587910406477
-0.4763984668125012	-0.4444867324956062
-0.4763374316562512	-0.44019450540592875
-0.4762763965000012	-0.43578208731672485
-0.4762153613437512	-0.43125140348239244
-0.4761543261875012	-0.42660350297952826
-0.4760932910312512	-0.4218392552554965
-0.4760322558750012	-0.4169608294011457
-0.4759712207187512	-0.4119680319244301
-0.4759101855625012	-0.40686416521433005
-0.4758491504062512	-0.4016483808146146
-0.4757881152500012	-0.3963242785945689
-0.4757270800937512	-0.3908911477077472
-0.4756660449375012	-0.3853517047965462
-0.4756050097812512	-0.3797077093612788
-0.4755439746250012	-0.37395906025213677
-0.4754829394687512	-0.368110303134032
-0.4754219043125012	-0.3621589186909664
-0.4753608691562512	-0.35611052381165764
-0.4752998340000012	-0.3499635783123373
-0.4752387988437512	-0.3437214075477069
-0.4751777636875012	-0.3373859906420036
-0.4751167285312512	-0.33095639189475146
-0.4750556933750012	-0.32443881966546667
-0.4749946582187512	-0.3178300821181089
-0.4749336230625012	-0.31113628093907847
-0.4748725879062512	-0.30435639415165366
-0.4748115527500012	-0.2974929117011747
-0.4747505175937512	-0.2905494155880102
-0.4746894824375012	-0.2835240148559354
-0.4746284472812512	-0.276423292541809
-0.4745674121250012	-0.2692446546664445
-0.4745063769687512	-0.2619932359650869
-0.4744453418125012	-0.2546697692936006
-0.4743843066562512	-0.2472752880358912
-0.4743232715000012	-0.23981494337375653
-0.4742622363437512	-0.23228639078954802
-0.4742012011875012	-0.22469601936097336
-0.4741401660312512	-0.21704251385381096
-0.4740791308750012	-0.20932934136052495
-0.4740180957187512	-0.20155947803436786
-0.4739570605625012	-0.1937321346202403
-0.4738960254062512	-0.1858536402517915
-0.4738349902500012	-0.17792177089901184
-0.4737739550937512	-0.16994194928051043
-0.4737129199375012	-0.16191486579396738
-0.4736518847812512	-0.1538421763827509
-0.4735908496250012	-0.14572890778030606
-0.4735298144687512	-0.13757295531843494
-0.4734687793125012	-0.12938059931578308
-0.4734077441562512	-0.12115089272909896
-0.4733467090000012	-0.11288791602970409
-0.4732856738437512	-0.10459423688342671
-0.4732246386875012	-0.0962696417467937
-0.4731636035312512	-0.08792015010435958
-0.4731025683750012	-0.07954413105244099
-0.4730415332187512	-0.07114705298797032
-0.4729804980625012	-0.06272949995144252
-0.4729194629062512	-0.05429348079894934
-0.4728584277500012	-0.04584323545926419
-0.4727973925937512	-0.0373782363981754
-0.4727363574375012	-0.028903981644096053
-0.4726753222812512	-0.020419977943824295
-0.4726142871250012	-0.011930209227469743
-0.4725532519687512	-0.003436866889682152
-0.4724922168125012	0.005059055146559275
-0.4724311816562512	0.013552902210767699
-0.4723701465000012	0.02204511790549754
-0.4723091113437512	0.030530847258173982
-0.4722480761875012	0.03900925049648138
-0.4721870410312512	0.04747782139007895
-0.4721260058750012	0.055933162639347334
-0.4720649707187512	0.06437505796032285
-0.4720039355625012	0.07279870657704203
-0.4719429004062512	0.08120390765186221
-0.4718818652500012	0.08958716806749174
-0.4718208300937512	0.0979463058077185
-0.4717597949375012	0.10627995896589033
-0.4716987597812512	0.11458408952170289
-0.4716377246250012	0.12285844713069141
-0.4715766894687512	0.1310988788463323
-0.4715156543125012	0.13930424928654941
-0.4714546191562512	0.1474721958588591
-0.4713935840000012	0.15559972841696446
-0.4713325488437512	0.16368589900252664
-0.4712715136875012	0.17172668468785907
-0.4712104785312512	0.17972159315909186
-0.4711494433750012	0.18766748663665708
-0.4710884082187512	0.19556250895975472
-0.4710273730625012	0.2034048798998095
-0.4709663379062512	0.21119114578174933
-0.4709053027500012	0.21892057720924102
-0.4708442675937512	0.2265897033185329
-0.4707832324375012	0.23419750184367324
-0.4707221972812512	0.2417416165829051
-0.4706611621250012	0.24921956055130767
-0.4706001269687512	0.2566298761429818
-0.4705390918125012	0.2639694103005755
-0.4704780566562512	0.27123748249877727
-0.4704170215000012	0.278431212236194
-0.4703559863437512	0.28554893201456283
-0.4702949511875012	0.29258868348868017
-0.4702339160312512	0.2995479263037241
-0.4701728808750012	0.30642563259211625
-0.4701118457187512	0.3132190107831806
-0.4700508105625012	0.3199269404014005
-0.4699897754062512	0.3265470959612
-0.4699287402500012	0.33307762839400323
-0.4698677050937512	0.33951711941849705
-0.4698066699375012	0.3458631702037482
-0.4697456347812512	0.3521147444820565
-0.4696845996250012	0.3582694987724118
-0.4696235644687512	0.36432591804712045
