Time	Frequency
-0.500055312156249	3.736113536950196e-23
-0.499994276999999	3.763823893369419e-23
-0.499933241843749	3.7906195157550823e-23
-0.499872206687499	3.81644646723195e-23
-0.499811171531249	3.8411786357936945e-23
-0.499750136374999	3.8649038301114205e-23
-0.499689101218749	3.887702243101113e-23
-0.499628066062499	3.909437885590151e-23
-0.499567030906249	3.930063039209786e-23
-0.499505995749999	3.949719827460343e-23
-0.499444960593749	3.9683930989428766e-23
-0.499383925437499	3.9859297058132787e-23
-0.499322890281249	4.002385101811447e-23
-0.499261855124999	4.0178848849629865e-23
-0.499200819968749	4.0323197825143675e-23
-0.499139784812499	4.0455877331252265e-23
-0.499078749656249	4.0578232500086434e-23
-0.499017714499999	4.0690777380081124e-23
-0.498956679343749	4.079190155922337e-23
-0.498895644187499	4.08815144605158e-23
-0.498834609031249	4.096120355035525e-23
-0.498773573874999	4.1030507988829315e-23
-0.498712538718749	4.1087911660104625e-23
-0.498651503562499	4.113428949768762e-23
-0.498590468406249	4.117086198050196e-23
-0.498529433249999	4.1196347231643885e-23
-0.498468398093749	4.1209867590371597e-23
-0.498407362937499	4.121294782521562e-23
-0.498346327781249	4.120600503351242e-23
-0.498285292624999	4.118737617749814e-23
-0.498224257468749	4.115713166158548e-23
-0.498163222312499	4.111692749142605e-23
-0.498102187156249	4.106621156781596e-23
-0.498041151999999	4.100349459249886e-23
-0.497980116843749	4.0929798580178405e-23
-0.497919081687499	4.084635813301938e-23
-0.497858046531249	4.07518166762574e-23
-0.497797011374999	4.06453681461386e-23
-0.497735976218749	4.052866643582137e-23
-0.497674941062499	4.040209416374044e-23
-0.497613905906249	4.026393365957958e-23
-0.497552870749999	4.011438745540358e-23
-0.497491835593749	3.9955214887358864e-23
-0.497430800437499	3.9785756621808796e-23
-0.497369765281249	3.9604511828816606e-23
-0.497308730124999	3.941270928628596e-23
-0.497247694968749	3.9211603321954927e-23
-0.497186659812499	3.899966726036251e-23
-0.497125624656249	3.877622235811872e-23
-0.497064589499999	3.854316143783265e-23
-0.497003554343749	3.8300705533487707e-23
-0.496942519187499	3.8046993633340924e-23
-0.496881484031249	3.778254226616948e-23
-0.496820448874999	3.75092311121743e-23
-0.496759413718749	3.722607306767158e-23
-0.496698378562499	3.6931634193090263e-23
-0.496637343406249	3.662757838896074e-23
-0.496576308249999	3.631500659944256e-23
-0.496515273093749	3.599202717061315e-23
-0.496454237937499	3.5658331412350016e-23
-0.496393202781249	3.53161587969935e-23
-0.496332167624999	3.496526707068117e-23
-0.496271132468749	3.460364299499336e-23
-0.496210097312499	3.42324386808135e-23
-0.496149062156249	3.385354952245315e-23
-0.496088026999999	3.346536976209897e-23
-0.496026991843749	3.306676392637514e-23
-0.495965956687499	3.2660032887447737e-23
-0.495904921531249	3.2245760846728533e-23
-0.495843886374999	3.1821593098349936e-23
-0.495782851218749	3.138801112710782e-23
-0.495721816062499	3.094755307551863e-23
-0.495660780906249	3.049910830350864e-23
-0.495599745749999	3.004073302969506e-23
-0.495538710593749	2.957454528365435e-23
-0.495477675437499	2.9102072387892043e-23
-0.495416640281249	2.8620868490023586e-23
-0.495355605124999	2.8130544061417693e-23
-0.495294569968749	2.7634066076822217e-23
-0.495233534812499	2.713104631132339e-23
-0.495172499656249	2.661886070018596e-23
-0.495111464499999	2.6099199669835454e-23
-0.495050429343749	2.5574506187922878e-23
-0.494989394187499	2.5042466835285832e-23
-0.494928359031249	2.4501714983149612e-23
-0.494867323874999	2.3955484829560873e-23
-0.494806288718749	2.3404355696103925e-23
-0.494745253562499	2.2845100330530552e-23
-0.494684218406249	2.227864151746813e-23
-0.494623183249999	2.170834119621567e-23
-0.494562148093749	2.1132376011267234e-23
-0.494501112937499	2.0548298340320896e-23
-0.494440077781249	1.9959267346614367e-23
-0.494379042624999	1.936702661293927e-23
-0.494318007468749	1.8768022405598694e-23
-0.494256972312499	1.8162131756998152e-23
-0.494195937156249	1.7553473088246793e-23
-0.494134901999999	1.694104721903461e-23
-0.494073866843749	1.6321338830704123e-23
-0.494012831687499	1.5697064323770273e-23
-0.493951796531249	1.507126548215279e-23
-0.493890761374999	1.444040100917809e-23
-0.493829726218749	1.38030061033988e-23
-0.493768691062499	1.3163695504781301e-23
-0.493707655906249	1.2522721318628635e-23
-0.493646620749999	1.1875625346794896e-23
-0.493585585593749	1.1224173831831471e-23
-0.493524550437499	1.0572743084899156e-23
-0.493463515281249	9.918326003860274e-24
-0.493402480124999	9.257909756450636e-24
-0.493341444968749	8.596120350426528e-24
-0.493280409812499	7.934795103289884e-24
-0.493219374656249	7.268896357079183e-24
-0.493158339499999	6.59880551205416e-24
-0.493097304343749	5.930036982344157e-24
-0.493036269187499	5.2606130349792975e-24
-0.492975234031249	4.585974432316346e-24
-0.492914198874999	3.910237624923434e-24
-0.492853163718749	3.2370330658350663e-24
-0.492792128562499	2.5612337711292224e-24
-0.492731093406249	1.8813992772299393e-24
-0.492670058249999	1.203768755992074e-24
-0.492609023093749	5.27994634468202e-25
-0.492547987937499	-1.5179433510960174e-25
-0.492486952781249	-8.326739592724982e-25
-0.492425917624999	-1.5092019032755617e-24
-0.492364882468749	-2.1859256425078467e-24
-0.492303847312499	-2.866393505108466e-24
-0.492242812156249	-3.544211368647629e-24
-0.492181776999999	-4.217591208712352e-24
-0.492120741843749	-4.893325407896255e-24
-0.492059706687499	-5.570375525787329e-24
-0.491998671531249	-6.241685773034813e-24
-0.491937636374999	-6.910424625549369e-24
-0.491876601218749	-7.582292199572363e-24
-0.491815566062499	-8.251558267430765e-24
-0.491754530906249	-8.913956888698404e-24
-0.491693495749999	-9.576458236128018e-24
-0.491632460593749	-1.0240565849940323e-23
-0.491571425437499	-1.0898197100723517e-23
-0.491510390281249	-1.1550251066148359e-23
-0.491449355124999	-1.2204255110634105e-23
-0.491388319968749	-1.285618902985458e-23
-0.491327284812499	-1.349933097207143e-23
-0.491266249656249	-1.4139736771226437e-23
-0.491205214499999	-1.4781746929605105e-23
-0.491144179343749	-1.541726283322449e-23
-0.491083144187499	-1.6044297474267392e-23
-0.491022109031249	-1.667141371817272e-23
-0.490961073874999	-1.7297240597199074e-23
-0.490900038718749	-1.7913094588827328e-23
-0.490839003562499	-1.852296442640071e-23
-0.490777968406249	-1.9133930970814767e-23
-0.490716933249999	-1.9739124120795632e-23
-0.490655898093749	-2.0333313198290254e-23
-0.490594862937499	-2.0924874729390817e-23
-0.490533827781249	-2.1515874957995564e-23
-0.490472792624999	-2.209674175670491e-23
-0.490411757468749	-2.2668264882378756e-23
-0.490350722312499	-2.3239492299137822e-23
-0.490289687156249	-2.3806194863401257e-23
-0.490228651999999	-2.4360299358985488e-23
-0.490167616843749	-2.4908429826384444e-23
-0.490106581687499	-2.545613955058213e-23
-0.490045546531249	-2.5994546984353253e-23
-0.489984511374999	-2.6520683869075244e-23
-0.489923476218749	-2.7044117072657195e-23
-0.489862441062499	-2.756432089081086e-23
-0.489801405906249	-2.8071566076614775e-23
-0.489740370749999	-2.856925351509232e-23
-0.489679335593749	-2.9065629629632003e-23
-0.489618300437499	-2.9554273503456676e-23
-0.489557265281249	-3.00287891577179e-23
-0.489496230124999	-3.049734371187708e-23
-0.489435194968749	-3.0963308773981194e-23
-0.489374159812499	-3.141721623014568e-23
-0.489313124656249	-3.18585207359227e-23
-0.489252089499999	-3.2296427042794525e-23
-0.489191054343749	-3.27281962701039e-23
-0.489130019187499	-3.314539918760005e-23
-0.489068984031249	-3.3553170640917404e-23
-0.489007948874999	-3.3957839330041974e-23
-0.488946913718749	-3.4352113554294016e-23
-0.488885878562499	-3.4731927900723194e-23
-0.488824843406249	-3.5105416753682527e-23
-0.488763808249999	-3.5473660457708e-23
-0.488702773093749	-3.5828197779219804e-23
-0.488641737937499	-3.617046505773704e-23
-0.488580702781249	-3.650794191368658e-23
-0.488519667624999	-3.68366369198677e-23
-0.488458632468749	-3.715041997278436e-23
-0.488397597312499	-3.745485623781633e-23
-0.488336562156249	-3.7753841334184715e-23
-0.488275526999999	-3.8040655591426924e-23
-0.488214491843749	-3.831354908570751e-23
-0.488153456687499	-3.857925820188384e-23
-0.488092421531249	-3.883710836512999e-23
-0.488031386374999	-3.9080780109108006e-23
-0.487970351218749	-3.931275532611133e-23
-0.487909316062499	-3.9538028697484866e-23
-0.487848280906249	-3.9752550448824337e-23
-0.487787245749999	-3.995281339650298e-23
-0.487726210593749	-4.014356380621527e-23
-0.487665175437499	-4.032640036606585e-23
-0.487604140281249	-4.0496293213435274e-23
-0.487543105124999	-4.065326630246648e-23
-0.487482069968749	-4.0801826727075485e-23
-0.487421034812499	-4.094039372034022e-23
-0.487359999656249	-4.10652723273399e-23
-0.487298964499999	-4.1179022764477164e-23
-0.487237929343749	-4.128407238323261e-23
-0.487176894187499	-4.137722102680104e-23
-0.487115859031249	-4.1457274372650863e-23
-0.487054823874999	-4.1527450160674714e-23
-0.486993788718749	-4.1587671384267194e-23
-0.486932753562499	-4.1635034142038943e-23
-0.486871718406249	-4.16705725325431e-23
-0.486810683249999	-4.169647637718434e-23
-0.486749648093749	-4.1711017315494614e-23
-0.486688612937499	-4.1712853913497505e-23
-0.486627577781249	-4.1703996026381955e-23
-0.486566542624999	-4.1684868548266087e-23
-0.486505507468749	-4.165352601884239e-23
-0.486444472312499	-4.16103601660798e-23
-0.486383437156249	-4.1556954622215217e-23
-0.486322401999999	-4.149232195688934e-23
-0.486261366843749	-4.1415481517411984e-23
-0.486200331687499	-4.132779181701991e-23
-0.486139296531249	-4.122959401283547e-23
-0.486078261374999	-4.111951839079179e-23
-0.486017226218749	-4.099792577654179e-23
-0.485956191062499	-4.086602652711373e-23
-0.485895155906249	-4.07229802337166e-23
-0.485834120749999	-4.056805880711437e-23
-0.485773085593749	-4.0402521390375133e-23
-0.485712050437499	-4.0226626836809334e-23
-0.485651015281249	-4.0039076969224823e-23
-0.485589980124999	-3.9840284317264327e-23
-0.485528944968749	-3.963153727381233e-23
-0.485467909812499	-3.9411999198026024e-23
-0.485406874656249	-3.9180796004280257e-23
-0.485345839499999	-3.893927201118028e-23
-0.485284804343749	-3.868796058155768e-23
-0.485223769187499	-3.842542072465065e-23
-0.485162734031249	-3.8151783301863474e-23
-0.485101698874999	-3.7868647956877946e-23
-0.485040663718749	-3.7575488888666805e-23
-0.484979628562499	-3.7271024838337076e-23
-0.484918593406249	-3.6956415308199155e-23
-0.484857558249999	-3.6632770831562974e-23
-0.484796523093749	-3.629872930422358e-23
-0.484735487937499	-3.5953790673888195e-23
-0.484674452781249	-3.5599698429340034e-23
-0.484613417624999	-3.52366224197273e-23
-0.484552382468749	-3.486296903845162e-23
-0.484491347312499	-3.447928986279693e-23
-0.484430312156249	-3.408725047718437e-23
-0.484369276999999	-3.3686012563560797e-23
-0.484308241843749	-3.327439032242311e-23
-0.484247206687499	-3.285383365520771e-23
-0.484186171531249	-3.2425353500484585e-23
-0.484125136374999	-3.19874431140914e-23
-0.484064101218749	-3.1539788889447716e-23
-0.484003066062499	-3.108426396416208e-23
-0.483942030906249	-3.062090954872403e-23
-0.483880995749999	-3.014811664419692e-23
-0.483819960593749	-2.9666601963140186e-23
-0.483758925437499	-2.9178052317787944e-23
-0.483697890281249	-2.86815367610732e-23
-0.483636855124999	-2.8175937186294783e-23
-0.483575819968749	-2.766283419181089e-23
-0.483514784812499	-2.7143201667533397e-23
-0.483453749656249	-2.6615473833631045e-23
-0.483392714499999	-2.6079442149801967e-23
-0.483331679343749	-2.5537064798698272e-23
-0.483270644187499	-2.4988302923002712e-23
-0.483209609031249	-2.4431528681954608e-23
-0.483148573874999	-2.386761304950876e-23
-0.483087538718749	-2.3298286430077231e-23
-0.483026503562499	-2.2722488240108286e-23
-0.482965468406249	-2.2139145118674486e-23
-0.482904433249999	-2.155003053620139e-23
-0.482843398093749	-2.095605525961564e-23
-0.482782362937499	-2.035549151040072e-23
-0.482721327781249	-1.974830737093354e-23
-0.482660292624999	-1.9136641703292064e-23
-0.482599257468749	-1.8520238205471033e-23
-0.482538222312499	-1.7897399394865215e-23
-0.482477187156249	-1.726932771516879e-23
-0.482416151999999	-1.6637752834200605e-23
-0.482355116843749	-1.600127565768986e-23
-0.482294081687499	-1.5358992479410952e-23
-0.482233046531249	-1.4713042742621664e-23
-0.482172011374999	-1.4064039168127076e-23
-0.482110976218749	-1.340998265118903e-23
-0.482049941062499	-1.275133298789971e-23
-0.481988905906249	-1.2090412283176586e-23
-0.481927870749999	-1.1426389009712754e-23
-0.481866835593749	-1.0757584829299814e-23
-0.481805800437499	-1.0085842922227029e-23
-0.481744765281249	-9.412673863400187e-24
-0.481683730124999	-8.736101446876822e-24
-0.481622694968749	-8.055720681102385e-24
-0.481561659812499	-7.374154841208563e-24
-0.481500624656249	-6.691312816427355e-24
-0.481439589499999	-6.00493406617411e-24
-0.481378554343749	-5.3163469018001e-24
-0.481317519187499	-4.627867199867348e-24
-0.481256484031249	-3.9377642422413845e-24
-0.481195448874999	-3.244728699200106e-24
-0.481134413718749	-2.551471758623422e-24
-0.481073378562499	-1.858807922678831e-24
-0.481012343406249	-1.1640756790561438e-24
-0.480951308249999	-4.678491064690205e-25
-0.480890273093749	2.268682837383859e-25
-0.480829237937499	9.213124396178891e-25
-0.480768202781249	1.6176907873988255e-24
-0.480707167624999	2.3134508980406146e-24
-0.480646132468749	3.0067646347307086e-24
-0.480585097312499	3.7004955710105355e-24
-0.480524062156249	4.3950615629749266e-24
-0.480463026999999	5.08689859140603e-24
-0.480401991843749	5.7764194102992166e-24
-0.480340956687499	6.466699719969847e-24
-0.480279921531249	7.155713473007478e-24
-0.480218886374999	7.840557576115867e-24
-0.480157851218749	8.523957687234269e-24
-0.480096816062499	9.207484092867058e-24
-0.480035780906249	9.887278082317928e-24
-0.479974745749999	1.0562673372140307e-23
-0.479913710593749	1.1237471765716844e-23
-0.479852675437499	1.1910514476654074e-23
-0.479791640281249	1.257784388488478e-23
-0.479730605124999	1.3241698421551282e-23
-0.479669569968749	1.3904928691957776e-23
-0.479608534812499	1.456370780234711e-23
-0.479547499656249	1.5216015354577023e-23
-0.479486464499999	1.586611060922994e-23
-0.479425429343749	1.651411158877164e-23
-0.479364394187499	1.715515074697403e-23
-0.479303359031249	1.7790464600883164e-23
-0.479242323874999	1.8424228425000267e-23
-0.479181288718749	1.905322782423418e-23
-0.479120253562499	1.9673890499656587e-23
-0.479059218406249	2.0290407143645715e-23
-0.478998183249999	2.0904504443784113e-23
-0.478937148093749	2.151080136451678e-23
-0.478876112937499	2.210909659664275e-23
-0.478815077781249	2.270466166136258e-23
-0.478754042624999	2.3295384706134955e-23
-0.478693007468749	2.3876166815478997e-23
-0.478631972312499	2.4450648800684203e-23
-0.478570937156249	2.5022390122635892e-23
-0.478509901999999	2.5585956979814167e-23
-0.478448866843749	2.6139278303907362e-23
-0.478387831687499	2.6688339759488117e-23
-0.478326796531249	2.723272714580013e-23
-0.478265761374999	2.7766048392906866e-23
-0.478204726218749	2.8290693041337137e-23
-0.478143691062499	2.8812038817252256e-23
-0.478082655906249	2.932532083839437e-23
-0.478021620749999	2.982636148095619e-23
-0.477960585593749	3.03212484160652e-23
-0.477899550437499	3.081176422370004e-23
-0.477838515281249	3.1290651593820855e-23
-0.477777480124999	3.175835838454583e-23
-0.477716444968749	3.222189196552343e-23
-0.477655409812499	3.267796319706345e-23
-0.477594374656249	3.312022290006573e-23
-0.477533339499999	3.355402357544673e-23
-0.477472304343749	3.398368065925812e-23
-0.477411269187499	3.44018497281743e-23
-0.477350234031249	3.480642500413739e-23
-0.477289198874999	3.520543173759862e-23
-0.477228163718749	3.559791698714843e-23
-0.477167128562499	3.5975714415668636e-23
-0.477106093406249	3.63424384251403e-23
-0.477045058249999	3.6704939578143903e-23
-0.476984023093749	3.705684010678862e-23
-0.476922987937499	3.739310633626499e-23
-0.476861952781249	3.772179121474176e-23
-0.476800917624999	3.8044994183701354e-23
-0.476739882468749	3.835352731097294e-23
-0.476678847312499	3.864825062604042e-23
-0.476617812156249	3.893805531350699e-23
-0.476556776999999	3.92187686000068e-23
-0.476495741843749	3.9482559501286294e-23
-0.476434706687499	3.973620187456196e-23
-0.476373671531249	3.9985166229852776e-23
-0.476312636374999	4.022049414528927e-23
-0.476251601218749	4.043950678638857e-23
-0.476190566062499	4.065206654917313e-23
-0.476129530906249	4.085739257277521e-23
-0.476068495749999	4.1045603309413574e-23
-0.476007460593749	4.1220703044089246e-23
-0.475946425437499	4.1391214165461835e-23
-0.475885390281249	4.1550086251188195e-23
-0.475824355124999	4.169095952699427e-23
-0.475763319968749	4.1822970825281765e-23
-0.475702284812499	4.1949370878708387e-23
-0.475641249656249	4.205978377615849e-23
-0.475580214499999	4.2154308620787454e-23
-0.475519179343749	4.224325140138747e-23
-0.475458144187499	4.232303141492794e-23
-0.475397109031249	4.238444851497476e-23
-0.475336073874999	4.2434049365684726e-23
-0.475275038718749	4.247881377308615e-23
-0.475214003562499	4.25098951669578e-23
-0.475152968406249	4.252321087214621e-23
-0.475091933249999	4.252884350712594e-23
-0.475030898093749	4.2527536767881964e-23
-0.474969862937499	4.250906771317272e-23
-0.474908827781249	4.2476009474973843e-23
-0.474847792624999	4.2437602120553176e-23
-0.474786757468749	4.238834333383565e-23
-0.474725722312499	4.2320952735264274e-23
-0.474664687156249	4.224318062938485e-23
-0.474603651999999	4.2159689662601006e-23
-0.474542616843749	4.206147095521087e-23
-0.474481581687499	4.19469161711266e-23
-0.474420546531249	4.1825343015933164e-23
-0.474359511374999	4.169539844031216e-23
-0.474298476218749	4.154856665117846e-23
-0.474237441062499	4.1388934828400206e-23
-0.474176405906249	4.1223487767849564e-23
-0.474115370749999	4.10461713782074e-23
-0.474054335593749	4.085230343232345e-23
-0.473993300437499	4.064926324814782e-23
-0.473932265281249	4.0439301435365063e-23
-0.473871230124999	4.021480525679852e-23
-0.473810194968749	3.9976164755385444e-23
-0.473749159812499	3.9730587430851477e-23
-0.473688124656249	3.9475562475070013e-23
-0.473627089499999	3.920524195176408e-23
-0.473566054343749	3.8923989139943764e-23
-0.473505019187499	3.8636069316115363e-23
-0.473443984031249	3.833622427480576e-23
-0.473382948874999	3.802231110547544e-23
-0.473321913718749	3.7700065008245817e-23
-0.473260878562499	3.73698308987957e-23
-0.473199843406249	3.7026399399094106e-23
-0.473138808249999	3.6671316061030834e-23
-0.473077773093749	3.6309063870613843e-23
-0.473016737937499	3.593700318738389e-23
-0.472955702781249	3.5552128432504244e-23
-0.472894667624999	3.515802873756635e-23
-0.472833632468749	3.475647029789093e-23
-0.472772597312499	3.434387430391899e-23
-0.472711562156249	3.392008521174919e-23
-0.472650526999999	3.3488605590068123e-23
-0.472589491843749	3.3048640198087115e-23
-0.472528456687499	3.259760007964681e-23
-0.472467421531249	3.2137355396342593e-23
-0.472406386374999	3.1669815671912175e-23
-0.472345351218749	3.119291988196424e-23
-0.472284316062499	3.070601128153809e-23
-0.472223280906249	3.021144834371912e-23
-0.472162245749999	2.970922815445795e-23
-0.472101210593749	2.9197575506361154e-23
-0.472040175437499	2.8677494637407294e-23
-0.471979140281249	2.815045692943488e-23
-0.471918105124999	2.7615281410914444e-23
-0.471857069968749	2.7071496217602836e-23
-0.471796034812499	2.6520707173126317e-23
-0.471734999656249	2.5962952071924026e-23
-0.471673964499999	2.5397085062874796e-23
-0.471612929343749	2.4823999808483643e-23
-0.471551894187499	2.4244768576270564e-23
-0.471490859031249	2.3658384045434485e-23
-0.471429823874999	2.3064624872771943e-23
-0.471368788718749	2.2464997946886934e-23
-0.471307753562499	2.1859441847401197e-23
-0.471246718406249	2.1246839141149793e-23
-0.471185683249999	2.0628150766589155e-23
-0.471124648093749	2.0004540317643714e-23
-0.471063612937499	1.93749384849425e-23
-0.471002577781249	1.8738987051922088e-23
-0.470941542624999	1.8098370314909053e-23
