Time	Frequency
-0.5000076285312502	0.47086946961075266
-0.49994659337500025	0.46888072343667486
-0.49988555821875025	0.4667578102682034
-0.49982452306250025	0.46451895329237036
-0.49976348790625025	0.462152592828393
-0.49970245275000025	0.4596522193817622
-0.49964141759375025	0.4570365928540795
-0.49958038243750025	0.4542978502377674
-0.49951934728125025	0.4514261539032205
-0.49945831212500025	0.44843975063211666
-0.49939727696875025	0.44533466596743043
-0.49933624181250025	0.4420982645788625
-0.49927520665625025	0.4387476000891966
-0.49921417150000025	0.4352830811648617
-0.49915313634375025	0.43169002767192355
-0.49909210118750025	0.42798304047338687
-0.49903106603125025	0.424166622091857
-0.49897003087500025	0.4202251334168389
-0.49890899571875025	0.41617031221130896
-0.49884796056250025	0.41201056501795025
-0.49878692540625025	0.40773006564355624
-0.49872589025000025	0.40333704540835674
-0.49866485509375025	0.39884339973001937
-0.49860381993750025	0.3942341036126986
-0.49854278478125025	0.389513450850728
-0.49848174962500025	0.38469597478334366
-0.49842071446875025	0.37976830741134143
-0.49835967931250025	0.3747309581003084
-0.49829864415625025	0.36960069990757366
-0.49823760900000025	0.36436668871194666
-0.49817657384375025	0.35902524113182277
-0.49811553868750025	0.35359394522005044
-0.49805450353125025	0.348065316447529
-0.49799346837500025	0.3424323575827831
-0.49793243321875025	0.3367126890232597
-0.49787139806250025	0.3309023498011153
-0.49781036290625025	0.32499130290437567
-0.49774932775000025	0.3189965245482644
-0.49768829259375025	0.312918212310265
-0.49762725743750025	0.3067437775106497
-0.49756622228125025	0.30048817216042006
-0.49750518712500025	0.2941557956356858
-0.49744415196875025	0.28773263154329004
-0.49738311681250025	0.2812307933165205
-0.49732208165625025	0.27465869383566965
-0.49726104650000025	0.26800205738380267
-0.49720001134375025	0.2612696272409607
-0.49713897618750025	0.25447344723392473
-0.49707794103125025	0.2475999459142019
-0.49701690587500025	0.2406536300379972
-0.49695587071875025	0.23364884542451084
-0.49689483556250025	0.22657375133499238
-0.49683380040625025	0.2194295231927144
-0.49677276525000025	0.21223271067686494
-0.49671173009375025	0.20497369350954497
-0.49665069493750025	0.19764972918550106
-0.49658965978125025	0.19027816169099138
-0.49652862462500025	0.18285198222403945
-0.49646758946875025	0.1753650359607033
-0.49640655431250025	0.16783538483951374
-0.49634551915625025	0.16025985426606865
-0.49628448400000025	0.1526289911997951
-0.49622344884375025	0.14495969634332276
-0.49616241368750025	0.1372525445801598
-0.49610137853125025	0.12949589936943826
-0.49604034337500025	0.12170529747871917
-0.49597930821875025	0.11388503908363537
-0.49591827306250025	0.10602120639564461
-0.49585723790625025	0.09812697120554432
-0.49579620275000025	0.0902114504974574
-0.49573516759375025	0.08226039609273149
-0.49567413243750025	0.0742831701520817
-0.49561309728125025	0.0662915702860011
-0.49555206212500025	0.05827136696961413
-0.49549102696875025	0.05022914576699998
-0.49542999181250025	0.04218050987035565
-0.49536895665625025	0.03411168151285154
-0.49530792150000025	0.026024432104660735
-0.49524688634375025	0.01793697187995324
-0.49518585118750025	0.009837990516312407
-0.49512481603125025	0.0017253574018597899
-0.49506378087500025	-0.006380916432461602
-0.49500274571875025	-0.014489517016280979
-0.49494171056250025	-0.022607307882511835
-0.49488067540625025	-0.030713672604883377
-0.49481964025000025	-0.03881323221285563
-0.49475860509375025	-0.046916435305149565
-0.49469756993750025	-0.05500300694792279
-0.49463653478125025	-0.06307380371859443
-0.49457549962500025	-0.07114310430740152
-0.49451446446875025	-0.07919143579786757
-0.49445342931250025	-0.08721410252266024
-0.49439239415625025	-0.09522839681352317
-0.49433135900000025	-0.10321823611604326
-0.49427032384375025	-0.11117390688519246
-0.49420928868750025	-0.11911390927923736
-0.49414825353125025	-0.1270259988287287
-0.49408721837500025	-0.13489603097630548
-0.49402618321875025	-0.1427428506907752
-0.49396514806250025	-0.15055804131337394
-0.49390411290625025	-0.15832283927938512
-0.49384307775000025	-0.1660563452501539
-0.49378204259375025	-0.1737558804147789
-0.49372100743750025	-0.18139792768281035
-0.49365997228125025	-0.1889990833547156
-0.49359893712500025	-0.19656312096086237
-0.49353790196875025	-0.20406384224632404
-0.49347686681250025	-0.2115143665920043
-0.49341583165625025	-0.21892484287381156
-0.49335479650000025	-0.22626704046928348
-0.49329376134375025	-0.23354866890944728
-0.49323272618750025	-0.24078615493427194
-0.49317169103125025	-0.24795140864839846
-0.49311065587500025	-0.2550462330531436
-0.49304962071875025	-0.262093192393097
-0.49298858556250025	-0.2690656012800832
-0.49292755040625025	-0.2759571188900321
-0.49286651525000025	-0.2827949298005819
-0.49280548009375025	-0.28955659227975367
-0.49274444493750025	-0.2962280740622351
-0.49268340978125025	-0.30283974449395434
-0.49262237462500025	-0.3093746416131352
-0.49256133946875025	-0.31581032714926355
-0.49250030431250025	-0.3221786435898108
-0.49243926915625025	-0.3284706394113461
-0.49237823400000025	-0.3346559583086268
-0.49231719884375025	-0.34076486324938166
-0.49225616368750025	-0.3467977302678353
-0.49219512853125025	-0.3527179866087924
-0.49213409337500025	-0.35855211851212926
-0.49207305821875025	-0.3643106792823481
-0.49201202306250025	-0.36995220101617593
-0.49195098790625025	-0.37549655108205493
-0.49188995275000025	-0.38096540217136526
-0.49182891759375025	-0.3863154126974559
-0.49176788243750025	-0.3915569899997165
-0.49170684728125025	-0.3967217836368956
-0.49164581212500025	-0.4017673963248977
-0.49158477696875025	-0.40669307154503354
-0.49152374181250025	-0.4115397162349473
-0.49146270665625025	-0.4162693615600145
-0.49140167150000025	-0.4208679129530682
-0.49134063634375025	-0.42538287452041434
-0.49127960118750025	-0.4297847325937204
-0.49121856603125025	-0.43404574875058655
-0.49115753087500025	-0.43821654277812705
-0.49109649571875025	-0.4422793349332336
-0.49103546056250025	-0.44619342956682345
-0.49097442540625025	-0.45000865476044777
-0.49091339025000025	-0.45372190886914754
-0.49085235509375025	-0.45728119611635676
-0.49079131993750025	-0.4607304789123946
-0.49073028478125025	-0.4640832741091338
-0.49066924962500025	-0.467280089496864
-0.49060821446875025	-0.4703543919388796
-0.49054717931250025	-0.4733365846705413
-0.49048614415625025	-0.47616430527150905
-0.49042510900000025	-0.47885627786918245
-0.49036407384375025	-0.4814583618423018
-0.49030303868750025	-0.48391096911582265
-0.49024200353125025	-0.4862150275637482
-0.49018096837500025	-0.4884283246191579
-0.49011993321875025	-0.4904997685744591
-0.49005889806250025	-0.49241141459959614
-0.48999786290625025	-0.49422815235896056
-0.48993682775000025	-0.4959125646276996
-0.48987579259375025	-0.49742872966507784
-0.48981475743750025	-0.4988427277836859
-0.48975372228125025	-0.5001346748105997
-0.48969268712500025	-0.501253607342489
-0.48963165196875025	-0.5022604105062394
-0.48957061681250025	-0.5031546086766505
-0.48950958165625025	-0.5038750925994999
-0.48944854650000025	-0.5044719364637279
-0.48938751134375025	-0.5049636308239095
-0.48932647618750025	-0.505284741423255
-0.48926544103125025	-0.5054704965356119
-0.48920440587500025	-0.5055560584658072
-0.48914337071875025	-0.505477505545453
-0.48908233556250025	-0.5052526477319235
-0.48902130040625025	-0.5049294102650956
-0.48896026525000025	-0.5044510845083755
-0.48889923009375025	-0.503817606203963
-0.48883819493750025	-0.5030843793913885
-0.48877715978125025	-0.502206271798862
-0.48871612462500025	-0.5011670846253604
-0.48865508946875025	-0.5000243452281189
-0.48859405431250025	-0.498747038642418
-0.48853301915625025	-0.49730584114298515
-0.48847198400000025	-0.49575557125963216
-0.48841094884375025	-0.4940803499299253
-0.48834991368750025	-0.4922416569818394
-0.48828887853125025	-0.49028750441102004
-0.48822784337500025	-0.48821643562772116
-0.48816680821875025	-0.4859849895576969
-0.48810577306250025	-0.4836317566221428
-0.48804473790625025	-0.48116801869185744
-0.48798370275000025	-0.4785494233744166
-0.48792266759375025	-0.4758036191759115
-0.48786163243750025	-0.4729517395354243
-0.48780059728125025	-0.46995172109704614
-0.48773956212500025	-0.4668201844681632
-0.48767852696875025	-0.46358560047745007
-0.48761749181250025	-0.46021098189631154
-0.48755645665625025	-0.4567021642203141
-0.48749542150000025	-0.4530915792059677
-0.48743438634375025	-0.44934937445663886
-0.48737335118750025	-0.445472487052266
-0.48731231603125025	-0.441494388166061
-0.48725128087500025	-0.43739264560734087
-0.48719024571875025	-0.43315713551923524
-0.48712921056250025	-0.4288205785062028
-0.48706817540625025	-0.42436823310673183
-0.48700714025000025	-0.41978465136619547
-0.48694610509375025	-0.41509984660529264
-0.48688506993750025	-0.4103063343933522
-0.48682403478125025	-0.40538555172762375
-0.48676299962500025	-0.40036400735636074
-0.48670196446875025	-0.39524049797952027
-0.48664092931250025	-0.38999448113453516
-0.48657989415625025	-0.3846483302330408
-0.48651885900000025	-0.3792064792227255
-0.48645782384375025	-0.3736476546008132
-0.48639678868750025	-0.3679896208667669
-0.48633575353125025	-0.36224158029189424
-0.48627471837500025	-0.3563828507799125
-0.48621368321875025	-0.3504266636871282
-0.48615264806250025	-0.3443858372388281
-0.48609161290625025	-0.33824095206429944
-0.48603057775000025	-0.33200121313517206
-0.48596954259375025	-0.32568256871710194
-0.48590850743750025	-0.3192669063263254
-0.48584747228125025	-0.31275850144093376
-0.48578643712500025	-0.3061756341900319
-0.48572540196875025	-0.29950335891402824
-0.48566436681250025	-0.2927423030693751
-0.48560333165625025	-0.2859117640490852
-0.48554229650000025	-0.27899907200476565
-0.48548126134375025	-0.2720011847766943
-0.48542022618750025	-0.26493873076121743
-0.48535919103125025	-0.25780242486271576
-0.48529815587500025	-0.2505852060756612
-0.48523712071875025	-0.243307642384096
-0.48517608556250025	-0.23596455391338395
-0.48511505040625025	-0.2285456479464092
-0.48505401525000025	-0.2210703533573575
-0.48499298009375025	-0.2135375597281006
-0.48493194493750025	-0.20593449065825475
-0.48487090978125025	-0.1982789715041325
-0.48480987462500025	-0.19057450765636863
-0.48474883946875025	-0.18280672922954966
-0.48468780431250025	-0.1749903781973806
-0.48462676915625025	-0.16713257946669377
-0.48456573400000025	-0.15921815380562868
-0.48450469884375025	-0.15125890835803324
-0.48444366368750025	-0.143266196203086
-0.48438262853125025	-0.1352250914026355
-0.48432159337500025	-0.12714311630840536
-0.48426055821875025	-0.11903436379214895
-0.48419952306250025	-0.11088532835406573
-0.48413848790625025	-0.10270008550222218
-0.48407745275000025	-0.09449506662709384
-0.48401641759375025	-0.08625827762690373
-0.48395538243750025	-0.07798976340084632
-0.48389434728125025	-0.06970790487521822
-0.48383331212500025	-0.06140340386717209
-0.48377227696875025	-0.05307195602998218
-0.48371124181250025	-0.044732599461930374
-0.48365020665625025	-0.03637996274116518
-0.48358917150000025	-0.028006375501983975
-0.48352813634375025	-0.01963015283796882
-0.48346710118750025	-0.01124957751121683
-0.48340606603125025	-0.0028543510827479532
-0.48334503087500025	0.005538299072020717
-0.48328399571875025	0.013926298434315388
-0.48322296056250025	0.022322530984559934
-0.48316192540625025	0.030711974402230374
-0.48310089025000025	0.03908802184546276
-0.48303985509375025	0.04746465820663665
-0.48297881993750025	0.05583003538368049
-0.48291778478125025	0.06417341233002526
-0.48285674962500025	0.07250894816479071
-0.48279571446875025	0.08082931521254359
-0.48273467931250025	0.08912075156635031
-0.48267364415625025	0.09739563899638824
-0.48261260900000025	0.10565035373920616
-0.48255157384375025	0.11386954941471994
-0.48249053868750025	0.12206404838026456
-0.48242950353125025	0.13023328016225486
-0.48236846837500025	0.13835992789100468
-0.48230743321875025	0.14645304140749535
-0.48224639806250025	0.15451630975810315
-0.48218536290625025	0.16253119093541088
-0.48212432775000025	0.17050332306833474
-0.48206329259375025	0.1784403828998599
-0.48200225743750025	0.18632421250919728
-0.48194122228125025	0.1941564321135864
-0.48188018712500025	0.20194752287194584
-0.48181915196875025	0.2096806994091883
-0.48175811681250025	0.21735394426742766
-0.48169708165625025	0.22497992754497095
-0.48163604650000025	0.23254351132212467
-0.48157501134375025	0.24003871291016016
-0.48151397618750025	0.2474801849490442
-0.48145294103125025	0.2548559280466598
-0.48139190587500025	0.2621557720568977
-0.48133087071875025	0.26939444147313135
-0.48126983556250025	0.27656348687842874
-0.48120880040625025	0.283649648543144
-0.48114776525000025	0.2906674617259657
-0.48108673009375025	0.2976122046098966
-0.48102569493750025	0.3044675404002016
-0.48096465978125025	0.31124706847269695
-0.48090362462500025	0.3179504125252665
-0.48084258946875025	0.3245586777464829
-0.48078155431250025	0.33108321220021797
-0.48072051915625025	0.33752812837883045
-0.48065948400000025	0.3438730151227507
-0.48059844884375025	0.35012606506858646
-0.48053741368750025	0.35629606184149365
-0.48047637853125025	0.3623623590570655
-0.48041534337500025	0.36832888446747875
-0.48035430821875025	0.37420824680225945
-0.48029327306250025	0.3799807581580985
-0.48023223790625025	0.3856460481358371
-0.48017120275000025	0.3912201350373841
-0.48011016759375025	0.3966850631848609
-0.48004913243750025	0.4020353846970025
-0.47998809728125025	0.4072897252274307
-0.47992706212500025	0.4124333071502226
-0.47986602696875025	0.41745550164930806
-0.47980499181250025	0.42237635178927074
-0.47974395665625025	0.42718549747445467
-0.47968292150000025	0.43186761532072476
-0.47962188634375025	0.43644281318741696
-0.47956085118750025	0.4409055780190527
-0.47949981603125025	0.4452362913650838
-0.47943878087500025	0.44945414174650083
-0.47937774571875025	0.4535591452672899
-0.47931671056250025	0.45752773444943573
-0.47925567540625025	0.46137693758312
-0.47919464025000025	0.4651134785232364
-0.47913360509375025	0.46871093074055376
-0.47907256993750025	0.4721820376954285
-0.47901153478125025	0.4755401391626149
-0.47895049962500025	0.47875762744921485
-0.47888946446875025	0.4818417916822963
-0.47882842931250025	0.48481241502082206
-0.47876739415625025	0.4876423035261721
-0.47870635900000025	0.4903319127044369
-0.47864532384375025	0.4929068038414684
-0.47858428868750025	0.49534220243267163
-0.47852325353125025	0.49763074692734394
-0.47846221837500025	0.49980251492863875
-0.47840118321875025	0.501837268673344
-0.47834014806250025	0.5037194340926963
-0.47827911290625025	0.5054819219776912
-0.47821807775000025	0.5071109119780993
-0.47815704259375025	0.508582451720125
-0.47809600743750025	0.509930196815458
-0.47803497228125025	0.5111488535307004
-0.47797393712500025	0.5122068044427196
-0.47791290196875025	0.5131357365401431
-0.47785186681250025	0.5139402830498677
-0.47779083165625025	0.5145826171490244
-0.47772979650000025	0.5150898165196279
-0.47766876134375025	0.5154774169840024
-0.47760772618750025	0.515703322473924
-0.47754669103125025	0.5157870508805595
-0.47748565587500025	0.5157553921279977
-0.47742462071875025	0.5155649577338046
-0.47736358556250025	0.5152250293424256
-0.47730255040625025	0.5147727861308724
-0.47724151525000025	0.5141668130992727
-0.47718048009375025	0.513404132034988
-0.47711944493750025	0.5125308575382133
-0.47705840978125025	0.5115112618637331
-0.47699737462500025	0.5103284843939159
-0.47693633946875025	0.5090347686569776
-0.47687530431250025	0.5076039397544304
-0.47681426915625025	0.506004851491454
-0.47675323400000025	0.5042921888820654
-0.47669219884375025	0.502453012858059
-0.47663116368750025	0.5004428143652682
-0.47657012853125025	0.49831411855103885
-0.47650909337500025	0.49607008764077715
-0.47644805821875025	0.4936552325470383
-0.47638702306250025	0.4911148343562963
-0.47632598790625025	0.48846997255460906
-0.47626495275000025	0.48565820913795243
-0.47620391759375025	0.4827122030202867
-0.47614288243750025	0.47967066070149106
-0.47608184728125025	0.4764698111623387
-0.47602081212500025	0.4731257713510205
-0.47595977696875025	0.4696926634973726
-0.47589874181250025	0.46611124127437087
-0.47583770665625025	0.4623785473863591
-0.47577667150000025	0.4585603940487392
-0.47571563634375025	0.4546078533337218
-0.47565460118750025	0.4504975185756842
-0.47559356603125025	0.44630119328601225
-0.47553253087500025	0.44198599852439135
-0.47547149571875025	0.43750991052770377
-0.47541046056250025	0.43294421363144875
-0.47534942540625025	0.4282757841915927
-0.47528839025000025	0.42344751998327734
-0.47522735509375025	0.4185230580722392
-0.47516631993750025	0.41351056255642216
-0.47510528478125025	0.40834395423789327
-0.47504424962500025	0.4030733277917391
-0.47498321446875025	0.3977264258035034
-0.47492217931250025	0.3922347453565557
-0.47486114415625025	0.38663172767102194
-0.47480010900000025	0.3809618509123835
-0.47473907384375025	0.37515973494750254
-0.47467803868750025	0.3692393216478274
-0.47461700353125025	0.3632574674322062
-0.47455596837500025	0.35715866275296154
-0.47449493321875025	0.3509378098916987
-0.47443389806250025	0.34465780532261614
-0.47437286290625025	0.33827680406348043
-0.47431182775000025	0.3317728315361369
-0.47425079259375025	0.32520892235522125
-0.47418975743750025	0.31855938327533134
-0.47412872228125025	0.31178954043861623
-0.47406768712500025	0.30495757259793116
-0.47400665196875025	0.29805423574499307
-0.47394561681250025	0.2910367991643712
-0.47388458165625025	0.28395460178434084
-0.47382354650000025	0.27681323747889536
-0.47376251134375025	0.2695663221801917
-0.47370147618750025	0.2622519838968447
-0.47364044103125025	0.25488840229587156
-0.47357940587500025	0.24742975993953392
-0.47351837071875025	0.23990206501608777
-0.47345733556250025	0.23233307446117643
-0.47339630040625025	0.22468092754609675
-0.47333526525000025	0.21695977383518403
-0.47327423009375025	0.20920374253090399
-0.47321319493750025	0.2013773682007564
-0.47315215978125025	0.1934834652077307
-0.47309112462500025	0.1855585987360988
-0.47303008946875025	0.17757540851857337
-0.47296905431250025	0.16952825237008434
-0.47290801915625025	0.16145407501339976
-0.47284698400000025	0.15333387974422236
-0.47278594884375025	0.14515493139755303
-0.47272491368750025	0.13695174469033053
-0.47266387853125025	0.1287134544434473
-0.47260284337500025	0.12042312686391102
-0.47254180821875025	0.11211181160921428
-0.47248077306250025	0.10377542963236337
-0.47241973790625025	0.0953940800379194
-0.47235870275000025	0.08699494230854245
-0.47229766759375025	0.07858064382427704
-0.47223663243750025	0.07012976780866667
-0.47217559728125025	0.061664461258470624
-0.47211456212500025	0.05319282110705407
-0.47205352696875025	0.04469334682511635
-0.47199249181250025	0.0361829897298271
-0.47193145665625025	0.027674248588130678
-0.47187042150000025	0.019147050969492718
-0.47180938634375025	0.010613728481989305
-0.47174835118750025	0.002089589325413933
-0.47168731603125025	-0.006444250929428812
-0.47162628087500025	-0.01497969214018405
-0.47156524571875025	-0.023498418999734424
-0.47150421056250025	-0.032017383617954524
-0.47144317540625025	-0.04053334517994158
-0.47138214025000025	-0.04902598509996449
-0.47132110509375025	-0.05750900346626814
-0.47126006993750025	-0.06598330722834923
-0.47119903478125025	-0.0744281635937553
-0.47113799962500025	-0.08285455287953268
-0.47107696446875025	-0.09126685183501801
-0.47101592931250025	-0.09964341090027484
-0.47095489415625025	-0.10799170403604971
-0.47089385900000025	-0.11632000376163625
-0.47083282384375025	-0.12460703856594273
-0.47077178868750025	-0.1328562197358846
-0.47071075353125025	-0.14107929805221145
-0.47064971837500025	-0.14925667420793037
-0.47058868321875025	-0.15738719128799064
-0.47052764806250025	-0.16548444569553808
-0.47046661290625025	-0.17353118007580934
-0.47040557775000025	-0.18152224915487888
-0.47034454259375025	-0.18947260531077106
