Time	Frequency
-0.5000401970624999	0.511350208231395
-0.4999791619062499	0.5101528245684546
-0.4999181267499999	0.5088650928755434
-0.4998570915937499	0.507445700178221
-0.4997960564374999	0.5058194806221856
-0.4997350212812499	0.5040112092822964
-0.4996739861249999	0.5021026328671674
-0.4996129509687499	0.5000885190828447
-0.4995519158124999	0.4978865851840032
-0.4994908806562499	0.4954841402097145
-0.4994298454999999	0.4929619074938344
-0.4993688103437499	0.49035234763678215
-0.4993077751874999	0.4875830481374618
-0.4992467400312499	0.4846059725406904
-0.4991857048749999	0.4814842507575528
-0.4991246697187499	0.478282251532044
-0.4990636345624999	0.47495281009780715
-0.4990025994062499	0.471421811841542
-0.4989415642499999	0.46772134740387017
-0.4988805290937499	0.4639352828226917
-0.4988194939374999	0.4600524038760446
-0.4987584587812499	0.4559873307268309
-0.4986974236249999	0.4517336217140037
-0.4986363884687499	0.4473782193354259
-0.4985753533124999	0.4429499987375138
-0.4985143181562499	0.438369750860796
-0.4984532829999999	0.43359190484772664
-0.4983922478437499	0.42868850103365574
-0.4983312126874999	0.4237251393076299
-0.4982701775312499	0.418646563360706
-0.4982091423749999	0.4133756861831538
-0.4981481072187499	0.4079531386193208
-0.4980870720624999	0.40246956004810197
-0.4980260369062499	0.3969077285059111
-0.4979650017499999	0.3911740542987165
-0.4979039665937499	0.38526670596347107
-0.4978429314374999	0.37928358243185506
-0.4977818962812499	0.3732529605382589
-0.4977208611249999	0.3670847508578602
-0.4976598259687499	0.360731562051316
-0.4975987908124999	0.35427737659139324
-0.4975377556562499	0.3477943570226444
-0.4974767204999999	0.3412172525193338
-0.4974156853437499	0.33445942895387115
-0.4973546501874999	0.32756991304011507
-0.4972936150312499	0.32065287767771683
-0.4972325798749999	0.31368716545186226
-0.4971715447187499	0.30656458565585587
-0.4971105095624999	0.29928401885627975
-0.4970494744062499	0.29195991727045567
-0.4969884392499999	0.2846253183250932
-0.4969274040937499	0.27717433267827685
-0.4968663689374999	0.26955052435109916
-0.4968053337812499	0.2618529201868779
-0.4967442986249999	0.25416814530832194
-0.4966832634687499	0.2464195736957657
-0.4966222283124999	0.23850305026745722
-0.4965611931562499	0.23047581493898348
-0.4965001579999999	0.22246346162440053
-0.4964391228437499	0.2144422923540616
-0.4963780876874999	0.20628101488441528
-0.4963170525312499	0.1979754991700832
-0.4962560173749999	0.18966456163054285
-0.4961949822187499	0.1813917962994358
-0.4961339470624999	0.1730292626025645
-0.4960729119062499	0.16450388724549778
-0.4960118767499999	0.15593340266398853
-0.4959508415937499	0.1474271179578613
-0.4958898064374999	0.13889567279023693
-0.4958287712812499	0.13020883083291113
-0.4957677361249999	0.12143078783944963
-0.4957067009687499	0.11271592616697212
-0.4956456658124999	0.1040408549691846
-0.4955846306562499	0.09524565582191913
-0.4955235954999999	0.08631936787921186
-0.4954625603437499	0.07742798147095446
-0.4954015251874999	0.06862863249934585
-0.4953404900312499	0.05977019196600214
-0.4952794548749999	0.050761164045978344
-0.4952184197187499	0.0417379813763418
-0.4951573845624999	0.032832858026544204
-0.4950963494062499	0.023943887466055948
-0.4950353142499999	0.014915317400892865
-0.4949742790937499	0.005817298841652452
-0.4949132439374999	-0.0031691820961121573
-0.4948522087812499	-0.012066227632737795
-0.4947911736249999	-0.02105869527428558
-0.4947301384687499	-0.03016473025443954
-0.4946691033124999	-0.039196557606903056
-0.4946080681562499	-0.0480852520177865
-0.4945470329999999	-0.056999263530611424
-0.4944859978437499	-0.06604468152108738
-0.4944249626874999	-0.07507264565613553
-0.4943639275312499	-0.08393517076281187
-0.4943028923749999	-0.09274146295861942
-0.4942418572187499	-0.10166208620777101
-0.4941808220624999	-0.11062394927013175
-0.4941197869062499	-0.11943391107533861
-0.4940587517499999	-0.1281142307526232
-0.4939977165937499	-0.13685876344684234
-0.4939366814374999	-0.14568690393805414
-0.4938756462812499	-0.15440520093067772
-0.4938146111249999	-0.16294378263038886
-0.4937535759687499	-0.17147413905706815
-0.4936925408124999	-0.18010171364072192
-0.4936315056562499	-0.18867643419691357
-0.4935704704999999	-0.19705402493572158
-0.4935094353437499	-0.20534529055203568
-0.4934484001874999	-0.21371470623403388
-0.4933873650312499	-0.22208616320295219
-0.4933263298749999	-0.23027452084584712
-0.4932652947187499	-0.2383080248121884
-0.4932042595624999	-0.24637234870108854
-0.4931432244062499	-0.2544780427789792
-0.4930821892499999	-0.2624396221950373
-0.4930211540937499	-0.27019992813757904
-0.4929601189374999	-0.277924759598242
-0.4928990837812499	-0.285704089299937
-0.4928380486249999	-0.2933909097379551
-0.4927770134687499	-0.3008593526120354
-0.4927159783124999	-0.3082217990463829
-0.4926549431562499	-0.315623418230471
-0.4925939079999999	-0.32298212620771605
-0.4925328728437499	-0.33013264417971416
-0.4924718376874999	-0.3371149951204542
-0.4924108025312499	-0.3440972783555067
-0.4923497673749999	-0.3510739794120787
-0.4922887322187499	-0.3578743663262202
-0.4922276970624999	-0.36446188121792356
-0.4921666619062499	-0.3709931681317876
-0.4921056267499999	-0.3775359813768796
-0.4920445915937499	-0.38394741765411317
-0.4919835564374999	-0.3901249479350217
-0.4919225212812499	-0.39618324907668545
-0.4918614861249999	-0.40224616470923896
-0.4918004509687499	-0.40822508338644986
-0.4917394158124999	-0.4139743300425287
-0.4916783806562499	-0.41954528129724494
-0.4916173454999999	-0.4250905797356066
-0.4915563103437499	-0.43059120888295527
-0.4914952751874999	-0.4358888832835169
-0.4914342400312499	-0.44096336160080324
-0.4913732048749999	-0.4459638133786375
-0.4913121697187499	-0.45094157984842176
-0.4912511345624999	-0.4557580299966986
-0.4911900994062499	-0.46032789598657214
-0.4911290642499999	-0.4647662117562337
-0.4910680290937499	-0.46918145692668073
-0.4910069939374999	-0.47348258977090585
-0.4909459587812499	-0.4775388677229767
-0.4908849236249999	-0.4814075494771129
-0.4908238884687499	-0.485228920457072
-0.4907628533124999	-0.488977020090736
-0.4907018181562499	-0.49250512808670677
-0.4906407829999999	-0.49580245355939007
-0.4905797478437499	-0.49900944604088465
-0.4905187126874999	-0.5021681030910367
-0.4904576775312499	-0.505148055137877
-0.4903966423749999	-0.5078753390737288
-0.4903356072187499	-0.510459250484481
-0.4902745720624999	-0.5129969821108333
-0.4902135369062499	-0.515402569654006
-0.4901525017499999	-0.5175586517453717
-0.4900914665937499	-0.5195205868877576
-0.4900304314374999	-0.5214156289856156
-0.4899693962812499	-0.5232185025707154
-0.4899083611249999	-0.5247972216771102
-0.4898473259687499	-0.5261443245970158
-0.4897862908124999	-0.5273866430633181
-0.4897252556562499	-0.5285606470518848
-0.4896642204999999	-0.5295498364378217
-0.4896031853437499	-0.5302903284987472
-0.4895421501874999	-0.5308806496643917
-0.4894811150312499	-0.5314061100670621
-0.4894200798749999	-0.531789905325679
-0.4893590447187499	-0.5319300872471402
-0.4892980095624999	-0.5318776247542552
-0.4892369744062499	-0.5317441292021794
-0.4891759392499999	-0.5315058111873898
-0.4891149040937499	-0.5310478569411508
-0.4890538689374999	-0.5303667518143265
-0.4889928337812499	-0.5295741569459055
-0.4889317986249999	-0.528699795937356
-0.4888707634687499	-0.5276417223390055
-0.4888097283124999	-0.5263476012143665
-0.4887486931562499	-0.5249054556576428
-0.4886876579999999	-0.5233873893192557
-0.4886266228437499	-0.5217246108768432
-0.4885655876874999	-0.5198314308484915
-0.4885045525312499	-0.5177562822747889
-0.4884435173749999	-0.515595148363151
-0.4883824822187499	-0.5133236013150655
-0.4883214470624999	-0.5108430106480912
-0.4882604119062499	-0.5081558757669475
-0.4881993767499999	-0.505360749682761
-0.4881383415937499	-0.5024789757918229
-0.4880773064374999	-0.49941994019983393
-0.4880162712812499	-0.4961434431402978
-0.4879552361249999	-0.4927310346794883
-0.4878942009687499	-0.4892425664822856
-0.4878331658124999	-0.48561317915546454
-0.4877721306562499	-0.4817708578681508
-0.4877110954999999	-0.47776479905601565
-0.4876500603437499	-0.47367909365335026
-0.4875890251874999	-0.4694864340241193
-0.4875279900312499	-0.4650997882979099
-0.4874669548749999	-0.46052851596415323
-0.4874059197187499	-0.4558629153357776
-0.4873448845624999	-0.45111657911869224
-0.4872838494062499	-0.44620565530079154
-0.4872228142499999	-0.4410999615400935
-0.4871617790937499	-0.43587825536581476
-0.4871007439374999	-0.43059112717526843
-0.4870397087812499	-0.4251746481231697
-0.4869786736249999	-0.4195667702850806
-0.4869176384687499	-0.41381961271853157
-0.4868566033124999	-0.4080095022361641
-0.4867955681562499	-0.4021050122183882
-0.4867345329999999	-0.3960260499887107
-0.4866734978437499	-0.38978863728458746
-0.4866124626874999	-0.3834794766171412
-0.4865514275312499	-0.3771058487855473
-0.4864903923749999	-0.3705863468162498
-0.4864293572187499	-0.3638981597096124
-0.4863683220624999	-0.3571202947975586
-0.4863072869062499	-0.3502970773209913
-0.4862462517499999	-0.3433635963576472
-0.4861852165937499	-0.33626451174496486
-0.4861241814374999	-0.32905569038335697
-0.4860631462812499	-0.3218088750258593
-0.4860021111249999	-0.3144883126624822
-0.4859410759687499	-0.3070177663241677
-0.4858800408124999	-0.2994193088268579
-0.4858190056562499	-0.29177819045621856
-0.4857579704999999	-0.2840958041012231
-0.4856969353437499	-0.2762911769703691
-0.4856359001874999	-0.2683486268896719
-0.4855748650312499	-0.26034989134737807
-0.4855138298749999	-0.25233344882963726
-0.4854527947187499	-0.2442302350116415
-0.4853917595624999	-0.23599005410142238
-0.4853307244062499	-0.22767498976996864
-0.4852696892499999	-0.21935401019992137
-0.4852086540937499	-0.21098502683691647
-0.4851476189374999	-0.20249345192757315
-0.4850865837812499	-0.19390888135154408
-0.4850255486249999	-0.1853177397456002
-0.4849645134687499	-0.17671462195170481
-0.4849034783124999	-0.16801568970465858
-0.4848424431562499	-0.15921173637049424
-0.4847814079999999	-0.15038988825249974
-0.4847203728437499	-0.1415841051351909
-0.4846593376874999	-0.1327188380998622
-0.4845983025312499	-0.12374692103653928
-0.4845372673749999	-0.11473856234406861
-0.4844762322187499	-0.10576276783887611
-0.4844151970624999	-0.096769358304736
-0.4843541619062499	-0.08768136696168602
-0.4842931267499999	-0.07853651910953859
-0.4842320915937499	-0.06942659506570362
-0.4841710564374999	-0.06033946047956218
-0.4841100212812499	-0.051183843138130555
-0.4840489861249999	-0.041955717054252106
-0.4839879509687499	-0.03275193867451621
-0.4839269158124999	-0.02360429212365758
-0.4838658806562499	-0.014426503356109965
-0.4838048454999999	-0.005170554171129159
-0.4837438103437499	0.0040819543631451325
-0.4836827751874999	0.013257447450990268
-0.4836217400312499	0.02241686774344689
-0.4835607048749999	0.03164527262232131
-0.4834996697187499	0.04089582790999944
-0.4834386345624999	0.05006510251587521
-0.4833775994062499	0.05917097146275353
-0.4833165642499999	0.06831888564754968
-0.4832555290937499	0.07751142997675861
-0.4831944939374999	0.08663620289102548
-0.4831334587812499	0.09565801865869564
-0.4830724236249999	0.10467876784492001
-0.4830113884687499	0.11375492618411032
-0.4829503533124999	0.12279071034873859
-0.4828893181562499	0.13169940251227674
-0.4828282829999999	0.14055343655374597
-0.4827672478437499	0.1494551957941156
-0.4827062126874999	0.15835035969561945
-0.4826451775312499	0.1671151969049525
-0.4825841423749999	0.1757705472491887
-0.4825231072187499	0.18444450557405295
-0.4824620720624999	0.19314261542522
-0.4824010369062499	0.20172937597882776
-0.4823400017499999	0.21016060179287366
-0.4822789665937499	0.21856054889390303
-0.4822179314374999	0.22700141731915477
-0.4821568962812499	0.23536838358770432
-0.4820958611249999	0.2435532616182929
-0.4820348259687499	0.2516427350732597
-0.4819737908124999	0.25976606323683626
-0.4819127556562499	0.2678621447475621
-0.4818517204999999	0.27577790678279734
-0.4817906853437499	0.2835336472404235
-0.4817296501874999	0.2912880072700756
-0.4816686150312499	0.299055337415761
-0.4816075798749999	0.3066714126628128
-0.4815465447187499	0.31407634278558244
-0.4814855095624999	0.3214201575351042
-0.4814244744062499	0.32879775725804533
-0.4813634392499999	0.3360745964486065
-0.4813024040937499	0.34311577212994615
-0.4812413689374999	0.3500218487605895
-0.4811803337812499	0.35695244826579814
-0.4811192986249999	0.3638405127625003
-0.4810582634687499	0.3705019734030939
-0.4809972283124999	0.37695582370176534
-0.4809361931562499	0.3833914508866058
-0.4808751579999999	0.3898330977167708
-0.4808141228437499	0.3960900958794625
-0.4807530876874999	0.40208700199828656
-0.4806920525312499	0.40799572847996224
-0.4806310173749999	0.41393199990932505
-0.4805699822187499	0.41974661308656774
-0.4805089470624999	0.42528247436802313
-0.4804479119062499	0.4306489460223739
-0.4803868767499999	0.4360285791671454
-0.4803258415937499	0.4413526761457255
-0.4802648064374999	0.44641751452207934
-0.4802037712812499	0.4512397822643381
-0.4801427361249999	0.45602559309307494
-0.4800817009687499	0.4608054163095489
-0.4800206658124999	0.4653772912604324
-0.4799596306562499	0.4696595297542473
-0.4798985954999999	0.473832053837125
-0.4798375603437499	0.4780171457576901
-0.4797765251874999	0.4820622292340726
-0.4797154900312499	0.48580690914691194
-0.4796544548749999	0.4893626955407178
-0.4795934197187499	0.49291329954275603
-0.4795323845624999	0.4963893576897511
-0.4794713494062499	0.4995903718382895
-0.4794103142499999	0.5025363004227156
-0.4793492790937499	0.5054286780714592
-0.4792882439374999	0.5082929207759174
-0.4792272087812499	0.5109338904186771
-0.4791661736249999	0.5132797899126379
-0.4791051384687499	0.5155054029308562
-0.4790441033124999	0.5177204468082798
-0.4789830681562499	0.519776397156122
-0.4789220329999999	0.5215299345351028
-0.4788609978437499	0.5230935737455725
-0.4787999626874999	0.5246329684061152
-0.4787389275312499	0.5260739402095919
-0.4786778923749999	0.5272358392920408
-0.4786168572187499	0.5281501692283539
-0.4785558220624999	0.5290010671992207
-0.4784947869062499	0.5297982655138795
-0.4784337517499999	0.5303622237485359
-0.4783727165937499	0.5306427118407322
-0.4783116814374999	0.5308048612361527
-0.4782506462812499	0.5309347722332101
-0.4781896111249999	0.5308888862686262
-0.4781285759687499	0.5305502239327313
-0.4780675408124999	0.530034101487442
-0.4780065056562499	0.5294816899492176
-0.4779454704999999	0.5288109992858028
-0.4778844353437499	0.5278646295623732
-0.4778234001874999	0.526688564393736
-0.4777623650312499	0.5254489757170043
-0.4777013298749999	0.5241383354440797
-0.4776402947187499	0.5225913637348916
-0.4775792595624999	0.5207788071353716
-0.4775182244062499	0.5188581713239038
-0.4774571892499999	0.5168950532081105
-0.4773961540937499	0.5147495974288673
-0.4773351189374999	0.5123260205990441
-0.4772740837812499	0.5097419063138017
-0.4772130486249999	0.5071201524212823
-0.4771520134687499	0.5043738344167848
-0.4770909783124999	0.5013627013998342
-0.4770299431562499	0.49814184510997417
-0.4769689079999999	0.4948641989441776
-0.4769078728437499	0.4915123884828192
-0.4768468376874999	0.48793299517619837
-0.4767858025312499	0.48410929356026283
-0.4767247673749999	0.4801908483729862
-0.4766637322187499	0.47623106601944604
-0.4766026970624999	0.47209664535381374
-0.4765416619062499	0.46770547928819306
-0.4764806267499999	0.4631719332713239
-0.4764195915937499	0.45860640029600974
-0.4763585564374999	0.4539246670462425
-0.4762975212812499	0.4490003567489553
-0.4762364861249999	0.4438888722396328
-0.4761754509687499	0.4387303293825943
-0.4761144158124999	0.43350612590522514
-0.4760533806562499	0.42807673893114534
-0.4759923454999999	0.4224300400025404
-0.4759313103437499	0.41670304417461096
-0.4758702751874999	0.41094308799071305
-0.4758092400312499	0.40502985263183894
-0.4757482048749999	0.3988914041854756
-0.4756871697187499	0.3926318558656952
-0.4756261345624999	0.38634964235207475
-0.4755650994062499	0.37996935297671086
-0.4755040642499999	0.3733800379195969
-0.4754430290937499	0.36663256253541954
-0.4753819939374999	0.35985085252394133
-0.4753209587812499	0.35301796443478817
-0.4752599236249999	0.3460123010222229
-0.4751988884687499	0.3388253464163367
-0.4751378533124999	0.3315777463892832
-0.4750768181562499	0.32431000864122106
-0.4750157829999999	0.31691747600168263
-0.4749547478437499	0.30933987616184855
-0.4748937126874999	0.30166929036366247
-0.4748326775312499	0.2939900000212029
-0.4747716423749999	0.2862356574769836
-0.4747106072187499	0.27831264064357986
-0.4746495720624999	0.2702682097093907
-0.4745885369062499	0.26220893644520377
-0.4745275017499999	0.2541175257806011
-0.4744664665937499	0.2458900954220496
-0.4744054314374999	0.23752389920124073
-0.4743443962812499	0.22912431321010504
-0.4742833611249999	0.2207226414942294
-0.4742223259687499	0.21222729634697213
-0.4741612908124999	0.2035912278035942
-0.4741002556562499	0.19489804205868944
-0.4740392204999999	0.18621738058878648
-0.4739781853437499	0.1774875643994701
-0.4739171501874999	0.16863085302062036
-0.4738561150312499	0.15969500263598382
-0.4737950798749999	0.1507722343376101
-0.4737340447187499	0.14184130598634276
-0.4736730095624999	0.1328112235642906
-0.4736119744062499	0.12368689868679421
-0.4735509392499999	0.1145638510380164
-0.4734899040937499	0.1054638390644458
-0.4734288689374999	0.09630271690360567
-0.4733678337812499	0.08704495903987707
-0.4733067986249999	0.07777042365016967
-0.4732457634687499	0.068537161144268
-0.4731847283124999	0.05928427920706763
-0.4731236931562499	0.04994540667192784
-0.4730626579999999	0.040570894718466595
-0.4730016228437499	0.03124330191295969
-0.4729405876874999	0.021936566353732218
-0.4728795525312499	0.012567802269018236
-0.4728185173749999	0.003149023733621075
-0.4727574822187499	-0.0062298947793122976
-0.4726964470624999	-0.015555488244499087
-0.4726354119062499	-0.024908799004587312
-0.4725743767499999	-0.03431664370910364
-0.4725133415937499	-0.0436993795255949
-0.4724523064374999	-0.053006605899406624
-0.4723912712812499	-0.062300896587798006
-0.4723302361249999	-0.07164203520041657
-0.4722692009687499	-0.08097652080741238
-0.4722081658124999	-0.09022753932976504
-0.4721471306562499	-0.099425860371774
-0.4720860954999999	-0.10864991168176916
-0.4720250603437499	-0.11788159764429783
-0.4719640251874999	-0.12703343648667564
-0.4719029900312499	-0.13609861119731323
-0.4718419548749999	-0.14515807881537846
-0.4717809197187499	-0.1542322873006424
-0.4717198845624999	-0.16323993603583808
-0.4716588494062499	-0.1721369381847456
-0.4715978142499999	-0.180989786557927
-0.4715367790937499	-0.18985296994297696
-0.4714757439374999	-0.1986673073190545
-0.4714147087812499	-0.20735977792864302
-0.4713536736249999	-0.21596823388742528
-0.4712926384687499	-0.22456969454794623
-0.4712316033124999	-0.2331390540205145
-0.4711705681562499	-0.24158877114643046
-0.4711095329999999	-0.24991949915554715
-0.4710484978437499	-0.25821459810182606
-0.4709874626874999	-0.2664875614663899
-0.4709264275312499	-0.2746528009298799
-0.4708653923749999	-0.28267275734776176
-0.4708043572187499	-0.2906209056732248
-0.4707433220624999	-0.29854764061596956
-0.4706822869062499	-0.3063858586631767
-0.4706212517499999	-0.31406461779286504
-0.4705602165937499	-0.3216308707621266
-0.4704991814374999	-0.32916305110541977
-0.4704381462812499	-0.3366277595587863
-0.4703771111249999	-0.3439335980159187
-0.4703160759687499	-0.3510890548879705
-0.4702550408124999	-0.3581848019342105
-0.4701940056562499	-0.3652292352579376
-0.4701329704999999	-0.37212817897806044
-0.4700719353437499	-0.3788473232764377
-0.4700109001874999	-0.38547069978720094
-0.4699498650312499	-0.3920490557292929
-0.4698888298749999	-0.3985049203510613
-0.4698277947187499	-0.40476463229905946
-0.4697667595624999	-0.41088613162919896
-0.4697057244062499	-0.41695488954183235
-0.4696446892499999	-0.42292868705451436
-0.4695836540937499	-0.42870660634233826
