Time	Frequency
-0.5000572196874984	9.01040410392337e-24
-0.4999961845312484	9.508622558082135e-24
-0.4999351493749984	1.0004880293572092e-23
-0.4998741142187484	1.0497102568984099e-23
-0.4998130790624984	1.0984056453458252e-23
-0.4997520439062484	1.1467828457496947e-23
-0.4996910087499984	1.194814054282936e-23
-0.4996299735937484	1.2422721462932208e-23
-0.4995689384374984	1.2892481790891395e-23
-0.4995079032812484	1.335868210892271e-23
-0.4994468681249984	1.3819436425335448e-23
-0.4993858329687484	1.4274051821524468e-23
-0.4993247978124984	1.472420013432886e-23
-0.4992637626562484	1.516929337693731e-23
-0.4992027274999984	1.5607637610886884e-23
-0.4991416923437484	1.6040195432765687e-23
-0.4990806571874984	1.6467682980106528e-23
-0.4990196220312484	1.6888473245586148e-23
-0.4989585868749984	1.730230915105024e-23
-0.4988975517187484	1.7710427337795566e-23
-0.4988365165624984	1.8112056292216743e-23
-0.4987754814062484	1.85060519372891e-23
-0.4987144462499984	1.8893346208909887e-23
-0.4986534110937484	1.9274179906965668e-23
-0.4985923759374984	1.9647198330231495e-23
-0.4985313407812484	2.0012501883234582e-23
-0.4984703056249984	2.037095231574287e-23
-0.4984092704687484	2.0721676620281193e-23
-0.4983482353124984	2.1063988889707806e-23
-0.4982872001562484	2.1398734873381023e-23
-0.4982261649999984	2.1725802152233722e-23
-0.4981651298437484	2.2044140602621965e-23
-0.4981040946874984	2.2354081379796162e-23
-0.4980430595312484	2.265612269903002e-23
-0.4979820243749984	2.294939880303146e-23
-0.4979209892187484	2.323362899116583e-23
-0.4978599540624984	2.3509517745264584e-23
-0.4977989189062484	2.377668039428733e-23
-0.4977378837499984	2.403437298871692e-23
-0.4976768485937484	2.4283096322900725e-23
-0.4976158134374984	2.4523042559097138e-23
-0.4975547782812484	2.475338877333741e-23
-0.4974937431249984	2.4974172284147963e-23
-0.4974327079687484	2.5185952249678588e-23
-0.4973716728124984	2.5388174358967404e-23
-0.4973106376562484	2.5580387010734455e-23
-0.4972496024999984	2.576316940084749e-23
-0.4971885673437484	2.5936449079238016e-23
-0.4971275321874984	2.609951618276787e-23
-0.4970664970312484	2.6252658711082004e-23
-0.4970054618749984	2.6396262981548192e-23
-0.4969444267187484	2.652969261585901e-23
-0.4968833915624984	2.665276659074509e-23
-0.4968223564062484	2.6766067628317516e-23
-0.4967613212499984	2.686933288921199e-23
-0.4967002860937484	2.6962015595172295e-23
-0.4966392509374984	2.7044563505990485e-23
-0.4965782157812484	2.7117179208252556e-23
-0.4965171806249984	2.717922964921858e-23
-0.4964561454687484	2.7230780136490414e-23
-0.4963951103124984	2.7272348197932953e-23
-0.4963340751562484	2.730353550339996e-23
-0.4962730399999984	2.732400770947769e-23
-0.4962120048437484	2.733429920553237e-23
-0.4961509696874984	2.733441364803883e-23
-0.4960899345312484	2.732380445457818e-23
-0.4960288993749984	2.730276443024546e-23
-0.4959678642187484	2.7271676780197696e-23
-0.4959068290624984	2.7230055087620993e-23
-0.4958457939062484	2.7177813089657583e-23
-0.4957847587499984	2.7115512378631485e-23
-0.4957237235937484	2.7042967024689723e-23
-0.4956626884374984	2.695977233849099e-23
-0.4956016532812484	2.6866400986870645e-23
-0.4955406181249984	2.6763066194449286e-23
-0.4954795829687484	2.6649261778892515e-23
-0.4954185478124984	2.652515410567319e-23
-0.4953575126562484	2.6391258114737754e-23
-0.4952964774999984	2.624722361316282e-23
-0.4952354423437484	2.6092854525161453e-23
-0.4951744071874984	2.592875897547327e-23
-0.4951133720312484	2.5754934087293394e-23
-0.4950523368749984	2.5570904082685524e-23
-0.4949913017187484	2.5377101645884786e-23
-0.4949302665624984	2.5173950170875825e-23
-0.4948692314062484	2.496095470792739e-23
-0.4948081962499984	2.4738147565409344e-23
-0.4947471610937484	2.4506213586463194e-23
-0.4946861259374984	2.4264946043832885e-23
-0.4946250907812484	2.4013983000600893e-23
-0.4945640556249984	2.375397227694802e-23
-0.4945030204687484	2.3485163589231164e-23
-0.4944419853124984	2.32069936083463e-23
-0.4943809501562484	2.2919765341578316e-23
-0.4943199149999984	2.2624160654266093e-23
-0.4942588798437484	2.231977867452134e-23
-0.4941978446874984	2.2006422363319148e-23
-0.4941368095312484	2.168489696354454e-23
-0.4940757743749984	2.1355259673288195e-23
-0.4940147392187484	2.1016955500687083e-23
-0.4939537040624984	2.0670542444963934e-23
-0.4938926689062484	2.031661248244974e-23
-0.4938316337499984	1.9954600140789682e-23
-0.4937705985937484	1.9584541801726182e-23
-0.4937095634374984	1.9207354943903432e-23
-0.4936485282812484	1.8822867926074853e-23
-0.4935874931249984	1.843058481073956e-23
-0.4935264579687484	1.8031308662898868e-23
-0.4934654228124984	1.762549474540527e-23
-0.4934043876562484	1.721246730084253e-23
-0.4933433524999984	1.6792514220007112e-23
-0.4932823173437484	1.6366554489614782e-23
-0.4932212821874984	1.593419131298869e-23
-0.4931602470312484	1.5495112428240824e-23
-0.4930992118749984	1.5050319459514628e-23
-0.4930381767187484	1.460002544607239e-23
-0.4929771415624984	1.4143514844975018e-23
-0.4929161064062484	1.3681374133689808e-23
-0.4928550712499984	1.3214457269561701e-23
-0.4927940360937484	1.274215863544836e-23
-0.4927330009374984	1.2264388337719775e-23
-0.4926719657812484	1.1782272234961142e-23
-0.4926109306249984	1.1295743659655932e-23
-0.4925498954687484	1.0804127344640489e-23
-0.4924888603124984	1.0308330188436268e-23
-0.4924278251562484	9.809061934825392e-24
-0.4923667899999984	9.305498534862375e-24
-0.4923057548437484	8.797823806831804e-24
-0.4922447196874984	8.28726042818597e-24
-0.4921836845312484	7.773455679912268e-24
-0.4921226493749984	7.255845219724122e-24
-0.4920616142187484	6.735596837772256e-24
-0.4920005790624984	6.213169557578498e-24
-0.4919395439062484	5.687608611647008e-24
-0.4918785087499984	5.1594392421169e-24
-0.4918174735937484	4.629877849232501e-24
-0.4917564384374984	4.098270117084201e-24
-0.4916954032812484	3.5642440772581896e-24
-0.4916343681249984	3.0291876401874178e-24
-0.4915733329687484	2.49324552490813e-24
-0.4915122978124984	1.9554117887831108e-24
-0.4914512626562484	1.4165955470052064e-24
-0.4913902274999984	8.778902278719635e-25
-0.4913291923437484	3.3829949545266437e-25
-0.4912681571874984	-2.022624968711256e-25
-0.4912071220312484	-7.421785971117699e-25
-0.4911460868749984	-1.2816741941004576e-24
-0.4910850517187484	-1.821796955476508e-24
-0.4910240165624984	-2.361249400415852e-24
-0.4909629814062484	-2.899094421675482e-24
-0.4909019462499984	-3.436639952257932e-24
-0.4908409110937484	-3.9736444437860975e-24
-0.4907798759374984	-4.5083508057479456e-24
-0.4907188407812484	-5.0414101973706814e-24
-0.4906578056249984	-5.5737825450079906e-24
-0.4905967704687484	-6.1037554109106615e-24
-0.4905357353124984	-6.630701712723035e-24
-0.4904747001562484	-7.156233853253568e-24
-0.4904136649999984	-7.679659598171379e-24
-0.4903526298437484	-8.19912940734489e-24
-0.4902915946874984	-8.715808119312579e-24
-0.4902305595312484	-9.230512322348607e-24
-0.4901695243749984	-9.74108963503417e-24
-0.4901084892187484	-1.0247301653437562e-23
-0.4900474540624984	-1.0751026194381147e-23
-0.4899864189062484	-1.1251038664294475e-23
-0.4899253837499984	-1.1745514044587148e-23
-0.4898643485937484	-1.2236198211025102e-23
-0.4898033134374984	-1.2723618759077306e-23
-0.4897422782812484	-1.3205169347832036e-23
-0.4896812431249984	-1.368113446906201e-23
-0.4896202079687484	-1.415364194286339e-23
-0.4895591728124984	-1.46208653310511e-23
-0.4894981376562484	-1.508104596224086e-23
-0.4894371024999984	-1.5536526321756336e-23
-0.4893760673437484	-1.5987499018481508e-23
-0.4893150321874984	-1.6430956046800094e-23
-0.4892539970312484	-1.6867769804325167e-23
-0.4891929618749984	-1.7300210794895485e-23
-0.4891319267187484	-1.772579361098673e-23
-0.4890708915624984	-1.8142978530757486e-23
-0.4890098564062484	-1.8554725481936556e-23
-0.4889488212499984	-1.8960741825210806e-23
-0.4888877860937484	-1.9357669214389607e-23
-0.4888267509374984	-1.9747092821480792e-23
-0.4887657157812484	-2.0131342924631833e-23
-0.4887046806249984	-2.0507232398926652e-23
-0.4886436454687484	-2.0873529160624783e-23
-0.4885826103124984	-2.123376989961976e-23
-0.4885215751562484	-2.1587139056246824e-23
-0.4884605399999984	-2.1930038179249962e-23
-0.4883995048437484	-2.2264714522946008e-23
-0.4883384696874984	-2.2593430308790165e-23
-0.4882774345312484	-2.2912454357762663e-23
-0.4882163993749984	-2.3220958942380502e-23
-0.4881553642187484	-2.3522843364238171e-23
-0.4880943290624984	-2.3816775880816572e-23
-0.4880332939062484	-2.4099141301209502e-23
-0.4879722587499984	-2.4372731996966994e-23
-0.4879112235937484	-2.4639589459962208e-23
-0.4878501884374984	-2.4895653594217606e-23
-0.4877891532812484	-2.514054437693372e-23
-0.4877281181249984	-2.5378274113879175e-23
-0.4876670829687484	-2.560708085597095e-23
-0.4876060478124984	-2.5823548303353572e-23
-0.4875450126562484	-2.6030816989444526e-23
-0.4874839774999984	-2.6230595203737963e-23
-0.4874229423437484	-2.6418771954648954e-23
-0.4873619071874984	-2.6595402434489764e-23
-0.4873008720312484	-2.676432950441326e-23
-0.4872398368749984	-2.692351423428891e-23
-0.4871788017187484	-2.706996855576535e-23
-0.4871177665624984	-2.7206928299510834e-23
-0.4870567314062484	-2.733565488387862e-23
-0.4869956962499984	-2.745227728464285e-23
-0.4869346610937484	-2.7557250984563237e-23
-0.4868736259374984	-2.765399441183042e-23
-0.4868125907812484	-2.7740368632195003e-23
-0.4867515556249984	-2.7813981115604977e-23
-0.4866905204687484	-2.787791314701027e-23
-0.4866294853124984	-2.793294028779718e-23
-0.4865684501562484	-2.797568355795411e-23
-0.4865074149999984	-2.800692535887033e-23
-0.4864463798437484	-2.802947387645594e-23
-0.4863853446874984	-2.8041232346176236e-23
-0.4863243095312484	-2.8040486440892125e-23
-0.4862632743749984	-2.803000906072754e-23
-0.4862022392187484	-2.8010114227354157e-23
-0.4861412040624984	-2.7978031334327835e-23
-0.4860801689062484	-2.793477737268625e-23
-0.4860191337499984	-2.788251164444601e-23
-0.4859580985937484	-2.7819287738584567e-23
-0.4858970634374984	-2.774403110803783e-23
-0.4858360282812484	-2.765913100838333e-23
-0.4857749931249984	-2.7564524543957935e-23
-0.4857139579687484	-2.745807297009525e-23
-0.4856529228124984	-2.7340933971448154e-23
-0.4855918876562484	-2.721464109596458e-23
-0.4855308524999984	-2.707747616728749e-23
-0.4854698173437484	-2.6928944183792755e-23
-0.4854087821874984	-2.677100640610371e-23
-0.4853477470312484	-2.660330647041735e-23
-0.4852867118749984	-2.642432755942465e-23
-0.4852256767187484	-2.623528141758063e-23
-0.4851646415624984	-2.6037144592322054e-23
-0.4851036064062484	-2.5828485774572823e-23
-0.4850425712499984	-2.5609280173841938e-23
-0.4849815360937484	-2.5381052520517806e-23
-0.4849205009374984	-2.5143263167439108e-23
-0.4848594657812484	-2.4894968686872948e-23
-0.4847984306249984	-2.4637355688937905e-23
-0.4847373954687484	-2.437092474231655e-23
-0.4846763603124984	-2.4094550986946104e-23
-0.4846153251562484	-2.380858643994548e-23
-0.4845542899999984	-2.351415529686025e-23
-0.4844932548437484	-2.3210613615577864e-23
-0.4844322196874984	-2.289750451325957e-23
-0.4843711845312484	-2.2575936205190747e-23
-0.4843101493749984	-2.224605435930601e-23
-0.4842491142187484	-2.1907051356947124e-23
-0.4841880790624984	-2.1559519535095522e-23
-0.4841270439062484	-2.1204213516004776e-23
-0.4840660087499984	-2.0840493208749466e-23
-0.4840049735937484	-2.046831419142038e-23
-0.4839439384374984	-2.0088640774852576e-23
-0.4838829032812484	-1.9701345332775929e-23
-0.4838218681249984	-1.9305943872751166e-23
-0.4837608329687484	-1.8903200287971695e-23
-0.4836997978124984	-1.8493541237871317e-23
-0.4836387626562484	-1.8076360546573754e-23
-0.4835777274999984	-1.765194397540757e-23
-0.4835166923437484	-1.722111990271199e-23
-0.4834556571874984	-1.678358254003307e-23
-0.4833946220312484	-1.6339119427422382e-23
-0.4833335868749984	-1.5888555584892586e-23
-0.4832725517187484	-1.543205718591658e-23
-0.4832115165624984	-1.4969151827108188e-23
-0.4831504814062484	-1.4500375231057885e-23
-0.4830894462499984	-1.402635020942395e-23
-0.4830284110937484	-1.35466648139084e-23
-0.4829673759374984	-1.3061379779178052e-23
-0.4829063407812484	-1.2571325168508901e-23
-0.4828453056249984	-1.2076461491808743e-23
-0.4827842704687484	-1.1576461945319372e-23
-0.4827232353124984	-1.1072015637028892e-23
-0.4826622001562484	-1.0563554976123742e-23
-0.4826011649999984	-1.0050649270821436e-23
-0.4825401298437484	-9.533583604815129e-24
-0.4824790946874984	-9.013118137192505e-24
-0.4824180595312484	-8.489077974097427e-24
-0.4823570243749984	-7.961334965193508e-24
-0.4822959892187484	-7.43063069478798e-24
-0.4822349540624984	-6.897165919748836e-24
-0.4821739189062484	-6.3605955301643766e-24
-0.4821128837499984	-5.821434513457185e-24
-0.4820518485937484	-5.280275801224723e-24
-0.4819908134374984	-4.736824271718681e-24
-0.4819297782812484	-4.191190983044223e-24
-0.4818687431249984	-3.644126666116867e-24
-0.4818077079687484	-3.0956197154164065e-24
-0.4817466728124984	-2.5454530258888618e-24
-0.4816856376562484	-1.9942975489907426e-24
-0.4816246024999984	-1.4425428005628335e-24
-0.4815635673437484	-8.898458485939268e-25
-0.4815025321874984	-3.3655224625858683e-25
-0.4814414970312484	2.1664593658918694e-25
-0.4813804618749984	7.699388224484798e-25
-0.4813194267187484	1.3233583902328068e-24
-0.4812583915624984	1.8761387289147355e-24
-0.4811973564062484	2.4281511416517425e-24
-0.4811363212499984	2.979729662200025e-24
-0.4810752860937484	3.530269831664984e-24
-0.4810142509374984	4.07919315897269e-24
-0.4809532157812484	4.626873301053865e-24
-0.4808921806249984	5.173153361175761e-24
-0.4808311454687484	5.717216632859844e-24
-0.4807701103124984	6.259147371771937e-24
-0.4807090751562484	6.799175766252145e-24
-0.4806480399999984	7.33652597568717e-24
-0.4805870048437484	7.870860092954604e-24
-0.4805259696874984	8.402652315708174e-24
-0.4804649345312484	8.93147778546214e-24
-0.4804038993749984	9.456545971915164e-24
-0.4803428642187484	9.978172427436436e-24
-0.4802818290624984	1.0496456709039368e-23
-0.4802207939062484	1.1010501283955476e-23
-0.4801597587499984	1.1520193341127208e-23
-0.4800987235937484	1.2026024471194283e-23
-0.4800376884374984	1.252733938962293e-23
-0.4799766532812484	1.3023477837893636e-23
-0.4799156181249984	1.3514968592380866e-23
-0.4798545829687484	1.4001707937989906e-23
-0.4797935478124984	1.4482714676386307e-23
-0.4797325126562484	1.4958138489603863e-23
-0.4796714774999984	1.5428428185652233e-23
-0.4796104423437484	1.5892713909851328e-23
-0.4795494071874984	1.6350532838400993e-23
-0.4794883720312484	1.6802563985581194e-23
-0.4794273368749984	1.724847013790922e-23
-0.4793663017187484	1.768729692692189e-23
-0.4793052665624984	1.8119453009391964e-23
-0.4792442314062484	1.8545247710832586e-23
-0.4791831962499984	1.8963661345955294e-23
-0.4791221610937484	1.937449843679707e-23
-0.4790611259374984	1.9778492899428627e-23
-0.4790000907812484	2.017504617622368e-23
-0.4789390556249984	2.0563325065220853e-23
-0.4788780204687484	2.0943993014906377e-23
-0.4788169853124984	2.1317159999208473e-23
-0.4787559501562484	2.1681700071531004e-23
-0.4786949149999984	2.2037725864932465e-23
-0.4786338798437484	2.2385971109519813e-23
-0.4785728446874984	2.2725570842674915e-23
-0.4785118095312484	2.3055883043176467e-23
-0.4784507743749984	2.337780077967837e-23
-0.4783897392187484	2.3691175528464226e-23
-0.4783287040624984	2.3994844914291878e-23
-0.4782676689062484	2.4289264969474294e-23
-0.4782066337499984	2.4575077466761137e-23
-0.4781455985937484	2.4851170508987648e-23
-0.4780845634374984	2.511718487062569e-23
-0.4780235282812484	2.5374179809324177e-23
-0.4779624931249984	2.5621698280006227e-23
-0.4779014579687484	2.5858634045135478e-23
-0.4778404228124984	2.6085793848291798e-23
-0.4777793876562484	2.630364347192814e-23
-0.4777183524999984	2.651086805428563e-23
-0.4776573173437484	2.670746633701133e-23
-0.4775962821874984	2.689458756657555e-23
-0.4775352470312484	2.707141688212067e-23
-0.4774742118749984	2.7237000474916807e-23
-0.4774131767187484	2.739251010678677e-23
-0.4773521415624984	2.7538149823728464e-23
-0.4772911064062484	2.7672430250099156e-23
-0.4772300712499984	2.779576964809353e-23
-0.4771690360937484	2.790935911513844e-23
-0.4771080009374984	2.8012006381197596e-23
-0.4770469657812484	2.810297618930484e-23
-0.4769859306249984	2.818379041257474e-23
-0.4769248954687484	2.825431954528097e-23
-0.4768638603124984	2.831295560357126e-23
-0.4768028251562484	2.836059845820389e-23
-0.4767417899999984	2.83983878913673e-23
-0.4766807548437484	2.8424730658752714e-23
-0.4766197196874984	2.8439224232341927e-23
-0.4765586845312484	2.844371730538381e-23
-0.4764976493749984	2.843764717508503e-23
-0.4764366142187484	2.8419354304437814e-23
-0.4763755790624984	2.839028849758099e-23
-0.4763145439062484	2.8351446776329074e-23
-0.4762535087499984	2.8300812282471703e-23
-0.4761924735937484	2.8238420558263293e-23
-0.4761314384374984	2.8166414588169054e-23
-0.4760704032812484	2.808369659236522e-23
-0.4760093681249984	2.798864497693286e-23
-0.4759483329687484	2.7883329754263314e-23
-0.4758872978124984	2.776847790965032e-23
-0.4758262626562484	2.764163148363603e-23
-0.4757652274999984	2.7503391268518255e-23
-0.4757041923437484	2.7356161606024106e-23
-0.4756431571874984	2.7198219328945143e-23
-0.4755821220312484	2.7028045990682476e-23
-0.4755210868749984	2.6848366646774245e-23
-0.4754600517187484	2.665955762648628e-23
-0.4753990165624984	2.645874195857597e-23
-0.4753379814062484	2.624716215666509e-23
-0.4752769462499984	2.6027398871141784e-23
-0.4752159110937484	2.579704696114889e-23
-0.4751548759374984	2.5554827996755483e-23
-0.4750938407812484	2.5304131529236484e-23
-0.4750328056249984	2.504482483594732e-23
-0.4749717704687484	2.4773661420088816e-23
-0.4749107353124984	2.4492647438466714e-23
-0.4748497001562484	2.4204439825725352e-23
-0.4747886649999984	2.3905904114600653e-23
-0.4747276298437484	2.359609458551279e-23
-0.4746665946874984	2.3279017044574537e-23
-0.4746055595312484	2.2954001936508734e-23
-0.4745445243749984	2.2617551677599934e-23
-0.4744834892187484	2.2272358696184774e-23
-0.4744224540624984	2.19210141632126e-23
-0.4743614189062484	2.155982372637175e-23
-0.4743003837499984	2.1188271064530103e-23
-0.4742393485937484	2.0810747342795828e-23
-0.4741783134374984	2.0426025661710355e-23
-0.4741172782812484	2.0030569899727886e-23
-0.4740562431249984	1.9627669176283917e-23
-0.4739952079687484	1.9219718001100373e-23
-0.4739341728124984	1.8802656776340985e-23
-0.4738731376562484	1.8376397909309157e-23
-0.4738121024999984	1.794545384181385e-23
-0.4737510673437484	1.7508173394863282e-23
-0.4736900321874984	1.7061225475291935e-23
-0.4736289970312484	1.6608242206396026e-23
-0.4735679618749984	1.615126174098684e-23
-0.4735069267187484	1.5686160778835008e-23
-0.4734458915624984	1.5213289600916897e-23
-0.4733848564062484	1.473698860682596e-23
-0.4733238212499984	1.425533297921286e-23
-0.4732627860937484	1.376541818882898e-23
-0.4732017509374984	1.3270927324569924e-23
-0.4731407157812484	1.2773428174175108e-23
-0.4730796806249984	1.2269078452496966e-23
-0.4730186454687484	1.1758624089707673e-23
-0.4729576103124984	1.124591989115138e-23
-0.4728965751562484	1.072893645165738e-23
-0.4728355399999984	1.0205379456028099e-23
-0.4727745048437484	9.678740463111718e-24
-0.4727134696874984	9.15008300368385e-24
-0.4726524345312484	8.616078350836314e-24
-0.4725913993749984	8.077768713986646e-24
-0.4725303642187484	7.538331044839751e-24
-0.4724693290624984	6.995787723363743e-24
-0.4724082939062484	6.4485561404185895e-24
-0.4723472587499984	5.8997634815317116e-24
-0.4722862235937484	5.34996315780701e-24
-0.4722251884374984	4.7964585813168204e-24
-0.4721641532812484	4.240505899749067e-24
-0.4721031181249984	3.6845754310999685e-24
-0.4720420829687484	3.1268410432212628e-24
-0.4719810478124984	2.566358546941691e-24
-0.4719200126562484	2.0058102678910125e-24
-0.4718589774999984	1.4453414993002724e-24
-0.4717979423437484	8.829082492465982e-25
-0.4717369071874984	3.1987269468988154e-25
