Time	Frequency
-0.5000236662187518	0.2891933197417162
-0.4999626310625018	0.2970439970614693
-0.4999015959062518	0.3048024927801345
-0.4998405607500018	0.3124662204187542
-0.4997795255937518	0.32003304833308094
-0.4997184904375018	0.32750065847079834
-0.4996574552812518	0.3348664288335899
-0.4995964201250018	0.3421279471289999
-0.4995353849687518	0.349283206839271
-0.4994743498125018	0.3563300939532706
-0.4994133146562518	0.36326606636407427
-0.4993522795000018	0.37008861787268976
-0.4992912443437518	0.37679568459627466
-0.4992302091875018	0.3833854674823448
-0.4991691740312518	0.38985596999743205
-0.4991081388750018	0.39620491800613966
-0.4990471037187518	0.4024301289766155
-0.4989860685625018	0.4085295345006524
-0.4989250334062518	0.41450103925878495
-0.4988639982500018	0.4203428524160626
-0.4988029630937518	0.42605347025223034
-0.4987419279375018	0.4316311062776674
-0.4986808927812518	0.43707375707327467
-0.4986198576250018	0.44237950915676794
-0.4985588224687518	0.447546542499151
-0.4984977873125018	0.4525733188873103
-0.4984367521562518	0.45745835230210474
-0.4983757170000018	0.462199950665025
-0.4983146818437518	0.4667966325322408
-0.4982536466875018	0.4712469917145176
-0.4981926115312518	0.4755494066517045
-0.4981315763750018	0.4797024735423685
-0.4980705412187518	0.4837050143228626
-0.4980095060625018	0.4875556473311096
-0.4979484709062518	0.4912529615157444
-0.4978874357500018	0.49479581712912
-0.4978264005937518	0.49818310115771886
-0.4977653654375018	0.5014136406759899
-0.4977043302812518	0.5044864452834086
-0.4976432951250018	0.5074005928905193
-0.4975822599687518	0.5101550159309369
-0.4975212248125018	0.5127486759563885
-0.4974601896562518	0.515180757473387
-0.4973991545000018	0.5174505272718377
-0.4973381193437518	0.5195571973873934
-0.4972770841875018	0.5215000139851446
-0.4972160490312518	0.5232783107604432
-0.4971550138750018	0.5248914914343721
-0.4970939787187518	0.5263390293826605
-0.4970329435625018	0.5276204068372797
-0.4969719084062518	0.5287351232571689
-0.4969108732500018	0.5296827755424899
-0.4968498380937518	0.5304630335708402
-0.4967888029375018	0.5310756313651158
-0.4967277677812518	0.5315203433345977
-0.4966667326250018	0.5317969178199625
-0.4966056974687518	0.5319051740089712
-0.4965446623125018	0.5318450658001036
-0.4964836271562518	0.5316165866005349
-0.4964225920000018	0.5312197563856478
-0.4963615568437518	0.5306546311343867
-0.4963005216875018	0.5299213035547492
-0.4962394865312518	0.5290199683044422
-0.4961784513750018	0.5279508862047002
-0.4961174162187518	0.5267143563149863
-0.4960563810625018	0.5253107363329426
-0.4959953459062518	0.5237403615449269
-0.4959343107500018	0.5220036071834316
-0.4958732755937518	0.5201010227029218
-0.4958122404375018	0.5180332525265908
-0.4957512052812518	0.5158008736571774
-0.4956901701250018	0.5134043917219002
-0.4956291349687518	0.5108445148878897
-0.4955680998125018	0.5081221885637767
-0.4955070646562518	0.5052382338530971
-0.4954460295000018	0.502193392808045
-0.4953849943437518	0.49898858380142475
-0.4953239591875018	0.49562476319306314
-0.4952629240312518	0.4921028707709985
-0.4952018888750018	0.48842403433211695
-0.4951408537187518	0.48458951085562113
-0.4950798185625018	0.48060042029543254
-0.4950187834062518	0.47645777098726905
-0.4949577482500018	0.47216276545719743
-0.4948967130937518	0.4677169203217069
-0.4948356779375018	0.46312171155614906
-0.4947746427812518	0.45837847385249386
-0.4947136076250018	0.45348876292701384
-0.4946525724687518	0.4484540373428998
-0.4945915373125018	0.443275447272257
-0.4945305021562518	0.4379545299007777
-0.4944694670000018	0.432493266138569
-0.4944084318437518	0.4268935037063593
-0.4943473966875018	0.4211568222013475
-0.4942863615312518	0.41528483163261987
-0.4942253263750018	0.4092794843452914
-0.4941642912187518	0.40314285858771287
-0.4941032560625018	0.3968768327692137
-0.4940422209062518	0.3904831514843154
-0.4939811857500018	0.38396355053240977
-0.4939201505937518	0.3773199464919579
-0.4938591154375018	0.37055465289626943
-0.4937980802812518	0.3636701427062487
-0.4937370451250018	0.35666848591562217
-0.4936760099687518	0.34955150816390834
-0.4936149748125018	0.3423214477946053
-0.4935539396562518	0.3349808660856409
-0.4934929045000018	0.3275321190242049
-0.4934318693437518	0.3199772537435826
-0.4933708341875018	0.31231835081365383
-0.4933097990312518	0.3045579098747032
-0.4932487638750018	0.29669873087175014
-0.4931877287187518	0.2887432754395948
-0.4931266935625018	0.28069380491062074
-0.4930656584062518	0.2725530062323849
-0.4930046232500018	0.2643234289771794
-0.4929435880937518	0.2560073218421567
-0.4928825529375018	0.24760741205159292
-0.4928215177812518	0.23912654456316876
-0.4927604826250018	0.23056722126860854
-0.4926994474687518	0.22193207112593888
-0.4926384123125018	0.21322400145533646
-0.4925773771562518	0.20444590323825096
-0.4925163420000018	0.19560049941890562
-0.4924553068437518	0.18669031187924823
-0.4923942716875018	0.17771786467628
-0.4923332365312518	0.16868619012825514
-0.4922722013750018	0.15959858289883422
-0.4922111662187518	0.15045775879212894
-0.4921501310625018	0.14126616402888922
-0.4920890959062518	0.1320268077524479
-0.4920280607500018	0.12274292443554788
-0.4919670255937518	0.11341743397401824
-0.4919059904375018	0.10405320427633538
-0.4918449552812518	0.09465320827107165
-0.4917839201250018	0.08522037690371703
-0.4917228849687518	0.07575752516666204
-0.4916618498125018	0.06626750773896956
-0.4916008146562518	0.056753519648661765
-0.4915397795000018	0.04721891684522486
-0.4914787443437518	0.03766677765046728
-0.4914177091875018	0.028099863897373113
-0.4913566740312518	0.01852089184390318
-0.4912956388750018	0.00893290072922433
-0.4912346037187518	-0.0006607753676697271
-0.4911735685625018	-0.010256992096092078
-0.4911125334062518	-0.01985283244793698
-0.4910514982500018	-0.02944526871136469
-0.4909904630937518	-0.039031062657753766
-0.4909294279375018	-0.04860711662240337
-0.4908683927812518	-0.05817071783228537
-0.4908073576250018	-0.06771900362970643
-0.4907463224687518	-0.07724872227899895
-0.4906852873125018	-0.08675669443054765
-0.4906242521562518	-0.09623991527045257
-0.4905632170000018	-0.10569528266026366
-0.4905021818437518	-0.11511975534847274
-0.4904411466875018	-0.1245105001739989
-0.4903801115312518	-0.13386461585751272
-0.4903190763750018	-0.1431792323764136
-0.4902580412187518	-0.15245135529710474
-0.4901970060625018	-0.1616775531170418
-0.4901359709062518	-0.1708547192845658
-0.4900749357500018	-0.1799803858431543
-0.4900139005937518	-0.18905185703269012
-0.4899528654375018	-0.198066042063901
-0.4898918302812518	-0.20701989043638966
-0.4898307951250018	-0.21591048403235508
-0.4897697599687518	-0.22473511146207042
-0.4897087248125018	-0.23349111132734215
-0.4896476896562518	-0.2421755741271168
-0.4895866545000018	-0.2507855277242268
-0.4895256193437518	-0.259318282672192
-0.4894645841875018	-0.2677712124167378
-0.4894035490312518	-0.2761415104031623
-0.4893425138750018	-0.2844265815412117
-0.4892814787187518	-0.2926238409077539
-0.4892204435625018	-0.30073028406846414
-0.4891594084062518	-0.3087432211098392
-0.4890983732500018	-0.3166604642464755
-0.4890373380937518	-0.324479607391018
-0.4889763029375018	-0.3321980852999863
-0.4889152677812518	-0.3398132523260266
-0.4888542326250018	-0.347322336417892
-0.4887931974687518	-0.3547230092940643
-0.4887321623125018	-0.3620132481536612
-0.4886711271562518	-0.3691907008549451
-0.4886100920000018	-0.3762528749488996
-0.4885490568437518	-0.38319738642792656
-0.4884880216875018	-0.39002194195870427
-0.4884269865312518	-0.39672436796930594
-0.4883659513750018	-0.40330259695115367
-0.4883049162187518	-0.40975460984103046
-0.4882438810625018	-0.4160782833895247
-0.4881828459062518	-0.4222714536764408
-0.4881218107500018	-0.42833201962284
-0.4880607755937518	-0.4342579838012712
-0.4879997404375018	-0.4400475832990343
-0.4879387052812518	-0.4456990356618481
-0.4878776701250018	-0.4512103515713999
-0.4878166349687518	-0.45657960405147374
-0.4877555998125018	-0.4618050703055809
-0.4876945646562518	-0.46688513655627273
-0.4876335295000018	-0.47181817353265365
-0.4875724943437518	-0.4766025572915401
-0.4875114591875018	-0.48123670352569897
-0.4874504240312518	-0.48571901315318433
-0.4873893888750018	-0.4900479777642136
-0.4873283537187518	-0.4942222329335449
-0.4872673185625018	-0.49824046862334814
-0.4872062834062518	-0.5021013619579974
-0.4871452482500018	-0.5058035486543908
-0.4870842130937518	-0.5093457788073633
-0.4870231779375018	-0.5127269219911682
-0.4869621427812518	-0.5159458216413404
-0.4869011076250018	-0.5190013899527275
-0.4868400724687518	-0.5218926270929735
-0.4867790373125018	-0.5246185637457332
-0.4867180021562518	-0.5271782883399311
-0.4866569670000018	-0.5295709205453067
-0.4865959318437518	-0.5317956551692967
-0.4865348966875018	-0.5338517779844295
-0.4864738615312518	-0.5357385554878449
-0.4864128263750018	-0.5374552596233607
-0.4863517912187518	-0.5390012778313301
-0.4862907560625018	-0.5403761058473008
-0.4862297209062518	-0.5415792954518431
-0.4861686857500018	-0.5426104187411039
-0.4861076505937518	-0.5434690623361927
-0.4860466154375018	-0.544154880557741
-0.4859855802812518	-0.5446676101148866
-0.4859245451250018	-0.5450070480886922
-0.4858635099687518	-0.5451730468102775
-0.4858024748125018	-0.5451654889137795
-0.4857414396562518	-0.5449842989977749
-0.4856804045000018	-0.5446294836353837
-0.4856193693437518	-0.5441011456135102
-0.4855583341875018	-0.543399435507311
-0.4854972990312518	-0.5425244665213971
-0.4854362638750018	-0.5414763942448811
-0.4853752287187518	-0.5402555585576624
-0.4853141935625018	-0.5388623933343597
-0.4852531584062518	-0.5372972652538052
-0.4851921232500018	-0.5355605265735138
-0.4851310880937518	-0.5336526803985496
-0.4850700529375018	-0.531574372373805
-0.4850090177812518	-0.5293262245380308
-0.4849479826250018	-0.5269088342486209
-0.4848869474687518	-0.5243229756506302
-0.4848259123125018	-0.5215695174331455
-0.4847648771562518	-0.5186491267625071
-0.4847038420000018	-0.5155625529290784
-0.4846428068437518	-0.5123109502208251
-0.4845817716875018	-0.5088954434536856
-0.4845207365312518	-0.5053169276629546
-0.4844597013750018	-0.5015764607829462
-0.4843986662187518	-0.4976753057029145
-0.4843376310625018	-0.4936145717325274
-0.4842765959062518	-0.48939535811891133
-0.4842155607500018	-0.48501918396296645
-0.4841545255937518	-0.4804875968875993
-0.4840934904375018	-0.4758017346033714
-0.4840324552812518	-0.470962842686385
-0.4839714201250018	-0.4659726607421532
-0.4839103849687518	-0.46083291026389334
-0.4838493498125018	-0.45554507592079097
-0.4837883146562518	-0.4501108352832325
-0.4837272795000018	-0.44453188607430216
-0.4836662443437518	-0.438809784743946
-0.4836052091875018	-0.4329463596357469
-0.4835441740312518	-0.4269435957663557
-0.4834831388750018	-0.42080337654183864
-0.4834221037187518	-0.41452758833067455
-0.4833610685625018	-0.40811815925452416
-0.4833000334062518	-0.4015771643175686
-0.4832389982500018	-0.3949068386070977
-0.4831779630937518	-0.38810929647527836
-0.4831169279375018	-0.3811863980384853
-0.4830558927812518	-0.374140047356887
-0.4829948576250018	-0.3669726255083907
-0.4829338224687518	-0.35968675011223195
-0.4828727873125018	-0.3522847956791182
-0.4828117521562518	-0.3447690117222182
-0.4827507170000018	-0.3371416737134235
-0.4826896818437518	-0.32940527468428943
-0.4826286466875018	-0.32156237896911793
-0.4825676115312518	-0.3136151163979851
-0.4825065763750018	-0.30556575626981175
-0.4824455412187518	-0.29741719817360485
-0.4823845060625018	-0.289172245599605
-0.4823234709062518	-0.2808334976645353
-0.4822624357500018	-0.2724037359164549
-0.4822014005937518	-0.2638855958726939
-0.4821403654375018	-0.2552815209253195
-0.4820793302812518	-0.24659404926511452
-0.4820182951250018	-0.23782591645831958
-0.4819572599687518	-0.22898017733146991
-0.4818962248125018	-0.2200599700040616
-0.4818351896562518	-0.2110682607520125
-0.4817741545000018	-0.2020077760141394
-0.4817131193437518	-0.19288099200042583
-0.4816520841875018	-0.183690597561788
-0.4815910490312518	-0.17443973770555188
-0.4815300138750018	-0.1651316476668047
-0.4814689787187518	-0.15576948590361242
-0.4814079435625018	-0.1463562482495346
-0.4813469084062518	-0.13689470032553414
-0.4812858732500018	-0.12738769954876483
-0.4812248380937518	-0.11783831005027023
-0.4811638029375018	-0.10824964392873296
-0.4811027677812518	-0.09862497810311159
-0.4810417326250018	-0.08896762669912786
-0.4809806974687518	-0.07928050759259092
-0.4809196623125018	-0.06956641852240016
-0.4808586271562518	-0.05982853650809007
-0.4807975920000018	-0.05007010089144392
-0.4807365568437518	-0.04029418501478181
-0.4806755216875018	-0.030503985355785797
-0.4806144865312518	-0.02070272772932518
-0.4805534513750018	-0.010893574313534675
-0.4804924162187518	-0.001079795409199299
-0.4804313810625018	0.008735544131921194
-0.4803703459062518	0.018549553159233078
-0.4803093107500018	0.028358821476780413
-0.4802482755937518	0.038159903222063855
-0.4801872404375018	0.04795013807611792
-0.4801262052812518	0.057726711942629266
-0.4800651701250018	0.06748597601630123
-0.4800041349687518	0.07722441090352107
-0.4799430998125018	0.0869389693175093
-0.4798820646562518	0.09662658690815687
-0.4798210295000018	0.10628427292761916
-0.4797599943437518	0.11590918463735803
-0.4796989591875018	0.12549819212314284
-0.4796379240312518	0.1350479078174454
-0.4795768888750018	0.14455520715445017
-0.4795158537187518	0.15401701320452738
-0.4794548185625018	0.1634301113847912
-0.4793937834062518	0.17279162743077717
-0.4793327482500018	0.182098686488518
-0.4792717130937518	0.19134810870796998
-0.4792106779375018	0.2005369736328004
-0.4791496427812518	0.2096624139048186
-0.4790886076250018	0.2187212481305525
-0.4790275724687518	0.2277103271317973
-0.4789665373125018	0.23662671334254792
-0.4789055021562518	0.2454678329796329
-0.4788444670000018	0.25423118657914395
-0.4787834318437518	0.2629136910293221
-0.4787223966875018	0.2715120404470085
-0.4786613615312518	0.28002339750701355
-0.4786003263750018	0.2884452558173846
-0.4785392912187518	0.2967750218318429
-0.4784782560625018	0.3050099051584742
-0.4784172209062518	0.31314709886305453
-0.4783561857500018	0.3211840008714438
-0.4782951505937518	0.3291180503590207
-0.4782341154375018	0.33694654089020476
-0.4781730802812518	0.3446668898727917
-0.4781120451250018	0.3522766755178088
-0.4780510099687518	0.3597733953856178
-0.4779899748125018	0.3671545175370287
-0.4779289396562518	0.37441769498929617
-0.4778679045000018	0.38156073009579816
-0.4778068693437518	0.3885810813884772
-0.4777458341875018	0.395476062725529
-0.4776847990312518	0.4022436011518333
-0.4776237638750018	0.40888178568408773
-0.4775627287187518	0.41538836171914134
-0.4775016935625018	0.42176116797276025
-0.4774406584062518	0.42799816577244104
-0.4773796232500018	0.43409718267500674
-0.4773185880937518	0.44005604785016544
-0.4772575529375018	0.4458728050991842
-0.4771965177812518	0.4515456938965287
-0.4771354826250018	0.4570728653842874
-0.4770744474687518	0.4624523880448541
-0.4770134123125018	0.46768254224806416
-0.4769523771562518	0.4727616702664056
-0.4768913420000018	0.4776879719985628
-0.4768303068437518	0.48245973805437653
-0.4767692716875018	0.487075396461831
-0.4767082365312518	0.4915333846192266
-0.4766472013750018	0.4958322665914698
-0.4765861662187518	0.49997071088585304
-0.4765251310625018	0.5039473592675945
-0.4764640959062518	0.5077608174720523
-0.4764030607500018	0.511409688780273
-0.4763420255937518	0.5148927018136129
-0.4762809904375018	0.5182087613854489
-0.4762199552812518	0.5213568266006495
-0.4761589201250018	0.5243358126418545
-0.4760978849687518	0.5271446249620892
-0.4760368498125018	0.5297822654391873
-0.4759758146562518	0.5322478788487134
-0.4759147795000018	0.534540680860614
-0.4758537443437518	0.5366598970568243
-0.4757927091875018	0.5386047573673622
-0.4757316740312518	0.5403745303498676
-0.4756706388750018	0.5419686096769242
-0.4756096037187518	0.543386459221421
-0.4755485685625018	0.5446275269179885
-0.4754875334062518	0.5456913439656145
-0.4754264982500018	0.5465775549048402
-0.4753654630937518	0.547285828175649
-0.4753044279375018	0.5478158633047124
-0.4752433927812518	0.5481674577768044
-0.4751823576250018	0.5483404790935958
-0.4751213224687518	0.5483347856436254
-0.4750602873125018	0.5481502778743829
-0.4749992521562518	0.547786988952732
-0.4749382170000018	0.547245038692245
-0.4748771818437518	0.5465245604046641
-0.4748161466875018	0.5456257019105984
-0.4747551115312518	0.5445486787192172
-0.4746940763750018	0.5432938040821196
-0.4746330412187518	0.5418614502483676
-0.4745720060625018	0.5402520656483946
-0.4745109709062518	0.5384661340413189
-0.4744499357500018	0.5365041069965361
-0.4743889005937518	0.53436654816367
-0.4743278654375018	0.5320541703573206
-0.4742668302812518	0.5295677336180418
-0.4742057951250018	0.5269079687646422
-0.4741447599687518	0.5240755892869244
-0.4740837248125018	0.5210715347865753
-0.4740226896562518	0.5178968726326034
-0.4739616545000018	0.5145525037311864
-0.4739006193437518	0.5110393782307189
-0.4738395841875018	0.507358593444489
-0.4737785490312518	0.503511262484997
-0.4737175138750018	0.4994986533049752
-0.4736564787187518	0.49532212317152063
-0.4735954435625018	0.4909829285681164
-0.4735344084062518	0.4864824168922125
-0.4734733732500018	0.48182213984959865
-0.4734123380937518	0.47700356803883753
-0.4733513029375018	0.4720280355003722
-0.4732902677812518	0.46689707491187443
-0.4732292326250018	0.46161237554958384
-0.4731681974687518	0.4561756212223181
-0.4731071623125018	0.45058860670465173
-0.4730461271562518	0.44485317301796196
-0.4729850920000018	0.438971217594527
-0.4729240568437518	0.43294470032115334
-0.4728630216875018	0.4267753805850896
-0.4728019865312518	0.42046486825961016
-0.4727409513750018	0.41401506372155
-0.4726799162187518	0.4074284736775029
-0.4726188810625018	0.4007076640340363
-0.4725578459062518	0.3938545617803635
-0.4724968107500018	0.3868710507847538
-0.4724357755937518	0.37975941852906275
-0.4723747404375018	0.37252189525454604
-0.4723137052812518	0.3651607226689029
-0.4722526701250018	0.35767842035815384
-0.4721916349687518	0.3500774966318824
-0.4721305998125018	0.3423603376361172
-0.4720695646562518	0.33452951641892037
-0.4720085295000018	0.326587597809754
-0.4719474943437518	0.31853696628772776
-0.4718864591875018	0.3103802270399694
-0.4718254240312518	0.3021201585999497
-0.4717643888750018	0.2937593447155718
-0.4717033537187518	0.2853003006092128
-0.4716423185625018	0.27674581048957386
-0.4715812834062518	0.26809879102423656
-0.4715202482500018	0.25936212411807263
-0.4714592130937518	0.25053876835975447
-0.4713981779375018	0.24163155369835704
-0.4713371427812518	0.2326430695749008
-0.4712761076250018	0.22357605185008428
-0.4712150724687518	0.2144336469770132
-0.4711540373125018	0.20521904884237743
-0.4710930021562518	0.1959351303464604
-0.4710319670000018	0.1865848923950443
-0.4709709318437518	0.17717159810291833
-0.4709098966875018	0.16769821159150067
-0.4708488615312518	0.15816753376028278
-0.4707878263750018	0.14858265526919356
-0.4707267912187518	0.1389468424191109
-0.4706657560625018	0.12926327137192756
-0.4706047209062518	0.1195352044060946
-0.4705436857500018	0.10976601413821373
-0.4704826505937518	0.09995869595294045
-0.4704216154375018	0.09011608749433131
-0.4703605802812518	0.08024133567616475
-0.4702995451250018	0.0703378797764023
-0.4702385099687518	0.060409286368731024
-0.4701774748125018	0.05045880535683962
-0.4701164396562518	0.040489575323429824
-0.4700554045000018	0.030504949948579347
-0.4699943693437518	0.020507999045042663
-0.4699333341875018	0.010501642070628186
-0.4698722990312518	0.0004892755223523592
-0.4698112638750018	-0.009525508008755896
-0.4697502287187518	-0.019539420766389672
-0.4696891935625018	-0.029549196640749623
-0.4696281584062518	-0.039551398180664644
-0.4695671232500018	-0.0495427300253357
-0.4695060880937518	-0.05952024970542488
-0.4694450529375018	-0.06948097682838347
-0.4693840177812518	-0.07942125639038515
