Time	Frequency
-0.5000363895625028	0.3449127923626321
-0.49997535440625285	0.3372258524934418
-0.49991431925000285	0.32938652604161445
-0.49985328409375285	0.3214337485639332
-0.49979224893750285	0.31341120997801464
-0.49973121378125285	0.30529517172605897
-0.49967017862500285	0.2970451524418512
-0.49960914346875285	0.28868039212699176
-0.49954810831250285	0.28024671835577586
-0.49948707315625285	0.27173942250591077
-0.49942603800000285	0.26311995200378696
-0.49936500284375285	0.2543904961138917
-0.49930396768750285	0.24559207999895893
-0.49924293253125285	0.2367352369944564
-0.49918189737500285	0.22778912342329363
-0.49912086221875285	0.218743339488219
-0.49905982706250285	0.20962935928807888
-0.49899879190625285	0.20046776074903305
-0.49893775675000285	0.19123856836159445
-0.49887672159375285	0.18192423390215243
-0.49881568643750285	0.17254518046116793
-0.49875465128125285	0.16312694293377655
-0.49869361612500285	0.15366108081675314
-0.49863258096875285	0.14412766473555838
-0.49857154581250285	0.134535639160764
-0.49851051065625285	0.12491047478146312
-0.49844947550000285	0.11525462251968722
-0.49838844034375285	0.10555069733875995
-0.49832740518750285	0.09579839348351457
-0.49826637003125285	0.0860191032527721
-0.49820533487500285	0.0762230238854025
-0.49814429971875285	0.06639809919385758
-0.49808326456250285	0.05653786341898479
-0.49802222940625285	0.046657599753776
-0.49796119425000285	0.03677223356697402
-0.49790015909375285	0.026876523715608534
-0.49783912393750285	0.016961080533058698
-0.49777808878125285	0.007034214732176523
-0.49771705362500285	-0.0028879307496625325
-0.49765601846875285	-0.01280389488670122
-0.49759498331250285	-0.022723083606448286
-0.49753394815625285	-0.032643603371197955
-0.49747291300000285	-0.04255010461706329
-0.49741187784375285	-0.05243452230846897
-0.49735084268750285	-0.062304049277246844
-0.49728980753125285	-0.07216312231997046
-0.49722877237500285	-0.08200031916544397
-0.49716773721875285	-0.09180255858334196
-0.49710670206250285	-0.10157227953587734
-0.49704566690625285	-0.11131771764357619
-0.49698463175000285	-0.12103258225470177
-0.49692359659375285	-0.13070086408754109
-0.49686256143750285	-0.14031931109328552
-0.49680152628125285	-0.14989794833853057
-0.49674049112500285	-0.15943680884215805
-0.49667945596875285	-0.16891990749080085
-0.49661842081250285	-0.17833798624925434
-0.49655738565625285	-0.1876999446204784
-0.49649635050000285	-0.19701155168621753
-0.49643531534375285	-0.20625870357511197
-0.49637428018750285	-0.2154264588355617
-0.49631324503125285	-0.22452102895084147
-0.49625220987500285	-0.23355397104410586
-0.49619117471875285	-0.24251537061995265
-0.49613013956250285	-0.2513854838726139
-0.49606910440625285	-0.2601656217316651
-0.49600806925000285	-0.26887141186181857
-0.49594703409375285	-0.2774986290630973
-0.49588599893750285	-0.28602429779757765
-0.49582496378125285	-0.29444335570367636
-0.49576392862500285	-0.3027739570615042
-0.49570289346875285	-0.31101930171354797
-0.49564185831250285	-0.3191553636219951
-0.49558082315625285	-0.32716955903729544
-0.49551978800000285	-0.3350803031557901
-0.49545875284375285	-0.3428988481022497
-0.49539771768750285	-0.3506022680072076
-0.49533668253125285	-0.3581698485685623
-0.49527564737500285	-0.36561771846946756
-0.49521461221875285	-0.3729657893311587
-0.49515357706250285	-0.38019537506803003
-0.49509254190625285	-0.3872774164208357
-0.49503150675000285	-0.39422238079704813
-0.49497047159375285	-0.40105823340582397
-0.49490943643750285	-0.4077738934462881
-0.49484840128125285	-0.4143337185471686
-0.49478736612500285	-0.42073964292490895
-0.49472633096875285	-0.4270256098361117
-0.49466529581250285	-0.43319069089627177
-0.49460426065625285	-0.43919445053860445
-0.49454322550000285	-0.44502746162378737
-0.49448219034375285	-0.45072734066633885
-0.49442115518750285	-0.45630633121671277
-0.49436012003125285	-0.4617228245599691
-0.49429908487500285	-0.4669536543801545
-0.49423804971875285	-0.47203576527795044
-0.49417701456250285	-0.4769961681010736
-0.49411597940625285	-0.48179669403363723
-0.49405494425000285	-0.4863994233984505
-0.49399390909375285	-0.49083556640911563
-0.49393287393750285	-0.4951472329502069
-0.49387183878125285	-0.4993053083302614
-0.49381080362500285	-0.503257871932191
-0.49374976846875285	-0.5070246877471196
-0.49368873331250285	-0.5106611753264689
-0.49362769815625285	-0.5141528456232951
-0.49356666300000285	-0.5174364196871085
-0.49350562784375285	-0.5205147029239616
-0.49344459268750285	-0.523452770264784
-0.49338355753125285	-0.5262561657197302
-0.49332252237500285	-0.528855292763866
-0.49326148721875285	-0.5312312014490317
-0.49320045206250285	-0.5334523550983722
-0.49313941690625285	-0.5355482328516916
-0.49307838175000285	-0.5374501375544218
-0.49301734659375285	-0.5391144111905521
-0.49295631143750285	-0.5406048101032539
-0.49289527628125285	-0.5419766094494195
-0.49283424112500285	-0.5431709159537164
-0.49277320596875285	-0.5441189115165441
-0.49271217081250285	-0.5448701964399051
-0.49265113565625285	-0.545504641911362
-0.49259010050000285	-0.5459829303398727
-0.49252906534375285	-0.5462141633111902
-0.49246803018750285	-0.5462239846149123
-0.49240699503125285	-0.5461117875379611
-0.49234595987500285	-0.5458673270062547
-0.49228492471875285	-0.5453847561551066
-0.49222388956250285	-0.544656947065918
-0.49216285440625285	-0.5437936061305062
-0.49210181925000285	-0.5428211982672541
-0.49204078409375285	-0.5416300947125166
-0.49197974893750285	-0.5401744912381511
-0.49191871378125285	-0.5385615616055338
-0.49185767862500285	-0.5368582244089523
-0.49179664346875285	-0.5349652783564919
-0.49173560831250285	-0.5327970012102292
-0.49167457315625285	-0.5304428547650888
-0.49161353800000285	-0.5280086390689619
-0.49155250284375285	-0.5254212015344638
-0.49149146768750285	-0.5225594843124701
-0.49143043253125285	-0.5194796862546166
-0.49136939737500285	-0.5163186976056702
-0.49130836221875285	-0.5130442922010537
-0.49124732706250285	-0.5095112669890032
-0.49118629190625285	-0.5057292165946583
-0.49112525675000285	-0.5018515845547967
-0.49106422159375285	-0.49789785628797945
-0.49100318643750285	-0.4937160521479687
-0.49094215128125285	-0.48926165240002595
-0.49088111612500285	-0.4846851272106077
-0.49082008096875285	-0.48006140866659325
-0.49075904581250285	-0.47525265876281947
-0.49069801065625285	-0.4701606177741755
-0.49063697550000285	-0.4649112300984956
-0.49057594034375285	-0.45963012931000674
-0.49051490518750285	-0.4542148913727335
-0.49045387003125285	-0.4485227876456365
-0.49039283487500285	-0.4426353839013233
-0.49033179971875285	-0.4367152572399737
-0.49027076456250285	-0.4307125994009842
-0.49020972940625285	-0.4244578355226629
-0.49014869425000285	-0.4179743200214561
-0.49008765909375285	-0.41144069285511475
-0.49002662393750285	-0.40486950280520534
-0.48996558878125285	-0.39808773180288837
-0.48990455362500285	-0.3910557105656137
-0.48984351846875285	-0.3839435197292558
-0.48978248331250285	-0.3768255439282044
-0.48972144815625285	-0.36954973261113605
-0.48966041300000285	-0.3620190376322205
-0.48959937784375285	-0.3543716266460922
-0.48953834268750285	-0.3467330524632179
-0.48947730753125285	-0.3389933596040418
-0.48941627237500285	-0.33101321472256834
-0.48935523721875285	-0.32288112190736806
-0.48929420206250285	-0.31475519437599137
-0.48923316690625285	-0.3065812024394821
-0.48917213175000285	-0.2981987741387078
-0.48911109659375285	-0.2896377531099337
-0.48905006143750285	-0.2810660230411877
-0.48898902628125285	-0.2724891700874889
-0.48892799112500285	-0.2637486903291647
-0.48886695596875285	-0.254816126608394
-0.48880592081250285	-0.24584674109857554
-0.48874488565625285	-0.2369011978278875
-0.48868385050000285	-0.22784400916955475
-0.48862281534375285	-0.2185974714073146
-0.48856178018750285	-0.20928539828038256
-0.48850074503125285	-0.20001077630305333
-0.48843970987500285	-0.19067693730836627
-0.48837867471875285	-0.18117254677338065
-0.48831763956250285	-0.1715774773335253
-0.48825660440625285	-0.16201927213571277
-0.48819556925000285	-0.15244861376171426
-0.48813453409375285	-0.1427390451121042
-0.48807349893750285	-0.13292179914902055
-0.48801246378125285	-0.12313059437976687
-0.48795142862500285	-0.1133647709007202
-0.48789039346875285	-0.10350092650228661
-0.48782935831250285	-0.09352384770509725
-0.48776832315625285	-0.0835557933014245
-0.48770728800000285	-0.07363876500291654
-0.48764625284375285	-0.06366837384963253
-0.48758521768750285	-0.05359198194719822
-0.48752418253125285	-0.04350673882356928
-0.48746314737500285	-0.033486351085593336
-0.48740211221875285	-0.023456577859779015
-0.48734107706250285	-0.01333947553442209
-0.48728004190625285	-0.003198364570995584
-0.48721900675000285	0.00687471822671732
-0.48715797159375285	0.01691783581490284
-0.48709693643750285	0.027019656958673362
-0.48703590128125285	0.03715363643643246
-0.48697486612500285	0.047224526380343544
-0.48691383096875285	0.057234635744187114
-0.48685279581250285	0.06726889647845798
-0.48679176065625285	0.07733417876134273
-0.48673072550000285	0.08734502810782455
-0.48666969034375285	0.09727356590284661
-0.48660865518750285	0.10718987812837685
-0.48654762003125285	0.11712721724130434
-0.48648658487500285	0.12701934635936718
-0.48642554971875285	0.1368168663742099
-0.48636451456250285	0.14656752514318028
-0.48630347940625285	0.15632066221579013
-0.48624244425000285	0.16603423221047633
-0.48618140909375285	0.17564828922643586
-0.48612037393750285	0.1851857260162961
-0.48605933878125285	0.1947013616008885
-0.48599830362500285	0.20417818108832236
-0.48593726846875285	0.21355613362408848
-0.48587623331250285	0.22283443920648077
-0.48581519815625285	0.2320633910826287
-0.48575416300000285	0.2412473733417445
-0.48569312784375285	0.25033476324096593
-0.48563209268750285	0.25930650834995417
-0.48557105753125285	0.26820173720679935
-0.48551002237500285	0.2770400623952903
-0.48544898721875285	0.2857835933956756
-0.48538795206250285	0.2944019457805259
-0.48532691690625285	0.3029193470665855
-0.48526588175000285	0.31136324733764786
-0.48520484659375285	0.3197113334349508
-0.48514381143750285	0.3279291228770495
-0.48508277628125285	0.33602568979004144
-0.48502174112500285	0.3440295166004492
-0.48496070596875285	0.35193284843122913
-0.48489967081250285	0.35970331852285903
-0.48483863565625285	0.3673372501754939
-0.48477760050000285	0.3748592250952743
-0.48471656534375285	0.3822729704404334
-0.48465553018750285	0.38955211039623083
-0.48459449503125285	0.3966834700398296
-0.48453345987500285	0.403684248625262
-0.48447242471875285	0.4105657805116501
-0.48441138956250285	0.4173104491708366
-0.48435035440625285	0.4239002416093596
-0.48428931925000285	0.4303437600704131
-0.48422828409375285	0.43665553305699845
-0.48416724893750285	0.442826939752013
-0.48410621378125285	0.44883898646326964
-0.48404517862500285	0.4546916896120024
-0.48398414346875285	0.46039895726032715
-0.48392310831250285	0.46596044806541204
-0.48386207315625285	0.47135985954320303
-0.48380103800000285	0.47659062915523737
-0.48374000284375285	0.4816634415629057
-0.48367896768750285	0.4865838780604474
-0.48361793253125285	0.49133996213737363
-0.48355689737500285	0.49592033358770354
-0.48349586221875285	0.5003307921253194
-0.48343482706250285	0.5045811484137812
-0.48337379190625285	0.5086657619197711
-0.48331275675000285	0.5125710281423314
-0.48325172159375285	0.5162964376792989
-0.48319068643750285	0.5198529555643769
-0.48312965128125285	0.5232415707877828
-0.48306861612500285	0.5264491915879087
-0.48300758096875285	0.5294694236291101
-0.48294654581250285	0.5323121328242757
-0.48288551065625285	0.5349843756913379
-0.48282447550000285	0.5374757406265408
-0.48276344034375285	0.5397747002459495
-0.48270240518750285	0.5418878605973865
-0.48264137003125285	0.5438272580017357
-0.48258033487500285	0.5455871636612659
-0.48251929971875285	0.5471523136862678
-0.48245826456250285	0.5485242918321683
-0.48239722940625285	0.5497184765630645
-0.48233619425000285	0.5507353442796643
-0.48227515909375285	0.5515578172341851
-0.48221412393750285	0.5521813343033225
-0.48215308878125285	0.5526225447383796
-0.48209205362500285	0.5528888507013257
-0.48203101846875285	0.5529634572819624
-0.48196998331250285	0.5528351698049345
-0.48190894815625285	0.5525197394652833
-0.48184791300000285	0.552031823489958
-0.48178687784375285	0.5513572374613419
-0.48172584268750285	0.550478114496114
-0.48166480753125285	0.5494068778089098
-0.48160377237500285	0.5481650943845678
-0.48154273721875285	0.5467436414281073
-0.48148170206250285	0.545118702551113
-0.48142066690625285	0.5432969082542429
-0.48135963175000285	0.5413056726665024
-0.48129859659375285	0.5391434996200133
-0.48123756143750285	0.5367820998558227
-0.48117652628125285	0.5342196606276277
-0.48111549112500285	0.531487339083676
-0.48105445596875285	0.5285936262758705
-0.48099342081250285	0.5255084737853172
-0.48093238565625285	0.5222199122187098
-0.48087135050000285	0.5187598503762231
-0.48081031534375285	0.5151479706503557
-0.48074928018750285	0.5113555129360766
-0.48068824503125285	0.5073592251167777
-0.48062720987500285	0.503188421253316
-0.48056617471875285	0.4988750152136769
-0.48050513956250285	0.49439545658201983
-0.48044410440625285	0.4897146982743263
-0.48038306925000285	0.48485497925275794
-0.48032203409375285	0.47985997315899936
-0.48026099893750285	0.47471604131738954
-0.48019996378125285	0.4693778217363714
-0.48013892862500285	0.46385577572911024
-0.48007789346875285	0.4582029457675004
-0.48001685831250285	0.45242012771454176
-0.47995582315625285	0.446454846019486
-0.47989478800000285	0.44030157752362625
-0.47983375284375285	0.4340187315706959
-0.47977271768750285	0.427625362219506
-0.47971168253125285	0.4210667262291413
-0.47965064737500285	0.4143178490456977
-0.47958961221875285	0.4074366349445417
-0.47952857706250285	0.4004630553273955
-0.47946754190625285	0.39334674566009975
-0.47940650675000285	0.38604182920206115
-0.47934547159375285	0.3785985862842553
-0.47928443643750285	0.3710781306430085
-0.47922340128125285	0.36344201190031805
-0.47916236612500285	0.3556242999378116
-0.47910133096875285	0.34765955121846676
-0.47904029581250285	0.33962786197585493
-0.47897926065625285	0.33151125248183455
-0.47891822550000285	0.32322752828138657
-0.47885719034375285	0.31478689165760504
-0.47879615518750285	0.3062826204035978
-0.47873512003125285	0.2977248075093989
-0.47867408487500285	0.28902247875086096
-0.47861304971875285	0.28015548007021335
-0.47855201456250285	0.2712217447642383
-0.47849097940625285	0.2622644163116291
-0.47842994425000285	0.25319341990985755
-0.47836890909375285	0.24395388194523693
-0.47830787393750285	0.23463666853098283
-0.47824683878125285	0.22532058805553978
-0.47818580362500285	0.21592985023491187
-0.47812476846875285	0.2063749305229398
-0.47806373331250285	0.19672575793212757
-0.47800269815625285	0.18709396293158043
-0.47794166300000285	0.17743182807099672
-0.47788062784375285	0.16762082765097153
-0.47781959268750285	0.15769638131449365
-0.47775855753125285	0.14779412899266994
-0.47769752237500285	0.1379067396102017
-0.47763648721875285	0.12789808599567043
-0.47757545206250285	0.1177585638677462
-0.47751441690625285	0.10763441160346725
-0.47745338175000285	0.0975677012524238
-0.47739234659375285	0.08742052852862273
-0.47733131143750285	0.07713117318197742
-0.47727027628125285	0.06683774626315193
-0.47720924112500285	0.05663507457669188
-0.47714820596875285	0.046403894966380005
-0.47708717081250285	0.036031569593385125
-0.47702613565625285	0.02562731180495835
-0.47696510050000285	0.015333021099697842
-0.47690406534375285	0.005068494533433745
-0.47684303018750285	-0.005319496135626924
-0.47678199503125285	-0.015769820499218677
-0.47672095987500285	-0.026108607886891302
-0.47665992471875285	-0.03636058022933847
-0.47659888956250285	-0.04670077410613953
-0.47653785440625285	-0.057129030678015676
-0.47647681925000285	-0.06746088615943059
-0.47641578409375285	-0.07765667295281573
-0.47635474893750285	-0.08788979441394663
-0.47629371378125285	-0.09822537114356132
-0.47623267862500285	-0.10849354328519495
-0.47617164346875285	-0.11859146593412717
-0.47611060831250285	-0.12866520791386704
-0.47604957315625285	-0.13883827655722547
-0.47598853800000285	-0.14898014320925548
-0.47592750284375285	-0.1589371005581254
-0.47586646768750285	-0.16880549669094178
-0.47580543253125285	-0.17874990845979558
-0.47574439737500285	-0.1886978144117417
-0.47568336221875285	-0.19846625741344437
-0.47562232706250285	-0.20808831543369508
-0.47556129190625285	-0.2177454015307143
-0.47550025675000285	-0.227431322811326
-0.47543922159375285	-0.236959455620235
-0.47537818643750285	-0.2462963245423927
-0.47531715128125285	-0.25561408676143427
-0.47525611612500285	-0.2649707813743029
-0.47519508096875285	-0.2742016494170494
-0.47513404581250285	-0.28321445106255305
-0.47507301065625285	-0.2921486871415048
-0.47501197550000285	-0.30111395104164473
-0.47495094034375285	-0.30998748257244463
-0.47488990518750285	-0.3186347419221962
-0.47482887003125285	-0.32714649082659303
-0.47476783487500285	-0.33566483309271455
-0.47470679971875285	-0.3441210148492859
-0.47464576456250285	-0.35235907415150336
-0.47458472940625285	-0.36041310602511006
-0.47452369425000285	-0.3684355885240568
-0.47446265909375285	-0.3764152410334545
-0.47440162393750285	-0.3841972149788147
-0.47434058878125285	-0.3917603439937789
-0.47427955362500285	-0.3992460697840986
-0.47421851846875285	-0.4066949613366046
-0.47415748331250285	-0.41397257543606875
-0.47409644815625285	-0.4210114218360197
-0.47403541300000285	-0.4279250400467188
-0.47397437784375285	-0.4347941624588302
-0.47391334268750285	-0.4415191733505777
-0.47385230753125285	-0.44800051011051134
-0.47379127237500285	-0.4543124383654604
-0.47373023721875285	-0.4605597675842373
-0.47366920206250285	-0.46668541243948297
-0.47360816690625285	-0.47257453872799277
-0.47354713175000285	-0.4782580008578458
-0.47348609659375285	-0.4838480053024768
-0.47342506143750285	-0.489331339615509
-0.47336402628125285	-0.49459455504670036
-0.47330299112500285	-0.49962664904076626
-0.47324195596875285	-0.5045308677298195
-0.47318092081250285	-0.509332908305103
-0.47311988565625285	-0.5139356758104757
-0.47305885050000285	-0.5182943368613927
-0.47299781534375285	-0.5224905480230196
-0.47293678018750285	-0.5265789282136689
-0.47287574503125285	-0.5304889767291739
-0.47281470987500285	-0.5341534928119827
-0.47275367471875285	-0.537624823190324
-0.47269263956250285	-0.5409738730794676
-0.47263160440625285	-0.544161656385713
-0.47257056925000285	-0.54711180474063
-0.47250953409375285	-0.5498453093660564
-0.47244849893750285	-0.5524363021142451
-0.47238746378125285	-0.5548766791912366
-0.47232642862500285	-0.5570933770420587
-0.47226539346875285	-0.559079189558522
-0.47220435831250285	-0.5609001318438581
-0.47214332315625285	-0.5625737089835852
-0.47208228800000285	-0.5640399409830923
-0.47202125284375285	-0.5652703153621924
-0.47196021768750285	-0.5663147963250386
-0.47189918253125285	-0.5672084043381787
-0.47183814737500285	-0.567910163104114
-0.47177711221875285	-0.5683792041400967
-0.47171607706250285	-0.5686456636159456
-0.47165504190625285	-0.568752753944333
-0.47159400675000285	-0.5686802030065037
-0.47153297159375285	-0.5683840085669813
-0.47147193643750285	-0.5678747223643507
-0.47141090128125285	-0.5671950781856057
-0.47134986612500285	-0.5663435101879191
-0.47128883096875285	-0.5652806215292971
-0.47122779581250285	-0.5640008722820502
-0.47116676065625285	-0.5625400046519873
-0.47110572550000285	-0.5609105197143143
-0.47104469034375285	-0.5590826934540858
-0.47098365518750285	-0.5570402403345962
-0.47092262003125285	-0.5548083652070867
-0.47086158487500285	-0.552408012512877
-0.47080054971875285	-0.5498213020916286
-0.47073951456250285	-0.5470268586964121
-0.47067847940625285	-0.544038355174125
-0.47061744425000285	-0.5408796443321583
-0.47055640909375285	-0.5375445907559208
-0.47049537393750285	-0.5340118261319567
-0.47043433878125285	-0.5302844794520158
-0.47037330362500285	-0.5263848340948236
