Time	Frequency
-0.5000381464062471	-2.7275565957056006e-23
-0.4999771112499971	-2.756904591802531e-23
-0.4999160760937471	-2.78520735625094e-23
-0.4998550409374971	-2.8125453398208246e-23
-0.4997940057812471	-2.8390969813287844e-23
-0.4997329706249971	-2.8647001498544e-23
-0.4996719354687471	-2.8892190008125325e-23
-0.4996109003124971	-2.9128374578826184e-23
-0.4995498651562471	-2.9356017919922727e-23
-0.4994888299999971	-2.9572989436147175e-23
-0.4994277948437471	-2.977941187722497e-23
-0.4993667596874971	-2.997712336667117e-23
-0.4993057245312471	-3.016518849620899e-23
-0.4992446893749971	-3.0342007852496547e-23
-0.4991836542187471	-3.050890153852064e-23
-0.4991226190624971	-3.0666796051496815e-23
-0.4990615839062471	-3.0813945859047953e-23
-0.4990005487499971	-3.094995146224302e-23
-0.4989395135937471	-3.107652108531836e-23
-0.4988784784374971	-3.119331244388882e-23
-0.4988174432812471	-3.129869570215677e-23
-0.4987564081249971	-3.1393496099477085e-23
-0.4986953729687471	-3.1478899680110854e-23
-0.4986343378124971	-3.1553596991335234e-23
-0.4985733026562471	-3.161684529495379e-23
-0.4985122674999971	-3.1670111221091105e-23
-0.4984512323437471	-3.1713515108060975e-23
-0.4983901971874971	-3.174555107692455e-23
-0.4983291620312471	-3.1766622538300023e-23
-0.4982681268749971	-3.1778002444160575e-23
-0.4982070917187471	-3.1778800663290475e-23
-0.4981460565624971	-3.1768101380896004e-23
-0.4980850214062471	-3.1747103907562395e-23
-0.4980239862499971	-3.171624880848943e-23
-0.4979629510937471	-3.1674215165150865e-23
-0.4979019159374971	-3.1621087801335624e-23
-0.4978408807812471	-3.1558145313720254e-23
-0.4977798456249971	-3.1484859907233493e-23
-0.4977188104687471	-3.1400229613184765e-23
-0.4976577753124971	-3.1305197579163816e-23
-0.4975967401562471	-3.120044326063541e-23
-0.4975357049999971	-3.108485847902225e-23
-0.4974746698437471	-3.095827755679459e-23
-0.4974136346874971	-3.0821927778763385e-23
-0.4973525995312471	-3.067559422203672e-23
-0.4972915643749971	-3.051826364249954e-23
-0.4972305292187471	-3.035064723921518e-23
-0.4971694940624971	-3.017357832052672e-23
-0.4971084589062471	-2.998616249854612e-23
-0.4970474237499971	-2.978806678301038e-23
-0.4969863885937471	-2.9580446404558846e-23
-0.4969253534374971	-2.936333368514318e-23
-0.4968643182812471	-2.9135732703909626e-23
-0.4968032831249971	-2.8898159527237745e-23
-0.4967422479687471	-2.8651577073597656e-23
-0.4966812128124971	-2.8395286107573846e-23
-0.4966201776562471	-2.8128788109872655e-23
-0.4965591424999971	-2.78531698127769e-23
-0.4964981073437471	-2.756872297907274e-23
-0.4964370721874971	-2.7274473313089514e-23
-0.4963760370312471	-2.6970716805381133e-23
-0.4963150018749971	-2.665853085238985e-23
-0.4962539667187471	-2.6337454287152292e-23
-0.4961929315624971	-2.6006843109427977e-23
-0.4961318964062471	-2.566765371532862e-23
-0.4960708612499971	-2.5320421317920703e-23
-0.4960098260937471	-2.496425013107248e-23
-0.4959487909374971	-2.4599213312576818e-23
-0.4958877557812471	-2.4226457959006036e-23
-0.4958267206249971	-2.3845765800985497e-23
-0.4957656854687471	-2.3456364102249748e-23
-0.4957046503124971	-2.3059064973496782e-23
-0.4956436151562471	-2.2654648508960678e-23
-0.4955825799999971	-2.22423207646081e-23
-0.4955215448437471	-2.1821913562329579e-23
-0.4954605096874971	-2.139461539830325e-23
-0.4953994745312471	-2.096048916249792e-23
-0.4953384393749971	-2.0518647425411805e-23
-0.4952774042187471	-2.0069689495466956e-23
-0.4952163690624971	-1.961464144459259e-23
-0.4951553339062471	-1.9152880222610583e-23
-0.4950942987499971	-1.8683954720593078e-23
-0.4950332635937471	-1.8209029449903703e-23
-0.4949722284374971	-1.7728517882917876e-23
-0.4949111932812471	-1.7241464620877895e-23
-0.4948501581249971	-1.6748171853237665e-23
-0.4947891229687471	-1.624989049989945e-23
-0.4947280878124971	-1.5746254721875865e-23
-0.4946670526562471	-1.5236513537484128e-23
-0.4946060174999971	-1.4721711447062657e-23
-0.4945449823437471	-1.4202648044667998e-23
-0.4944839471874971	-1.3678368242597313e-23
-0.4944229120312471	-1.3148805331130322e-23
-0.4943618768749971	-1.2615407689932846e-23
-0.4943008417187471	-1.2078164622538538e-23
-0.4942398065624971	-1.1535993448062767e-23
-0.4941787714062471	-1.0989713009251106e-23
-0.4941177362499971	-1.0440595640689673e-23
-0.4940567010937471	-9.88777322918184e-24
-0.4939956659374971	-9.330673821403903e-24
-0.4939346307812471	-8.770856401165832e-24
-0.4938735956249971	-8.2088025663737e-24
-0.4938125604687471	-7.643156088000418e-24
-0.4937515253124971	-7.07436608158312e-24
-0.4936904901562471	-6.504170201080012e-24
-0.4936294549999971	-5.931937357646691e-24
-0.4935684198437471	-5.356524865161127e-24
-0.4935073846874971	-4.779462525214292e-24
-0.4934463495312471	-4.201847187561615e-24
-0.4933853143749971	-3.622133124378652e-24
-0.4933242792187471	-3.0402190510706606e-24
-0.4932632440624971	-2.458267839085362e-24
-0.4932022089062471	-1.8760747981470025e-24
-0.4931411737499971	-1.2918912147977387e-24
-0.4930801385937471	-7.070408276602404e-25
-0.4930191034374971	-1.2337495172893404e-25
-0.4929580682812471	4.607047954127644e-25
-0.4928970331249971	1.0460981485005883e-24
-0.4928359979687471	1.6302995069967578e-24
-0.4927749628124971	2.212796230844894e-24
-0.4927139276562471	2.795956800367608e-24
-0.4926528924999971	3.3789688021370094e-24
-0.4925918573437471	3.959133028486683e-24
-0.4925308221874971	4.5378308960875135e-24
-0.4924697870312471	5.116944780640686e-24
-0.4924087518749971	5.693834076617922e-24
-0.4923477167187471	6.266989899038808e-24
-0.4922866815624971	6.839283965172667e-24
-0.4922256464062471	7.410789280669212e-24
-0.4921646112499971	7.977985870425426e-24
-0.4921035760937471	8.541623808009712e-24
-0.4920425409374971	9.104665693236429e-24
-0.4919815057812471	9.664762504982491e-24
-0.4919204706249971	1.0219194720171581e-23
-0.4918594354687471	1.0770970088893131e-23
-0.4917984003124971	1.1321380741203967e-23
-0.4917373651562471	1.1866344130642153e-23
-0.4916763299999971	1.2405553878592481e-23
-0.4916152948437471	1.2942948885222369e-23
-0.4915542596874971	1.347696768587353e-23
-0.4914932245312471	1.4003617622031807e-23
-0.4914321893749971	1.45255388318118e-23
-0.4913711542187471	1.5045509270763207e-23
-0.4913101190624971	1.555934657466476e-23
-0.4912490839062471	1.606523829272456e-23
-0.4911880487499971	1.656775398720027e-23
-0.4911270135937471	1.7066722100248243e-23
-0.4910659784374971	1.7557074977038256e-23
-0.4910049432812471	1.8040397599066676e-23
-0.4909439081249971	1.8520943471216474e-23
-0.4908828729687471	1.8995155014978138e-23
-0.4908218378124971	1.9459522381337643e-23
-0.4907608026562471	1.9918564655084888e-23
-0.4906997674999971	2.037390767602494e-23
-0.4906387323437471	2.0819981701656033e-23
-0.4905776971874971	2.125672477151459e-23
-0.4905166620312471	2.1689472351948325e-23
-0.4904556268749971	2.2116050929513294e-23
-0.4903945917187471	2.2531445965685036e-23
-0.4903335565624971	2.2939261461419252e-23
-0.4902725214062471	2.334297103362716e-23
-0.4902114862499971	2.373740264564211e-23
-0.4901504510937471	2.4120541262894592e-23
-0.4900894159374971	2.4497972192632107e-23
-0.4900283807812471	2.4869460687795917e-23
-0.4899673456249971	2.5229174220434652e-23
-0.4899063104687471	2.5579060404932457e-23
-0.4898452753124971	2.5923977120722798e-23
-0.4897842401562471	2.6260027082319567e-23
-0.4897232049999971	2.658345753667347e-23
-0.4896621698437471	2.6899169473729303e-23
-0.4896011346874971	2.7208916118377044e-23
-0.4895400995312471	2.750696575865514e-23
-0.4894790643749971	2.779331350182256e-23
-0.4894180292187471	2.8073387688998493e-23
-0.4893569940624971	2.8345093436293925e-23
-0.4892959589062471	2.860358973055806e-23
-0.4892349237499971	2.885238392540815e-23
-0.4891738885937471	2.9094792340312465e-23
-0.4891128534374971	2.932602416133078e-23
-0.4890518182812471	2.954429942373072e-23
-0.4889907831249971	2.9754733988357754e-23
-0.4889297479687471	2.995711316103866e-23
-0.4888687128124971	3.01463432855983e-23
-0.4888076776562471	3.0324238879547964e-23
-0.4887466424999971	3.049498202771039e-23
-0.4886856073437471	3.065520171740316e-23
-0.4886245721874971	3.080185530974721e-23
-0.4885635370312471	3.0939149600992986e-23
-0.4885025018749971	3.1068456897921055e-23
-0.4884414667187471	3.118509770319424e-23
-0.4883804315624971	3.1289265193504973e-23
-0.4883193964062471	3.1385335934477565e-23
-0.4882583612499971	3.147150033591965e-23
-0.4881973260937471	3.1544060804893584e-23
-0.4881362909374971	3.1605995958062454e-23
-0.4880752557812471	3.1659788089715185e-23
-0.4880142206249971	3.1701621492617773e-23
-0.4879531854687471	3.173037538997991e-23
-0.4878921503124971	3.1750105641397517e-23
-0.4878311151562471	3.176045204797292e-23
-0.4877700799999971	3.1757586069112966e-23
-0.4877090448437471	3.174317999946355e-23
-0.4876480096874971	3.17203545900077e-23
-0.4875869745312471	3.1686405602777254e-23
-0.4875259393749971	3.163926843874866e-23
-0.4874649042187471	3.158230087119809e-23
-0.4874038690624971	3.15163568214301e-23
-0.4873428339062471	3.143792974197762e-23
-0.4872817987499971	3.1347467763131344e-23
-0.4872207635937471	3.124826191865404e-23
-0.4871597284374971	3.1138794650361683e-23
-0.4870986932812471	3.10164873892385e-23
-0.4870376581249971	3.0883788613068387e-23
-0.4869766229687471	3.074242597411292e-23
-0.4869155878124971	3.058952539037984e-23
-0.4868545526562471	3.042452525791711e-23
-0.4867935174999971	3.025051916787175e-23
-0.4867324823437471	3.006709511706199e-23
-0.4866714471874971	2.9871534721608685e-23
-0.4866104120312471	2.966532670049912e-23
-0.4865493768749971	2.945073025742803e-23
-0.4864883417187471	2.9225672145468626e-23
-0.4864273065624971	2.898885822841834e-23
-0.4863662714062471	2.874292138560626e-23
-0.4863052362499971	2.8488374347894173e-23
-0.4862442010937471	2.822268074600658e-23
-0.4861831659374971	2.794642562553571e-23
-0.4861221307812471	2.7662058614884323e-23
-0.4860610956249971	2.736837323160429e-23
-0.4860000604687471	2.7063647847558665e-23
-0.4859390253124971	2.674987526851414e-23
-0.4858779901562471	2.6428252264236878e-23
-0.4858169549999971	2.6096684396776645e-23
-0.4857559198437471	2.5755009384841295e-23
-0.4856948846874971	2.5405560986251764e-23
-0.4856338495312471	2.5047938168239874e-23
-0.4855728143749971	2.4680304641036795e-23
-0.4855117792187471	2.4303970874349873e-23
-0.4854507440624971	2.392052711213805e-23
-0.4853897089062471	2.3528440363405538e-23
-0.4853286737499971	2.3127023839982155e-23
-0.4852676385937471	2.2718310980286068e-23
-0.4852066034374971	2.2302559757468505e-23
-0.4851455682812471	2.187804140280959e-23
-0.4850845331249971	2.1445448306587958e-23
-0.4850234979687471	2.1006526312482325e-23
-0.4849624628124971	2.056031734636879e-23
-0.4849014276562471	2.0105830124243928e-23
-0.4848403924999971	1.9644706855077768e-23
-0.4847793573437471	1.9177675081002635e-23
-0.4847183221874971	1.8703248111761167e-23
-0.4846572870312471	1.8221626662319087e-23
-0.4845962518749971	1.773454049618635e-23
-0.4845352167187471	1.7241545535851707e-23
-0.4844741815624971	1.6741533108321826e-23
-0.4844131464062471	1.6235736636064426e-23
-0.4843521112499971	1.5725158483510532e-23
-0.4842910760937471	1.5208632817833088e-23
-0.4842300409374971	1.4686041345632032e-23
-0.4841690057812471	1.415897908765042e-23
-0.4841079706249971	1.3627381480043257e-23
-0.4840469354687471	1.3090139421115188e-23
-0.4839859003124971	1.2548150159050614e-23
-0.4839248651562471	1.20025826312307e-23
-0.4838638299999971	1.145255880430888e-23
-0.4838027948437471	1.0897708983080333e-23
-0.4837417596874971	1.0339473497131086e-23
-0.4836807245312471	9.778125345173697e-24
-0.4836196893749971	9.212617130674964e-24
-0.4835586542187471	8.643533491541733e-24
-0.4834976190624971	8.072120450072859e-24
-0.4834365839062471	7.497784563021815e-24
-0.4833755487499971	6.919997556146183e-24
-0.4833145135937471	6.3400011795667765e-24
-0.4832534784374971	5.758296445585261e-24
-0.4831924432812471	5.173953724779665e-24
-0.4831314081249971	4.5873304170320604e-24
-0.4830703729687471	3.999682288686834e-24
-0.4830093378124971	3.4106435884829274e-24
-0.4829483026562471	2.8195927124723817e-24
-0.4828872674999971	2.2276110888444948e-24
-0.4828262323437471	1.6353748677990087e-24
-0.4827651971874971	1.0420292974015127e-24
-0.4827041620312471	4.477150138378369e-25
-0.4826431268749971	-1.462864343029205e-25
-0.4825820917187471	-7.401133266571321e-25
-0.4825210565624971	-1.3344844546136966e-24
-0.4824600214062471	-1.9284928692752954e-24
-0.4823989862499971	-2.521288042826392e-24
-0.4823379510937471	-3.113618010828303e-24
-0.4822769159374971	-3.705569760346299e-24
-0.4822158807812471	-4.29588591564179e-24
-0.4821548456249971	-4.8844692414237185e-24
-0.4820938104687471	-5.4721211721906554e-24
-0.4820327753124971	-6.058144048769267e-24
-0.4819717401562471	-6.641510947177588e-24
-0.4819107049999971	-7.222822956296733e-24
-0.4818496698437471	-7.802401485647372e-24
-0.4817886346874971	-8.379048934169458e-24
-0.4817275995312471	-8.952420552925092e-24
-0.4816665643749971	-9.523372895720162e-24
-0.4816055292187471	-1.0091460614807914e-23
-0.4815444940624971	-1.0655517834154407e-23
-0.4814834589062471	-1.1215951922716652e-23
-0.4814224237499971	-1.1773320312165618e-23
-0.4813613885937471	-1.2326548310987743e-23
-0.4813003534374971	-1.2875006819996012e-23
-0.4812393182812471	-1.3419551007935378e-23
-0.4811782831249971	-1.3960048446859907e-23
-0.4811172479687471	-1.4495227012877667e-23
-0.4810562128124971	-1.5025240283398216e-23
-0.4809951776562471	-1.555089284385978e-23
-0.4809341424999971	-1.6071298363224033e-23
-0.4808731073437471	-1.6585512159127634e-23
-0.4808120721874971	-1.709433918345192e-23
-0.4807510370312471	-1.7598026277024916e-23
-0.4806900018749971	-1.8095247194582475e-23
-0.4806289667187471	-1.8585815182282948e-23
-0.4805679315624971	-1.9070748003629717e-23
-0.4805068964062471	-1.9549457557911392e-23
-0.4804458612499971	-2.0020678913721261e-23
-0.4803848260937471	-2.048506277578817e-23
-0.4803237909374971	-2.094330607333141e-23
-0.4802627557812471	-2.1394104121133996e-23
-0.4802017206249971	-2.183681759475751e-23
-0.4801406854687471	-2.227265868717298e-23
-0.4800796503124971	-2.270147667015965e-23
-0.4800186151562471	-2.3121681517121887e-23
-0.4799575799999971	-2.353364241882833e-23
-0.4798965448437471	-2.3938540549982952e-23
-0.4798355096874971	-2.4335216186759188e-23
-0.4797744745312471	-2.472249963988617e-23
-0.4797134393749971	-2.5101689906192216e-23
-0.4796524042187471	-2.5473218764859223e-23
-0.4795913690624971	-2.5835237396971553e-23
-0.4795303339062471	-2.6187645937542448e-23
-0.4794692987499971	-2.6532126844540583e-23
-0.4794082635937471	-2.686786988201153e-23
-0.4793472284374971	-2.719309355237434e-23
-0.4792861932812471	-2.750901756414784e-23
-0.4792251581249971	-2.781680230270224e-23
-0.4791641229687471	-2.811445145627387e-23
-0.4791030878124971	-2.8401193894039546e-23
-0.4790420526562471	-2.8679177893735075e-23
-0.4789810174999971	-2.8948188775268124e-23
-0.4789199823437471	-2.9205779252773594e-23
-0.4788589471874971	-2.945284386458885e-23
-0.4787979120312471	-2.9691431945613474e-23
-0.4787368768749971	-2.991962060266869e-23
-0.4786758417187471	-3.0135728013364034e-23
-0.4786148065624971	-3.0342215013401044e-23
-0.4785537714062471	-3.0539770567785257e-23
-0.4784927362499971	-3.072534606606891e-23
-0.4784317010937471	-3.089916097089263e-23
-0.4783706659374971	-3.106420308437505e-23
-0.4783096307812471	-3.1218979686534943e-23
-0.4782485956249971	-3.1360726644725365e-23
-0.4781875604687471	-3.1491906187706995e-23
-0.4781265253124971	-3.161440763809118e-23
-0.4780654901562471	-3.1724812987658054e-23
-0.4780044549999971	-3.1822274250386926e-23
-0.4779434198437471	-3.191060729438549e-23
-0.4778823846874971	-3.1989210982765564e-23
-0.4778213495312471	-3.205420424726324e-23
-0.4777603143749971	-3.210756704724939e-23
-0.4776992792187471	-3.215258951174687e-23
-0.4776382440624971	-3.21859374870841e-23
-0.4775772089062471	-3.220532875953169e-23
-0.4775161737499971	-3.221504843005554e-23
-0.4774551385937471	-3.22159048841408e-23
-0.4773941034374971	-3.2203110939677787e-23
-0.4773330682812471	-3.217753825609974e-23
-0.4772720331249971	-3.214385889024333e-23
-0.4772109979687471	-3.209950500373403e-23
-0.4771499628124971	-3.204057151499054e-23
-0.4770889276562471	-3.1971140137510385e-23
-0.4770278924999971	-3.189382450242669e-23
-0.4769668573437471	-3.180352321136496e-23
-0.4769058221874971	-3.16994177334253e-23
-0.4768447870312471	-3.158712466790817e-23
-0.4767837518749971	-3.146556880608841e-23
-0.4767227167187471	-3.132944160979915e-23
-0.4766616815624971	-3.1181806146218465e-23
-0.4766006464062471	-3.102711869847614e-23
-0.4765396112499971	-3.0860808581268235e-23
-0.4764785760937471	-3.0680060006293605e-23
-0.4764175409374971	-3.049062217789064e-23
-0.4763565057812471	-3.0293476963625714e-23
-0.4762954706249971	-3.008261302704657e-23
-0.4762344354687471	-2.9859286851774594e-23
-0.4761734003124971	-2.9629286926514264e-23
-0.4761123651562471	-2.938951599262613e-23
-0.4760513299999971	-2.913541399912934e-23
-0.4759902948437471	-2.887185045149559e-23
-0.4759292596874971	-2.860190063041719e-23
-0.4758682245312471	-2.831984242848244e-23
-0.4758071893749971	-2.802479489786611e-23
-0.4757461542187471	-2.7722975221611595e-23
-0.4756851190624971	-2.7413347400672264e-23
-0.4756240839062471	-2.709034679701426e-23
-0.4755630487499971	-2.6757164288232574e-23
-0.4755020135937471	-2.641845210283237e-23
-0.4754409784374971	-2.606971960400611e-23
-0.4753799432812471	-2.5708196373441335e-23
-0.4753189081249971	-2.5339522452910167e-23
-0.4752578729687471	-2.496475751129387e-23
-0.4751968378124971	-2.4578305298743783e-23
-0.4751358026562471	-2.418135834887944e-23
-0.4750747674999971	-2.3779273906210688e-23
-0.4750137323437471	-2.336934624162056e-23
-0.4749526971874971	-2.2947607064716927e-23
-0.4748916620312471	-2.25183971279291e-23
-0.4748306268749971	-2.2084409990014144e-23
-0.4747695917187471	-2.16408167090715e-23
-0.4747085565624971	-2.1187015472578022e-23
-0.4746475214062471	-2.0728268131358942e-23
-0.4745864862499971	-2.026369501638809e-23
-0.4745254510937471	-1.978886070536559e-23
-0.4744644159374971	-1.930652695971738e-23
-0.4744033807812471	-1.8820402082789403e-23
-0.4743423456249971	-1.8326900367281737e-23
-0.4742813104687471	-1.7824071442524924e-23
-0.4742202753124971	-1.731646143963144e-23
-0.4741592401562471	-1.6804762022526775e-23
-0.4740982049999971	-1.6284729144598917e-23
-0.4740371698437471	-1.575759866020613e-23
-0.4739761346874971	-1.52274791447712e-23
-0.4739150995312471	-1.4692152232220355e-23
-0.4738540643749971	-1.4148820221651154e-23
-0.4737930292187471	-1.3601030299440028e-23
-0.4737319940624971	-1.3050691938077107e-23
-0.4736709589062471	-1.2494150002621068e-23
-0.4736099237499971	-1.1931273851158214e-23
-0.4735488885937471	-1.1366086562680018e-23
-0.4734878534374971	-1.079776109667632e-23
-0.4734268182812471	-1.0223154454846766e-23
-0.4733657831249971	-9.644617186854279e-24
-0.4733047479687471	-9.064815449239892e-24
-0.4732437128124971	-8.481009265533055e-24
-0.4731826776562471	-7.892047584375347e-24
-0.4731216424999971	-7.301442702213552e-24
-0.4730606073437471	-6.709555327928162e-24
-0.4729995721874971	-6.113353555029418e-24
-0.4729385370312471	-5.514036182504943e-24
-0.4728775018749971	-4.9145926116071384e-24
-0.4728164667187471	-4.313274958503499e-24
-0.4727554315624971	-3.70826038343324e-24
-0.4726943964062471	-3.1023701601053314e-24
-0.4726333612499971	-2.4968973863449356e-24
-0.4725723260937471	-1.8891635514161807e-24
-0.4725112909374971	-1.2793332125578365e-24
-0.4724502557812471	-6.704064623492962e-25
-0.4723892206249971	-6.165802961399571e-26
-0.4723281854687471	5.49053199022896e-25
-0.4722671503124971	1.159775531273553e-24
-0.4722061151562471	1.7686327098334273e-24
-0.4721450799999971	2.377675838336596e-24
-0.4720840448437471	2.987508090796434e-24
-0.4720230096874971	3.5954489072541194e-24
-0.4719619745312471	4.2013628875861946e-24
-0.4719009393749971	4.80739202288903e-24
-0.4718399042187471	5.412427534553649e-24
