Time	Frequency
-0.5000305162499998	0.497608576812825
-0.49996948109374983	0.496108010156957
-0.49990844593749983	0.49446966233798584
-0.49984741078124983	0.49269410408450875
-0.49978637562499983	0.4907818694034725
-0.49972534046874983	0.48873328481848627
-0.49966430531249983	0.4865487190469087
-0.49960327015624983	0.48422880179906763
-0.49954223499999983	0.48177428846826353
-0.49948119984374983	0.47918582066638826
-0.49942016468749983	0.47646404547454235
-0.49935912953124983	0.4736096939158679
-0.49929809437499983	0.47062348892238154
-0.49923705921874983	0.4675061589022527
-0.49917602406249983	0.46425853204995754
-0.49911498890624983	0.46088158747706504
-0.49905395374999983	0.45737623668210325
-0.49899291859374983	0.4537433333420355
-0.49893188343749983	0.4499839001980412
-0.49887084828124983	0.4460990106794933
-0.49880981312499983	0.4420896213716703
-0.49874877796874983	0.4379567346882273
-0.49868774281249983	0.4337014679692719
-0.49862670765624983	0.42932486573613365
-0.49856567249999983	0.4248281916464242
-0.49850463734374983	0.4202130465237099
-0.49844360218749983	0.41548071518851637
-0.49838256703124983	0.4106320804798897
-0.49832153187499983	0.40566827393486216
-0.49826049671874983	0.4005908962923442
-0.49819946156249983	0.39540154481971374
-0.49813842640624983	0.390101411805336
-0.49807739124999983	0.3846915799439909
-0.49801635609374983	0.3791735916535446
-0.49795532093749983	0.3735494683035787
-0.49789428578124983	0.3678210615846843
-0.49783325062499983	0.36198969653858765
-0.49777221546874983	0.3560564767718297
-0.49771118031249983	0.35002277769857965
-0.49765014515624983	0.34389053517853346
-0.49758910999999983	0.3376617059672622
-0.49752807484374983	0.3313379940614556
-0.49746703968749983	0.3249212217634822
-0.49740600453124983	0.31841297207433295
-0.49734496937499983	0.31181475743906456
-0.49728393421874983	0.30512871942547476
-0.49722289906249983	0.29835686322517513
-0.49716186390624983	0.291500629792782
-0.49710082874999983	0.2845617374603742
-0.49703979359374983	0.2775423301767211
-0.49697875843749983	0.2704447759887865
-0.49691772328124983	0.2632711806902298
-0.49685668812499983	0.2560229877184047
-0.49679565296874983	0.2487019354138748
-0.49673461781249983	0.24131044808291857
-0.49667358265624983	0.23385058802630196
-0.49661254749999983	0.22632390896716587
-0.49655151234374983	0.21873249720128493
-0.49649047718749983	0.21107909396991067
-0.49642944203124983	0.20336611060734797
-0.49636840687499983	0.19559534921990845
-0.49630737171874983	0.18776874522932288
-0.49624633656249983	0.17988847559887264
-0.49618530140624983	0.17195644788977943
-0.49612426624999983	0.16397455814959397
-0.49606323109374983	0.15594540830940562
-0.49600219593749983	0.14787205634547373
-0.49594116078124983	0.13975666305713086
-0.49588012562499983	0.1316006077983904
-0.49581909046874983	0.12340603626850434
-0.49575805531249983	0.11517572162621428
-0.49569702015624983	0.10691219034005532
-0.49563598499999983	0.09861763833514191
-0.49557494984374983	0.0902939868945803
-0.49551391468749983	0.08194333536856421
-0.49545287953124983	0.07356836844236819
-0.49539184437499983	0.06517187598011026
-0.49533080921874983	0.05675590891287722
-0.49526977406249983	0.04832232884588633
-0.49520873890624983	0.039873844698752346
-0.49514770374999983	0.03141302231697977
-0.49508666859374983	0.022941836258036353
-0.49502563343749983	0.014462866446946231
-0.49496459828124983	0.005978822066839387
-0.49490356312499983	-0.0025082910283328315
-0.49484252796874983	-0.010996385578339653
-0.49478149281249983	-0.01948295149389133
-0.49472045765624983	-0.027965446469131575
-0.49465942249999983	-0.03644148750459838
-0.49459838734374983	-0.044908819063055196
-0.49453735218749983	-0.053365119044085786
-0.49447631703124983	-0.061807801551407526
-0.49441528187499983	-0.070234187770221
-0.49435424671874983	-0.07864213349140972
-0.49429321156249983	-0.08702982543794839
-0.49423217640624983	-0.09539486470865043
-0.49417114124999983	-0.1037344219957318
-0.49411010609374983	-0.112046088959837
-0.49404907093749983	-0.12032781926191968
-0.49398803578124983	-0.12857738565165705
-0.49392700062499983	-0.1367924579349026
-0.49386596546874983	-0.1449707165479821
-0.49380493031249983	-0.15310955530308243
-0.49374389515624983	-0.16120639400219577
-0.49368285999999983	-0.16925934648753366
-0.49362182484374983	-0.17726660136978845
-0.49356078968749983	-0.18522574120998747
-0.49349975453124983	-0.19313416754513685
-0.49343871937499983	-0.2009895258023322
-0.49337768421874983	-0.2087898709474452
-0.49331664906249983	-0.21653321812882043
-0.49325561390624983	-0.2242171994447999
-0.49319457874999983	-0.23183947846190078
-0.49313354359374983	-0.23939787635870421
-0.49307250843749983	-0.24689042726215163
-0.49301147328124983	-0.2543151371949102
-0.49295043812499983	-0.2616695469344725
-0.49288940296874983	-0.2689514826143817
-0.49282836781249983	-0.2761595146256537
-0.49276733265624983	-0.2832917722971584
-0.49270629749999983	-0.29034548744700733
-0.49264526234374983	-0.29731837558465324
-0.49258422718749983	-0.3042089877151381
-0.49252319203124983	-0.31101548401633167
-0.49246215687499983	-0.3177357883642938
-0.49240112171874983	-0.32436815056056206
-0.49234008656249983	-0.3309105012955644
-0.49227905140624983	-0.33736084283534407
-0.49221801624999983	-0.34371772975481624
-0.49215698109374983	-0.3499792725634865
-0.49209594593749983	-0.35614327637091314
-0.49203491078124983	-0.3622080878070486
-0.49197387562499983	-0.3681721547841987
-0.49191284046874983	-0.3740336960406994
-0.49185180531249983	-0.37979113135553355
-0.49179077015624983	-0.3854430882019732
-0.49172973499999983	-0.39098771442684277
-0.49166869984374983	-0.3964228452244579
-0.49160766468749983	-0.4017471138221346
-0.49154662953124983	-0.4069596502928344
-0.49148559437499983	-0.4120590112964433
-0.49142455921874983	-0.41704340705435616
-0.49136352406249983	-0.4219111193919449
-0.49130248890624983	-0.4266605673639292
-0.49124145374999983	-0.43129055862442867
-0.49118041859374983	-0.4358000577325396
-0.49111938343749983	-0.4401878336087145
-0.49105834828124983	-0.4444525428500144
-0.49099731312499983	-0.4485928794887654
-0.49093627796874983	-0.4526076392408126
-0.49087524281249983	-0.45649562357640794
-0.49081420765624983	-0.46025561428183914
-0.49075317249999983	-0.4638864771200145
-0.49069213734374983	-0.46738719466960654
-0.49063110218749983	-0.47075687369726354
-0.49057006703124983	-0.47399463073051706
-0.49050903187499983	-0.47709944512985897
-0.49044799671874983	-0.4800702763076691
-0.49038696156249983	-0.48290619291224934
-0.49032592640624983	-0.4856063835103894
-0.49026489124999983	-0.4881701670383282
-0.49020385609374983	-0.49059683180740316
-0.49014282093749983	-0.49288556321205423
-0.49008178578124983	-0.49503565625487195
-0.49002075062499983	-0.4970465482284453
-0.48995971546874983	-0.49891758749707377
-0.48989868031249983	-0.5006480752636483
-0.48983764515624983	-0.5022375279658411
-0.48977660999999983	-0.5036855611235733
-0.48971557484374983	-0.5049916833268886
-0.48965453968749983	-0.5061554739803534
-0.48959350453124983	-0.5071766332571743
-0.48953246937499983	-0.5080547950867006
-0.48947143421874983	-0.5087896300900215
-0.48941039906249983	-0.509380940843034
-0.48934936390624983	-0.5098284818619122
-0.48928832874999983	-0.5101320064765112
-0.48922729359374983	-0.5102914486994136
-0.48916625843749983	-0.5103067866579565
-0.48910522328124983	-0.5101779312622381
-0.48904418812499983	-0.5099048605862002
-0.48898315296874983	-0.5094876232547425
-0.48892211781249983	-0.5089262488354308
-0.48886108265624983	-0.5082208206446549
-0.48880004749999983	-0.5073716052906452
-0.48873901234374983	-0.506378924182565
-0.48867797718749983	-0.5052428987934544
-0.48861694203124983	-0.503963634796964
-0.48855590687499983	-0.5025414784893902
-0.48849487171874983	-0.5009768573763469
-0.48843383656249983	-0.4992702077575095
-0.48837280140624983	-0.49742202720566525
-0.48831176624999983	-0.49543280960178726
-0.48825073109374983	-0.4933030103987664
-0.48818969593749983	-0.49103309621335234
-0.48812866078124983	-0.4886236668529153
-0.48806762562499983	-0.4860754268768075
-0.48800659046874983	-0.4833890957354319
-0.48794555531249983	-0.4805654113898939
-0.48788452015624983	-0.47760506508317974
-0.48782348499999983	-0.4745088444808815
-0.48776244984374983	-0.4712777329076985
-0.48770141468749983	-0.4679124944511792
-0.48764037953124983	-0.46441369091010143
-0.48757934437499983	-0.4607824011059617
-0.48751830921874983	-0.4570201049913427
-0.48745727406249983	-0.45312783499605
-0.48739623890624983	-0.44910628677812897
-0.48733520374999983	-0.4449565098362962
-0.48727416859374983	-0.4406797940914484
-0.48721313343749983	-0.4362771297165651
-0.48715209828124983	-0.431749534742416
-0.48709106312499983	-0.4270986512724575
-0.48703002796874983	-0.42232606342934487
-0.48696899281249983	-0.4174327080369479
-0.48690795765624983	-0.4124197303493558
-0.48684692249999983	-0.4072889092561504
-0.48678588734374983	-0.4020417325871704
-0.48672485218749983	-0.3966790207931495
-0.48666381703124983	-0.39120207241035126
-0.48660278187499983	-0.38561308217182083
-0.48654174671874983	-0.3799138559598014
-0.48648071156249983	-0.37410560407828436
-0.48641967640624983	-0.3681899191516102
-0.48635864124999983	-0.3621685306474322
-0.48629760609374983	-0.35604295068176356
-0.48623657093749983	-0.34981485130434425
-0.48617553578124983	-0.3434859641735955
-0.48611450062499983	-0.33705803835350695
-0.48605346546874983	-0.3305329891094839
-0.48599243031249983	-0.3239127103263521
-0.48593139515624983	-0.31719905697387035
-0.48587035999999983	-0.3103938763653212
-0.48580932484374983	-0.30349894908132563
-0.48574828968749983	-0.29651614383694763
-0.48568725453124983	-0.2894475537288105
-0.48562621937499983	-0.2822952319552877
-0.48556518421874983	-0.275060925746363
-0.48550414906249983	-0.26774665096841066
-0.48544311390624983	-0.2603547882920331
-0.48538207874999983	-0.25288725326493666
-0.48532104359374983	-0.24534586718058227
-0.48526000843749983	-0.2377330700039717
-0.48519897328124983	-0.23005127528819314
-0.48513793812499983	-0.22230230677840807
-0.48507690296874983	-0.21448804018101178
-0.48501586781249983	-0.20661084880221958
-0.48495483265624983	-0.1986730601260117
-0.48489379749999983	-0.19067679217202446
-0.48483276234374983	-0.18262451619091405
-0.48477172718749983	-0.17451885368138162
-0.48471069203124983	-0.16636168443845176
-0.48464965687499983	-0.15815468137496105
-0.48458862171874983	-0.14990057196361786
-0.48452758656249983	-0.14160216455819116
-0.48446655140624983	-0.13326123165832596
-0.48440551624999983	-0.12488008577565225
-0.48434448109374983	-0.11646197955329408
-0.48428344593749983	-0.10800914679806865
-0.48422241078124983	-0.0995230598571562
-0.48416137562499983	-0.09100624058415877
-0.48410034046874983	-0.08246165948482179
-0.48403930531249983	-0.07389151964977239
-0.48397827015624983	-0.06529796449159715
-0.48391723499999983	-0.05668362375461068
-0.48385619984374983	-0.04805118714166413
-0.48379516468749983	-0.03940324280802453
-0.48373412953124983	-0.03074209998650787
-0.48367309437499983	-0.022069696953722993
-0.48361205921874983	-0.013388430023793947
-0.48355102406249983	-0.0047014227190593375
-0.48348998890624983	0.003988712900728783
-0.48342895374999983	0.01267999213117899
-0.48336791859374983	0.021369997977918633
-0.48330688343749983	0.030056067882439648
-0.48324584828124983	0.038735817822759956
-0.48318481312499983	0.04740695154829891
-0.48312377796874983	0.056066868879158134
-0.48306274281249983	0.06471263493453802
-0.48300170765624983	0.07334187541872497
-0.48294067249999983	0.081952888613287
-0.48287963734374983	0.09054320430947824
-0.48281860218749983	0.0991095573737807
-0.48275756703124983	0.10764933200608154
-0.48269653187499983	0.11616066564282462
-0.48263549671874983	0.12464152245861339
-0.48257446156249983	0.13308914198882862
-0.48251342640624983	0.14150054861159955
-0.48245239124999983	0.14987364220414048
-0.48239135609374983	0.1582067068013088
-0.48233032093749983	0.16649732544310727
-0.48226928578124983	0.17474275870647746
-0.48220825062499983	0.1829401373969226
-0.48214721546874983	0.19108665965217944
-0.48208618031249983	0.1991806211727264
-0.48202514515624983	0.20722054422141498
-0.48196410999999983	0.21520376631999694
-0.48190307484374983	0.22312744469669823
-0.48184203968749983	0.23098950350725048
-0.48178100453124983	0.23878804708319057
-0.48171996937499983	0.24652059323302164
-0.48165893421874983	0.2541845062336926
-0.48159789906249983	0.2617779067547922
-0.48153686390624983	0.2692989969374292
-0.48147582874999983	0.2767454039996762
-0.48141479359374983	0.28411465658959434
-0.48135375843749983	0.2914045167362524
-0.48129272328124983	0.2986130448389599
-0.48123168812499983	0.305738171577702
-0.48117065296874983	0.31277777594082223
-0.48110961781249983	0.3197302295030652
-0.48104858265624983	0.32659380933921267
-0.48098754749999983	0.3333662932755819
-0.48092651234374983	0.340045342169581
-0.48086547718749983	0.34662873442269265
-0.48080444203124983	0.35311463436498924
-0.48074340687499983	0.3595014735888289
-0.48068237171874983	0.36578739487624656
-0.48062133656249983	0.37197053596276075
-0.48056030140624983	0.37804940333386283
-0.48049926624999983	0.38402214862928585
-0.48043823109374983	0.3898865976730839
-0.48037719593749983	0.3956411562087654
-0.48031616078124983	0.4012845231717469
-0.48025512562499983	0.4068149466387516
-0.48019409046874983	0.41223051858912263
-0.48013305531249983	0.41752959598728967
-0.48007202015624983	0.4227106947289999
-0.48001098499999983	0.4277725317783422
-0.47994994984374983	0.43271383025096055
-0.47988891468749983	0.4375329839979755
-0.47982787953124983	0.4422283333272401
-0.47976684437499983	0.4467984206793975
-0.47970580921874983	0.4512419005129215
-0.47964477406249983	0.455557638680381
-0.47958373890624983	0.4597445944600137
-0.47952270374999983	0.4638014225715082
-0.47946166859374983	0.4677266928057206
-0.47940063343749983	0.47151925397954175
-0.47933959828124983	0.4751780968736148
-0.47927856312499983	0.4787021726721341
-0.47921752796874983	0.48209044921872596
-0.47915649281249983	0.48534187081479746
-0.47909545765624983	0.48845529053454134
-0.47903442249999983	0.4914297641859376
-0.47897338734374983	0.49426456915829153
-0.47891235218749983	0.49695889460339787
-0.47885131703124983	0.4995118841253235
-0.47879028187499983	0.5019227421841123
-0.47872924671874983	0.5041907288391945
-0.47866821156249983	0.5063151903124538
-0.47860717640624983	0.5082954607124093
-0.47854614124999983	0.5101308145497161
-0.47848510609374983	0.5118206751130675
-0.47842407093749983	0.5133646320448016
-0.47836303578124983	0.5147621953396098
-0.47830200062499983	0.5160128344135115
-0.47824096546874983	0.517116165473002
-0.47817993031249983	0.5180718735227172
-0.47811889515624983	0.5188796327386452
-0.47805785999999983	0.5195391792961386
-0.47799682484374983	0.5200502648305754
-0.47793578968749983	0.5204126229123786
-0.47787475453124983	0.5206261124664964
-0.47781371937499983	0.5206906947159561
-0.47775268421874983	0.5206062814912401
-0.47769164906249983	0.5203728137440538
-0.47763061390624983	0.5199903489416762
-0.47756957874999983	0.5194589327275242
-0.47750854359374983	0.5187786161807785
-0.47744750843749983	0.517949619183982
-0.47738647328124983	0.5169721944616216
-0.47732543812499983	0.5158464584345226
-0.47726440296874983	0.5145726298177644
-0.47720336781249983	0.5131511433632959
-0.47714233265624983	0.5115823613085145
-0.47708129749999983	0.5098666396431963
-0.47702026234374983	0.5080045265950897
-0.47695922718749983	0.5059964652312546
-0.47689819203124983	0.5038427984278558
-0.47683715687499983	0.5015441532958398
-0.47677612171874983	0.4991012964664538
-0.47671508656249983	0.4965148560795916
-0.47665405140624983	0.4937854451518601
-0.47659301624999983	0.49091377194929436
-0.47653198109374983	0.48790070708905364
-0.47647094593749983	0.4847471744546544
-0.47640991078124983	0.4814538864740435
-0.47634887562499983	0.4780216549677131
-0.47628784046874983	0.4744515640729365
-0.47622680531249983	0.4707445650873174
-0.47616577015624983	0.4669016164403777
-0.47610473499999983	0.4629238963286126
-0.47604369984374983	0.45881238331140717
-0.47598266468749983	0.4545679663977618
-0.47592162953124983	0.4501920965865789
-0.47586059437499983	0.4456864361967964
-0.47579955921874983	0.4410520637823184
-0.47573852406249983	0.43628980803120837
-0.47567748890624983	0.4314008957445348
-0.47561645374999983	0.42638680980301535
-0.47555541859374983	0.42124912476445525
-0.47549438343749983	0.41598952355700586
-0.47543334828124983	0.41060950252646133
-0.47537231312499983	0.4051103818615725
-0.47531127796874983	0.3994935538300744
-0.47525024281249983	0.39376038196459745
-0.47518920765624983	0.387912353319835
-0.47512817249999983	0.381951490766414
-0.47506713734374983	0.3758800103565625
-0.47500610218749983	0.3696995076351871
-0.47494506703124983	0.36341115484404857
-0.47488403187499983	0.3570165379655413
-0.47482299671874983	0.3505176570048115
-0.47476196156249983	0.34391655533871135
-0.47470092640624983	0.3372152281010508
-0.47463989124999983	0.33041551251464124
-0.47457885609374983	0.32351916848985085
-0.47451782093749983	0.31652802531989765
-0.47445678578124983	0.309444141198744
-0.47439575062499983	0.30226981196162267
-0.47433471546874983	0.29500692543885493
-0.47427368031249983	0.28765717308131294
-0.47421264515624983	0.28022289930584926
-0.47415160999999983	0.2727065420520423
-0.47409057484374983	0.2651100964354021
-0.47402953968749983	0.25743553626122245
-0.47396850453124983	0.24968500254247186
-0.47390746937499983	0.24186069423809706
-0.47384643421874983	0.23396483181087482
-0.47378539906249983	0.22599982506342572
-0.47372436390624983	0.21796813532954248
-0.47366332874999983	0.20987196199458533
-0.47360229359374983	0.2017133769173359
-0.47354125843749983	0.19349441838493162
-0.47348022328124983	0.18521738993156744
-0.47341918812499983	0.17688525948366535
-0.47335815296874983	0.16850101643199436
-0.47329711781249983	0.16006667294343624
-0.47323608265624983	0.1515837501032682
-0.47317504749999983	0.1430545717970036
-0.47311401234374983	0.13448214343389467
-0.47305297718749983	0.125869297052507
-0.47299194203124983	0.11721827162421909
-0.47293090687499983	0.10853111468980098
-0.47286987171874983	0.09981064292968239
-0.47280883656249983	0.09105976456651392
-0.47274780140624983	0.08228058119002368
-0.47268676624999983	0.07347528733125146
-0.47262573109374983	0.06464665781230405
-0.47256469593749983	0.055797579099005894
-0.47250366078124983	0.04693048259645571
-0.47244262562499983	0.0380473763278753
-0.47238159046874983	0.029150916076984362
-0.47232055531249983	0.020244322304553808
-0.47225952015624983	0.011330112112587123
-0.47219848499999983	0.0024103815674132597
-0.47213744984374983	-0.00651229141086786
-0.47207641468749983	-0.015435200206617157
-0.47201537953124983	-0.024355826795690757
-0.47195434437499983	-0.03327151553541134
-0.47189330921874983	-0.042179659799123546
-0.47183227406249983	-0.05107777397170263
-0.47177123890624983	-0.05996322644237034
-0.47171020374999983	-0.06883355018793266
-0.47164916859374983	-0.07768624170062986
-0.47158813343749983	-0.08651833816082695
-0.47152709828124983	-0.09532719718897029
-0.47146606312499983	-0.1041107825999845
-0.47140502796874983	-0.11286669759549606
-0.47134399281249983	-0.12159204407921045
-0.47128295765624983	-0.13028416618204586
-0.47122192249999983	-0.13894085126298308
-0.47116088734374983	-0.14755975937228058
-0.47109985218749983	-0.1561381195740896
-0.47103881703124983	-0.1646732676721619
-0.47097778187499983	-0.17316265321714938
-0.47091674671874983	-0.1816036222982946
-0.47085571156249983	-0.189993917640607
-0.47079467640624983	-0.1983316442745137
-0.47073364124999983	-0.20661461010715787
-0.47067260609374983	-0.2148399390392369
-0.47061157093749983	-0.22300473176327432
-0.47055053578124983	-0.23110698486410916
-0.47048950062499983	-0.23914462478235954
-0.47042846546874983	-0.24711475489664392
-0.47036743031249983	-0.25501496566172455
