Time	Frequency
-0.5000401970624999	3.6100134061185204e-23
-0.4999791619062499	3.6015601562598125e-23
-0.4999181267499999	3.592469070346362e-23
-0.4998570915937499	3.5824484883980294e-23
-0.4997960564374999	3.5709677569852404e-23
-0.4997350212812499	3.558201782367813e-23
-0.4996739861249999	3.5447276772744666e-23
-0.4996129509687499	3.5305085029281827e-23
-0.4995519158124999	3.514963362305877e-23
-0.4994908806562499	3.4980026601783885e-23
-0.4994298454999999	3.480196284486928e-23
-0.4993688103437499	3.461773399512249e-23
-0.4993077751874999	3.442222789857314e-23
-0.4992467400312499	3.4212053293334537e-23
-0.4991857048749999	3.3991667004136096e-23
-0.4991246697187499	3.376561331442614e-23
-0.4990636345624999	3.3530562501519445e-23
-0.4990025994062499	3.3281282246287247e-23
-0.4989415642499999	3.30200380732368e-23
-0.4988805290937499	3.2752750729368186e-23
-0.4988194939374999	3.2478628516722344e-23
-0.4987584587812499	3.2191643817600595e-23
-0.4986974236249999	3.189134186573196e-23
-0.4986363884687499	3.1583860599026586e-23
-0.4985753533124999	3.1271238535587864e-23
-0.4985143181562499	3.094788370024939e-23
-0.4984532829999999	3.0610578896576676e-23
-0.4983922478437499	3.0264410004504996e-23
-0.4983312126874999	2.991400822345673e-23
-0.4982701775312499	2.955547258668059e-23
-0.4982091423749999	2.9183360930780834e-23
-0.4981481072187499	2.8800541698762584e-23
-0.4980870720624999	2.841341381972893e-23
-0.4980260369062499	2.8020761463150744e-23
-0.4979650017499999	2.7615977414545813e-23
-0.4979039665937499	2.7198932376887455e-23
-0.4978429314374999	2.677653778680209e-23
-0.4977818962812499	2.6350789922957236e-23
-0.4977208611249999	2.591532868172679e-23
-0.4976598259687499	2.5466808344900266e-23
-0.4975987908124999	2.5011157879508222e-23
-0.4975377556562499	2.4553471793171076e-23
-0.4974767204999999	2.4089143529523467e-23
-0.4974156853437499	2.3612056920878482e-23
-0.4973546501874999	2.312567313907957e-23
-0.4972936150312499	2.2637346548283468e-23
-0.4972325798749999	2.2145583484267714e-23
-0.4971715447187499	2.1642745935053407e-23
-0.4971105095624999	2.1128754871247768e-23
-0.4970494744062499	2.0611690352900445e-23
-0.4969884392499999	2.0093884745412017e-23
-0.4969274040937499	1.9567862507798496e-23
-0.4968663689374999	1.9029639391355893e-23
-0.4968053337812499	1.8486206460645996e-23
-0.4967442986249999	1.7943679247632046e-23
-0.4966832634687499	1.739664813374351e-23
-0.4966222283124999	1.6837760012725855e-23
-0.4965611931562499	1.6271055889340756e-23
-0.4965001579999999	1.5705402401484707e-23
-0.4964391228437499	1.5139126527679548e-23
-0.4963780876874999	1.456295934123453e-23
-0.4963170525312499	1.397660927056245e-23
-0.4962560173749999	1.3389876431654974e-23
-0.4961949822187499	1.2805838461781811e-23
-0.4961339470624999	1.221546305430448e-23
-0.4960729119062499	1.1613591404781742e-23
-0.4960118767499999	1.1008535149046758e-23
-0.4959508415937499	1.0408011255029243e-23
-0.4958898064374999	9.805711091014256e-24
-0.4958287712812499	9.19244027547591e-24
-0.4957677361249999	8.572730879141038e-24
-0.4957067009687499	7.957481936954747e-24
-0.4956456658124999	7.345042109632482e-24
-0.4955846306562499	6.72412152878584e-24
-0.4955235954999999	6.093946384211276e-24
-0.4954625603437499	5.46623520670331e-24
-0.4954015251874999	4.8450216579206016e-24
-0.4953404900312499	4.219636382469586e-24
-0.4952794548749999	3.583619988150188e-24
-0.4952184197187499	2.9466043014663784e-24
-0.4951573845624999	2.3179233278710896e-24
-0.4950963494062499	1.6903827035905074e-24
-0.4950353142499999	1.0529866793266794e-24
-0.4949742790937499	4.1068775308650482e-25
-0.4949132439374999	-2.237368767843181e-25
-0.4948522087812499	-8.518475755782392e-25
-0.4947911736249999	-1.4866948527965635e-24
-0.4947301384687499	-2.1295597196875882e-24
-0.4946691033124999	-2.7671857008504714e-24
-0.4946080681562499	-3.39470682961194e-24
-0.4945470329999999	-4.024015286821528e-24
-0.4944859978437499	-4.6626007353833144e-24
-0.4944249626874999	-5.299953982391869e-24
-0.4943639275312499	-5.9256276192095335e-24
-0.4943028923749999	-6.547331343453896e-24
-0.4942418572187499	-7.177106573853213e-24
-0.4941808220624999	-7.809793239041342e-24
-0.4941197869062499	-8.431756029164903e-24
-0.4940587517499999	-9.044566386918971e-24
-0.4939977165937499	-9.66191003415352e-24
-0.4939366814374999	-1.0285156197181367e-23
-0.4938756462812499	-1.0900647664971084e-23
-0.4938146111249999	-1.1503451651534518e-23
-0.4937535759687499	-1.210567495297383e-23
-0.4936925408124999	-1.2714761629930472e-23
-0.4936315056562499	-1.3320116935614865e-23
-0.4935704704999999	-1.3911555335193719e-23
-0.4935094353437499	-1.4496899382125975e-23
-0.4934484001874999	-1.5087760641729075e-23
-0.4933873650312499	-1.567876601143574e-23
-0.4933263298749999	-1.6256844995057955e-23
-0.4932652947187499	-1.6823991669680462e-23
-0.4932042595624999	-1.739331415907378e-23
-0.4931432244062499	-1.796555728748248e-23
-0.4930821892499999	-1.8527626256325814e-23
-0.4930211540937499	-1.9075485786588822e-23
-0.4929601189374999	-1.9620840901030813e-23
-0.4928990837812499	-2.017004346439468e-23
-0.4928380486249999	-2.0712715089143708e-23
-0.4927770134687499	-2.1239969766354225e-23
-0.4927159783124999	-2.1759741341724235e-23
-0.4926549431562499	-2.2282278422015182e-23
-0.4925939079999999	-2.2801786071018488e-23
-0.4925328728437499	-2.33065959904059e-23
-0.4924718376874999	-2.3799533708950587e-23
-0.4924108025312499	-2.4292466647631385e-23
-0.4923497673749999	-2.4785005497509143e-23
-0.4922887322187499	-2.5265096979465331e-23
-0.4922276970624999	-2.5730160192293664e-23
-0.4921666619062499	-2.6191253840809088e-23
-0.4921056267499999	-2.665316122147102e-23
-0.4920445915937499	-2.7105793694103396e-23
-0.4919835564374999	-2.7541912948027495e-23
-0.4919225212812499	-2.7969614902336866e-23
-0.4918614861249999	-2.8397642628958565e-23
-0.4918004509687499	-2.881974036611358e-23
-0.4917394158124999	-2.9225623793350446e-23
-0.4916783806562499	-2.961891998039836e-23
-0.4916173454999999	-3.001040513834226e-23
-0.4915563103437499	-3.0398736748349675e-23
-0.4914952751874999	-3.077274022579859e-23
-0.4914342400312499	-3.1130986579463324e-23
-0.4913732048749999	-3.148400683180791e-23
-0.4913121697187499	-3.1835425554225176e-23
-0.4912511345624999	-3.2175455719956794e-23
-0.4911900994062499	-3.249807761825751e-23
-0.4911290642499999	-3.281141237731592e-23
-0.4910680290937499	-3.312311840578791e-23
-0.4910069939374999	-3.34267683697305e-23
-0.4909459587812499	-3.3713132148412944e-23
-0.4908849236249999	-3.3986252072324645e-23
-0.4908238884687499	-3.4256031965738955e-23
-0.4907628533124999	-3.4520639072711584e-23
-0.4907018181562499	-3.4769715282296797e-23
-0.4906407829999999	-3.5002498783097413e-23
-0.4905797478437499	-3.52289049850536e-23
-0.4905187126874999	-3.5451898818102366e-23
-0.4904576775312499	-3.566227649401829e-23
-0.4903966423749999	-3.585481638961686e-23
-0.4903356072187499	-3.6037234518775365e-23
-0.4902745720624999	-3.621639246268135e-23
-0.4902135369062499	-3.6386221342002286e-23
-0.4901525017499999	-3.653843571738007e-23
-0.4900914665937499	-3.667694377021625e-23
-0.4900304314374999	-3.681072932986411e-23
-0.4899693962812499	-3.6938008007118605e-23
-0.4899083611249999	-3.7049461900103097e-23
-0.4898473259687499	-3.714456422962209e-23
-0.4897862908124999	-3.7232269020699296e-23
-0.4897252556562499	-3.731515096871342e-23
-0.4896642204999999	-3.738498543610859e-23
-0.4896031853437499	-3.743726245143069e-23
-0.4895421501874999	-3.7478937751207433e-23
-0.4894811150312499	-3.751603403214155e-23
-0.4894200798749999	-3.7543129083761985e-23
-0.4893590447187499	-3.7553025601014307e-23
-0.4892980095624999	-3.754932187117162e-23
-0.4892369744062499	-3.753989739602937e-23
-0.4891759392499999	-3.752307269909063e-23
-0.4891149040937499	-3.749074219561777e-23
-0.4890538689374999	-3.74426577595654e-23
-0.4889928337812499	-3.7386702407351663e-23
-0.4889317986249999	-3.732497455603107e-23
-0.4888707634687499	-3.725027702363127e-23
-0.4888097283124999	-3.715891508549417e-23
-0.4887486931562499	-3.705710296711548e-23
-0.4886876579999999	-3.694993101832711e-23
-0.4886266228437499	-3.683254273194564e-23
-0.4885655876874999	-3.669888863006938e-23
-0.4885045525312499	-3.6552387972591216e-23
-0.4884435173749999	-3.6399816950465116e-23
-0.4883824822187499	-3.623945101799438e-23
-0.4883214470624999	-3.6064327092772207e-23
-0.4882604119062499	-3.587462162695213e-23
-0.4881993767499999	-3.5677292233646504e-23
-0.4881383415937499	-3.547384570693704e-23
-0.4880773064374999	-3.525788491687374e-23
-0.4880162712812499	-3.5026571853544044e-23
-0.4879552361249999	-3.4785663761743776e-23
-0.4878942009687499	-3.4539386029653435e-23
-0.4878331658124999	-3.428315973513148e-23
-0.4877721306562499	-3.401190079879923e-23
-0.4877110954999999	-3.372908237446493e-23
-0.4876500603437499	-3.34406410862902e-23
-0.4875890251874999	-3.3144649078754706e-23
-0.4875279900312499	-3.2834962104454365e-23
-0.4874669548749999	-3.251224092155017e-23
-0.4874059197187499	-3.2182860380682136e-23
-0.4873448845624999	-3.1847780095237854e-23
-0.4872838494062499	-3.150108030840567e-23
-0.4872228142499999	-3.114063021711895e-23
-0.4871617790937499	-3.0771989919559496e-23
-0.4871007439374999	-3.039873097998173e-23
-0.4870397087812499	-3.001634017076198e-23
-0.4869786736249999	-2.962043705290878e-23
-0.4869176384687499	-2.921470111052854e-23
-0.4868566033124999	-2.8804520838872593e-23
-0.4867955681562499	-2.838767759177235e-23
-0.4867345329999999	-2.79585170127571e-23
-0.4866734978437499	-2.7518170199185804e-23
-0.4866124626874999	-2.7072758146463545e-23
-0.4865514275312499	-2.6622794862059335e-23
-0.4864903923749999	-2.616253320319005e-23
-0.4864293572187499	-2.569036276639503e-23
-0.4863683220624999	-2.521186128534554e-23
-0.4863072869062499	-2.4730158018841394e-23
-0.4862462517499999	-2.4240670406910922e-23
-0.4861852165937499	-2.3739491562932638e-23
-0.4861241814374999	-2.3230565559993878e-23
-0.4860631462812499	-2.271895726941142e-23
-0.4860021111249999	-2.2202142611928145e-23
-0.4859410759687499	-2.1674739435040544e-23
-0.4858800408124999	-2.1138306028159243e-23
-0.4858190056562499	-2.0598860862953468e-23
-0.4857579704999999	-2.0056502274141516e-23
-0.4856969353437499	-1.950551377118228e-23
-0.4856359001874999	-1.8944788229107188e-23
-0.4855748650312499	-1.8380096124266923e-23
-0.4855138298749999	-1.781415394818945e-23
-0.4854527947187499	-1.724208592035431e-23
-0.4853917595624999	-1.666034833472561e-23
-0.4853307244062499	-1.607332415391807e-23
-0.4852696892499999	-1.5485882371039007e-23
-0.4852086540937499	-1.489505163215032e-23
-0.4851476189374999	-1.42955662155352e-23
-0.4850865837812499	-1.3689515521385368e-23
-0.4850255486249999	-1.3083000927823701e-23
-0.4849645134687499	-1.2475640843278314e-23
-0.4849034783124999	-1.1861516481437114e-23
-0.4848424431562499	-1.1239977875378958e-23
-0.4847814079999999	-1.0617175939249027e-23
-0.4847203728437499	-9.99550815476137e-24
-0.4846593376874999	-9.369640944165271e-24
-0.4845983025312499	-8.736244489919245e-24
-0.4845372673749999	-8.100275341506954e-24
-0.4844762322187499	-7.466605148893262e-24
-0.4844151970624999	-6.831691376251121e-24
-0.4843541619062499	-6.190100348126459e-24
-0.4842931267499999	-5.5444953828455636e-24
-0.4842320915937499	-4.901355957114096e-24
-0.4841710564374999	-4.2598254140322744e-24
-0.4841100212812499	-3.613460147883852e-24
-0.4840489861249999	-2.9619759333497833e-24
-0.4839879509687499	-2.312210610036411e-24
-0.4839269158124999	-1.6664080631431077e-24
-0.4838658806562499	-1.0184775459353912e-24
-0.4838048454999999	-3.650290852474686e-25
-0.4837438103437499	2.881764735118791e-25
-0.4836827751874999	9.359449210779294e-25
-0.4836217400312499	1.5825786667138367e-24
-0.4835607048749999	2.2340825635254937e-24
-0.4834996697187499	2.8871502276231618e-24
-0.4834386345624999	3.5344796648414584e-24
-0.4833775994062499	4.177332810169796e-24
-0.4833165642499999	4.8231542513959935e-24
-0.4832555290937499	5.472126476899862e-24
-0.4831944939374999	6.11631419830939e-24
-0.4831334587812499	6.75323338489705e-24
-0.4830724236249999	7.390077273318086e-24
-0.4830113884687499	8.030832918922525e-24
-0.4829503533124999	8.668738241811086e-24
-0.4828893181562499	9.297671165346705e-24
-0.4828282829999999	9.922745352731514e-24
-0.4827672478437499	1.055118882803421e-23
-0.4827062126874999	1.1179166687769733e-23
-0.4826451775312499	1.1797943786493758e-23
-0.4825841423749999	1.2408991367473772e-23
-0.4825231072187499	1.3021352628558867e-23
-0.4824620720624999	1.3635418931165937e-23
-0.4824010369062499	1.424162423263367e-23
-0.4823400017499999	1.4836849143639127e-23
-0.4822789665937499	1.5429865850335724e-23
-0.4822179314374999	1.602577150724022e-23
-0.4821568962812499	1.6616459843957057e-23
-0.4820958611249999	1.719429317505239e-23
-0.4820348259687499	1.7765391165251096e-23
-0.4819737908124999	1.833887921904955e-23
-0.4819127556562499	1.8910443722598496e-23
-0.4818517204999999	1.9469278091037962e-23
-0.4817906853437499	2.0016815308696263e-23
-0.4817296501874999	2.0564255071353825e-23
-0.4816686150312499	2.1112610494003427e-23
-0.4816075798749999	2.1650287672995004e-23
-0.4815465447187499	2.217305849784757e-23
-0.4814855095624999	2.2691514719651324e-23
-0.4814244744062499	2.3212356081912756e-23
-0.4813634392499999	2.3726083985201392e-23
-0.4813024040937499	2.4223174593463509e-23
-0.4812413689374999	2.4710727523314313e-23
-0.4811803337812499	2.5200011711009794e-23
-0.4811192986249999	2.5686293026144257e-23
-0.4810582634687499	2.6156576636667242e-23
-0.4809972283124999	2.661220344045537e-23
-0.4809361931562499	2.7066543734838146e-23
-0.4808751579999999	2.7521309002164543e-23
-0.4808141228437499	2.796303850350763e-23
-0.4807530876874999	2.838640611215814e-23
-0.4806920525312499	2.8803548443745517e-23
-0.4806310173749999	2.922263538450328e-23
-0.4805699822187499	2.9633133535933306e-23
-0.4805089470624999	3.002395245257327e-23
-0.4804479119062499	3.040281285595048e-23
-0.4803868767499999	3.078260242990587e-23
-0.4803258415937499	3.1158471279839906e-23
-0.4802648064374999	3.151603707612065e-23
-0.4802037712812499	3.1856477950441517e-23
-0.4801427361249999	3.219434505155488e-23
-0.4800817009687499	3.25317894411842e-23
-0.4800206658124999	3.28545531674545e-23
-0.4799596306562499	3.3156869234252173e-23
-0.4798985954999999	3.345143971909933e-23
-0.4798375603437499	3.3746897464023946e-23
-0.4797765251874999	3.4032470938788255e-23
-0.4797154900312499	3.4296836621433195e-23
-0.4796544548749999	3.4547866861458547e-23
-0.4795934197187499	3.479853123669191e-23
-0.4795323845624999	3.504393284813357e-23
-0.4794713494062499	3.526991699370315e-23
-0.4794103142499999	3.547789269239368e-23
-0.4793492790937499	3.5682087819714304e-23
-0.4792882439374999	3.5884296685478445e-23
-0.4792272087812499	3.607074299296097e-23
-0.4791661736249999	3.6236358034986627e-23
-0.4791051384687499	3.639348113190274e-23
-0.4790441033124999	3.654985807208818e-23
-0.4789830681562499	3.669500337952233e-23
-0.4789220329999999	3.681879903550039e-23
-0.4788609978437499	3.692918832294497e-23
-0.4787999626874999	3.703786600161629e-23
-0.4787389275312499	3.713959525574887e-23
-0.4786778923749999	3.722162262557642e-23
-0.4786168572187499	3.728617219013267e-23
-0.4785558220624999	3.73462436056249e-23
-0.4784947869062499	3.7402523950424416e-23
-0.4784337517499999	3.7442338088657497e-23
-0.4783727165937499	3.7462139894871503e-23
-0.4783116814374999	3.747358726463577e-23
-0.4782506462812499	3.748275867854027e-23
-0.4781896111249999	3.7479519236282726e-23
-0.4781285759687499	3.745561046391806e-23
-0.4780675408124999	3.7419173421032484e-23
-0.4780065056562499	3.738017445268207e-23
-0.4779454704999999	3.7332825253497136e-23
-0.4778844353437499	3.7266013754572814e-23
-0.4778234001874999	3.7182986292045165e-23
-0.4777623650312499	3.7095474217755695e-23
-0.4777013298749999	3.7002946066213204e-23
-0.4776402947187499	3.689373346555023e-23
-0.4775792595624999	3.676577119002399e-23
-0.4775182244062499	3.663017877378841e-23
-0.4774571892499999	3.6491587205784257e-23
-0.4773961540937499	3.63401230232999e-23
-0.4773351189374999	3.6169024142228235e-23
-0.4772740837812499	3.598659169060322e-23
-0.4772130486249999	3.580150197034539e-23
-0.4771520134687499	3.560761831381994e-23
-0.4770909783124999	3.539503933401684e-23
-0.4770299431562499	3.5167654379470996e-23
-0.4769689079999999	3.493626019191491e-23
-0.4769078728437499	3.469963017777808e-23
-0.4768468376874999	3.444693334467503e-23
-0.4767858025312499	3.417698891378761e-23
-0.4767247673749999	3.39003558073667e-23
-0.4766637322187499	3.362080439325802e-23
-0.4766026970624999	3.332892392094763e-23
-0.4765416619062499	3.301891782121015e-23
-0.4764806267499999	3.269886002843539e-23
-0.4764195915937499	3.237654403087359e-23
-0.4763585564374999	3.204602456449887e-23
-0.4762975212812499	3.1698379723391393e-23
-0.4762364861249999	3.13375208187351e-23
-0.4761754509687499	3.097333970430181e-23
-0.4761144158124999	3.0604523102958916e-23
-0.4760533806562499	3.022122102450236e-23
-0.4759923454999999	2.982257722805063e-23
-0.4759313103437499	2.9418264657471797e-23
-0.4758702751874999	2.901162516250725e-23
-0.4758092400312499	2.8594164514688264e-23
-0.4757482048749999	2.816080434728404e-23
-0.4756871697187499	2.7718894810788396e-23
-0.4756261345624999	2.7275385164381826e-23
-0.4755650994062499	2.682495159049834e-23
-0.4755040642499999	2.635976129018365e-23
-0.4754430290937499	2.5883405239042533e-23
-0.4753819939374999	2.5404632302926702e-23
-0.4753209587812499	2.4922246313691265e-23
-0.4752599236249999	2.4427662788917095e-23
-0.4751988884687499	2.3920280528017163e-23
-0.4751378533124999	2.3408616841591046e-23
-0.4750768181562499	2.2895531478950856e-23
-0.4750157829999999	2.237363588754781e-23
-0.4749547478437499	2.1838674982718755e-23
-0.4748937126874999	2.1297149485740754e-23
-0.4748326775312499	2.0755009468204916e-23
-0.4747716423749999	2.020757093997816e-23
-0.4747106072187499	1.96482243996802e-23
-0.4746495720624999	1.9080306306570274e-23
-0.4745885369062499	1.8511340379521755e-23
-0.4745275017499999	1.794010562683337e-23
-0.4744664665937499	1.7359268200463686e-23
-0.4744054314374999	1.6768634227324347e-23
-0.4743443962812499	1.617564301414547e-23
-0.4742833611249999	1.5582504553656395e-23
-0.4742223259687499	1.4982752967023197e-23
-0.4741612908124999	1.4373066636287568e-23
-0.4741002556562499	1.3759347964117192e-23
-0.4740392204999999	1.3146513476600128e-23
-0.4739781853437499	1.2530208780345505e-23
-0.4739171501874999	1.1904945579175598e-23
-0.4738561150312499	1.1274095348466285e-23
-0.4737950798749999	1.064416868258649e-23
-0.4737340447187499	1.001366593597247e-23
-0.4736730095624999	9.376163142833738e-24
-0.4736119744062499	8.732007051777023e-24
-0.4735509392499999	8.087941130093913e-24
-0.4734899040937499	7.445501473443615e-24
-0.4734288689374999	6.798747579862501e-24
-0.4733678337812499	6.145171430666323e-24
-0.4733067986249999	5.490410827201228e-24
-0.4732457634687499	4.838563993232048e-24
-0.4731847283124999	4.185332073095541e-24
-0.4731236931562499	3.5260294169670575e-24
-0.4730626579999999	2.8642107008887457e-24
-0.4730016228437499	2.2057043674083566e-24
-0.4729405876874999	1.5486705069507902e-24
-0.4728795525312499	8.872575770225726e-25
-0.4728185173749999	2.2231374333095737e-25
-0.4727574822187499	-4.398160655857377e-25
-0.4726964470624999	-1.0981812502948344e-24
-0.4726354119062499	-1.7585032114863535e-24
-0.4725743767499999	-2.4226751421763563e-24
-0.4725133415937499	-3.0850744438359334e-24
-0.4724523064374999	-3.742142954660327e-24
-0.4723912712812499	-4.398298236213803e-24
-0.4723302361249999	-5.0577608721358984e-24
-0.4722692009687499	-5.71675382135205e-24
-0.4722081658124999	-6.369854188739137e-24
-0.4721471306562499	-7.01923423671601e-24
-0.4720860954999999	-7.670430781701739e-24
-0.4720250603437499	-8.322166315379622e-24
-0.4719640251874999	-8.96826482829277e-24
-0.4719029900312499	-9.60824505529588e-24
-0.4718419548749999	-1.0247822374851901e-23
-0.4717809197187499	-1.0888440365309149e-23
-0.4717198845624999	-1.1524359392390886e-23
