Time	Frequency
-0.5000367171562488	2.39207797269729e-23
-0.49997568199999876	2.3392705102628554e-23
-0.49991464684374876	2.2860575140389623e-23
-0.49985361168749876	2.2322001080428572e-23
-0.49979257653124876	2.177494992213465e-23
-0.49973154137499876	2.1223623325023113e-23
-0.49967050621874876	2.0667428891717935e-23
-0.49960947106249876	2.010306164124696e-23
-0.49954843590624876	1.9533880352952816e-23
-0.49948740074999876	1.8961113405153876e-23
-0.49942636559374876	1.8380969585414024e-23
-0.49936533043749876	1.7795434597335008e-23
-0.49930429528124876	1.7207281319829514e-23
-0.49924326012499876	1.6612939357845408e-23
-0.49918222496874876	1.6012646668206465e-23
-0.49912118981249876	1.541023140851267e-23
-0.49906015465624876	1.4803145072594824e-23
-0.49899911949999876	1.4189839978568888e-23
-0.49893808434374876	1.3574390806424463e-23
-0.49887704918749876	1.2955864393556118e-23
-0.49881601403124876	1.2331352091310508e-23
-0.49875497887499876	1.1704320590768458e-23
-0.49869394371874876	1.1075618317833124e-23
-0.49863290856249876	1.0441674709584384e-23
-0.49857187340624876	9.804705337646356e-24
-0.49851083824999876	9.167133887877745e-24
-0.49844980309374876	8.52545365264953e-24
-0.49838876793749876	7.880204574289339e-24
-0.49832773278124876	7.234972076067715e-24
-0.49826669762499876	6.5871772566106426e-24
-0.49820566246874876	5.935574925304857e-24
-0.49814462731249876	5.2840380316379255e-24
-0.49808359215624876	4.63150636558272e-24
-0.49802255699999876	3.975419223612611e-24
-0.49796152184374876	3.319153621653604e-24
-0.49790048668749876	2.6633232402319257e-24
-0.49783945153124876	2.004655976213863e-24
-0.49777841637499876	1.3453494180863218e-24
-0.49771738121874876	6.875059036182081e-25
-0.49765634606249876	2.79228557097373e-26
-0.49759531090624876	-6.32693995134543e-25
-0.49753427574999876	-1.29118335019768e-24
-0.49747324059374876	-1.94998929099935e-24
-0.49741220543749876	-2.6099938130555866e-24
-0.49735117028124876	-3.2676932240601527e-24
-0.49729013512499876	-3.924237688719179e-24
-0.49722909996874876	-4.581723555621546e-24
-0.49716806481249876	-5.23700935886661e-24
-0.49710702965624876	-5.889840455571519e-24
-0.49704599449999876	-6.5430494559610425e-24
-0.49698495934374876	-7.194377800335768e-24
-0.49692392418749876	-7.842172299062521e-24
-0.49686288903124876	-8.48932940338291e-24
-0.49680185387499876	-9.134870630101556e-24
-0.49674081871874876	-9.77617975034828e-24
-0.49667978356249876	-1.0415655236151256e-23
-0.49661874840624876	-1.1053660388516793e-23
-0.49655771324999876	-1.168708041100275e-23
-0.49649667809374876	-1.2317332761592035e-23
-0.49643564293749876	-1.2945990623417836e-23
-0.49637460778124876	-1.357005653397393e-23
-0.49631357262499876	-1.4189706172357094e-23
-0.49625253746874876	-1.4807315215798614e-23
-0.49619150231249876	-1.5420502603369694e-23
-0.49613046715624876	-1.602816486886683e-23
-0.49606943199999876	-1.663298710206033e-23
-0.49600839684374876	-1.7233639174340218e-23
-0.49594736168749876	-1.7827982149529872e-23
-0.49588632653124876	-1.8418476454982903e-23
-0.49582529137499876	-1.900502607274185e-23
-0.49576425621874876	-1.958479812634551e-23
-0.49570322106249876	-2.01594885781214e-23
-0.49564218590624876	-2.073024206963217e-23
-0.49558115074999876	-2.1294105283305293e-23
-0.49552011559374876	-2.1851647672815406e-23
-0.49545908043749876	-2.2404975152635472e-23
-0.49539804528124876	-2.2951581841884788e-23
-0.49533701012499876	-2.349076828877564e-23
-0.49527597496874876	-2.402511354948853e-23
-0.49521493981249876	-2.4553046141261438e-23
-0.49515390465624876	-2.5072761483448016e-23
-0.49509286949999876	-2.5586729949718553e-23
-0.49503183434374876	-2.6094518539196166e-23
-0.49497079918749876	-2.6593565502966876e-23
-0.49490976403124876	-2.7085802462664623e-23
-0.49484872887499876	-2.757203820252724e-23
-0.49478769371874876	-2.804939085523604e-23
-0.49472665856249876	-2.8518752045090066e-23
-0.49466562340624876	-2.898196706011476e-23
-0.49460458824999876	-2.943646761897929e-23
-0.49454355309374876	-2.9881939305514764e-23
-0.49448251793749876	-3.032081038540672e-23
-0.49442148278124876	-3.075129220499542e-23
-0.49436044762499876	-3.117193654658432e-23
-0.49429941246874876	-3.158523830892441e-23
-0.49423837731249876	-3.199049771788421e-23
-0.49417734215624876	-3.238542147508685e-23
-0.49411630699999876	-3.2772065633435205e-23
-0.49405527184374876	-3.315092197984994e-23
-0.49399423668749876	-3.351929881637924e-23
-0.49393320153124876	-3.3878380963560574e-23
-0.49387216637499876	-3.4229690632379015e-23
-0.49381113121874876	-3.4570647946812515e-23
-0.49375009606249876	-3.490135582139167e-23
-0.49368906090624876	-3.522405839627387e-23
-0.49362802574999876	-3.55367455660303e-23
-0.49356699059374876	-3.58383874480434e-23
-0.49350595543749876	-3.6131512786570263e-23
-0.49344492028124876	-3.641506913425275e-23
-0.49338388512499876	-3.668706203403372e-23
-0.49332284996874876	-3.694978488154045e-23
-0.49326181481249876	-3.7203352420834695e-23
-0.49320077965624876	-3.7445182402532446e-23
-0.49313974449999876	-3.7676846079391646e-23
-0.49307870934374876	-3.7899580007889e-23
-0.49301767418749876	-3.8110708091668156e-23
-0.49295663903124876	-3.8310775701806543e-23
-0.49289560387499876	-3.850191900008541e-23
-0.49283456871874876	-3.868187060303726e-23
-0.49277353356249876	-3.8849985986819904e-23
-0.49271249840624876	-3.9008871870028174e-23
-0.49265146324999876	-3.9157128525539946e-23
-0.49259042809374876	-3.929302676992728e-23
-0.49252939293749876	-3.941912758426242e-23
-0.49246835778124876	-3.9535182044279574e-23
-0.49240732262499876	-3.963867447809744e-23
-0.49234628746874876	-3.973160629676514e-23
-0.49228525231249876	-3.981497690691014e-23
-0.49222421715624876	-3.9885955766750285e-23
-0.49216318199999876	-3.994552846245348e-23
-0.49210214684374876	-3.999576533328242e-23
-0.49204111168749876	-4.003409639601275e-23
-0.49198007653124876	-4.006026652416792e-23
-0.49191904137499876	-4.0077027647988094e-23
-0.49185800621874876	-4.0082590451714376e-23
-0.49179697106249876	-4.0075453610722724e-23
-0.49173593590624876	-4.0058514257130284e-23
-0.49167490074999876	-4.0031173080912053e-23
-0.49161386559374876	-3.9990941721970035e-23
-0.49155283043749876	-3.994025676643448e-23
-0.49149179528124876	-3.987987777232891e-23
-0.49143076012499876	-3.9806809639731334e-23
-0.49136972496874876	-3.97225011071337e-23
-0.49130868981249876	-3.96289709915184e-23
-0.49124765465624876	-3.952333612206388e-23
-0.49118661949999876	-3.940572456021189e-23
-0.49112558434374876	-3.927903659292031e-23
-0.49106454918749876	-3.914109331695516e-23
-0.49100351403124876	-3.899062680073702e-23
-0.49094247887499876	-3.883088405164702e-23
-0.49088144371874876	-3.866088975629691e-23
-0.49082040856249876	-3.847815374962063e-23
-0.49075937340624876	-3.828560580544095e-23
-0.49069833824999876	-3.8083784716081344e-23
-0.49063730309374876	-3.786944753302968e-23
-0.49057626793749876	-3.764453891895768e-23
-0.49051523278124876	-3.741110242318659e-23
-0.49045419762499876	-3.716584571255529e-23
-0.49039316246874876	-3.690925115732629e-23
-0.49033212731249876	-3.6644480732790674e-23
-0.49027109215624876	-3.636891982546281e-23
-0.49021005699999876	-3.6081456880831863e-23
-0.49014902184374876	-3.5785778586225447e-23
-0.49008798668749876	-3.5480540325508386e-23
-0.49002695153124876	-3.516317059144916e-23
-0.48996591637499876	-3.4837136089834927e-23
-0.48990488121874876	-3.4502781533840374e-23
-0.48984384606249876	-3.4156551638529444e-23
-0.48978281090624876	-3.380089573427421e-23
-0.48972177574999876	-3.343791721008008e-23
-0.48966074059374876	-3.306387361898604e-23
-0.48959970543749876	-3.2679609772286597e-23
-0.48953867028124876	-3.228861764420807e-23
-0.48947763512499876	-3.188779015133613e-23
-0.48941659996874876	-3.1476070240903956e-23
-0.48935556481249876	-3.105766968871742e-23
-0.48929452965624876	-3.0630964773286754e-23
-0.48923349449999876	-3.019316968428719e-23
-0.48917245934374876	-2.974823310245562e-23
-0.48911142418749876	-2.929644779938518e-23
-0.48905038903124876	-2.8833920393656237e-23
-0.48898935387499876	-2.8363501681231834e-23
-0.48892831871874876	-2.7887469962012625e-23
-0.48886728356249876	-2.7401639538886485e-23
-0.48880624840624876	-2.690701801500826e-23
-0.48874521324999876	-2.6407491472247008e-23
-0.48868417809374876	-2.5899628420771742e-23
-0.48862314293749876	-2.538230542207259e-23
-0.48856210778124876	-2.486021557146045e-23
-0.48850107262499876	-2.4331560510305424e-23
-0.48844003746874876	-2.3793202314828468e-23
-0.48837900231249876	-2.324953997952067e-23
-0.48831796715624876	-2.2701059034417895e-23
-0.48825693199999876	-2.2143413925545153e-23
-0.48819589684374876	-2.1579604411137303e-23
-0.48813486168749876	-2.101229377383268e-23
-0.48807382653124876	-2.0436955111424675e-23
-0.48801279137499876	-1.9854515577508236e-23
-0.48795175621874876	-1.9269352815026286e-23
-0.48789072106249876	-1.867788858037229e-23
-0.48782968590624876	-1.8078644165436652e-23
-0.48776865074999876	-1.7476689537720986e-23
-0.48770761559374876	-1.68703958347239e-23
-0.48764658043749876	-1.6256274600151092e-23
-0.48758554528124876	-1.5638875063765248e-23
-0.48752451012499876	-1.5018956293028977e-23
-0.48746347496874876	-1.4391866639495543e-23
-0.48740243981249876	-1.3760557152454285e-23
-0.48734140465624876	-1.312808995938091e-23
-0.48728036949999876	-1.2489843735437008e-23
-0.48721933434374876	-1.1846464574507036e-23
-0.48715829918749876	-1.12025932545417e-23
-0.48709726403124876	-1.0554815674602572e-23
-0.48703622887499876	-9.901386136180757e-24
-0.48697519371874876	-9.247414585460499e-24
-0.48691415856249876	-8.591520732231361e-24
-0.48685312340624876	-7.930061689428812e-24
-0.48679208824999876	-7.267460437839083e-24
-0.48673105309374876	-6.604725943374913e-24
-0.48667001793749876	-5.937244197161919e-24
-0.48660898278124876	-5.267753877332451e-24
-0.48654794762499876	-4.599429542808841e-24
-0.48648691246874876	-3.92786051940143e-24
-0.48642587731249876	-3.253504998877706e-24
-0.48636484215624876	-2.5808511031172203e-24
-0.48630380699999876	-1.906746218146597e-24
-0.48624277184374876	-1.2294848650576823e-24
-0.48618173668749876	-5.539006940379181e-25
-0.48612070153124876	1.2121052885576522e-25
-0.48605966637499876	7.99225673319881e-25
-0.48599863121874876	1.4760508437911519e-24
-0.48593759606249876	2.1507874985627174e-24
-0.48587656090624876	2.827617793970434e-24
-0.48581552574999876	3.5039108908633615e-24
-0.48575449059374876	4.176903350746707e-24
-0.48569345543749876	4.85069972132602e-24
-0.48563242028124876	5.5246217085909834e-24
-0.48557138512499876	6.1945896214781025e-24
-0.48551034996874876	6.863643182006951e-24
-0.48544931481249876	7.533086363769288e-24
-0.48538827965624876	8.198497185325403e-24
-0.48532724449999876	8.86129118207346e-24
-0.48526620934374876	9.524292876256917e-24
-0.48520517418749876	1.0183550435649875e-23
-0.48514413903124876	1.0838651919224773e-23
-0.48508310387499876	1.1493341268342448e-23
-0.48502206871874876	1.2144826314114825e-23
-0.48496103356249876	1.2790896181887654e-23
-0.48489999840624876	1.3435399801453125e-23
-0.48483896324999876	1.4077226519073506e-23
-0.48477792809374876	1.4712843038341505e-23
-0.48471689293749876	1.5345447646078454e-23
-0.48465585778124876	1.597582328079482e-23
-0.48459482262499876	1.6599767720139387e-23
-0.48453378746874876	1.7219031989111717e-23
-0.48447275231249876	1.7836038366117292e-23
-0.48441171715624876	1.844681401174327e-23
-0.48435068199999876	1.9051313013944622e-23
-0.48428964684374876	1.9653034355285615e-23
-0.48422861168749876	2.024905672786177e-23
-0.48416757653124876	2.083756282628698e-23
-0.48410654137499876	2.1422330970600526e-23
-0.48404550621874876	2.200203523443731e-23
-0.48398447106249876	2.2573416088543815e-23
-0.48392343590624876	2.3139641553670777e-23
-0.48386240074999876	2.370124759097062e-23
-0.48380136559374876	2.425431218001926e-23
-0.48374033043749876	2.4800663591637625e-23
-0.48367929528124876	2.5342419971820367e-23
-0.48361826012499876	2.5875847342023682e-23
-0.48355722496874876	2.6401105381502083e-23
-0.48349618981249876	2.692134486566161e-23
-0.48343515465624876	2.7433779458545064e-23
-0.48337411949999876	2.793693162820092e-23
-0.48331308434374876	2.843422363835355e-23
-0.48325204918749876	2.8924275037872743e-23
-0.48319101403124876	2.9404295328668655e-23
-0.48312997887499876	2.9877222832405186e-23
-0.48306894371874876	3.0343324263880555e-23
-0.48300790856249876	3.0799189322449803e-23
-0.48294687340624876	3.1246664912983814e-23
-0.48288583824999876	3.168742289799908e-23
-0.48282480309374876	3.2118099871908215e-23
-0.48276376793749876	3.2539127103811075e-23
-0.48270273278124876	3.295315106586592e-23
-0.48264169762499876	3.335751301121244e-23
-0.48258066246874876	3.3751222416823166e-23
-0.48251962731249876	3.4137300913986065e-23
-0.48245859215624876	3.4514239263134645e-23
-0.48239755699999876	3.487986912886206e-23
-0.48233652184374876	3.523694429578397e-23
-0.48227548668749876	3.558528879778757e-23
-0.48221445153124876	3.592202929508304e-23
-0.48215341637499876	3.62491736989788e-23
-0.48209238121874876	3.6567848956289176e-23
-0.48203134606249876	3.6874998093895644e-23
-0.48197031090624876	3.717147650908643e-23
-0.48190927574999876	3.7459431267688514e-23
-0.48184824059374876	3.77362174418578e-23
-0.48178720543749876	3.8001419353258744e-23
-0.48172617028124876	3.825774259377795e-23
-0.48166513512499876	3.8503406733326586e-23
-0.48160409996874876	3.873682405490827e-23
-0.48154306481249876	3.896074005445914e-23
-0.48148202965624876	3.917453970762199e-23
-0.48142099449999876	3.9375734013929884e-23
-0.48135995934374876	3.9566568670449144e-23
-0.48129892418749876	3.9747745315490367e-23
-0.48123788903124876	3.991637653962281e-23
-0.48117685387499876	4.007371378437614e-23
-0.48111581871874876	4.022158443760875e-23
-0.48105478356249876	4.0357282823901506e-23
-0.48099374840624876	4.0480820597438444e-23
-0.48093271324999876	4.059476322018378e-23
-0.48087167809374876	4.069713994687999e-23
-0.48081064293749876	4.07867387315523e-23
-0.48074960778124876	4.0866313285438124e-23
-0.48068857262499876	4.0934990091444354e-23
-0.48062753746874876	4.0990589377661826e-23
-0.48056650231249876	4.103550323949714e-23
-0.48050546715624876	4.107011765417971e-23
-0.48044443199999876	4.10917263210419e-23
-0.48038339684374876	4.110186587219699e-23
-0.48032236168749876	4.1102085788711103e-23
-0.48026132653124876	4.108972248367748e-23
-0.48020029137499876	4.106515871352496e-23
-0.48013925621874876	4.103075793004566e-23
-0.48007822106249876	4.0984432730922276e-23
-0.48001718590624876	4.09253699581546e-23
-0.47995615074999876	4.085626061475745e-23
-0.47989511559374876	4.0775991432826546e-23
-0.47983408043749876	4.0682740931302826e-23
-0.47977304528124876	4.057899262611418e-23
-0.47971201012499876	4.046480773200754e-23
-0.47965097496874876	4.0337739872004486e-23
-0.47958993981249876	4.019959283970147e-23
-0.47952890465624876	4.0051572517943725e-23
-0.47946786949999876	3.9891094403390897e-23
-0.47940683434374876	3.9718953472206714e-23
-0.47934579918749876	3.9537257418011567e-23
-0.47928476403124876	3.9343778856446034e-23
-0.47922372887499876	3.913817498998529e-23
-0.47916269371874876	3.892307893302994e-23
-0.47910165856249876	3.8697057413048525e-23
-0.47904062340624876	3.8458673587294877e-23
-0.47897958824999876	3.8210573703960595e-23
-0.47891855309374876	3.795242542779593e-23
-0.47885751793749876	3.76819944024498e-23
-0.47879648278124876	3.74014505031581e-23
-0.47873544762499876	3.711165842027788e-23
-0.47867441246874876	3.6810002786506406e-23
-0.47861337731249876	3.6497729586680466e-23
-0.47855234215624876	3.617677531777979e-23
-0.47849130699999876	3.584470786172042e-23
-0.47843027184374876	3.550161484434639e-23
-0.47836923668749876	3.5150131173992467e-23
-0.47830820153124876	3.478848093988254e-23
-0.47824716637499876	3.4415562315341527e-23
-0.47818613121874876	3.403424011057863e-23
-0.47812509606249876	3.36438039613305e-23
-0.47806406090624876	3.3242170586801875e-23
-0.47800302574999876	3.283188729240919e-23
-0.47794199059374876	3.241349683992647e-23
-0.47788095543749876	3.1984317731377434e-23
-0.47781992028124876	3.154606577679981e-23
-0.47775888512499876	3.1100524885100054e-23
-0.47769784996874876	3.064500817880685e-23
-0.47763681481249876	3.018004315696103e-23
-0.47757577965624876	2.970830312143458e-23
-0.47751474449999876	2.9227613481956907e-23
-0.47745370934374876	2.8737186966448285e-23
-0.47739267418749876	2.824015065522663e-23
-0.47733163903124876	2.773538806667377e-23
-0.47727060387499876	2.7220954792534967e-23
-0.47720956871874876	2.669981921124045e-23
-0.47714853356249876	2.617218300255656e-23
-0.47708749840624876	2.5635274758646936e-23
-0.47702646324999876	2.509128949319686e-23
-0.47696542809374876	2.4541823768520672e-23
-0.47690439293749876	2.3983902444160423e-23
-0.47684335778124876	2.3418506503955946e-23
-0.47678232262499876	2.284836087049337e-23
-0.47672128746874876	2.2270896970768454e-23
-0.47666025231249876	2.1685663241929994e-23
-0.47659921715624876	2.109607352676715e-23
-0.47653818199999876	2.0500547866606097e-23
-0.47647714684374876	1.9897183876602272e-23
-0.47641611168749876	1.9289421866951397e-23
-0.47635507653124876	1.867716685640948e-23
-0.47629404137499876	1.8057455028323992e-23
-0.47623300621874876	1.7433006580155428e-23
-0.47617197106249876	1.6805330017523318e-23
-0.47611093590624876	1.617103736295052e-23
-0.47604990074999876	1.553154134210001e-23
-0.47598886559374876	1.4889738036656465e-23
-0.47592783043749876	1.4242560330130517e-23
-0.47586679528124876	1.358980419146897e-23
-0.47580576012499876	1.2935267284574722e-23
-0.47574472496874876	1.227688040041574e-23
-0.47568368981249876	1.1612741028095858e-23
-0.47562265465624876	1.094684046916934e-23
-0.47556161949999876	1.0278763656826734e-23
-0.47550058434374876	9.605281249369841e-24
-0.47543954918749876	8.92967448923645e-24
-0.47537851403124876	8.253364499584334e-24
-0.47531747887499876	7.572457443799917e-24
-0.47525644371874876	6.888811100631404e-24
-0.47519540856249876	6.205600264476873e-24
-0.47513437340624876	5.519205514968439e-24
-0.47507333824999876	4.829541756827748e-24
-0.47501230309374876	4.140880166100808e-24
-0.47495126793749876	3.4507555676595484e-24
-0.47489023278124876	2.7570996009017704e-24
-0.47482919762499876	2.0644060196159995e-24
-0.47476816246874876	1.3720950470511976e-24
-0.47470712731249876	6.765922001516934e-25
-0.47464609215624876	-1.8379052462007615e-26
-0.47458505699999876	-7.1132529480118135e-25
-0.47452402184374876	-1.406624106904649e-24
-0.47446298668749876	-2.1021590963831908e-24
-0.47440195153124876	-2.794426494357697e-24
-0.47434091637499876	-3.487525952833931e-24
-0.47427988121874876	-4.181581199748835e-24
-0.47421884606249876	-4.871796095208391e-24
-0.47415781090624876	-5.560881433966349e-24
-0.47409677574999876	-6.251247355459521e-24
-0.47403574059374876	-6.937930893264653e-24
-0.47397470543749876	-7.621480172823186e-24
-0.47391367028124876	-8.306015407979526e-24
-0.47385263512499876	-8.987554932014429e-24
-0.47379159996874876	-9.66420747181462e-24
-0.47373056481249876	-1.0340793244471732e-23
-0.47366952965624876	-1.1015284112044474e-23
-0.47360849449999876	-1.1683716924631242e-23
-0.47354745934374876	-1.2350445480514492e-23
-0.47348642418749876	-1.301591556689876e-23
-0.47342538903124876	-1.3674882890398744e-23
-0.47336435387499876	-1.4330030732599313e-23
-0.47330331871874876	-1.498425117458694e-23
-0.47324228356249876	-1.5632339023821516e-23
-0.47318124840624876	-1.6274546847454228e-23
-0.47312021324999876	-1.6915429334909466e-23
-0.47305917809374876	-1.755104019463229e-23
-0.47299814293749876	-1.8179066090472445e-23
-0.47293710778124876	-1.880458604107467e-23
-0.47287607262499876	-1.9425891679326822e-23
-0.47281503746874876	-2.003864067944814e-23
-0.47275400231249876	-2.0647100393651022e-23
-0.47269296715624876	-2.1252119309695977e-23
-0.47263193199999876	-2.1848357733811472e-23
-0.47257089684374876	-2.243823862083546e-23
-0.47250986168749876	-2.3024934705441134e-23
-0.47244882653124876	-2.3603385093884103e-23
-0.47238779137499876	-2.4173539567422758e-23
-0.47232675621874876	-2.47399965340193e-23
