Time	Frequency
-0.5000287821874991	-0.480479962584673
-0.49996774703124913	-0.4775008126069696
-0.49990671187499913	-0.4743987752662284
-0.49984567671874913	-0.4711184036726867
-0.49978464156249913	-0.46772271813556165
-0.49972360640624913	-0.4642296202790141
-0.49966257124999913	-0.4605651532643266
-0.49960153609374913	-0.45676177198863266
-0.49954050093749913	-0.4528767729940853
-0.49947946578124913	-0.448842425952121
-0.49941843062499913	-0.4446467950023697
-0.49935739546874913	-0.4403699452898131
-0.49929636031249913	-0.4359757827330534
-0.49923532515624913	-0.4314088012667811
-0.49917428999999913	-0.4267442205245888
-0.49911325484374913	-0.4219938776647839
-0.49905221968749913	-0.41707738787541904
-0.49899118453124913	-0.4120372246493833
-0.49893014937499913	-0.4069315977640826
-0.49886911421874913	-0.40168442416812533
-0.49880807906249913	-0.3962880720735987
-0.49874704390624913	-0.39082788993730316
-0.49868600874999913	-0.38526282945403206
-0.49862497359374913	-0.37953671484771206
-0.49856393843749913	-0.37372895307953397
-0.49850290328124913	-0.3678509448108283
-0.49844186812499913	-0.3618212006780584
-0.49838083296874913	-0.35568236260873887
-0.49831979781249913	-0.3494933388986756
-0.49825876265624913	-0.3431808298804097
-0.49819772749999913	-0.33673539224449783
-0.49813669234374913	-0.33023882871127347
-0.49807565718749913	-0.32365618234365473
-0.49801462203124913	-0.3169335248459665
-0.49795358687499913	-0.31014156014663
-0.49789255171874913	-0.30329567810434627
-0.49783151656249913	-0.29632378243598156
-0.49777048140624913	-0.28925788054182494
-0.49770944624999913	-0.28215275575324683
-0.49764841109374913	-0.27495136812829524
-0.49758737593749913	-0.26763984357469717
-0.49752634078124913	-0.26028450951125065
-0.49746530562499913	-0.2528655959463747
-0.49740427046874913	-0.2453382471971567
-0.49734323531249913	-0.23775166107665974
-0.49728220015624913	-0.23012463954612858
-0.49722116499999913	-0.22240665781234392
-0.49716012984374913	-0.21461369626007482
-0.49709909468749913	-0.20678777295383655
-0.49703805953124913	-0.1988971110419562
-0.49697702437499913	-0.19092720438174365
-0.49691598921874913	-0.18291912985668995
-0.49685495406249913	-0.17486897678659832
-0.49679391890624913	-0.1667489262156102
-0.49673288374999913	-0.15858216268753306
-0.49667184859374913	-0.1503853862901115
-0.49661081343749913	-0.14213615778883307
-0.49654977828124913	-0.13383733959161945
-0.49648874312499913	-0.1255113082154388
-0.49642770796874913	-0.11715086224061791
-0.49636667281249913	-0.10874658019242242
-0.49630563765624913	-0.10031238247894066
-0.49624460249999913	-0.09185532551537523
-0.49618356734374913	-0.08336864781745533
-0.49612253218749913	-0.07485377414689212
-0.49606149703124913	-0.06631985768912917
-0.49600046187499913	-0.057769762095563275
-0.49593942671874913	-0.04919880514361766
-0.49587839156249913	-0.04060871613043817
-0.49581735640624913	-0.03201162803671339
-0.49575632124999913	-0.02340853208988764
-0.49569528609374913	-0.014790084938973467
-0.49563425093749913	-0.006165911203822425
-0.49557321578124913	0.0024512521411585225
-0.49551218062499913	0.011073423716714959
-0.49545114546874913	0.019701746708239837
-0.49539011031249913	0.02831441365759587
-0.49532907515624913	0.03691601896181962
-0.49526803999999913	0.04552210730428444
-0.49520700484374913	0.054112218915916825
-0.49514596968749913	0.06267494617919661
-0.49508493453124913	0.07123283903348586
-0.49502389937499913	0.07977820043244695
-0.49496286421874913	0.08828447572553652
-0.49490182906249913	0.09676883888533871
-0.49484079390624913	0.10524290363943324
-0.49477975874999913	0.11367561065774232
-0.49471872359374913	0.12206692308525917
-0.49465768843749913	0.130442792820195
-0.49459665328124913	0.13878175480844343
-0.49453561812499913	0.14706353755325163
-0.49447458296874913	0.15531555059139296
-0.49441354781249913	0.1635360625010385
-0.49435251265624913	0.1716925221082618
-0.49429147749999913	0.17979986857327354
-0.49423044234374913	0.18787570308220933
-0.49416940718749913	0.195888511495583
-0.49410837203124913	0.20383326249998057
-0.49404733687499913	0.21173815359906067
-0.49398630171874913	0.2195858185885227
-0.49392526656249913	0.22735332002070313
-0.49386423140624913	0.23506551992482122
-0.49380319624999913	0.24272428018178208
-0.49374216109374913	0.2502986778817755
-0.49368112593749913	0.2577993507222006
-0.49362009078124913	0.26524384531946504
-0.49355905562499913	0.2726062194491951
-0.49349802046874913	0.2798801726601691
-0.49343698531249913	0.2870887329088328
-0.49337595015624913	0.2942183683583947
-0.49331491499999913	0.3012499740232301
-0.49325387984374913	0.30820273202790444
-0.49319284468749913	0.3150782347604139
-0.49313180953124913	0.32185274287785276
-0.49307077437499913	0.3285339863193651
-0.49300973921874913	0.335133978690959
-0.49294870406249913	0.34163308021361516
-0.49288766890624913	0.34802749217753753
-0.49282663374999913	0.354333007275913
-0.49276559859374913	0.36053856625028924
-0.49270456343749913	0.3666321432318012
-0.49264352828124913	0.37262709033547914
-0.49258249312499913	0.3785213469204669
-0.49252145796874913	0.38429976378589037
-0.49246042281249913	0.38996961970695765
-0.49239938765624913	0.39553480990538775
-0.49233835249999913	0.40098160078937917
-0.49227731734374913	0.406312452937528
-0.49221628218749913	0.41153452064177054
-0.49215524703124913	0.4166358628834142
-0.49209421187499913	0.4216143833603933
-0.49203317671874913	0.42647931191945826
-0.49197214156249913	0.43122141011769183
-0.49191110640624913	0.43583446574002177
-0.49185007124999913	0.4403290865468144
-0.49178903609374913	0.4446996727940404
-0.49172800093749913	0.44893542889478855
-0.49166696578124913	0.4530469930046955
-0.49160593062499913	0.4570345906594223
-0.49154489546874913	0.4608832785203314
-0.49148386031249913	0.46460044989224253
-0.49142282515624913	0.4681935356825361
-0.49136178999999913	0.4716461183413475
-0.49130075484374913	0.4749590039277796
-0.49123971968749913	0.47814637201615245
-0.49117868453124913	0.48119457421088896
-0.49111764937499913	0.4840953526625497
-0.49105661421874913	0.4868665602562727
-0.49099557906249913	0.48950232058984317
-0.49093454390624913	0.4919854502300562
-0.49087350874999913	0.4943317995804407
-0.49081247359374913	0.49654671566521724
-0.49075143843749913	0.49860776347961056
-0.49069040328124913	0.5005224665111272
-0.49062936812499913	0.5023076980396302
-0.49056833296874913	0.503942810869035
-0.49050729781249913	0.5054225043457194
-0.49044626265624913	0.5067704599553443
-0.49038522749999913	0.5079751075034913
-0.49032419234374913	0.5090183656599109
-0.49026315718749913	0.509923192981375
-0.49020212203124913	0.5106921039129834
-0.49014108687499913	0.5112990510169351
-0.49008005171874913	0.5117581241897745
-0.49001901656249913	0.5120859887833736
-0.48995798140624913	0.5122565166168788
-0.48989694624999913	0.5122697864867318
-0.48983591109374913	0.5121523783586756
-0.48977487593749913	0.5118863390157883
-0.48971384078124913	0.5114564115977348
-0.48965280562499913	0.5108911083664437
-0.48959177046874913	0.5101871283037259
-0.48953073531249913	0.5093181557719126
-0.48946970015624913	0.5083057089855899
-0.48940866499999913	0.5071624666482845
-0.48934762984374913	0.5058585987446989
-0.48928659468749913	0.5044023005303607
-0.48922555953124913	0.5028193120972791
-0.48916452437499913	0.5010846980914744
-0.48910348921874913	0.49919029172298396
-0.48904245406249913	0.49716835070253046
-0.48898141890624913	0.49500655116810377
-0.48892038374999913	0.4926819297924195
-0.48885934859374913	0.4902244690698015
-0.48879831343749913	0.48763876296425934
-0.48873727828124913	0.4848926659495801
-0.48867624312499913	0.48200538925798075
-0.48861520796874913	0.4789986879687737
-0.48855417281249913	0.47584008262958094
-0.48849313765624913	0.4725319283934338
-0.48843210249999913	0.46910830566383094
-0.48837106734374913	0.4655457416937989
-0.48831003218749913	0.4618280293899229
-0.48824899703124913	0.4579932558560093
-0.48818796187499913	0.45403458910623196
-0.48812692671874913	0.4499203742246257
-0.48806589156249913	0.44568246935530065
-0.48800485640624913	0.4413345115421731
-0.48794382124999913	0.4368373352308434
-0.48788278609374913	0.4322073331073386
-0.48782175093749913	0.4274772619023778
-0.48776071578124913	0.42261104625505225
-0.48769968062499913	0.4176031948328519
-0.48763864546874913	0.4124987930053489
-0.48757761031249913	0.40727653631052513
-0.48751657515624913	0.40190800144196687
-0.48745553999999913	0.3964383525949062
-0.48739450484374913	0.3908700294244945
-0.48733346968749913	0.38515896375417424
-0.48727243453124913	0.3793374889396615
-0.48721139937499913	0.3734337935033604
-0.48715036421874913	0.367399407610208
-0.48708932906249913	0.36124248684296334
-0.48702829390624913	0.3550123738027882
-0.48696725874999913	0.3486716664013119
-0.48690622359374913	0.34219913080854686
-0.48684518843749913	0.3356529005836419
-0.48678415328124913	0.3290209929364896
-0.48672311812499913	0.3222564987931353
-0.48666208296874913	0.3154084874078312
-0.48660104781249913	0.3084976315129744
-0.48654001265624913	0.3014646230074485
-0.48647897749999913	0.2943331707540008
-0.48641794234374913	0.2871537848078142
-0.48635690718749913	0.27987336541402413
-0.48629587203124913	0.2724808430093564
-0.48623483687499913	0.2650442010889467
-0.48617380171874913	0.2575353682219594
-0.48611276656249913	0.24990893278934845
-0.48605173140624913	0.24222997261396353
-0.48599069624999913	0.2345078443684723
-0.48592966109374913	0.2266751225773424
-0.48586862593749913	0.2187725513415079
-0.48580759078124913	0.2108482447448122
-0.48574655562499913	0.20283456476284983
-0.48568552046874913	0.19473307347641475
-0.48562448531249913	0.18661858887762178
-0.48556345015624913	0.1784463783096992
-0.48550241499999913	0.17017511289237264
-0.48544137984374913	0.16188433350957548
-0.48538034468749913	0.15357111109565735
-0.48531930953124913	0.1451621102942307
-0.48525827437499913	0.13671420756360353
-0.48519723921874913	0.1282719285781951
-0.48513620406249913	0.1197544823269094
-0.48507516890624913	0.11117471884481828
-0.48501413374999913	0.10261379278392409
-0.48495309859374913	0.09401358653956604
-0.48489206343749913	0.0853349186907758
-0.48483102828124913	0.07666823648842894
-0.48476999312499913	0.068002779150149
-0.48470895796874913	0.05926032252580997
-0.48464792281249913	0.05050752613020116
-0.48458688765624913	0.04178823800444399
-0.48452585249999913	0.03301430298275808
-0.48446481734374913	0.024202793368544456
-0.48440378218749913	0.015438483258760087
-0.48434274703124913	0.006659001358123533
-0.48428171187499913	-0.002175493112012814
-0.48422067671874913	-0.010972025533636005
-0.48415964156249913	-0.019740782452037257
-0.48409860640624913	-0.028560851013329808
-0.48403757124999913	-0.03736794318503918
-0.48397653609374913	-0.04611650482933369
-0.48391550093749913	-0.05489050508115893
-0.48385446578124913	-0.0636780947487953
-0.48379343062499913	-0.07239783828495883
-0.48373239546874913	-0.08110229491830856
-0.48367136031249913	-0.08983266047729602
-0.48361032515624913	-0.09850826300408048
-0.48354928999999913	-0.10713042256649864
-0.48348825484374913	-0.11576857538525605
-0.48342721968749913	-0.12437474497698481
-0.48336618453124913	-0.13290468084207138
-0.48330514937499913	-0.14142272034398568
-0.48324411421874913	-0.1499274584991956
-0.48318307906249913	-0.15835362427688016
-0.48312204390624913	-0.16673323956462965
-0.48306100874999913	-0.17510250067501126
-0.48299997359374913	-0.1834059365295481
-0.48293893843749913	-0.19163499740723466
-0.48287790328124913	-0.1998380818421553
-0.48281686812499913	-0.20799061965211613
-0.48275583296874913	-0.21605745592521755
-0.48269479781249913	-0.22407356224139402
-0.48263376265624913	-0.23204535456384895
-0.48257272749999913	-0.23993350006794564
-0.48251169234374913	-0.2477472423525554
-0.48245065718749913	-0.2555096990580562
-0.48238962203124913	-0.26319629624480706
-0.48232858687499913	-0.27079476612202347
-0.48226755171874913	-0.27832579906119476
-0.48220651656249913	-0.28578471683040296
-0.48214548140624913	-0.2931522919578953
-0.48208444624999913	-0.30043497932012736
-0.48202341109374913	-0.3076403584898968
-0.48196237593749913	-0.3147571740604213
-0.48190134078124913	-0.32177851493099136
-0.48184030562499913	-0.3287098913613519
-0.48177927046874913	-0.33555250880095766
-0.48171823531249913	-0.3422968321474257
-0.48165720015624913	-0.3489376900389617
-0.48159616499999913	-0.3554830595841001
-0.48153512984374913	-0.36193253440754175
-0.48147409468749913	-0.3682711674045835
-0.48141305953124913	-0.3745009189750484
-0.48135202437499913	-0.3806337733082464
-0.48129098921874913	-0.38665577096101067
-0.48122995406249913	-0.39255534462870484
-0.48116891890624913	-0.39835046189754425
-0.48110788374999913	-0.40403958523025557
-0.48104684859374913	-0.40959884879542346
-0.48098581343749913	-0.4150392955230093
-0.48092477828124913	-0.4203761495837156
-0.48086374312499913	-0.4255837969577783
-0.48080270796874913	-0.4306564252698102
-0.48074167281249913	-0.4356210371218292
-0.48068063765624913	-0.4404642905748086
-0.48061960249999913	-0.4451616138415047
-0.48055856734374913	-0.44973739206285207
-0.48049753218749913	-0.45419906612947586
-0.48043649703124913	-0.45851335798924636
-0.48037546187499913	-0.46268849628341924
-0.48031442671874913	-0.4667503254444343
-0.48025339156249913	-0.47067224226352905
-0.48019235640624913	-0.47444061811408605
-0.48013132124999913	-0.4780871720929411
-0.48007028609374913	-0.48160400538261944
-0.48000925093749913	-0.48496123344279596
-0.47994821578124913	-0.48818141014254085
-0.47988718062499913	-0.49127805409398717
-0.47982614546874913	-0.49421835156920674
-0.47976511031249913	-0.49700596558223337
-0.47970407515624913	-0.49966865864194654
-0.47964303999999913	-0.5021843710326426
-0.47958200484374913	-0.5045370288887802
-0.47952096968749913	-0.5067553938338009
-0.47945993453124913	-0.5088360871856668
-0.47939889937499913	-0.5107518023321794
-0.47933786421874913	-0.5125202384443261
-0.47927682906249913	-0.5141551982929513
-0.47921579390624913	-0.5156302178398097
-0.47915475874999913	-0.5169467962333784
-0.47909372359374913	-0.5181277983071967
-0.47903268843749913	-0.5191570164717144
-0.47897165328124913	-0.5200217998129306
-0.47891061812499913	-0.520743952353884
-0.47884958296874913	-0.5213211904787256
-0.47878854781249913	-0.5217340424413361
-0.47872751265624913	-0.5219960386158154
-0.47866647749999913	-0.5221163326660938
-0.47860544234374913	-0.5220764874165197
-0.47854440718749913	-0.5218795131636471
-0.47848337203124913	-0.521540209988569
-0.47842233687499913	-0.521046340924465
-0.47836130171874913	-0.5203925479128317
-0.47830026656249913	-0.5195935829158136
-0.47823923140624913	-0.5186446600915583
-0.47817819624999913	-0.5175362967072555
-0.47811716109374913	-0.5162802869699217
-0.47805612593749913	-0.5148775345863023
-0.47799509078124913	-0.5133170439279973
-0.47793405562499913	-0.5116071525806019
-0.47787302046874913	-0.5097532219162302
-0.47781198531249913	-0.5077441733412109
-0.47775095015624913	-0.505584759614829
-0.47768991499999913	-0.503284031881788
-0.47762887984374913	-0.5008314214419151
-0.47756784468749913	-0.49822734958973647
-0.47750680953124913	-0.49548470415118695
-0.47744577437499913	-0.49259529072368174
-0.47738473921874913	-0.4895535480201992
-0.47732370406249913	-0.4863746211475673
-0.47726266890624913	-0.4830556708611638
-0.47720163374999913	-0.47958485240787413
-0.47714059859374913	-0.4759762789747546
-0.47707956343749913	-0.4722352978613381
-0.47701852828124913	-0.46834586553609214
-0.47695749312499913	-0.4643165894345939
-0.47689645796874913	-0.4601616094997233
-0.47683542281249913	-0.45586480000675644
-0.47677438765624913	-0.4514252713189387
-0.47671335249999913	-0.44686413006831643
-0.47665231734374913	-0.44217145638292293
-0.47659128218749913	-0.43733525115350563
-0.47653024703124913	-0.43237774333665163
-0.47646921187499913	-0.42730031598055274
-0.47640817671874913	-0.42208243579368115
-0.47634714156249913	-0.416740299408606
-0.47628610640624913	-0.4112885636133456
-0.47622507124999913	-0.40570446218332507
-0.47616403609374913	-0.3999920327389421
-0.47610300093749913	-0.39417674113037776
-0.47604196578124913	-0.3882421319215547
-0.47598093062499913	-0.3821774146830827
-0.47591989546874913	-0.3760109201378393
-0.47585886031249913	-0.3697390433342343
-0.47579782515624913	-0.36333987639944104
-0.47573678999999913	-0.3568370960535447
-0.47567575484374913	-0.35024265617674083
-0.47561471968749913	-0.34352913464688384
-0.47555368453124913	-0.3367073090955518
-0.47549264937499913	-0.3298031206845863
-0.47543161421874913	-0.32279370518285116
-0.47537057906249913	-0.3156732553159587
-0.47530954390624913	-0.3084740135472546
-0.47524850874999913	-0.3011856300255304
-0.47518747359374913	-0.29378825133532016
-0.47512643843749913	-0.28631178647673133
-0.47506540328124913	-0.27876179320483757
-0.47500436812499913	-0.271109626896165
-0.47494333296874913	-0.26337503259265677
-0.47488229781249913	-0.2555798337232172
-0.47482126265624913	-0.24769492538604604
-0.47476022749999913	-0.2397237173640814
-0.47469919234374913	-0.23169950919718768
-0.47463815718749913	-0.22360237379635556
-0.47457712203124913	-0.21541869882589812
-0.47451608687499913	-0.20718488191990964
-0.47445505171874913	-0.19889609520572665
-0.47439401656249913	-0.19052449205197516
-0.47433298140624913	-0.1821006552904125
-0.47427194624999913	-0.17363880699316037
-0.47421091109374913	-0.16510439444875838
-0.47414987593749913	-0.1565131797982084
-0.47408884078124913	-0.14789636631025035
-0.47402780562499913	-0.13922301144419363
-0.47396677046874913	-0.13048954817844874
-0.47390573531249913	-0.12173736998792228
-0.47384470015624913	-0.11294812212531716
-0.47378366499999913	-0.10409849295615582
-0.47372262984374913	-0.09523077431118773
-0.47366159468749913	-0.08634703662146592
-0.47360055953124913	-0.07740893850159601
-0.47353952437499913	-0.06844767293239197
-0.47347848921874913	-0.05948863538929337
-0.47341745406249913	-0.05048913664551496
-0.47335641890624913	-0.04145921306048244
-0.47329538374999913	-0.03244349808343152
-0.47323434859374913	-0.023408468625251706
-0.47317331343749913	-0.014338147503031922
-0.47311227828124913	-0.005285096523484041
-0.47305124312499913	0.0037633466826027494
-0.47299020796874913	0.01284574735402092
-0.47292917281249913	0.021914835168210228
-0.47286813765624913	0.030955488552598158
-0.47280710249999913	0.04002044133339274
-0.47274606734374913	0.049082654883256194
-0.47268503218749913	0.058098140392567214
-0.47262399703124913	0.0671171010180864
-0.47256296187499913	0.07614403615665415
-0.47250192671874913	0.08511687578580722
-0.47244089156249913	0.09406575805509922
-0.47237985640624913	0.10302767418444338
-0.47231882124999913	0.11193952312076784
-0.47225778609374913	0.12079824322957204
-0.47219675093749913	0.1296638352394003
-0.47213571578124913	0.13849196141279055
-0.47207468062499913	0.14724329174436404
-0.47201364546874913	0.1559831052813292
-0.47195261031249913	0.16470161747400758
-0.47189157515624913	0.17333107243428741
-0.47183053999999913	0.1819195809369985
-0.47176950484374913	0.19049796579399114
-0.47170846968749913	0.19898950088403156
-0.47164743453124913	0.20740676880535194
-0.47158639937499913	0.21581348322779015
-0.47152536421874913	0.2241475289169198
-0.47146432906249913	0.2323779138205138
-0.47140329390624913	0.24058265524954658
-0.47134225874999913	0.24873548167114531
-0.47128122359374913	0.2567666262493059
-0.47122018843749913	0.26474264265825687
-0.47115915328124913	0.2726856134317384
-0.47109811812499913	0.28050617036237746
-0.47103708296874913	0.28823325942440065
-0.47097604781249913	0.2959338155402946
-0.47091501265624913	0.3035288101106986
-0.47085397749999913	0.31099426918263146
-0.47079294234374913	0.3184204695331687
-0.47073190718749913	0.325768468239196
-0.47067087203124913	0.33296506743376864
-0.47060983687499913	0.34009054169996633
-0.47054880171874913	0.34716290930305765
-0.47048776656249913	0.3540835790958713
-0.47042673140624913	0.36089054506849755
