Time	Frequency
-0.5000367171562488	0.30039369792858706
-0.49997568199999876	0.29376221304391276
-0.49991464684374876	0.287079801811502
-0.49985361168749876	0.28031646653034986
-0.49979257653124876	0.27344667707232806
-0.49973154137499876	0.26652319727095825
-0.49967050621874876	0.25953858788552775
-0.49960947106249876	0.25245134544218906
-0.49954843590624876	0.2453036490069584
-0.49948740074999876	0.23811092437739406
-0.49942636559374876	0.23082556205513052
-0.49936533043749876	0.22347249821928583
-0.49930429528124876	0.21608655428287396
-0.49924326012499876	0.2086228937403539
-0.49918222496874876	0.2010845048191603
-0.49912118981249876	0.19351946096969205
-0.49906015465624876	0.18589575841945116
-0.49899911949999876	0.17819396160280532
-0.49893808434374876	0.1704652397627276
-0.49887704918749876	0.16269787437795666
-0.49881601403124876	0.15485533905867893
-0.49875497887499876	0.14698116801093752
-0.49869394371874876	0.13908601564472134
-0.49863290856249876	0.13112504334642736
-0.49857187340624876	0.12312607394460835
-0.49851083824999876	0.11511954373632598
-0.49844980309374876	0.10706141599350273
-0.49838876793749876	0.09895847123392756
-0.49832773278124876	0.09085573468533852
-0.49826669762499876	0.08272082087664427
-0.49820566246874876	0.07453809288391428
-0.49814462731249876	0.06635618664760456
-0.49808359215624876	0.05816178820327663
-0.49802255699999876	0.0499227406057789
-0.49796152184374876	0.04168145193350821
-0.49790048668749876	0.033445628697904524
-0.49783945153124876	0.02517418030026838
-0.49777841637499876	0.01689470373951224
-0.49771738121874876	0.00863359986978478
-0.49765634606249876	0.0003506511902817626
-0.49759531090624876	-0.007945279837219914
-0.49753427574999876	-0.01621449407988765
-0.49747324059374876	-0.02448768396054875
-0.49741220543749876	-0.0327759254515434
-0.49735117028124876	-0.04103521969078249
-0.49729013512499876	-0.0492800102805752
-0.49722909996874876	-0.057536622863812316
-0.49716806481249876	-0.06576560736530485
-0.49710702965624876	-0.07396376601649744
-0.49704599449999876	-0.08216667032759646
-0.49698495934374876	-0.09034595763200659
-0.49692392418749876	-0.09848086741301558
-0.49686288903124876	-0.10660777288710177
-0.49680185387499876	-0.11471438640357932
-0.49674081871874876	-0.1227678537380495
-0.49667978356249876	-0.13079829455593067
-0.49661874840624876	-0.13881027113880348
-0.49655771324999876	-0.14676466832268822
-0.49649667809374876	-0.1546792863402693
-0.49643564293749876	-0.16257388099818385
-0.49637460778124876	-0.17041081059507762
-0.49631357262499876	-0.17819228128368228
-0.49625253746874876	-0.1859481264756483
-0.49619150231249876	-0.19364844515162902
-0.49613046715624876	-0.20127938014236854
-0.49606943199999876	-0.2088746504175071
-0.49600839684374876	-0.21641755241401564
-0.49594736168749876	-0.2238812256802255
-0.49588632653124876	-0.2312965679075861
-0.49582529137499876	-0.2386623733164515
-0.49576425621874876	-0.24594306705325603
-0.49570322106249876	-0.2531599467680316
-0.49564218590624876	-0.26032738670424943
-0.49558115074999876	-0.26740829952625833
-0.49552011559374876	-0.27440983635108157
-0.49545908043749876	-0.2813584429486009
-0.49539804528124876	-0.2882226508285365
-0.49533701012499876	-0.29499367637633117
-0.49527597496874876	-0.3017039070071137
-0.49521493981249876	-0.3083336082672626
-0.49515390465624876	-0.31486011849358153
-0.49509286949999876	-0.3213144602819287
-0.49503183434374876	-0.3276911960698129
-0.49497079918749876	-0.33395815578425914
-0.49490976403124876	-0.34013959645084285
-0.49484872887499876	-0.34624567466524336
-0.49478769371874876	-0.3522402003537812
-0.49472665856249876	-0.35813437040566304
-0.49466562340624876	-0.36395135768147474
-0.49460458824999876	-0.36965891007509327
-0.49454355309374876	-0.3752530791936674
-0.49448251793749876	-0.3807643588470631
-0.49442148278124876	-0.3861702873808823
-0.49436044762499876	-0.3914526782863978
-0.49429941246874876	-0.3966428621418898
-0.49423837731249876	-0.4017320512848545
-0.49417734215624876	-0.4066914468054008
-0.49411630699999876	-0.4115468683190128
-0.49405527184374876	-0.4163044916148322
-0.49399423668749876	-0.4209305147386296
-0.49393320153124876	-0.4254398164956405
-0.49387216637499876	-0.4298515125916255
-0.49381113121874876	-0.4341332053160042
-0.49375009606249876	-0.43828618705459244
-0.49368906090624876	-0.4423386393954588
-0.49362802574999876	-0.446265319724864
-0.49356699059374876	-0.4500532949255996
-0.49350595543749876	-0.45373432060292485
-0.49344492028124876	-0.4572951802748775
-0.49338388512499876	-0.46071082783771
-0.49332284996874876	-0.4640100634225705
-0.49326181481249876	-0.46719432796881893
-0.49320077965624876	-0.4702311939615379
-0.49313974449999876	-0.47314039296599064
-0.49307870934374876	-0.47593745347986743
-0.49301767418749876	-0.4785887694715224
-0.49295663903124876	-0.4811011896322006
-0.49289560387499876	-0.4835015395731142
-0.49283456871874876	-0.4857613458200618
-0.49277353356249876	-0.4878725145356951
-0.49271249840624876	-0.48986778051574825
-0.49265146324999876	-0.4917295661891256
-0.49259042809374876	-0.49343615672001345
-0.49252939293749876	-0.4950197125389409
-0.49246835778124876	-0.4964771076909199
-0.49240732262499876	-0.4977767507316992
-0.49234628746874876	-0.4989437750922529
-0.49228525231249876	-0.4999907311767059
-0.49222421715624876	-0.5008820734500551
-0.49216318199999876	-0.5016301787610898
-0.49210214684374876	-0.5022610461313385
-0.49204111168749876	-0.5027424020825451
-0.49198007653124876	-0.5030710427732545
-0.49191904137499876	-0.5032815265460758
-0.49185800621874876	-0.5033513834320653
-0.49179697106249876	-0.5032617600133683
-0.49173593590624876	-0.5030490380567998
-0.49167490074999876	-0.5027056915135993
-0.49161386559374876	-0.5022004719169463
-0.49155283043749876	-0.5015639775636496
-0.49149179528124876	-0.5008057468736972
-0.49143076012499876	-0.4998881678147264
-0.49136972496874876	-0.4988294334355382
-0.49130868981249876	-0.49765489574830374
-0.49124765465624876	-0.49632834831014244
-0.49118661949999876	-0.4948513992981491
-0.49112558434374876	-0.4932604700971728
-0.49106454918749876	-0.4915281983550094
-0.49100351403124876	-0.4896386615699593
-0.49094247887499876	-0.48763263519188454
-0.49088144371874876	-0.48549787137607936
-0.49082040856249876	-0.4832030989891952
-0.49075937340624876	-0.4807851097078732
-0.49069833824999876	-0.4782506696083159
-0.49063730309374876	-0.47555905421135214
-0.49057626793749876	-0.47273468431002696
-0.49051523278124876	-0.4698032225016516
-0.49045419762499876	-0.4667233241417634
-0.49039316246874876	-0.4635010467664705
-0.49033212731249876	-0.4601760980049258
-0.49027109215624876	-0.4567156439184968
-0.49021005699999876	-0.45310572576613145
-0.49014902184374876	-0.44939264043497534
-0.49008798668749876	-0.4455595024297498
-0.49002695153124876	-0.44157401913393735
-0.48996591637499876	-0.4374797249382611
-0.48990488121874876	-0.4332809487009959
-0.48984384606249876	-0.4289330436672568
-0.48978281090624876	-0.4244667681742013
-0.48972177574999876	-0.41990853627725455
-0.48966074059374876	-0.41521135086784594
-0.48959970543749876	-0.4103858209642311
-0.48953867028124876	-0.40547579827454333
-0.48947763512499876	-0.4004422644938925
-0.48941659996874876	-0.3952719453062588
-0.48935556481249876	-0.39001773158408076
-0.48929452965624876	-0.3846592328673366
-0.48923349449999876	-0.3791614653522064
-0.48917245934374876	-0.3735740160012406
-0.48911142418749876	-0.367900561397833
-0.48905038903124876	-0.36209220902027484
-0.48898935387499876	-0.35618475875264805
-0.48892831871874876	-0.35020682115614493
-0.48886728356249876	-0.34410583285079743
-0.48880624840624876	-0.3378944471715383
-0.48874521324999876	-0.33162146497337375
-0.48868417809374876	-0.3252437941024738
-0.48862314293749876	-0.3187473265802427
-0.48856210778124876	-0.3121909976199663
-0.48850107262499876	-0.30555222369363244
-0.48844003746874876	-0.2987915992075037
-0.48837900231249876	-0.29196436609923543
-0.48831796715624876	-0.285076621584913
-0.48825693199999876	-0.2780737948251662
-0.48819589684374876	-0.27099355635077826
-0.48813486168749876	-0.2638693512805741
-0.48807382653124876	-0.2566443314302753
-0.48801279137499876	-0.2493301398608571
-0.48795175621874876	-0.2419817503803158
-0.48789072106249876	-0.2345542279220973
-0.48782968590624876	-0.2270290030832697
-0.48776865074999876	-0.21946974378367365
-0.48770761559374876	-0.21185599500320548
-0.48764658043749876	-0.20414394921141396
-0.48758554528124876	-0.19639073497880297
-0.48752451012499876	-0.18860588456496757
-0.48746347496874876	-0.18073098324035747
-0.48740243981249876	-0.17280308985585102
-0.48734140465624876	-0.16486065816615242
-0.48728036949999876	-0.15684565424120683
-0.48721933434374876	-0.14876619163472662
-0.48715829918749876	-0.14068054856614218
-0.48709726403124876	-0.13254585124882542
-0.48703622887499876	-0.12434017745296023
-0.48697519371874876	-0.11612769714491156
-0.48691415856249876	-0.10789107683951449
-0.48685312340624876	-0.09958456968700352
-0.48679208824999876	-0.09126371884146486
-0.48673105309374876	-0.08294119475114772
-0.48667001793749876	-0.07455905535881693
-0.48660898278124876	-0.06615169258902509
-0.48654794762499876	-0.0577589720943493
-0.48648691246874876	-0.04932550526516611
-0.48642587731249876	-0.040857046007533926
-0.48636484215624876	-0.03240995550798359
-0.48630380699999876	-0.023944643695438313
-0.48624277184374876	-0.015439693412020955
-0.48618173668749876	-0.006955804938862252
-0.48612070153124876	0.0015221443200172885
-0.48605966637499876	0.010036560606685802
-0.48599863121874876	0.01853603337177052
-0.48593759606249876	0.027009278858255673
-0.48587656090624876	0.035508815981552075
-0.48581552574999876	0.04400160704346509
-0.48575449059374876	0.05245294918238547
-0.48569345543749876	0.06091438671575044
-0.48563242028124876	0.06937740172531613
-0.48557138512499876	0.07779076203976748
-0.48551034996874876	0.08619264004932546
-0.48544931481249876	0.09459941086607677
-0.48538827965624876	0.10295554388558442
-0.48532724449999876	0.11127881519699143
-0.48526620934374876	0.11960469474280286
-0.48520517418749876	0.12788355598452483
-0.48514413903124876	0.13611022582621257
-0.48508310387499876	0.1443317201428941
-0.48502206871874876	0.15251297528082974
-0.48496103356249876	0.1606262273953358
-0.48489999840624876	0.16871981079100198
-0.48483896324999876	0.17677977803855535
-0.48477792809374876	0.1847617585118799
-0.48471689293749876	0.19270591583508273
-0.48465585778124876	0.20062208203693097
-0.48459482262499876	0.2084574862158898
-0.48453378746874876	0.21623411749107635
-0.48447275231249876	0.22398239448495805
-0.48441171715624876	0.23165242685382006
-0.48435068199999876	0.23924363804083004
-0.48428964684374876	0.24679996776381738
-0.48422861168749876	0.25428473065992047
-0.48416757653124876	0.2616751052704988
-0.48410654137499876	0.26901853919305985
-0.48404550621874876	0.27629838163575915
-0.48398447106249876	0.2834736999008693
-0.48392343590624876	0.2905842775355527
-0.48386240074999876	0.2976368450625748
-0.48380136559374876	0.3045821503157442
-0.48374033043749876	0.31144315245604887
-0.48367929528124876	0.3182464508550544
-0.48361826012499876	0.32494515474935054
-0.48355722496874876	0.3315412693679597
-0.48349618981249876	0.3380743616934953
-0.48343515465624876	0.34450944132132183
-0.48337411949999876	0.35082795361853003
-0.48331308434374876	0.35707287487883566
-0.48325204918749876	0.36322686959626665
-0.48319101403124876	0.36925489509872633
-0.48312997887499876	0.3751938504054104
-0.48306894371874876	0.3810470848822444
-0.48300790856249876	0.38677177246613687
-0.48294687340624876	0.39239110632178476
-0.48288583824999876	0.3979260814572724
-0.48282480309374876	0.4033344607108698
-0.48276376793749876	0.4086216598976629
-0.48270273278124876	0.4138209130328955
-0.48264169762499876	0.4188988319573877
-0.48258066246874876	0.4238429778259808
-0.48251962731249876	0.4286912958481006
-0.48245859215624876	0.43342483321118785
-0.48239755699999876	0.43801636027228597
-0.48233652184374876	0.4425004586609836
-0.48227548668749876	0.4468749186202436
-0.48221445153124876	0.4511036571638624
-0.48215341637499876	0.45521188935213186
-0.48209238121874876	0.4592137672204287
-0.48203134606249876	0.46307090174172183
-0.48197031090624876	0.46679403487164695
-0.48190927574999876	0.470410129152848
-0.48184824059374876	0.4738859699633559
-0.48178720543749876	0.4772163372746517
-0.48172617028124876	0.48043520751899166
-0.48166513512499876	0.4835202223123938
-0.48160409996874876	0.48645144333406526
-0.48154306481249876	0.48926334812555444
-0.48148202965624876	0.4919482132997857
-0.48142099449999876	0.4944747823482783
-0.48135995934374876	0.4968712564105383
-0.48129892418749876	0.499146446559162
-0.48123788903124876	0.5012640931234263
-0.48117685387499876	0.5032399115253673
-0.48111581871874876	0.5050968498378569
-0.48105478356249876	0.5068009305796496
-0.48099374840624876	0.5083523001023061
-0.48093271324999876	0.5097831751067498
-0.48087167809374876	0.5110688072585894
-0.48081064293749876	0.5121939758594791
-0.48074960778124876	0.5131932616175348
-0.48068857262499876	0.5140556950312268
-0.48062753746874876	0.5147539028396534
-0.48056650231249876	0.5153179246315398
-0.48050546715624876	0.5157526074532027
-0.48044443199999876	0.5160239659716163
-0.48038339684374876	0.516151296990987
-0.48032236168749876	0.5161540586708169
-0.48026132653124876	0.5159988020713212
-0.48020029137499876	0.515690333792468
-0.48013925621874876	0.5152583337206075
-0.48007822106249876	0.5146765885588358
-0.48001718590624876	0.5139348867863971
-0.47995615074999876	0.5130670216306012
-0.47989511559374876	0.5120590128338497
-0.47983408043749876	0.5108879865000034
-0.47977304528124876	0.509585130263494
-0.47971201012499876	0.5081512128502744
-0.47965097496874876	0.5065555130114784
-0.47958993981249876	0.5048206825266432
-0.47952890465624876	0.502961864698424
-0.47946786949999876	0.5009466037070448
-0.47940683434374876	0.4987848827483842
-0.47934579918749876	0.49650316993460053
-0.47928476403124876	0.4940734940945169
-0.47922372887499876	0.4914915504263122
-0.47916269371874876	0.4887904052004384
-0.47910165856249876	0.48595205958739335
-0.47904062340624876	0.48295846992343394
-0.47897958824999876	0.47984286741126275
-0.47891855309374876	0.4766010786327989
-0.47885751793749876	0.4732050448636005
-0.47879648278124876	0.4696820150835754
-0.47873544762499876	0.4660428479493759
-0.47867441246874876	0.4622547000560433
-0.47861337731249876	0.45833321830125195
-0.47855234215624876	0.4543027209344658
-0.47849130699999876	0.45013266576795574
-0.47843027184374876	0.44582415319441915
-0.47836923668749876	0.44141027201227395
-0.47830820153124876	0.43686872059041465
-0.47824716637499876	0.4321856623485466
-0.47818613121874876	0.4273970731596314
-0.47812509606249876	0.42249403237181854
-0.47806406090624876	0.41745037844568245
-0.47800302574999876	0.4122981000748416
-0.47794199059374876	0.4070440131832857
-0.47788095543749876	0.4016544439066056
-0.47781992028124876	0.39615093913951205
-0.47775888512499876	0.39055590095247666
-0.47769784996874876	0.3848355879261685
-0.47763681481249876	0.3789966243173776
-0.47757577965624876	0.3730725810650185
-0.47751474449999876	0.3670361499784589
-0.47745370934374876	0.36087744460859456
-0.47739267418749876	0.3546357343785437
-0.47733163903124876	0.3482969986733522
-0.47727060387499876	0.3418368198949071
-0.47720956871874876	0.3352924745109358
-0.47714853356249876	0.32866649518682395
-0.47708749840624876	0.32192407898312164
-0.47702646324999876	0.31509279056475387
-0.47696542809374876	0.30819267933073935
-0.47690439293749876	0.30118638389678276
-0.47684335778124876	0.2940862233163021
-0.47678232262499876	0.2869264167736866
-0.47672128746874876	0.2796747085000213
-0.47666025231249876	0.27232542783422126
-0.47659921715624876	0.2649214453211135
-0.47653818199999876	0.25744292006779995
-0.47647714684374876	0.24986596220008475
-0.47641611168749876	0.24223377463666468
-0.47635507653124876	0.23454516461679215
-0.47629404137499876	0.22676291295888532
-0.47623300621874876	0.21892117950988813
-0.47617197106249876	0.21103890786555984
-0.47611093590624876	0.20307355229392696
-0.47604990074999876	0.1950428535998842
-0.47598886559374876	0.18698318035906708
-0.47592783043749876	0.17885601616545832
-0.47586679528124876	0.17065879882655155
-0.47580576012499876	0.16243921885730078
-0.47574472496874876	0.15417129142945152
-0.47568368981249876	0.14583112508587015
-0.47562265465624876	0.13746884201517742
-0.47556161949999876	0.12907922986831136
-0.47550058434374876	0.1206217350385053
-0.47543954918749876	0.11213756289451964
-0.47537851403124876	0.10364455969577607
-0.47531747887499876	0.09509382720430593
-0.47525644371874876	0.08650869513738754
-0.47519540856249876	0.0779290321046683
-0.47513437340624876	0.06930938594777095
-0.47507333824999876	0.06064868805247643
-0.47501230309374876	0.05200057523086267
-0.47495126793749876	0.043334090169613836
-0.47489023278124876	0.03462325869493461
-0.47482919762499876	0.0259245127180555
-0.47476816246874876	0.017230571486250137
-0.47470712731249876	0.008496547157419015
-0.47464609215624876	-0.0002308014871272477
-0.47458505699999876	-0.008932720345033961
-0.47452402184374876	-0.01766418243435683
-0.47446298668749876	-0.026398610405054444
-0.47440195153124876	-0.03509200443344655
-0.47434091637499876	-0.04379584735747935
-0.47427988121874876	-0.05251169293472038
-0.47421884606249876	-0.06117931193288726
-0.47415781090624876	-0.06983274612109022
-0.47409677574999876	-0.07850226168238086
-0.47403574059374876	-0.08712553440101042
-0.47397470543749876	-0.09570944755712954
-0.47391367028124876	-0.10430574220128556
-0.47385263512499876	-0.11286441713772417
-0.47379159996874876	-0.1213617220317672
-0.47373056481249876	-0.1298581884736678
-0.47366952965624876	-0.13832834739999902
-0.47360849449999876	-0.14672243014652916
-0.47354745934374876	-0.15509511108345142
-0.47348642418749876	-0.16345198834211389
-0.47342538903124876	-0.17172720484339904
-0.47336435387499876	-0.1799544568500147
-0.47330331871874876	-0.18817006269866204
-0.47324228356249876	-0.1963086563329918
-0.47318124840624876	-0.20437340945482083
-0.47312021324999876	-0.21242151919629618
-0.47305917809374876	-0.22040342859786963
-0.47299814293749876	-0.22829008711818535
-0.47293710778124876	-0.23614527634003257
-0.47287607262499876	-0.24394754283588532
-0.47281503746874876	-0.2516423563055702
-0.47275400231249876	-0.2592833055420143
-0.47269296715624876	-0.2668810457320024
-0.47263193199999876	-0.2743685217721416
-0.47257089684374876	-0.2817761607794401
-0.47250986168749876	-0.2891438054978178
-0.47244882653124876	-0.296407901954367
-0.47238779137499876	-0.30356781950938144
-0.47232675621874876	-0.3106813043060937
-0.47226572106249876	-0.317703034667693
-0.47220468590624876	-0.32460242222901864
-0.47214365074999876	-0.3314401795809547
-0.47208261559374876	-0.3381980591326997
-0.47202158043749876	-0.34482355889921473
-0.47196054528124876	-0.35136657762353596
-0.47189951012499876	-0.35783872877393164
-0.47183847496874876	-0.36417779653073545
-0.47177743981249876	-0.37041139719663513
-0.47171640465624876	-0.37657615260804816
-0.47165536949999876	-0.3826139864671848
-0.47159433434374876	-0.3885254328079408
-0.47153329918749876	-0.39436261398892003
-0.47147226403124876	-0.400083222295358
-0.47141122887499876	-0.40566152821283946
-0.47135019371874876	-0.4111529091323444
-0.47128915856249876	-0.41653868678573125
-0.47122812340624876	-0.4217737852415332
-0.47116708824999876	-0.42690485848838705
-0.47110605309374876	-0.4319383026541494
-0.47104501793749876	-0.43681937675303845
-0.47098398278124876	-0.44157756768813156
-0.47092294762499876	-0.44624182382543753
-0.47086191246874876	-0.4507581191907267
-0.47080087731249876	-0.4551332649182801
-0.47073984215624876	-0.4594125271391252
-0.47067880699999876	-0.4635529490831893
-0.47061777184374876	-0.46753710831676115
-0.47055673668749876	-0.4714168522351205
-0.47049570153124876	-0.47516882116353687
-0.47043466637499876	-0.47875524898340294
