Time	Frequency
-0.5000003786562495	-3.082398177657662e-23
-0.49993934349999947	-3.0437589894010267e-23
-0.49987830834374947	-3.0040618406899936e-23
-0.49981727318749947	-2.964865706410047e-23
-0.49975623803124947	-2.9257753863380147e-23
-0.49969520287499947	-2.884993660096724e-23
-0.49963416771874947	-2.8419268950924804e-23
-0.49957313256249947	-2.798088975967518e-23
-0.49951209740624947	-2.75495678134746e-23
-0.49945106224999947	-2.711839483156368e-23
-0.49939002709374947	-2.66685861172375e-23
-0.49932899193749947	-2.6196729922881513e-23
-0.49926795678124947	-2.572021916819101e-23
-0.49920692162499947	-2.5252569300288145e-23
-0.49914588646874947	-2.4783927096643348e-23
-0.49908485131249947	-2.42951422907464e-23
-0.49902381615624947	-2.378554665247188e-23
-0.49896278099999947	-2.3274432961544526e-23
-0.49890174584374947	-2.2773674635965253e-23
-0.49884071068749947	-2.2270623370273802e-23
-0.49877967553124947	-2.1746212577382824e-23
-0.49871864037499947	-2.1202647397763176e-23
-0.49865760521874947	-2.0660748242417003e-23
-0.49859657006249947	-2.013034490235888e-23
-0.49853553490624947	-1.9596141094537673e-23
-0.49847449974999947	-1.9039672472357108e-23
-0.49841346459374947	-1.8466132853737754e-23
-0.49835242943749947	-1.7897412615922755e-23
-0.49829139428124947	-1.7340982247982067e-23
-0.49823035912499947	-1.677920490541766e-23
-0.49816932396874947	-1.6194681044802052e-23
-0.49810828881249947	-1.559550222499917e-23
-0.49804725365624947	-1.5004093120177313e-23
-0.49798621849999947	-1.4425352751374894e-23
-0.49792518334374947	-1.3839708087047072e-23
-0.49786414818749947	-1.3231270327023335e-23
-0.49780311303124947	-1.2610898492018125e-23
-0.49774207787499947	-1.200102589571711e-23
-0.49768104271874947	-1.1403834690762173e-23
-0.49762000756249947	-1.0798319692352185e-23
-0.49755897240624947	-1.0170514193332576e-23
-0.49749793724999947	-9.533695471013363e-24
-0.49743690209374947	-8.909678956879733e-24
-0.49737586693749947	-8.2979356273622e-24
-0.49731483178124947	-7.676643717659154e-24
-0.49725379662499947	-7.034097802379337e-24
-0.49719276146874947	-6.385591197720817e-24
-0.49713172631249947	-5.751788560563829e-24
-0.49707069115624947	-5.129567866816596e-24
-0.49700965599999947	-4.496856628251492e-24
-0.49694862084374947	-3.844387156866188e-24
-0.49688758568749947	-3.1890269528435803e-24
-0.49682655053124947	-2.54984368159125e-24
-0.49676551537499947	-1.921274419810713e-24
-0.49670448021874947	-1.2815766573236916e-24
-0.49664344506249947	-6.241127670815309e-25
-0.49658240990624947	3.3206440578966345e-26
-0.49652137474999947	6.733749278425399e-25
-0.49646033959374947	1.3040901785134923e-24
-0.49639930443749947	1.946200452681882e-24
-0.49633826928124947	2.6037196228761167e-24
-0.49627723412499947	3.2582011112571905e-24
-0.49621619896874947	3.8949806284384386e-24
-0.49615516381249947	4.5235446107010575e-24
-0.49609412865624947	5.163365534401686e-24
-0.49603309349999947	5.815950772389974e-24
-0.49597205834374947	6.462871858520803e-24
-0.49591102318749947	7.091968831177206e-24
-0.49584998803124947	7.714072963498679e-24
-0.49578895287499947	8.346882193235331e-24
-0.49572791771874947	8.989593364723567e-24
-0.49566688256249947	9.624297712620968e-24
-0.49560584740624947	1.0241435107514344e-23
-0.49554481224999947	1.0852757364286512e-23
-0.49548377709374947	1.1473872030661664e-23
-0.49542274193749947	1.2101892403736823e-23
-0.49536170678124947	1.2719856110489367e-23
-0.49530067162499947	1.332081913132344e-23
-0.49523963646874947	1.3917040146583783e-23
-0.49517860131249947	1.4521810953497284e-23
-0.49511756615624947	1.5130463906597346e-23
-0.49505653099999947	1.572735057117841e-23
-0.49499549584374947	1.63080273138317e-23
-0.49493446068749947	1.6884845827392616e-23
-0.49487342553124947	1.7468688860150374e-23
-0.49481239037499947	1.8053476293231293e-23
-0.49475135521874947	1.862516734405771e-23
-0.49469032006249947	1.918159868624237e-23
-0.49462928490624947	1.973478381804322e-23
-0.49456824974999947	2.0293190349192495e-23
-0.49450721459374947	2.0849777525383193e-23
-0.49444617943749947	2.139236230984945e-23
-0.49438514428124947	2.1920756601727673e-23
-0.49432410912499947	2.2446248206632367e-23
-0.49426307396874947	2.2974955181501842e-23
-0.49420203881249947	2.349925482142265e-23
-0.49414100365624947	2.400897662624477e-23
-0.49407996849999947	2.450564221674403e-23
-0.49401893334374947	2.499952915268706e-23
-0.49395789818749947	2.5494519373693527e-23
-0.49389686303124947	2.5982732109212975e-23
-0.49383582787499947	2.6456066545425935e-23
-0.49377479271874947	2.69174800870738e-23
-0.49371375756249947	2.737602363999865e-23
-0.49365272240624947	2.7833496957242533e-23
-0.49359168724999947	2.8282104874368406e-23
-0.49353065209374947	2.871586482817418e-23
-0.49346961693749947	2.913882253010278e-23
-0.49340858178124947	2.955854853782635e-23
-0.49334754662499947	2.997495656582973e-23
-0.49328651146874947	3.0380673196005624e-23
-0.49322547631249947	3.077183504283735e-23
-0.49316444115624947	3.11532850000346e-23
-0.49310340599999947	3.153097912725697e-23
-0.49304237084374947	3.190316655758185e-23
-0.49298133568749947	3.226313948863446e-23
-0.49292030053124947	3.260905158030341e-23
-0.49285926537499947	3.2946235270012313e-23
-0.49279823021874947	3.3278942091151677e-23
-0.49273719506249947	3.3604000060384374e-23
-0.49267615990624947	3.391562997405463e-23
-0.49261512474999947	3.4213936285087215e-23
-0.49255408959374947	3.4504423695942925e-23
-0.49249305443749947	3.4789529632902506e-23
-0.49243201928124947	3.506493058791382e-23
-0.49237098412499947	3.5326007994384395e-23
-0.49230994896874947	3.5574665395373e-23
-0.49224891381249947	3.581629677097168e-23
-0.49218787865624947	3.605152565943406e-23
-0.49212684349999947	3.6275142173586445e-23
-0.49206580834374947	3.6483840743013124e-23
-0.49200477318749947	3.668114769867148e-23
-0.49194373803124947	3.6872087908788626e-23
-0.49188270287499947	3.705550231360345e-23
-0.49182166771874947	3.72255728215886e-23
-0.49176063256249947	3.7380437682352224e-23
-0.49169959740624947	3.752504752483079e-23
-0.49163856224999947	3.766381424517438e-23
-0.49157752709374947	3.779386609361588e-23
-0.49151649193749947	3.7909066329815424e-23
-0.49145545678124947	3.8009068454996457e-23
-0.49139442162499947	3.809998664672544e-23
-0.49133338646874947	3.8185416982005876e-23
-0.49127235131249947	3.826091923646373e-23
-0.49121131615624947	3.8320312697315705e-23
-0.49115028099999947	3.83647994310772e-23
-0.49108924584374947	3.840142095198973e-23
-0.49102821068749947	3.84327735212143e-23
-0.49096717553124947	3.8452965525803077e-23
-0.49090614037499947	3.845603101461863e-23
-0.49084510521874947	3.8444750294413636e-23
-0.49078407006249947	3.842683776172182e-23
-0.49072303490624947	3.8403716600308463e-23
-0.49066199974999947	3.836820982529844e-23
-0.49060096459374947	3.831483934020053e-23
-0.49053992943749947	3.8247959641606115e-23
-0.49047889428124947	3.8175682938887104e-23
-0.49041785912499947	3.8098096731944045e-23
-0.49035682396874947	3.800692013490578e-23
-0.49029578881249947	3.7897430802730043e-23
-0.49023475365624947	3.777551882913541e-23
-0.49017371849999947	3.764940518290684e-23
-0.49011268334374947	3.751772622949455e-23
-0.49005164818749947	3.737131310394391e-23
-0.48999061303124947	3.7206435707813294e-23
-0.48992957787499947	3.7030456689670966e-23
-0.48986854271874947	3.685143054199892e-23
-0.48980750756249947	3.666643511241302e-23
-0.48974647240624947	3.646563671475151e-23
-0.48968543724999947	3.6246526805444333e-23
-0.48962440209374947	3.601782714236656e-23
-0.48956336693749947	3.5787144798478426e-23
-0.48950233178124947	3.554996892560599e-23
-0.48944129662499947	3.529605637035448e-23
-0.48938026146874947	3.50243028131691e-23
-0.48931922631249947	3.474464402745312e-23
-0.48925819115624947	3.4463945336338396e-23
-0.48919715599999947	3.41760631766979e-23
-0.48913612084374947	3.3870632218750136e-23
-0.48907508568749947	3.354818560065932e-23
-0.48901405053124947	3.3219720337744254e-23
-0.48895301537499947	3.289103312013773e-23
-0.48889198021874947	3.2554326666713756e-23
-0.48883094506249947	3.219942335135977e-23
-0.48876990990624947	3.1828643155681885e-23
-0.48870887474999947	3.145380625449606e-23
-0.48864783959374947	3.107940118811207e-23
-0.48858680443749947	3.069609010166484e-23
-0.48852576928124947	3.0294163285043286e-23
-0.48846473412499947	2.987779502662912e-23
-0.48840369896874947	2.9459399295206805e-23
-0.48834266381249947	2.904189901185046e-23
-0.48828162865624947	2.861447983332411e-23
-0.48822059349999947	2.816826241126717e-23
-0.48815955834374947	2.7709434498224754e-23
-0.48809852318749947	2.7250682206149174e-23
-0.48803748803124947	2.6793025817593833e-23
-0.48797645287499947	2.632433202205817e-23
-0.48791541771874947	2.5836942446866403e-23
-0.48785438256249947	2.533908361575402e-23
-0.48779334740624947	2.484334879888761e-23
-0.48773231224999947	2.4348649335751892e-23
-0.48767127709374947	2.3841805668769677e-23
-0.48761024193749947	2.33167523372031e-23
-0.48754920678124947	2.278367987569433e-23
-0.48748817162499947	2.2254670664968186e-23
-0.48742713646874947	2.1726354126395065e-23
-0.48736610131249947	2.1184781301099767e-23
-0.48730506615624947	2.062580535552272e-23
-0.48724403099999947	2.006151861710281e-23
-0.48718299584374947	1.9503119760416374e-23
-0.48712196068749947	1.8944810347214088e-23
-0.48706092553124947	1.8372201352360992e-23
-0.48699989037499947	1.778338547708418e-23
-0.48693885521874947	1.7192182015662194e-23
-0.48687782006249947	1.6608496458886743e-23
-0.48681678490624947	1.6024038530166596e-23
-0.48675574974999947	1.542433769151369e-23
-0.48669471459374947	1.480999382695812e-23
-0.48663367943749947	1.419633411839588e-23
-0.48657264428124947	1.3591582303764266e-23
-0.48651160912499947	1.2984977690956277e-23
-0.48645057396874947	1.2362371927066326e-23
-0.48638953881249947	1.1727072634819069e-23
-0.48632850365624947	1.1095617249756371e-23
-0.48626746849999947	1.047417026015805e-23
-0.48620643334374947	9.849585992440102e-24
-0.48614539818749947	9.208454760165634e-24
-0.48608436303124947	8.556930537123653e-24
-0.48602332787499947	7.912428228115193e-24
-0.48596229271874947	7.278724376861143e-24
-0.48590125756249947	6.640446552560381e-24
-0.48584022240624947	5.985363559340272e-24
-0.48577918724999947	5.3225444516809816e-24
-0.48571815209374947	4.669864646383212e-24
-0.48565711693749947	4.028426062476189e-24
-0.48559608178124947	3.3808548052526046e-24
-0.48553504662499947	2.7164878133580312e-24
-0.48547401146874947	2.047351139515406e-24
-0.48541297631249947	1.3914096756897241e-24
-0.48535194115624947	7.4679764062529585e-25
-0.48529090599999947	9.440369405468017e-26
-0.48522987084374947	-5.743982981017661e-25
-0.48516883568749947	-1.2447226176141278e-24
-0.48510780053124947	-1.899055847032732e-24
-0.48504676537499947	-2.5423645175858473e-24
-0.48498573021874947	-3.1950466318752587e-24
-0.48492469506249947	-3.863342425579737e-24
-0.48486365990624947	-4.529734057513627e-24
-0.48480262474999947	-5.177626725764396e-24
-0.48474158959374947	-5.815130812474693e-24
-0.48468055443749947	-6.4634887363022085e-24
-0.48461951928124947	-7.126283380304803e-24
-0.48455848412499947	-7.783663182091211e-24
-0.48449744896874947	-8.420388116423652e-24
-0.48443641381249947	-9.047664840037551e-24
-0.48437537865624947	-9.68709376281904e-24
-0.48431434349999947	-1.0339364560375819e-23
-0.48425330834374947	-1.0982694112581113e-23
-0.48419227318749947	-1.1603676847072073e-23
-0.48413123803124947	-1.2216438919329405e-23
-0.48407020287499947	-1.2842340606709875e-23
-0.48400916771874947	-1.3479052368443627e-23
-0.48394813256249947	-1.410338695230219e-23
-0.48388709740624947	-1.4704147490305072e-23
-0.48382606224999947	-1.529809295735125e-23
-0.48376502709374947	-1.5905895260914782e-23
-0.48370399193749947	-1.6522233748870567e-23
-0.48364295678124947	-1.7122956787823985e-23
-0.48358192162499947	-1.7699320340548488e-23
-0.48352088646874947	-1.8270333248371667e-23
-0.48345985131249947	-1.8855413903628533e-23
-0.48339881615624947	-1.9446394194298122e-23
-0.48333778099999947	-2.0018905316330541e-23
-0.48327674584374947	-2.056691099344327e-23
-0.48321571068749947	-2.1111088856481626e-23
-0.48315467553124947	-2.1669093168493294e-23
-0.48309364037499947	-2.2230156764188285e-23
-0.48303260521874947	-2.2770254639666825e-23
-0.48297157006249947	-2.328611148433523e-23
-0.48291053490624947	-2.3799539785940637e-23
-0.48284949974999947	-2.4326069144254396e-23
-0.48278846459374947	-2.485270987667088e-23
-0.48272742943749947	-2.535641126460741e-23
-0.48266639428124947	-2.5836651729548944e-23
-0.48260535912499947	-2.6315739221580402e-23
-0.48254432396874947	-2.680672862111145e-23
-0.48248328881249947	-2.7294829002810084e-23
-0.48242225365624947	-2.775849757380231e-23
-0.48236121849999947	-2.819982603025224e-23
-0.48230018334374947	-2.8641036222460785e-23
-0.48223914818749947	-2.909253650232897e-23
-0.48217811303124947	-2.9538229176847426e-23
-0.48211707787499947	-2.995855930108455e-23
-0.48205604271874947	-3.035800161386994e-23
-0.48199500756249947	-3.0758071292386174e-23
-0.48193397240624947	-3.1166443786830615e-23
-0.48187293724999947	-3.1566272038833743e-23
-0.48181190209374947	-3.1940335481271376e-23
-0.48175086693749947	-3.2295156083328187e-23
-0.48168983178124947	-3.2651042907138434e-23
-0.48162879662499947	-3.30129590730201e-23
-0.48156776146874947	-3.3363810586071955e-23
-0.48150672631249947	-3.368899190832972e-23
-0.48144569115624947	-3.399671593517835e-23
-0.48138465599999947	-3.430562949062856e-23
-0.48132362084374947	-3.461812568079898e-23
-0.48126258568749947	-3.4917367243994164e-23
-0.48120155053124947	-3.519146536251471e-23
-0.48114051537499947	-3.544989858107295e-23
-0.48107948021874947	-3.570933148754294e-23
-0.48101844506249947	-3.596982565996465e-23
-0.48095740990624947	-3.6215242103831177e-23
-0.48089637474999947	-3.643641091644468e-23
-0.48083533959374947	-3.6643646927002e-23
-0.48077430443749947	-3.6851409222405394e-23
-0.48071326928124947	-3.705773419584866e-23
-0.48065223412499947	-3.7247563319097106e-23
-0.48059119896874947	-3.741434933355785e-23
-0.48053016381249947	-3.7568813731007767e-23
-0.48046912865624947	-3.772306584924198e-23
-0.48040809349999947	-3.7873467427335e-23
-0.48034705834374947	-3.800638611124512e-23
-0.48028602318749947	-3.811773052408713e-23
-0.48022498803124947	-3.8218190819089444e-23
-0.48016395287499947	-3.831746800985638e-23
-0.48010291771874947	-3.841064328336486e-23
-0.48004188256249947	-3.848576702000289e-23
-0.47998084740624947	-3.854096874643543e-23
-0.47991981224999947	-3.858653955727165e-23
-0.47985877709374947	-3.862979844537389e-23
-0.47979774193749947	-3.866491799241638e-23
-0.47973670678124947	-3.868180490545564e-23
-0.47967567162499947	-3.868054227537852e-23
-0.47961463646874947	-3.867070882190056e-23
-0.47955360131249947	-3.865732119204255e-23
-0.47949256615624947	-3.86339973282682e-23
-0.47943153099999947	-3.8592635597337575e-23
-0.47937049584374947	-3.853499454030817e-23
-0.47930946068749947	-3.846964078524841e-23
-0.47924842553124947	-3.83994023033747e-23
-0.47918739037499947	-3.831769919898382e-23
-0.47912635521874947	-3.821849830977244e-23
-0.47906532006249947	-3.810493270141088e-23
-0.47900428490624947	-3.798432253703189e-23
-0.47894324974999947	-3.7857468719947095e-23
-0.47888221459374947	-3.771791471297468e-23
-0.47882117943749947	-3.756171991615643e-23
-0.47876014428124947	-3.739308698738695e-23
-0.47869910912499947	-3.7217894592299553e-23
-0.47863807396874947	-3.703510619941605e-23
-0.47857703881249947	-3.68386785482074e-23
-0.47851600365624947	-3.662673514527425e-23
-0.47845496849999947	-3.6404247327526653e-23
-0.47839393334374947	-3.61755071549064e-23
-0.47833289818749947	-3.593785858766889e-23
-0.47827186303124947	-3.5685954284986763e-23
-0.47821082787499947	-3.541993649130553e-23
-0.47814979271874947	-3.514523901784312e-23
-0.47808875756249947	-3.486444073178561e-23
-0.47802772240624947	-3.4573491966615077e-23
-0.47796668724999947	-3.4267964961278414e-23
-0.47790565209374947	-3.3949895048223903e-23
-0.47784461693749947	-3.3624891549104317e-23
-0.47778358178124947	-3.329380387853248e-23
-0.47772254662499947	-3.2951476530913476e-23
-0.47766151146874947	-3.259459927641009e-23
-0.47760047631249947	-3.22269460537978e-23
-0.47753944115624947	-3.185400730743941e-23
-0.47747840599999947	-3.147486904411443e-23
-0.47741737084374947	-3.108353364843248e-23
-0.47735633568749947	-3.0677967802167684e-23
-0.47729530053124947	-3.026348259184821e-23
-0.47723426537499947	-2.9845187127112074e-23
-0.47717323021874947	-2.9420489439099444e-23
-0.47711219506249947	-2.89828658863263e-23
-0.47705115990624947	-2.8531660297307127e-23
-0.47699012474999947	-2.807350320847351e-23
-0.47692908959374947	-2.761289974868274e-23
-0.47686805443749947	-2.714561246153519e-23
-0.47680701928124947	-2.6664812643687544e-23
-0.47674598412499947	-2.6171317716592428e-23
-0.47668494896874947	-2.567287285647299e-23
-0.47662391381249947	-2.5173159690237824e-23
-0.47656287865624947	-2.466642994763877e-23
-0.47650184349999947	-2.4145883118496007e-23
-0.47644080834374947	-2.3613879369787958e-23
-0.47637977318749947	-2.3078987452221426e-23
-0.47631873803124947	-2.254379528638266e-23
-0.47625770287499947	-2.2001137570226346e-23
-0.47619666771874947	-2.1444543399172263e-23
-0.47613563256249947	-2.0877979160928768e-23
-0.47607459740624947	-2.0310588383494174e-23
-0.47601356224999947	-1.9743704447241116e-23
-0.47595252709374947	-1.9168913647347912e-23
-0.47589149193749947	-1.8580329158616698e-23
-0.47583045678124947	-1.7983520150982745e-23
-0.47576942162499947	-1.7387931851246737e-23
-0.47570838646874947	-1.6793445252067294e-23
-0.47564735131249947	-1.6190557249266182e-23
-0.47558631615624947	-1.5574252643678505e-23
-0.47552528099999947	-1.495167476988793e-23
-0.47546424584374947	-1.4332272848510997e-23
-0.47540321068749947	-1.371437732862947e-23
-0.47534217553124947	-1.3087652411066582e-23
-0.47528114037499947	-1.244819713334872e-23
-0.47522010521874947	-1.1804617884567582e-23
-0.47515907006249947	-1.1166054464476084e-23
-0.47509803490624947	-1.0529178017748629e-23
-0.47503699974999947	-9.883041502248768e-24
-0.47497596459374947	-9.225123779341749e-24
-0.47491492943749947	-8.565453190589884e-24
-0.47485389428124947	-7.912534595392328e-24
-0.47479285912499947	-7.261212993948219e-24
-0.47473182396874947	-6.600190656995733e-24
-0.47467078881249947	-5.9286302309528776e-24
-0.47460975365624947	-5.2578677331587956e-24
-0.47454871849999947	-4.5954608558352715e-24
-0.47448768334374947	-3.9344202024851035e-24
-0.47442664818749947	-3.2633603130204937e-24
-0.47436561303124947	-2.5832202426501848e-24
-0.47430457787499947	-1.90641983852326e-24
-0.47424354271874947	-1.2393423941538787e-24
-0.47418250756249947	-5.7324520963900095e-25
-0.47412147240624947	1.0302123750390922e-25
-0.47406043724999947	7.865635592558175e-25
-0.47399940209374947	1.464138423938521e-24
-0.47393836693749947	2.130953577715912e-24
-0.47387733178124947	2.7974716764655316e-24
-0.47381629662499947	3.47413336653342e-24
-0.47375526146874947	4.1558724600412094e-24
-0.47369422631249947	4.828953288414226e-24
-0.47363319115624947	5.4905367050685395e-24
-0.47357215599999947	6.152705617617897e-24
-0.47351112084374947	6.824834927646276e-24
-0.47345008568749947	7.499605899453639e-24
-0.47338905053124947	8.163097919619785e-24
-0.47332801537499947	8.814660018244066e-24
-0.47326698021874947	9.467778339478434e-24
-0.47320594506249947	1.013038065544386e-23
-0.47314490990624947	1.0792920920856169e-23
-0.47308387474999947	1.1441715122115637e-23
-0.47302283959374947	1.207853338592665e-23
-0.47296180443749947	1.2717999193856911e-23
-0.47290076928124947	1.3366194554327923e-23
-0.47283973412499947	1.4011354668330764e-23
-0.47277869896874947	1.4640446601230405e-23
-0.47271766381249947	1.5257898298331138e-23
-0.47265662865624947	1.5879179576745736e-23
-0.47259559349999947	1.650814453571854e-23
-0.47253455834374947	1.7130908042603985e-23
-0.47247352318749947	1.773550971472351e-23
-0.47241248803124947	1.8329148341925753e-23
-0.47235145287499947	1.8927772479472754e-23
